Data from Ni(NO3)2@0.125M.TitratingCurve.Agarose3%dH2O.NegLispCup.LampEnergy10.LIBS07252019_HRD10591_18-09-34-574.txt Node
Date: Thu Jul 25 18:09:34 EDT 2019
User: cochatt
Spectrometer: HR+D1059
Trigger mode: 1
Integration Time (sec): 1.000000E-1
Scans to average: 1
Electric dark correction enabled: true
Nonlinearity correction enabled: false
Boxcar width: 0
XAxis mode: Wavelengths
Number of Pixels in Spectrum: 2048
>>>>>Begin Spectral Data<<<<<
223.165	-16.25
223.4	-16.25
223.635	-16.25
223.869	-25.25
224.104	-20.25
224.338	-11.25
224.573	-10.25
224.808	-8.25
225.042	-1.25
225.277	-6.25
225.511	-12.25
225.746	-4.25
225.98	2.75
226.215	6.75
226.449	20.75
226.683	19.75
226.918	19.75
227.152	45.75
227.387	46.75
227.621	57.75
227.856	50.75
228.09	50.75
228.324	43.75
228.559	56.75
228.793	61.75
229.027	119.75
229.262	114.75
229.496	122.75
229.73	123.75
229.964	134.75
230.199	136.75
230.433	150.75
230.667	140.75
230.901	128.75
231.136	119.75
231.37	129.75
231.604	126.75
231.838	150.75
232.072	141.75
232.306	135.75
232.541	156.75
232.775	136.75
233.009	138.75
233.243	153.75
233.477	153.75
233.711	147.75
233.945	145.75
234.179	152.75
234.413	142.75
234.647	147.75
234.881	163.75
235.115	162.75
235.349	159.75
235.583	150.75
235.817	143.75
236.051	142.75
236.285	153.75
236.519	162.75
236.753	151.75
236.987	173.75
237.221	154.75
237.455	149.75
237.689	154.75
237.922	147.75
238.156	166.75
238.39	169.75
238.624	150.75
238.858	174.75
239.091	165.75
239.325	174.75
239.559	158.75
239.793	187.75
240.027	185.75
240.26	174.75
240.494	171.75
240.728	182.75
240.961	173.75
241.195	177.75
241.429	172.75
241.662	172.75
241.896	179.75
242.13	207.75
242.363	181.75
242.597	209.75
242.83	197.75
243.064	190.75
243.298	212.75
243.531	188.75
243.765	189.75
243.998	213.75
244.232	208.75
244.465	202.75
244.699	205.75
244.932	206.75
245.166	199.75
245.399	212.75
245.633	215.75
245.866	217.75
246.099	213.75
246.333	216.75
246.566	225.75
246.8	229.75
247.033	230.75
247.266	225.75
247.5	226.75
247.733	205.75
247.966	241.75
248.2	247.75
248.433	235.75
248.666	239.75
248.899	227.75
249.133	238.75
249.366	214.75
249.599	233.75
249.832	250.75
250.066	228.75
250.299	245.75
250.532	245.75
250.765	255.75
250.998	245.75
251.231	253.75
251.465	260.75
251.698	252.75
251.931	246.75
252.164	265.75
252.397	259.75
252.63	276.75
252.863	258.75
253.096	271.75
253.329	276.75
253.562	265.75
253.795	271.75
254.028	285.75
254.261	285.75
254.494	263.75
254.727	270.75
254.96	261.75
255.193	278.75
255.426	290.75
255.659	276.75
255.892	291.75
256.124	293.75
256.357	288.75
256.59	293.75
256.823	297.75
257.056	292.75
257.289	268.75
257.521	285.75
257.754	287.75
257.987	289.75
258.22	292.75
258.452	302.75
258.685	313.75
258.918	291.75
259.151	321.75
259.383	312.75
259.616	311.75
259.849	309.75
260.081	301.75
260.314	294.75
260.547	301.75
260.779	308.75
261.012	317.75
261.244	304.75
261.477	302.75
261.71	299.75
261.942	316.75
262.175	317.75
262.407	329.75
262.64	334.75
262.872	332.75
263.105	322.75
263.337	341.75
263.57	318.75
263.802	333.75
264.035	332.75
264.267	321.75
264.499	354.75
264.732	329.75
264.964	354.75
265.197	346.75
265.429	343.75
265.661	335.75
265.894	369.75
266.126	337.75
266.358	360.75
266.591	362.75
266.823	364.75
267.055	346.75
267.287	338.75
267.52	356.75
267.752	382.75
267.984	364.75
268.216	333.75
268.448	365.75
268.681	362.75
268.913	375.75
269.145	366.75
269.377	365.75
269.609	370.75
269.841	366.75
270.073	397.75
270.306	383.75
270.538	361.75
270.77	352.75
271.002	392.75
271.234	369.75
271.466	375.75
271.698	380.75
271.93	380.75
272.162	382.75
272.394	386.75
272.626	377.75
272.858	383.75
273.09	396.75
273.322	387.75
273.553	383.75
273.785	394.75
274.017	382.75
274.249	395.75
274.481	388.75
274.713	395.75
274.945	397.75
275.176	400.75
275.408	424.75
275.64	406.75
275.872	409.75
276.104	400.75
276.335	399.75
276.567	418.75
276.799	410.75
277.031	415.75
277.262	415.75
277.494	430.75
277.726	396.75
277.957	412.75
278.189	426.75
278.421	434.75
278.652	424.75
278.884	437.75
279.115	439.75
279.347	431.75
279.579	425.75
279.81	427.75
280.042	426.75
280.273	437.75
280.505	445.75
280.736	423.75
280.968	451.75
281.199	469.75
281.431	445.75
281.662	443.75
281.894	435.75
282.125	448.75
282.356	455.75
282.588	440.75
282.819	450.75
283.051	469.75
283.282	463.75
283.513	462.75
283.745	452.75
283.976	461.75
284.207	482.75
284.439	469.75
284.67	476.75
284.901	459.75
285.132	478.75
285.364	467.75
285.595	473.75
285.826	479.75
286.057	458.75
286.288	487.75
286.52	474.75
286.751	497.75
286.982	511.75
287.213	500.75
287.444	501.75
287.675	514.75
287.906	491.75
288.138	495.75
288.369	508.75
288.6	476.75
288.831	490.75
289.062	500.75
289.293	503.75
289.524	498.75
289.755	498.75
289.986	490.75
290.217	521.75
290.448	489.75
290.679	498.75
290.91	509.75
291.141	503.75
291.371	523.75
291.602	495.75
291.833	492.75
292.064	513.75
292.295	499.75
292.526	508.75
292.757	520.75
292.987	502.75
293.218	476.75
293.449	506.75
293.68	515.75
293.91	506.75
294.141	525.75
294.372	534.75
294.603	525.75
294.833	526.75
295.064	515.75
295.295	532.75
295.525	501.75
295.756	524.75
295.987	507.75
296.217	544.75
296.448	533.75
296.679	530.75
296.909	517.75
297.14	529.75
297.37	556.75
297.601	549.75
297.831	538.75
298.062	571.75
298.292	581.75
298.523	552.75
298.753	542.75
298.984	559.75
299.214	558.75
299.445	560.75
299.675	561.75
299.905	571.75
300.136	556.75
300.366	569.75
300.597	577.75
300.827	577.75
301.057	560.75
301.288	580.75
301.518	589.75
301.748	569.75
301.979	581.75
302.209	592.75
302.439	572.75
302.669	562.75
302.9	526.75
303.13	556.75
303.36	568.75
303.59	569.75
303.82	566.75
304.051	576.75
304.281	573.75
304.511	547.75
304.741	572.75
304.971	591.75
305.201	572.75
305.431	598.75
305.661	580.75
305.891	548.75
306.121	562.75
306.352	566.75
306.582	567.75
306.812	557.75
307.042	567.75
307.272	554.75
307.502	577.75
307.731	585.75
307.961	558.75
308.191	561.75
308.421	567.75
308.651	538.75
308.881	572.75
309.111	557.75
309.341	567.75
309.571	574.75
309.8	550.75
310.03	556.75
310.26	610.75
310.49	573.75
310.72	583.75
310.949	569.75
311.179	567.75
311.409	549.75
311.639	588.75
311.868	590.75
312.098	579.75
312.328	589.75
312.557	575.75
312.787	587.75
313.017	593.75
313.246	599.75
313.476	596.75
313.706	588.75
313.935	628.75
314.165	605.75
314.394	630.75
314.624	615.75
314.853	603.75
315.083	609.75
315.312	612.75
315.542	600.75
315.771	590.75
316.001	593.75
316.23	585.75
316.46	589.75
316.689	608.75
316.919	603.75
317.148	599.75
317.377	597.75
317.607	579.75
317.836	572.75
318.065	589.75
318.295	590.75
318.524	609.75
318.753	580.75
318.983	601.75
319.212	584.75
319.441	575.75
319.67	589.75
319.9	597.75
320.129	601.75
320.358	586.75
320.587	610.75
320.816	586.75
321.046	632.75
321.275	600.75
321.504	579.75
321.733	610.75
321.962	590.75
322.191	602.75
322.42	615.75
322.649	594.75
322.878	608.75
323.108	607.75
323.337	595.75
323.566	622.75
323.795	636.75
324.024	602.75
324.253	618.75
324.482	606.75
324.71	610.75
324.939	612.75
325.168	625.75
325.397	603.75
325.626	622.75
325.855	646.75
326.084	651.75
326.313	647.75
326.542	655.75
326.77	652.75
326.999	673.75
327.228	631.75
327.457	654.75
327.686	667.75
327.914	665.75
328.143	658.75
328.372	634.75
328.6	646.75
328.829	672.75
329.058	651.75
329.287	676.75
329.515	660.75
329.744	665.75
329.972	679.75
330.201	675.75
330.43	661.75
330.658	693.75
330.887	678.75
331.115	686.75
331.344	696.75
331.572	725.75
331.801	735.75
332.03	753.75
332.258	742.75
332.486	770.75
332.715	793.75
332.943	804.75
333.172	856.75
333.4	865.75
333.629	935.75
333.857	937.75
334.085	887.75
334.314	894.75
334.542	872.75
334.771	840.75
334.999	822.75
335.227	835.75
335.455	825.75
335.684	838.75
335.912	815.75
336.14	803.75
336.369	811.75
336.597	816.75
336.825	806.75
337.053	773.75
337.281	783.75
337.51	792.75
337.738	791.75
337.966	729.75
338.194	733.75
338.422	723.75
338.65	737.75
338.878	734.75
339.106	727.75
339.334	746.75
339.562	718.75
339.79	700.75
340.018	694.75
340.246	692.75
340.474	673.75
340.702	685.75
340.93	703.75
341.158	725.75
341.386	703.75
341.614	718.75
341.842	714.75
342.07	699.75
342.298	703.75
342.526	689.75
342.754	658.75
342.981	683.75
343.209	695.75
343.437	759.75
343.665	795.75
343.893	873.75
344.12	881.75
344.348	845.75
344.576	797.75
344.804	779.75
345.031	730.75
345.259	728.75
345.487	689.75
345.714	697.75
345.942	699.75
346.17	715.75
346.397	715.75
346.625	683.75
346.853	679.75
347.08	700.75
347.308	695.75
347.535	691.75
347.763	689.75
347.99	687.75
348.218	701.75
348.445	670.75
348.673	685.75
348.9	681.75
349.128	685.75
349.355	675.75
349.583	678.75
349.81	668.75
350.037	664.75
350.265	666.75
350.492	655.75
350.72	663.75
350.947	638.75
351.174	643.75
351.402	676.75
351.629	671.75
351.856	650.75
352.083	635.75
352.311	641.75
352.538	663.75
352.765	688.75
352.992	647.75
353.22	645.75
353.447	642.75
353.674	638.75
353.901	647.75
354.128	639.75
354.355	650.75
354.583	635.75
354.81	649.75
355.037	659.75
355.264	635.75
355.491	641.75
355.718	656.75
355.945	664.75
356.172	644.75
356.399	657.75
356.626	668.75
356.853	673.75
357.08	665.75
357.307	650.75
357.534	667.75
357.761	656.75
357.988	655.75
358.215	656.75
358.441	650.75
358.668	639.75
358.895	658.75
359.122	645.75
359.349	636.75
359.576	623.75
359.802	648.75
360.029	646.75
360.256	647.75
360.483	625.75
360.709	664.75
360.936	669.75
361.163	639.75
361.39	636.75
361.616	674.75
361.843	657.75
362.07	666.75
362.296	655.75
362.523	655.75
362.749	649.75
362.976	641.75
363.203	658.75
363.429	659.75
363.656	648.75
363.882	627.75
364.109	667.75
364.335	639.75
364.562	625.75
364.788	639.75
365.015	628.75
365.241	629.75
365.468	635.75
365.694	646.75
365.92	651.75
366.147	640.75
366.373	623.75
366.599	639.75
366.826	653.75
367.052	634.75
367.278	661.75
367.505	639.75
367.731	641.75
367.957	677.75
368.184	654.75
368.41	655.75
368.636	666.75
368.862	668.75
369.089	650.75
369.315	651.75
369.541	643.75
369.767	670.75
369.993	675.75
370.219	669.75
370.445	659.75
370.672	692.75
370.898	678.75
371.124	678.75
371.35	689.75
371.576	694.75
371.802	690.75
372.028	666.75
372.254	699.75
372.48	716.75
372.706	741.75
372.932	737.75
373.158	747.75
373.384	730.75
373.61	689.75
373.835	699.75
374.061	726.75
374.287	736.75
374.513	737.75
374.739	758.75
374.965	781.75
375.191	800.75
375.416	794.75
375.642	746.75
375.868	731.75
376.094	715.75
376.319	724.75
376.545	693.75
376.771	684.75
376.997	702.75
377.222	699.75
377.448	689.75
377.674	703.75
377.899	698.75
378.125	710.75
378.35	681.75
378.576	667.75
378.802	683.75
379.027	691.75
379.253	692.75
379.478	711.75
379.704	683.75
379.929	696.75
380.155	697.75
380.38	703.75
380.606	717.75
380.831	696.75
381.057	700.75
381.282	693.75
381.507	699.75
381.733	702.75
381.958	699.75
382.184	701.75
382.409	711.75
382.634	719.75
382.86	737.75
383.085	749.75
383.31	768.75
383.535	761.75
383.761	777.75
383.986	785.75
384.211	798.75
384.436	831.75
384.662	845.75
384.887	853.75
385.112	859.75
385.337	876.75
385.562	861.75
385.787	897.75
386.013	873.75
386.238	860.75
386.463	869.75
386.688	868.75
386.913	864.75
387.138	839.75
387.363	819.75
387.588	844.75
387.813	826.75
388.038	830.75
388.263	828.75
388.488	832.75
388.713	835.75
388.938	835.75
389.163	810.75
389.387	824.75
389.612	796.75
389.837	806.75
390.062	783.75
390.287	809.75
390.512	812.75
390.736	829.75
390.961	854.75
391.186	899.75
391.411	889.75
391.636	899.75
391.86	907.75
392.085	962.75
392.31	952.75
392.534	951.75
392.759	919.75
392.984	882.75
393.208	870.75
393.433	893.75
393.658	889.75
393.882	876.75
394.107	897.75
394.331	905.75
394.556	922.75
394.78	882.75
395.005	918.75
395.229	906.75
395.454	925.75
395.678	947.75
395.903	929.75
396.127	932.75
396.352	892.75
396.576	862.75
396.801	866.75
397.025	899.75
397.249	894.75
397.474	908.75
397.698	925.75
397.922	953.75
398.147	940.75
398.371	961.75
398.595	975.75
398.82	1013.75
399.044	1091.75
399.268	1207.75
399.492	1387.75
399.717	1647.75
399.941	1640.75
400.165	1439.75
400.389	1260.75
400.613	1139.75
400.837	1089.75
401.062	1065.75
401.286	1056.75
401.51	1026.75
401.734	1054.75
401.958	1032.75
402.182	1070.75
402.406	1075.75
402.63	1109.75
402.854	1097.75
403.078	1136.75
403.302	1144.75
403.526	1192.75
403.75	1219.75
403.974	1250.75
404.198	1232.75
404.422	1249.75
404.645	1239.75
404.869	1176.75
405.093	1224.75
405.317	1196.75
405.541	1190.75
405.765	1175.75
405.988	1127.75
406.212	1130.75
406.436	1132.75
406.66	1148.75
406.883	1174.75
407.107	1273.75
407.331	1331.75
407.555	1363.75
407.778	1387.75
408.002	1347.75
408.226	1275.75
408.449	1293.75
408.673	1226.75
408.896	1195.75
409.12	1189.75
409.344	1213.75
409.567	1192.75
409.791	1210.75
410.014	1230.75
410.238	1181.75
410.461	1191.75
410.685	1165.75
410.908	1157.75
411.132	1148.75
411.355	1107.75
411.578	1079.75
411.802	1073.75
412.025	1100.75
412.249	1109.75
412.472	1159.75
412.695	1063.75
412.919	1043.75
413.142	1051.75
413.365	1041.75
413.589	1057.75
413.812	1044.75
414.035	1054.75
414.258	1079.75
414.482	1084.75
414.705	1032.75
414.928	1071.75
415.151	1053.75
415.374	1046.75
415.597	1093.75
415.821	1051.75
416.044	1027.75
416.267	1025.75
416.49	1006.75
416.713	1047.75
416.936	1009.75
417.159	1045.75
417.382	1057.75
417.605	1053.75
417.828	1037.75
418.051	1049.75
418.274	1087.75
418.497	1035.75
418.72	1074.75
418.943	1090.75
419.166	1155.75
419.389	1231.75
419.611	1207.75
419.834	1142.75
420.057	1095.75
420.28	1085.75
420.503	1044.75
420.726	1045.75
420.948	1030.75
421.171	1029.75
421.394	1043.75
421.617	1068.75
421.839	1095.75
422.062	1090.75
422.285	1059.75
422.507	1070.75
422.73	1100.75
422.953	1045.75
423.175	1134.75
423.398	1134.75
423.621	1126.75
423.843	1149.75
424.066	1115.75
424.288	1121.75
424.511	1131.75
424.733	1113.75
424.956	1092.75
425.178	1101.75
425.401	1063.75
425.623	1075.75
425.846	1033.75
426.068	1027.75
426.291	990.75
426.513	1023.75
426.735	965.75
426.958	981.75
427.18	959.75
427.402	946.75
427.625	938.75
427.847	930.75
428.069	950.75
428.292	949.75
428.514	903.75
428.736	942.75
428.958	961.75
429.181	912.75
429.403	927.75
429.625	903.75
429.847	902.75
430.069	924.75
430.292	931.75
430.514	911.75
430.736	922.75
430.958	923.75
431.18	914.75
431.402	902.75
431.624	905.75
431.846	939.75
432.068	969.75
432.29	981.75
432.512	959.75
432.734	959.75
432.956	939.75
433.178	962.75
433.4	964.75
433.622	997.75
433.844	975.75
434.066	977.75
434.287	981.75
434.509	1028.75
434.731	1067.75
434.953	1097.75
435.175	1085.75
435.397	1090.75
435.618	1011.75
435.84	986.75
436.062	968.75
436.284	960.75
436.505	978.75
436.727	956.75
436.949	945.75
437.17	973.75
437.392	947.75
437.614	907.75
437.835	894.75
438.057	898.75
438.278	920.75
438.5	897.75
438.721	919.75
438.943	895.75
439.165	917.75
439.386	951.75
439.608	941.75
439.829	948.75
440.05	954.75
440.272	958.75
440.493	947.75
440.715	970.75
440.936	997.75
441.158	996.75
441.379	1009.75
441.6	1107.75
441.822	1066.75
442.043	1102.75
442.264	1057.75
442.486	1063.75
442.707	1060.75
442.928	1038.75
443.149	1039.75
443.371	1053.75
443.592	1105.75
443.813	1094.75
444.034	1117.75
444.255	1103.75
444.476	1171.75
444.698	1249.75
444.919	1334.75
445.14	1404.75
445.361	1223.75
445.582	1102.75
445.803	1070.75
446.024	1027.75
446.245	1009.75
446.466	1003.75
446.687	936.75
446.908	961.75
447.129	935.75
447.35	914.75
447.571	938.75
447.792	872.75
448.013	891.75
448.234	901.75
448.455	905.75
448.675	872.75
448.896	892.75
449.117	889.75
449.338	890.75
449.559	863.75
449.779	870.75
450	865.75
450.221	876.75
450.442	863.75
450.662	896.75
450.883	897.75
451.104	933.75
451.324	907.75
451.545	866.75
451.766	908.75
451.986	874.75
452.207	855.75
452.428	877.75
452.648	878.75
452.869	868.75
453.089	889.75
453.31	872.75
453.53	859.75
453.751	849.75
453.971	854.75
454.192	862.75
454.412	857.75
454.633	843.75
454.853	841.75
455.073	805.75
455.294	837.75
455.514	829.75
455.734	850.75
455.955	811.75
456.175	806.75
456.395	791.75
456.616	825.75
456.836	838.75
457.056	793.75
457.276	801.75
457.497	800.75
457.717	827.75
457.937	819.75
458.157	838.75
458.377	854.75
458.598	874.75
458.818	837.75
459.038	890.75
459.258	938.75
459.478	970.75
459.698	1049.75
459.918	1034.75
460.138	1088.75
460.358	1142.75
460.578	1153.75
460.798	1164.75
461.018	1149.75
461.238	1138.75
461.458	1147.75
461.678	1111.75
461.898	1126.75
462.118	1102.75
462.338	1192.75
462.558	1260.75
462.777	1281.75
462.997	1406.75
463.217	1561.75
463.437	1622.75
463.657	1434.75
463.876	1345.75
464.096	1319.75
464.316	1353.75
464.536	1361.75
464.755	1302.75
464.975	1242.75
465.195	1207.75
465.414	1117.75
465.634	1054.75
465.854	1028.75
466.073	977.75
466.293	973.75
466.512	947.75
466.732	915.75
466.951	933.75
467.171	920.75
467.391	913.75
467.61	930.75
467.829	900.75
468.049	883.75
468.268	889.75
468.488	852.75
468.707	868.75
468.927	887.75
469.146	854.75
469.365	895.75
469.585	929.75
469.804	904.75
470.023	946.75
470.243	923.75
470.462	979.75
470.681	978.75
470.901	971.75
471.12	921.75
471.339	908.75
471.558	913.75
471.777	917.75
471.997	897.75
472.216	875.75
472.435	851.75
472.654	858.75
472.873	831.75
473.092	845.75
473.311	860.75
473.53	867.75
473.749	855.75
473.968	854.75
474.187	842.75
474.406	854.75
474.625	891.75
474.844	873.75
475.063	864.75
475.282	887.75
475.501	868.75
475.72	851.75
475.939	889.75
476.158	850.75
476.377	876.75
476.596	885.75
476.814	894.75
477.033	906.75
477.252	944.75
477.471	969.75
477.69	962.75
477.908	962.75
478.127	1004.75
478.346	1057.75
478.564	1052.75
478.783	1054.75
479.002	1102.75
479.22	1107.75
479.439	1124.75
479.658	1102.75
479.876	1094.75
480.095	1085.75
480.313	1146.75
480.532	1201.75
480.751	1161.75
480.969	1119.75
481.188	1057.75
481.406	1023.75
481.624	1013.75
481.843	994.75
482.061	993.75
482.28	982.75
482.498	997.75
482.717	977.75
482.935	986.75
483.153	1002.75
483.372	1003.75
483.59	1029.75
483.808	997.75
484.027	975.75
484.245	995.75
484.463	998.75
484.681	1045.75
484.9	1001.75
485.118	1036.75
485.336	1030.75
485.554	1038.75
485.772	1079.75
485.99	1080.75
486.209	1050.75
486.427	1055.75
486.645	1086.75
486.863	1051.75
487.081	1047.75
487.299	1033.75
487.517	1051.75
487.735	1066.75
487.953	1038.75
488.171	1031.75
488.389	1031.75
488.607	1021.75
488.825	1042.75
489.043	998.75
489.261	1020.75
489.479	1033.75
489.696	1029.75
489.914	1061.75
490.132	1020.75
490.35	1035.75
490.568	1039.75
490.786	1068.75
491.003	1067.75
491.221	1070.75
491.439	1068.75
491.657	1028.75
491.874	1062.75
492.092	1068.75
492.31	1085.75
492.527	1076.75
492.745	1063.75
492.963	1102.75
493.18	1070.75
493.398	1059.75
493.615	1068.75
493.833	1107.75
494.05	1086.75
494.268	1093.75
494.485	1097.75
494.703	1109.75
494.92	1139.75
495.138	1118.75
495.355	1099.75
495.573	1101.75
495.79	1116.75
496.008	1117.75
496.225	1082.75
496.442	1124.75
496.66	1126.75
496.877	1138.75
497.094	1139.75
497.312	1184.75
497.529	1236.75
497.746	1245.75
497.963	1261.75
498.181	1293.75
498.398	1348.75
498.615	1472.75
498.832	1517.75
499.049	1649.75
499.267	1814.75
499.484	1991.75
499.701	2156.75
499.918	2408.75
500.135	2857.75
500.352	3305.75
500.569	3495.75
500.786	3493.75
501.003	3183.75
501.22	2822.75
501.437	2427.75
501.654	2127.75
501.871	1925.75
502.088	1756.75
502.305	1631.75
502.522	1539.75
502.739	1511.75
502.956	1420.75
503.172	1375.75
503.389	1291.75
503.606	1240.75
503.823	1209.75
504.04	1217.75
504.256	1257.75
504.473	1287.75
504.69	1308.75
504.907	1291.75
505.123	1225.75
505.34	1131.75
505.557	1085.75
505.773	1058.75
505.99	1047.75
506.207	1021.75
506.423	1018.75
506.64	992.75
506.856	981.75
507.073	973.75
507.289	1001.75
507.506	935.75
507.722	952.75
507.939	923.75
508.155	923.75
508.372	930.75
508.588	947.75
508.805	914.75
509.021	905.75
509.238	921.75
509.454	889.75
509.67	900.75
509.887	882.75
510.103	916.75
510.319	879.75
510.536	898.75
510.752	885.75
510.968	885.75
511.184	873.75
511.401	875.75
511.617	881.75
511.833	864.75
512.049	866.75
512.265	871.75
512.481	889.75
512.698	877.75
512.914	883.75
513.13	865.75
513.346	892.75
513.562	848.75
513.778	893.75
513.994	867.75
514.21	894.75
514.426	909.75
514.642	883.75
514.858	891.75
515.074	895.75
515.29	903.75
515.506	907.75
515.721	952.75
515.937	928.75
516.153	944.75
516.369	973.75
516.585	1029.75
516.801	1060.75
517.016	1075.75
517.232	1143.75
517.448	1220.75
517.664	1253.75
517.879	1269.75
518.095	1254.75
518.311	1220.75
518.527	1131.75
518.742	1137.75
518.958	1035.75
519.173	1014.75
519.389	1027.75
519.605	970.75
519.82	996.75
520.036	947.75
520.251	919.75
520.467	917.75
520.682	882.75
520.898	874.75
521.113	899.75
521.329	869.75
521.544	893.75
521.76	867.75
521.975	853.75
522.19	847.75
522.406	796.75
522.621	829.75
522.836	866.75
523.052	829.75
523.267	839.75
523.482	813.75
523.698	825.75
523.913	830.75
524.128	835.75
524.343	827.75
524.559	798.75
524.774	796.75
524.989	814.75
525.204	817.75
525.419	821.75
525.634	801.75
525.849	826.75
526.064	789.75
526.28	793.75
526.495	795.75
526.71	794.75
526.925	797.75
527.14	810.75
527.355	764.75
527.57	783.75
527.785	818.75
527.999	789.75
528.214	808.75
528.429	790.75
528.644	786.75
528.859	793.75
529.074	808.75
529.289	835.75
529.503	827.75
529.718	810.75
529.933	810.75
530.148	794.75
530.363	833.75
530.577	809.75
530.792	823.75
531.007	811.75
531.221	798.75
531.436	791.75
531.651	814.75
531.865	791.75
532.08	823.75
532.295	819.75
532.509	808.75
532.724	807.75
532.938	795.75
533.153	837.75
533.367	797.75
533.582	776.75
533.796	824.75
534.011	806.75
534.225	811.75
534.44	802.75
534.654	781.75
534.868	783.75
535.083	776.75
535.297	761.75
535.511	766.75
535.726	787.75
535.94	758.75
536.154	749.75
536.369	746.75
536.583	753.75
536.797	742.75
537.011	758.75
537.225	731.75
537.44	747.75
537.654	729.75
537.868	720.75
538.082	724.75
538.296	736.75
538.51	759.75
538.724	731.75
538.938	750.75
539.153	738.75
539.367	726.75
539.581	717.75
539.795	707.75
540.009	742.75
540.222	729.75
540.436	739.75
540.65	733.75
540.864	720.75
541.078	746.75
541.292	731.75
541.506	730.75
541.72	719.75
541.934	733.75
542.147	723.75
542.361	743.75
542.575	729.75
542.789	713.75
543.002	702.75
543.216	702.75
543.43	697.75
543.644	715.75
543.857	691.75
544.071	717.75
544.285	717.75
544.498	717.75
544.712	713.75
544.925	724.75
545.139	726.75
545.352	724.75
545.566	741.75
545.779	761.75
545.993	741.75
546.206	759.75
546.42	747.75
546.633	739.75
546.847	741.75
547.06	730.75
547.274	735.75
547.487	729.75
547.7	738.75
547.914	730.75
548.127	758.75
548.34	776.75
548.554	754.75
548.767	739.75
548.98	744.75
549.193	746.75
549.407	767.75
549.62	771.75
549.833	784.75
550.046	762.75
550.259	743.75
550.473	749.75
550.686	734.75
550.899	743.75
551.112	716.75
551.325	715.75
551.538	707.75
551.751	722.75
551.964	730.75
552.177	750.75
552.39	745.75
552.603	748.75
552.816	770.75
553.029	820.75
553.242	820.75
553.455	810.75
553.667	821.75
553.88	827.75
554.093	772.75
554.306	747.75
554.519	791.75
554.732	750.75
554.944	718.75
555.157	729.75
555.37	695.75
555.583	687.75
555.795	706.75
556.008	667.75
556.221	652.75
556.433	657.75
556.646	645.75
556.859	661.75
557.071	649.75
557.284	639.75
557.496	638.75
557.709	609.75
557.921	641.75
558.134	617.75
558.346	631.75
558.559	613.75
558.771	641.75
558.984	598.75
559.196	627.75
559.409	631.75
559.621	626.75
559.833	624.75
560.046	606.75
560.258	587.75
560.47	597.75
560.683	607.75
560.895	580.75
561.107	589.75
561.32	607.75
561.532	620.75
561.744	632.75
561.956	637.75
562.168	633.75
562.381	609.75
562.593	603.75
562.805	611.75
563.017	598.75
563.229	582.75
563.441	611.75
563.653	640.75
563.865	629.75
564.077	623.75
564.289	620.75
564.501	636.75
564.713	638.75
564.925	654.75
565.137	663.75
565.349	672.75
565.561	703.75
565.773	717.75
565.985	734.75
566.197	795.75
566.408	840.75
566.62	929.75
566.832	1004.75
567.044	1037.75
567.255	994.75
567.467	1029.75
567.679	1101.75
567.891	1220.75
568.102	1262.75
568.314	1189.75
568.526	1057.75
568.737	931.75
568.949	874.75
569.161	767.75
569.372	719.75
569.584	689.75
569.795	677.75
570.007	648.75
570.218	621.75
570.43	627.75
570.641	613.75
570.853	631.75
571.064	653.75
571.276	653.75
571.487	639.75
571.698	600.75
571.91	581.75
572.121	575.75
572.333	574.75
572.544	532.75
572.755	540.75
572.966	532.75
573.178	537.75
573.389	524.75
573.6	511.75
573.811	525.75
574.023	517.75
574.234	522.75
574.445	503.75
574.656	492.75
574.867	504.75
575.078	505.75
575.289	491.75
575.501	482.75
575.712	464.75
575.923	495.75
576.134	480.75
576.345	489.75
576.556	489.75
576.767	479.75
576.978	479.75
577.188	477.75
577.399	482.75
577.61	476.75
577.821	465.75
578.032	449.75
578.243	445.75
578.454	453.75
578.665	449.75
578.875	453.75
579.086	446.75
579.297	419.75
579.508	439.75
579.718	437.75
579.929	446.75
580.14	441.75
580.35	428.75
580.561	428.75
580.772	444.75
580.982	441.75
581.193	437.75
581.403	426.75
581.614	430.75
581.825	419.75
582.035	419.75
582.246	429.75
582.456	438.75
582.667	432.75
582.877	417.75
583.087	429.75
583.298	432.75
583.508	429.75
583.719	427.75
583.929	427.75
584.139	427.75
584.35	403.75
584.56	431.75
584.77	408.75
584.981	409.75
585.191	418.75
585.401	402.75
585.611	424.75
585.821	413.75
586.032	417.75
586.242	419.75
586.452	426.75
586.662	403.75
586.872	382.75
587.082	375.75
587.292	408.75
587.502	406.75
587.713	400.75
587.923	411.75
588.133	403.75
588.343	398.75
588.553	400.75
588.762	405.75
588.972	393.75
589.182	390.75
589.392	395.75
589.602	395.75
589.812	382.75
590.022	420.75
590.232	403.75
590.441	423.75
590.651	425.75
590.861	416.75
591.071	431.75
591.281	425.75
591.49	416.75
591.7	426.75
591.91	419.75
592.119	428.75
592.329	441.75
592.539	461.75
592.748	499.75
592.958	480.75
593.167	486.75
593.377	535.75
593.587	559.75
593.796	530.75
594.006	534.75
594.215	539.75
594.424	535.75
594.634	519.75
594.843	521.75
595.053	466.75
595.262	460.75
595.472	449.75
595.681	427.75
595.89	426.75
596.1	399.75
596.309	376.75
596.518	382.75
596.727	378.75
596.937	374.75
597.146	388.75
597.355	378.75
597.564	370.75
597.774	372.75
597.983	375.75
598.192	366.75
598.401	380.75
598.61	365.75
598.819	351.75
599.028	353.75
599.237	354.75
599.446	338.75
599.655	354.75
599.864	354.75
600.073	351.75
600.282	336.75
600.491	363.75
600.7	354.75
600.909	340.75
601.118	332.75
601.327	343.75
601.536	345.75
601.745	349.75
601.953	351.75
602.162	345.75
602.371	337.75
602.58	352.75
602.789	328.75
602.997	341.75
603.206	316.75
603.415	328.75
603.623	340.75
603.832	336.75
604.041	331.75
604.249	319.75
604.458	330.75
604.666	324.75
604.875	332.75
605.084	310.75
605.292	321.75
605.501	334.75
605.709	333.75
605.918	327.75
606.126	335.75
606.334	307.75
606.543	310.75
606.751	331.75
606.96	332.75
607.168	333.75
607.376	305.75
607.585	329.75
607.793	327.75
608.001	339.75
608.21	306.75
608.418	309.75
608.626	332.75
608.834	322.75
609.043	322.75
609.251	318.75
609.459	307.75
609.667	317.75
609.875	328.75
610.083	307.75
610.291	288.75
610.499	300.75
610.707	310.75
610.916	303.75
611.124	326.75
611.332	322.75
611.54	318.75
611.748	323.75
611.955	317.75
612.163	292.75
612.371	328.75
612.579	305.75
612.787	294.75
612.995	302.75
613.203	301.75
613.411	280.75
613.618	305.75
613.826	298.75
614.034	303.75
614.242	298.75
614.449	282.75
614.657	308.75
614.865	310.75
615.072	301.75
615.28	315.75
615.488	309.75
615.695	314.75
615.903	309.75
616.111	323.75
616.318	292.75
616.526	309.75
616.733	310.75
616.941	303.75
617.148	301.75
617.356	283.75
617.563	305.75
617.771	302.75
617.978	316.75
618.185	296.75
618.393	312.75
618.6	295.75
618.807	297.75
619.015	313.75
619.222	293.75
619.429	302.75
619.637	281.75
619.844	291.75
620.051	293.75
620.258	293.75
620.466	286.75
620.673	265.75
620.88	270.75
621.087	279.75
621.294	265.75
621.501	285.75
621.708	273.75
621.915	291.75
622.122	273.75
622.329	290.75
622.536	263.75
622.743	273.75
622.95	282.75
623.157	271.75
623.364	272.75
623.571	264.75
623.778	289.75
623.985	255.75
624.192	261.75
624.399	261.75
624.606	267.75
624.812	268.75
625.019	253.75
625.226	259.75
625.433	263.75
625.639	249.75
625.846	253.75
626.053	249.75
626.259	248.75
626.466	252.75
626.673	235.75
626.879	253.75
627.086	230.75
627.293	247.75
627.499	245.75
627.706	262.75
627.912	244.75
628.119	247.75
628.325	250.75
628.532	241.75
628.738	247.75
628.945	242.75
629.151	245.75
629.357	230.75
629.564	246.75
629.77	235.75
629.976	245.75
630.183	234.75
630.389	229.75
630.595	234.75
630.802	236.75
631.008	251.75
631.214	217.75
631.42	223.75
631.627	222.75
631.833	227.75
632.039	215.75
632.245	235.75
632.451	231.75
632.657	233.75
632.863	204.75
633.069	218.75
633.275	227.75
633.481	213.75
633.688	218.75
633.893	220.75
634.099	218.75
634.305	219.75
634.511	213.75
634.717	217.75
634.923	229.75
635.129	219.75
635.335	220.75
635.541	221.75
635.747	228.75
635.952	214.75
636.158	229.75
636.364	227.75
636.57	220.75
636.775	209.75
636.981	219.75
637.187	207.75
637.392	218.75
637.598	207.75
637.804	213.75
638.009	206.75
638.215	211.75
638.421	177.75
638.626	220.75
638.832	223.75
639.037	199.75
639.243	225.75
639.448	203.75
639.654	198.75
639.859	194.75
640.065	180.75
640.27	188.75
640.475	194.75
640.681	207.75
640.886	201.75
641.091	207.75
641.297	224.75
641.502	191.75
641.707	197.75
641.913	207.75
642.118	186.75
642.323	192.75
642.528	207.75
642.733	204.75
642.939	199.75
643.144	207.75
643.349	212.75
643.554	216.75
643.759	191.75
643.964	199.75
644.169	199.75
644.374	203.75
644.579	184.75
644.784	185.75
644.989	197.75
645.194	212.75
645.399	210.75
645.604	201.75
645.809	191.75
646.014	201.75
646.219	199.75
646.423	199.75
646.628	206.75
646.833	197.75
647.038	191.75
647.243	203.75
647.447	197.75
647.652	203.75
647.857	193.75
648.062	206.75
648.266	202.75
648.471	223.75
648.676	213.75
648.88	207.75
649.085	199.75
649.289	202.75
649.494	201.75
649.698	195.75
649.903	198.75
650.107	182.75
650.312	175.75
650.516	187.75
650.721	198.75
650.925	183.75
651.13	181.75
651.334	183.75
651.539	188.75
651.743	166.75
651.947	182.75
652.152	168.75
652.356	164.75
652.56	162.75
652.764	182.75
652.969	185.75
653.173	156.75
653.377	176.75
653.581	163.75
653.785	176.75
653.99	155.75
654.194	155.75
654.398	141.75
654.602	168.75
654.806	153.75
655.01	158.75
655.214	149.75
655.418	149.75
655.622	148.75
655.826	156.75
656.03	151.75
656.234	158.75
656.438	151.75
656.642	156.75
656.846	147.75
657.049	130.75
657.253	129.75
657.457	127.75
657.661	138.75
657.865	129.75
658.068	108.75
658.272	123.75
658.476	106.75
658.68	115.75
658.883	127.75
659.087	110.75
659.291	114.75
659.494	112.75
659.698	122.75
659.901	96.75
660.105	108.75
660.309	99.75
660.512	100.75
660.716	109.75
660.919	102.75
661.123	106.75
661.326	105.75
661.53	104.75
661.733	90.75
661.936	106.75
662.14	97.75
662.343	102.75
662.546	81.75
662.75	83.75
662.953	86.75
663.156	88.75
663.36	85.75
663.563	85.75
663.766	82.75
663.969	101.75
664.173	91.75
664.376	87.75
664.579	74.75
664.782	70.75
664.985	79.75
665.188	84.75
665.391	82.75
665.594	95.75
665.797	95.75
666	82.75
666.203	91.75
666.406	85.75
666.609	80.75
666.812	97.75
667.015	78.75
667.218	74.75
667.421	67.75
667.624	92.75
667.827	90.75
668.03	80.75
668.232	99.75
668.435	101.75
668.638	81.75
668.841	92.75
669.043	74.75
669.246	72.75
669.449	85.75
669.651	83.75
669.854	83.75
670.057	86.75
670.259	89.75
670.462	80.75
670.665	65.75
670.867	75.75
671.07	88.75
671.272	98.75
671.475	87.75
671.677	88.75
671.88	76.75
672.082	76.75
672.284	78.75
672.487	90.75
672.689	87.75
672.892	72.75
