Data from Ni(NO3)2@0.5M.TitratingCurve.Agarose3%dH2O.NegLispCup.LampEnergy10.LIBS07252019_HRD10591_17-58-32-563.txt Node
Date: Thu Jul 25 17:58:32 EDT 2019
User: cochatt
Spectrometer: HR+D1059
Trigger mode: 1
Integration Time (sec): 1.000000E-1
Scans to average: 1
Electric dark correction enabled: true
Nonlinearity correction enabled: false
Boxcar width: 0
XAxis mode: Wavelengths
Number of Pixels in Spectrum: 2048
>>>>>Begin Spectral Data<<<<<
223.165	-5.12
223.4	-5.12
223.635	-5.12
223.869	-21.12
224.104	-18.12
224.338	-19.12
224.573	-19.12
224.808	-3.12
225.042	-6.12
225.277	2.88
225.511	9.88
225.746	-3.12
225.98	-11.12
226.215	8.88
226.449	10.88
226.683	18.88
226.918	22.88
227.152	31.88
227.387	21.88
227.621	42.88
227.856	44.88
228.09	42.88
228.324	49.88
228.559	46.88
228.793	76.88
229.027	109.88
229.262	117.88
229.496	121.88
229.73	124.88
229.964	134.88
230.199	163.88
230.433	159.88
230.667	153.88
230.901	146.88
231.136	137.88
231.37	149.88
231.604	154.88
231.838	174.88
232.072	166.88
232.306	150.88
232.541	161.88
232.775	131.88
233.009	127.88
233.243	153.88
233.477	137.88
233.711	163.88
233.945	161.88
234.179	153.88
234.413	146.88
234.647	156.88
234.881	155.88
235.115	134.88
235.349	156.88
235.583	133.88
235.817	150.88
236.051	155.88
236.285	141.88
236.519	144.88
236.753	130.88
236.987	133.88
237.221	155.88
237.455	141.88
237.689	156.88
237.922	139.88
238.156	148.88
238.39	151.88
238.624	131.88
238.858	134.88
239.091	143.88
239.325	161.88
239.559	165.88
239.793	190.88
240.027	189.88
240.26	164.88
240.494	158.88
240.728	164.88
240.961	162.88
241.195	156.88
241.429	161.88
241.662	168.88
241.896	188.88
242.13	202.88
242.363	198.88
242.597	167.88
242.83	172.88
243.064	170.88
243.298	174.88
243.531	171.88
243.765	179.88
243.998	189.88
244.232	195.88
244.465	189.88
244.699	191.88
244.932	196.88
245.166	187.88
245.399	177.88
245.633	190.88
245.866	185.88
246.099	186.88
246.333	204.88
246.566	213.88
246.8	204.88
247.033	171.88
247.266	200.88
247.5	191.88
247.733	200.88
247.966	203.88
248.2	201.88
248.433	187.88
248.666	191.88
248.899	215.88
249.133	210.88
249.366	214.88
249.599	220.88
249.832	205.88
250.066	228.88
250.299	222.88
250.532	216.88
250.765	215.88
250.998	215.88
251.231	245.88
251.465	269.88
251.698	241.88
251.931	245.88
252.164	217.88
252.397	246.88
252.63	238.88
252.863	233.88
253.096	227.88
253.329	239.88
253.562	226.88
253.795	232.88
254.028	228.88
254.261	235.88
254.494	237.88
254.727	254.88
254.96	241.88
255.193	245.88
255.426	242.88
255.659	237.88
255.892	247.88
256.124	260.88
256.357	273.88
256.59	265.88
256.823	266.88
257.056	269.88
257.289	271.88
257.521	290.88
257.754	267.88
257.987	265.88
258.22	258.88
258.452	273.88
258.685	279.88
258.918	260.88
259.151	275.88
259.383	289.88
259.616	269.88
259.849	270.88
260.081	262.88
260.314	279.88
260.547	267.88
260.779	298.88
261.012	285.88
261.244	286.88
261.477	303.88
261.71	304.88
261.942	285.88
262.175	281.88
262.407	275.88
262.64	295.88
262.872	276.88
263.105	316.88
263.337	284.88
263.57	293.88
263.802	306.88
264.035	292.88
264.267	300.88
264.499	309.88
264.732	303.88
264.964	296.88
265.197	302.88
265.429	327.88
265.661	319.88
265.894	325.88
266.126	310.88
266.358	329.88
266.591	300.88
266.823	318.88
267.055	321.88
267.287	309.88
267.52	329.88
267.752	325.88
267.984	302.88
268.216	307.88
268.448	318.88
268.681	329.88
268.913	328.88
269.145	338.88
269.377	335.88
269.609	328.88
269.841	354.88
270.073	309.88
270.306	345.88
270.538	341.88
270.77	333.88
271.002	335.88
271.234	356.88
271.466	357.88
271.698	333.88
271.93	336.88
272.162	351.88
272.394	345.88
272.626	340.88
272.858	335.88
273.09	345.88
273.322	375.88
273.553	357.88
273.785	347.88
274.017	353.88
274.249	349.88
274.481	362.88
274.713	355.88
274.945	377.88
275.176	359.88
275.408	374.88
275.64	374.88
275.872	343.88
276.104	372.88
276.335	366.88
276.567	373.88
276.799	364.88
277.031	383.88
277.262	375.88
277.494	382.88
277.726	382.88
277.957	375.88
278.189	383.88
278.421	396.88
278.652	388.88
278.884	365.88
279.115	368.88
279.347	386.88
279.579	382.88
279.81	400.88
280.042	397.88
280.273	401.88
280.505	400.88
280.736	403.88
280.968	394.88
281.199	395.88
281.431	394.88
281.662	409.88
281.894	389.88
282.125	405.88
282.356	415.88
282.588	401.88
282.819	419.88
283.051	403.88
283.282	412.88
283.513	418.88
283.745	413.88
283.976	405.88
284.207	434.88
284.439	427.88
284.67	435.88
284.901	422.88
285.132	415.88
285.364	429.88
285.595	425.88
285.826	420.88
286.057	427.88
286.288	415.88
286.52	420.88
286.751	442.88
286.982	434.88
287.213	427.88
287.444	451.88
287.675	439.88
287.906	422.88
288.138	438.88
288.369	412.88
288.6	434.88
288.831	444.88
289.062	428.88
289.293	436.88
289.524	441.88
289.755	405.88
289.986	456.88
290.217	435.88
290.448	428.88
290.679	453.88
290.91	442.88
291.141	437.88
291.371	428.88
291.602	438.88
291.833	453.88
292.064	431.88
292.295	434.88
292.526	445.88
292.757	429.88
292.987	468.88
293.218	418.88
293.449	444.88
293.68	448.88
293.91	454.88
294.141	466.88
294.372	457.88
294.603	448.88
294.833	468.88
295.064	463.88
295.295	470.88
295.525	452.88
295.756	451.88
295.987	456.88
296.217	471.88
296.448	467.88
296.679	462.88
296.909	450.88
297.14	459.88
297.37	468.88
297.601	490.88
297.831	479.88
298.062	492.88
298.292	486.88
298.523	475.88
298.753	481.88
298.984	484.88
299.214	482.88
299.445	483.88
299.675	481.88
299.905	492.88
300.136	504.88
300.366	522.88
300.597	532.88
300.827	513.88
301.057	493.88
301.288	507.88
301.518	517.88
301.748	511.88
301.979	517.88
302.209	515.88
302.439	514.88
302.669	519.88
302.9	488.88
303.13	488.88
303.36	512.88
303.59	534.88
303.82	512.88
304.051	525.88
304.281	527.88
304.511	525.88
304.741	546.88
304.971	556.88
305.201	561.88
305.431	552.88
305.661	551.88
305.891	545.88
306.121	539.88
306.352	529.88
306.582	524.88
306.812	519.88
307.042	525.88
307.272	513.88
307.502	499.88
307.731	527.88
307.961	533.88
308.191	527.88
308.421	510.88
308.651	530.88
308.881	515.88
309.111	526.88
309.341	525.88
309.571	509.88
309.8	559.88
310.03	553.88
310.26	569.88
310.49	568.88
310.72	548.88
310.949	537.88
311.179	555.88
311.409	522.88
311.639	527.88
311.868	548.88
312.098	571.88
312.328	569.88
312.557	554.88
312.787	567.88
313.017	553.88
313.246	559.88
313.476	582.88
313.706	565.88
313.935	571.88
314.165	569.88
314.394	566.88
314.624	577.88
314.853	538.88
315.083	570.88
315.312	560.88
315.542	572.88
315.771	563.88
316.001	570.88
316.23	591.88
316.46	586.88
316.689	582.88
316.919	575.88
317.148	593.88
317.377	595.88
317.607	562.88
317.836	555.88
318.065	589.88
318.295	573.88
318.524	562.88
318.753	578.88
318.983	590.88
319.212	569.88
319.441	588.88
319.67	600.88
319.9	606.88
320.129	601.88
320.358	605.88
320.587	605.88
320.816	605.88
321.046	576.88
321.275	598.88
321.504	619.88
321.733	614.88
321.962	617.88
322.191	601.88
322.42	596.88
322.649	605.88
322.878	595.88
323.108	620.88
323.337	619.88
323.566	629.88
323.795	613.88
324.024	611.88
324.253	629.88
324.482	632.88
324.71	627.88
324.939	643.88
325.168	630.88
325.397	610.88
325.626	637.88
325.855	635.88
326.084	657.88
326.313	649.88
326.542	642.88
326.77	644.88
326.999	667.88
327.228	659.88
327.457	640.88
327.686	647.88
327.914	662.88
328.143	651.88
328.372	651.88
328.6	686.88
328.829	641.88
329.058	658.88
329.287	643.88
329.515	679.88
329.744	664.88
329.972	672.88
330.201	666.88
330.43	683.88
330.658	692.88
330.887	676.88
331.115	673.88
331.344	690.88
331.572	700.88
331.801	696.88
332.03	702.88
332.258	718.88
332.486	704.88
332.715	705.88
332.943	734.88
333.172	725.88
333.4	741.88
333.629	746.88
333.857	758.88
334.085	773.88
334.314	773.88
334.542	771.88
334.771	759.88
334.999	767.88
335.227	775.88
335.455	782.88
335.684	796.88
335.912	802.88
336.14	767.88
336.369	798.88
336.597	782.88
336.825	799.88
337.053	815.88
337.281	802.88
337.51	777.88
337.738	787.88
337.966	772.88
338.194	793.88
338.422	767.88
338.65	771.88
338.878	771.88
339.106	745.88
339.334	761.88
339.562	753.88
339.79	747.88
340.018	713.88
340.246	711.88
340.474	731.88
340.702	728.88
340.93	741.88
341.158	749.88
341.386	763.88
341.614	794.88
341.842	778.88
342.07	740.88
342.298	746.88
342.526	739.88
342.754	743.88
342.981	713.88
343.209	740.88
343.437	780.88
343.665	777.88
343.893	764.88
344.12	755.88
344.348	775.88
344.576	780.88
344.804	807.88
345.031	788.88
345.259	746.88
345.487	777.88
345.714	771.88
345.942	781.88
346.17	790.88
346.397	772.88
346.625	718.88
346.853	732.88
347.08	714.88
347.308	724.88
347.535	721.88
347.763	720.88
347.99	721.88
348.218	681.88
348.445	721.88
348.673	709.88
348.9	717.88
349.128	740.88
349.355	737.88
349.583	746.88
349.81	728.88
350.037	709.88
350.265	727.88
350.492	692.88
350.72	705.88
350.947	691.88
351.174	724.88
351.402	711.88
351.629	741.88
351.856	734.88
352.083	700.88
352.311	739.88
352.538	777.88
352.765	757.88
352.992	704.88
353.22	695.88
353.447	681.88
353.674	687.88
353.901	681.88
354.128	703.88
354.355	676.88
354.583	677.88
354.81	681.88
355.037	692.88
355.264	687.88
355.491	654.88
355.718	678.88
355.945	706.88
356.172	678.88
356.399	709.88
356.626	712.88
356.853	718.88
357.08	723.88
357.307	679.88
357.534	677.88
357.761	679.88
357.988	710.88
358.215	680.88
358.441	689.88
358.668	689.88
358.895	681.88
359.122	667.88
359.349	681.88
359.576	680.88
359.802	681.88
360.029	687.88
360.256	677.88
360.483	686.88
360.709	670.88
360.936	707.88
361.163	716.88
361.39	715.88
361.616	707.88
361.843	734.88
362.07	779.88
362.296	759.88
362.523	712.88
362.749	698.88
362.976	671.88
363.203	671.88
363.429	664.88
363.656	683.88
363.882	664.88
364.109	679.88
364.335	677.88
364.562	707.88
364.788	697.88
365.015	705.88
365.241	692.88
365.468	709.88
365.694	702.88
365.92	705.88
366.147	702.88
366.373	709.88
366.599	697.88
366.826	715.88
367.052	690.88
367.278	677.88
367.505	705.88
367.731	683.88
367.957	681.88
368.184	710.88
368.41	717.88
368.636	691.88
368.862	715.88
369.089	732.88
369.315	689.88
369.541	709.88
369.767	687.88
369.993	703.88
370.219	732.88
370.445	729.88
370.672	727.88
370.898	694.88
371.124	735.88
371.35	728.88
371.576	762.88
371.802	730.88
372.028	715.88
372.254	746.88
372.48	756.88
372.706	745.88
372.932	769.88
373.158	746.88
373.384	738.88
373.61	725.88
373.835	759.88
374.061	717.88
374.287	735.88
374.513	739.88
374.739	745.88
374.965	747.88
375.191	755.88
375.416	799.88
375.642	758.88
375.868	742.88
376.094	759.88
376.319	748.88
376.545	759.88
376.771	754.88
376.997	727.88
377.222	737.88
377.448	710.88
377.674	729.88
377.899	700.88
378.125	738.88
378.35	735.88
378.576	730.88
378.802	734.88
379.027	728.88
379.253	748.88
379.478	709.88
379.704	723.88
379.929	726.88
380.155	751.88
380.38	727.88
380.606	735.88
380.831	745.88
381.057	736.88
381.282	760.88
381.507	723.88
381.733	719.88
381.958	730.88
382.184	732.88
382.409	754.88
382.634	739.88
382.86	720.88
383.085	766.88
383.31	758.88
383.535	766.88
383.761	748.88
383.986	790.88
384.211	762.88
384.436	823.88
384.662	834.88
384.887	788.88
385.112	805.88
385.337	818.88
385.562	805.88
385.787	821.88
386.013	830.88
386.238	831.88
386.463	829.88
386.688	839.88
386.913	843.88
387.138	839.88
387.363	842.88
387.588	843.88
387.813	844.88
388.038	834.88
388.263	874.88
388.488	858.88
388.713	868.88
388.938	852.88
389.163	822.88
389.387	821.88
389.612	835.88
389.837	827.88
390.062	838.88
390.287	859.88
390.512	841.88
390.736	851.88
390.961	884.88
391.186	889.88
391.411	848.88
391.636	880.88
391.86	883.88
392.085	900.88
392.31	885.88
392.534	893.88
392.759	897.88
392.984	885.88
393.208	870.88
393.433	907.88
393.658	865.88
393.882	867.88
394.107	882.88
394.331	886.88
394.556	879.88
394.78	868.88
395.005	881.88
395.229	875.88
395.454	905.88
395.678	919.88
395.903	895.88
396.127	933.88
396.352	933.88
396.576	929.88
396.801	925.88
397.025	915.88
397.249	945.88
397.474	937.88
397.698	922.88
397.922	963.88
398.147	974.88
398.371	968.88
398.595	959.88
398.82	1002.88
399.044	1041.88
399.268	1093.88
399.492	1150.88
399.717	1143.88
399.941	1153.88
400.165	1159.88
400.389	1142.88
400.613	1084.88
400.837	1073.88
401.062	1045.88
401.286	1062.88
401.51	1035.88
401.734	1016.88
401.958	1041.88
402.182	1016.88
402.406	1031.88
402.63	1013.88
402.854	1011.88
403.078	995.88
403.302	1012.88
403.526	1032.88
403.75	1019.88
403.974	997.88
404.198	1007.88
404.422	1015.88
404.645	1006.88
404.869	1037.88
405.093	1038.88
405.317	1051.88
405.541	1038.88
405.765	1055.88
405.988	1036.88
406.212	1036.88
406.436	1057.88
406.66	1064.88
406.883	1079.88
407.107	1110.88
407.331	1105.88
407.555	1110.88
407.778	1156.88
408.002	1175.88
408.226	1126.88
408.449	1138.88
408.673	1134.88
408.896	1111.88
409.12	1095.88
409.344	1106.88
409.567	1085.88
409.791	1083.88
410.014	1069.88
410.238	1074.88
410.461	1078.88
410.685	1070.88
410.908	1043.88
411.132	1043.88
411.355	1046.88
411.578	1045.88
411.802	1050.88
412.025	1062.88
412.249	1033.88
412.472	1059.88
412.695	1029.88
412.919	1031.88
413.142	1024.88
413.365	1045.88
413.589	1036.88
413.812	980.88
414.035	1004.88
414.258	1025.88
414.482	1029.88
414.705	1015.88
414.928	1003.88
415.151	1007.88
415.374	976.88
415.597	976.88
415.821	972.88
416.044	973.88
416.267	978.88
416.49	979.88
416.713	986.88
416.936	969.88
417.159	985.88
417.382	972.88
417.605	961.88
417.828	981.88
418.051	974.88
418.274	973.88
418.497	963.88
418.72	975.88
418.943	981.88
419.166	981.88
419.389	1062.88
419.611	1027.88
419.834	1020.88
420.057	1006.88
420.28	969.88
420.503	946.88
420.726	986.88
420.948	953.88
421.171	961.88
421.394	938.88
421.617	990.88
421.839	959.88
422.062	998.88
422.285	946.88
422.507	966.88
422.73	960.88
422.953	993.88
423.175	971.88
423.398	1003.88
423.621	962.88
423.843	969.88
424.066	960.88
424.288	969.88
424.511	963.88
424.733	981.88
424.956	935.88
425.178	958.88
425.401	968.88
425.623	958.88
425.846	946.88
426.068	963.88
426.291	961.88
426.513	943.88
426.735	931.88
426.958	958.88
427.18	922.88
427.402	919.88
427.625	961.88
427.847	940.88
428.069	942.88
428.292	949.88
428.514	930.88
428.736	930.88
428.958	951.88
429.181	955.88
429.403	928.88
429.625	928.88
429.847	918.88
430.069	918.88
430.292	918.88
430.514	904.88
430.736	939.88
430.958	945.88
431.18	923.88
431.402	925.88
431.624	927.88
431.846	909.88
432.068	924.88
432.29	939.88
432.512	908.88
432.734	929.88
432.956	926.88
433.178	963.88
433.4	948.88
433.622	979.88
433.844	965.88
434.066	973.88
434.287	944.88
434.509	961.88
434.731	975.88
434.953	994.88
435.175	1012.88
435.397	984.88
435.618	942.88
435.84	965.88
436.062	953.88
436.284	945.88
436.505	951.88
436.727	937.88
436.949	933.88
437.17	948.88
437.392	936.88
437.614	929.88
437.835	900.88
438.057	929.88
438.278	870.88
438.5	902.88
438.721	896.88
438.943	927.88
439.165	932.88
439.386	908.88
439.608	903.88
439.829	906.88
440.05	949.88
440.272	949.88
440.493	942.88
440.715	956.88
440.936	944.88
441.158	936.88
441.379	965.88
441.6	988.88
441.822	987.88
442.043	996.88
442.264	1002.88
442.486	968.88
442.707	981.88
442.928	999.88
443.149	1012.88
443.371	1011.88
443.592	1057.88
443.813	1045.88
444.034	1042.88
444.255	1027.88
444.476	1031.88
444.698	1049.88
444.919	1073.88
445.14	1194.88
445.361	1109.88
445.582	1030.88
445.803	989.88
446.024	983.88
446.245	960.88
446.466	963.88
446.687	965.88
446.908	940.88
447.129	935.88
447.35	929.88
447.571	958.88
447.792	911.88
448.013	910.88
448.234	875.88
448.455	915.88
448.675	865.88
448.896	894.88
449.117	865.88
449.338	869.88
449.559	851.88
449.779	859.88
450	837.88
450.221	843.88
450.442	873.88
450.662	878.88
450.883	882.88
451.104	888.88
451.324	862.88
451.545	878.88
451.766	876.88
451.986	850.88
452.207	859.88
452.428	847.88
452.648	836.88
452.869	815.88
453.089	833.88
453.31	837.88
453.53	849.88
453.751	829.88
453.971	827.88
454.192	839.88
454.412	839.88
454.633	854.88
454.853	844.88
455.073	842.88
455.294	849.88
455.514	822.88
455.734	842.88
455.955	858.88
456.175	837.88
456.395	851.88
456.616	841.88
456.836	841.88
457.056	815.88
457.276	824.88
457.497	851.88
457.717	860.88
457.937	869.88
458.157	854.88
458.377	883.88
458.598	866.88
458.818	876.88
459.038	901.88
459.258	905.88
459.478	937.88
459.698	1019.88
459.918	1021.88
460.138	1030.88
460.358	1023.88
460.578	1018.88
460.798	1045.88
461.018	1048.88
461.238	1035.88
461.458	989.88
461.678	1002.88
461.898	1057.88
462.118	1035.88
462.338	1082.88
462.558	1111.88
462.777	1152.88
462.997	1171.88
463.217	1166.88
463.437	1245.88
463.657	1192.88
463.876	1140.88
464.096	1127.88
464.316	1142.88
464.536	1145.88
464.755	1099.88
464.975	1076.88
465.195	1022.88
465.414	1009.88
465.634	1002.88
465.854	958.88
466.073	969.88
466.293	943.88
466.512	920.88
466.732	934.88
466.951	943.88
467.171	943.88
467.391	924.88
467.61	909.88
467.829	886.88
468.049	926.88
468.268	898.88
468.488	913.88
468.707	889.88
468.927	899.88
469.146	873.88
469.365	933.88
469.585	911.88
469.804	905.88
470.023	899.88
470.243	895.88
470.462	919.88
470.681	901.88
470.901	917.88
471.12	927.88
471.339	919.88
471.558	906.88
471.777	902.88
471.997	884.88
472.216	873.88
472.435	890.88
472.654	886.88
472.873	885.88
473.092	900.88
473.311	911.88
473.53	883.88
473.749	888.88
473.968	914.88
474.187	901.88
474.406	882.88
474.625	903.88
474.844	892.88
475.063	913.88
475.282	921.88
475.501	906.88
475.72	911.88
475.939	918.88
476.158	940.88
476.377	926.88
476.596	907.88
476.814	945.88
477.033	928.88
477.252	950.88
477.471	961.88
477.69	994.88
477.908	992.88
478.127	992.88
478.346	983.88
478.564	1053.88
478.783	1036.88
479.002	1070.88
479.22	1099.88
479.439	1114.88
479.658	1041.88
479.876	1044.88
480.095	1025.88
480.313	1085.88
480.532	1061.88
480.751	1075.88
480.969	1044.88
481.188	1054.88
481.406	1038.88
481.624	1038.88
481.843	1031.88
482.061	1038.88
482.28	1019.88
482.498	1022.88
482.717	1056.88
482.935	1027.88
483.153	1041.88
483.372	1069.88
483.59	1110.88
483.808	1078.88
484.027	1043.88
484.245	1065.88
484.463	1060.88
484.681	1046.88
484.9	1083.88
485.118	1060.88
485.336	1047.88
485.554	1075.88
485.772	1061.88
485.99	1047.88
486.209	1071.88
486.427	1044.88
486.645	1051.88
486.863	1051.88
487.081	1048.88
487.299	1090.88
487.517	1068.88
487.735	1082.88
487.953	1098.88
488.171	1104.88
488.389	1085.88
488.607	1076.88
488.825	1051.88
489.043	1036.88
489.261	1040.88
489.479	1083.88
489.696	1079.88
489.914	1081.88
490.132	1065.88
490.35	1076.88
490.568	1093.88
490.786	1083.88
491.003	1079.88
491.221	1100.88
491.439	1111.88
491.657	1106.88
491.874	1069.88
492.092	1141.88
492.31	1121.88
492.527	1144.88
492.745	1117.88
492.963	1118.88
493.18	1112.88
493.398	1097.88
493.615	1116.88
493.833	1113.88
494.05	1139.88
494.268	1153.88
494.485	1138.88
494.703	1147.88
494.92	1128.88
495.138	1141.88
495.355	1158.88
495.573	1185.88
495.79	1197.88
496.008	1170.88
496.225	1188.88
496.442	1206.88
496.66	1204.88
496.877	1240.88
497.094	1254.88
497.312	1279.88
497.529	1269.88
497.746	1277.88
497.963	1299.88
498.181	1323.88
498.398	1389.88
498.615	1431.88
498.832	1444.88
499.049	1527.88
499.267	1535.88
499.484	1671.88
499.701	1731.88
499.918	1795.88
500.135	1889.88
500.352	1960.88
500.569	1927.88
500.786	1954.88
501.003	1925.88
501.22	1879.88
501.437	1811.88
501.654	1722.88
501.871	1636.88
502.088	1573.88
502.305	1539.88
502.522	1526.88
502.739	1452.88
502.956	1380.88
503.172	1347.88
503.389	1310.88
503.606	1299.88
503.823	1273.88
504.04	1262.88
504.256	1269.88
504.473	1204.88
504.69	1235.88
504.907	1226.88
505.123	1183.88
505.34	1145.88
505.557	1121.88
505.773	1120.88
505.99	1131.88
506.207	1071.88
506.423	1063.88
506.64	1065.88
506.856	1058.88
507.073	1023.88
507.289	991.88
507.506	1010.88
507.722	1017.88
507.939	980.88
508.155	1013.88
508.372	1002.88
508.588	998.88
508.805	998.88
509.021	974.88
509.238	970.88
509.454	959.88
509.67	961.88
509.887	937.88
510.103	931.88
510.319	975.88
510.536	924.88
510.752	918.88
510.968	918.88
511.184	925.88
511.401	941.88
511.617	930.88
511.833	934.88
512.049	906.88
512.265	939.88
512.481	921.88
512.698	931.88
512.914	923.88
513.13	912.88
513.346	925.88
513.562	947.88
513.778	899.88
513.994	930.88
514.21	938.88
514.426	904.88
514.642	929.88
514.858	945.88
515.074	917.88
515.29	968.88
515.506	942.88
515.721	950.88
515.937	977.88
516.153	959.88
516.369	1004.88
516.585	992.88
516.801	994.88
517.016	1023.88
517.232	1035.88
517.448	1029.88
517.664	1067.88
517.879	1034.88
518.095	1054.88
518.311	1035.88
518.527	1051.88
518.742	1057.88
518.958	1006.88
519.173	988.88
519.389	951.88
519.605	945.88
519.82	945.88
520.036	955.88
520.251	913.88
520.467	907.88
520.682	909.88
520.898	882.88
521.113	871.88
521.329	921.88
521.544	863.88
521.76	863.88
521.975	870.88
522.19	853.88
522.406	847.88
522.621	861.88
522.836	841.88
523.052	887.88
523.267	846.88
523.482	857.88
523.698	857.88
523.913	819.88
524.128	866.88
524.343	850.88
524.559	817.88
524.774	832.88
524.989	839.88
525.204	832.88
525.419	845.88
525.634	845.88
525.849	828.88
526.064	854.88
526.28	827.88
526.495	803.88
526.71	799.88
526.925	814.88
527.14	790.88
527.355	815.88
527.57	801.88
527.785	794.88
527.999	812.88
528.214	785.88
528.429	802.88
528.644	822.88
528.859	803.88
529.074	829.88
529.289	811.88
529.503	811.88
529.718	804.88
529.933	787.88
530.148	805.88
530.363	811.88
530.577	779.88
530.792	810.88
531.007	796.88
531.221	802.88
531.436	780.88
531.651	785.88
531.865	806.88
532.08	820.88
532.295	791.88
532.509	764.88
532.724	762.88
532.938	796.88
533.153	778.88
533.367	793.88
533.582	793.88
533.796	803.88
534.011	775.88
534.225	790.88
534.44	766.88
534.654	770.88
534.868	786.88
535.083	759.88
535.297	766.88
535.511	756.88
535.726	758.88
535.94	763.88
536.154	773.88
536.369	762.88
536.583	764.88
536.797	766.88
537.011	775.88
537.225	758.88
537.44	766.88
537.654	733.88
537.868	744.88
538.082	746.88
538.296	740.88
538.51	723.88
538.724	730.88
538.938	749.88
539.153	741.88
539.367	727.88
539.581	755.88
539.795	723.88
540.009	720.88
540.222	734.88
540.436	725.88
540.65	737.88
540.864	703.88
541.078	730.88
541.292	716.88
541.506	727.88
541.72	732.88
541.934	722.88
542.147	756.88
542.361	765.88
542.575	729.88
542.789	727.88
543.002	695.88
543.216	705.88
543.43	717.88
543.644	716.88
543.857	719.88
544.071	732.88
544.285	733.88
544.498	734.88
544.712	728.88
544.925	742.88
545.139	724.88
545.352	731.88
545.566	755.88
545.779	730.88
545.993	763.88
546.206	737.88
546.42	734.88
546.633	756.88
546.847	735.88
547.06	717.88
547.274	710.88
547.487	733.88
547.7	738.88
547.914	750.88
548.127	719.88
548.34	733.88
548.554	731.88
548.767	726.88
548.98	742.88
549.193	716.88
549.407	725.88
549.62	754.88
549.833	723.88
550.046	747.88
550.259	720.88
550.473	699.88
550.686	712.88
550.899	725.88
551.112	730.88
551.325	682.88
551.538	695.88
551.751	687.88
551.964	720.88
552.177	721.88
552.39	714.88
552.603	727.88
552.816	718.88
553.029	727.88
553.242	725.88
553.455	783.88
553.667	737.88
553.88	749.88
554.093	729.88
554.306	710.88
554.519	675.88
554.732	712.88
554.944	697.88
555.157	670.88
555.37	668.88
555.583	674.88
555.795	669.88
556.008	649.88
556.221	658.88
556.433	657.88
556.646	647.88
556.859	629.88
557.071	647.88
557.284	636.88
557.496	646.88
557.709	633.88
557.921	632.88
558.134	636.88
558.346	637.88
558.559	636.88
558.771	637.88
558.984	639.88
559.196	638.88
559.409	621.88
559.621	634.88
559.833	622.88
560.046	611.88
560.258	591.88
560.47	604.88
560.683	623.88
560.895	625.88
561.107	614.88
561.32	622.88
561.532	630.88
561.744	619.88
561.956	638.88
562.168	605.88
562.381	632.88
562.593	616.88
562.805	626.88
563.017	597.88
563.229	621.88
563.441	656.88
563.653	627.88
563.865	629.88
564.077	626.88
564.289	638.88
564.501	642.88
564.713	663.88
564.925	667.88
565.137	668.88
565.349	669.88
565.561	685.88
565.773	698.88
565.985	712.88
566.197	739.88
566.408	732.88
566.62	749.88
566.832	777.88
567.044	754.88
567.255	772.88
567.467	791.88
567.679	785.88
567.891	798.88
568.102	758.88
568.314	757.88
568.526	753.88
568.737	713.88
568.949	709.88
569.161	647.88
569.372	667.88
569.584	627.88
569.795	630.88
570.007	629.88
570.218	638.88
570.43	622.88
570.641	588.88
570.853	575.88
571.064	580.88
571.276	575.88
571.487	573.88
571.698	570.88
571.91	564.88
572.121	577.88
572.333	545.88
572.544	550.88
572.755	522.88
572.966	535.88
573.178	518.88
573.389	515.88
573.6	475.88
573.811	509.88
574.023	504.88
574.234	487.88
574.445	501.88
574.656	485.88
574.867	481.88
575.078	490.88
575.289	496.88
575.501	490.88
575.712	484.88
575.923	457.88
576.134	479.88
576.345	470.88
576.556	482.88
576.767	468.88
576.978	453.88
577.188	472.88
577.399	490.88
577.61	475.88
577.821	454.88
578.032	473.88
578.243	454.88
578.454	447.88
578.665	469.88
578.875	463.88
579.086	458.88
579.297	440.88
579.508	433.88
579.718	417.88
579.929	430.88
580.14	418.88
580.35	455.88
580.561	436.88
580.772	435.88
580.982	425.88
581.193	407.88
581.403	435.88
581.614	430.88
581.825	430.88
582.035	442.88
582.246	422.88
582.456	431.88
582.667	428.88
582.877	434.88
583.087	419.88
583.298	427.88
583.508	434.88
583.719	414.88
583.929	412.88
584.139	420.88
584.35	422.88
584.56	413.88
584.77	426.88
584.981	408.88
585.191	406.88
585.401	419.88
585.611	429.88
585.821	399.88
586.032	397.88
586.242	391.88
586.452	412.88
586.662	389.88
586.872	408.88
587.082	388.88
587.292	408.88
587.502	400.88
587.713	405.88
587.923	411.88
588.133	401.88
588.343	409.88
588.553	380.88
588.762	402.88
588.972	411.88
589.182	453.88
589.392	467.88
589.602	399.88
589.812	448.88
590.022	418.88
590.232	409.88
590.441	396.88
590.651	385.88
590.861	407.88
591.071	391.88
591.281	397.88
591.49	406.88
591.7	397.88
591.91	400.88
592.119	402.88
592.329	428.88
592.539	406.88
592.748	423.88
592.958	439.88
593.167	428.88
593.377	419.88
593.587	450.88
593.796	445.88
594.006	415.88
594.215	424.88
594.424	404.88
594.634	399.88
594.843	408.88
595.053	420.88
595.262	406.88
595.472	396.88
595.681	393.88
595.89	387.88
596.1	408.88
596.309	387.88
596.518	374.88
596.727	366.88
596.937	358.88
597.146	361.88
597.355	372.88
597.564	371.88
597.774	371.88
597.983	365.88
598.192	364.88
598.401	353.88
598.61	352.88
598.819	349.88
599.028	343.88
599.237	349.88
599.446	337.88
599.655	335.88
599.864	348.88
600.073	336.88
600.282	345.88
600.491	334.88
600.7	349.88
600.909	352.88
601.118	348.88
601.327	316.88
601.536	311.88
601.745	338.88
601.953	330.88
602.162	334.88
602.371	324.88
602.58	347.88
602.789	348.88
602.997	321.88
603.206	334.88
603.415	307.88
603.623	302.88
603.832	322.88
604.041	315.88
604.249	330.88
604.458	339.88
604.666	307.88
604.875	318.88
605.084	322.88
605.292	315.88
605.501	310.88
605.709	316.88
605.918	328.88
606.126	318.88
606.334	320.88
606.543	317.88
606.751	308.88
606.96	305.88
607.168	309.88
607.376	315.88
607.585	313.88
607.793	317.88
608.001	294.88
608.21	314.88
608.418	317.88
608.626	327.88
608.834	308.88
609.043	293.88
609.251	326.88
609.459	313.88
609.667	316.88
609.875	308.88
610.083	315.88
610.291	313.88
610.499	319.88
610.707	302.88
610.916	287.88
611.124	299.88
611.332	302.88
611.54	294.88
611.748	287.88
611.955	315.88
612.163	293.88
612.371	290.88
612.579	297.88
612.787	298.88
612.995	303.88
613.203	317.88
613.411	281.88
613.618	279.88
613.826	293.88
614.034	290.88
614.242	284.88
614.449	308.88
614.657	305.88
614.865	298.88
615.072	298.88
615.28	278.88
615.488	282.88
615.695	287.88
615.903	291.88
616.111	294.88
616.318	277.88
616.526	290.88
616.733	295.88
616.941	301.88
617.148	299.88
617.356	292.88
617.563	271.88
617.771	299.88
617.978	298.88
618.185	292.88
618.393	275.88
618.6	276.88
618.807	265.88
619.015	283.88
619.222	289.88
619.429	285.88
619.637	271.88
619.844	281.88
620.051	271.88
620.258	280.88
620.466	275.88
620.673	263.88
620.88	282.88
621.087	249.88
621.294	252.88
621.501	269.88
621.708	270.88
621.915	275.88
622.122	266.88
622.329	271.88
622.536	257.88
622.743	262.88
622.95	261.88
623.157	266.88
623.364	276.88
623.571	260.88
623.778	265.88
623.985	275.88
624.192	265.88
624.399	275.88
624.606	269.88
624.812	236.88
625.019	245.88
625.226	258.88
625.433	257.88
625.639	271.88
625.846	261.88
626.053	283.88
626.259	240.88
626.466	251.88
626.673	251.88
626.879	255.88
627.086	249.88
627.293	236.88
627.499	249.88
627.706	241.88
627.912	263.88
628.119	249.88
628.325	261.88
628.532	248.88
628.738	263.88
628.945	250.88
629.151	247.88
629.357	214.88
629.564	224.88
629.77	238.88
629.976	250.88
630.183	243.88
630.389	243.88
630.595	246.88
630.802	241.88
631.008	242.88
631.214	238.88
631.42	233.88
631.627	236.88
631.833	232.88
632.039	228.88
632.245	214.88
632.451	242.88
632.657	226.88
632.863	227.88
633.069	224.88
633.275	236.88
633.481	210.88
633.688	253.88
633.893	228.88
634.099	238.88
634.305	244.88
634.511	247.88
634.717	225.88
634.923	209.88
635.129	217.88
635.335	220.88
635.541	227.88
635.747	222.88
635.952	222.88
636.158	212.88
636.364	231.88
636.57	233.88
636.775	211.88
636.981	224.88
637.187	219.88
637.392	202.88
637.598	225.88
637.804	228.88
638.009	229.88
638.215	232.88
638.421	209.88
638.626	220.88
638.832	218.88
639.037	219.88
639.243	219.88
639.448	207.88
639.654	225.88
639.859	201.88
640.065	219.88
640.27	217.88
640.475	206.88
640.681	213.88
640.886	215.88
641.091	230.88
641.297	229.88
641.502	208.88
641.707	205.88
641.913	218.88
642.118	211.88
642.323	216.88
642.528	230.88
642.733	213.88
642.939	215.88
643.144	210.88
643.349	205.88
643.554	206.88
643.759	206.88
643.964	212.88
644.169	195.88
644.374	223.88
644.579	218.88
644.784	209.88
644.989	199.88
645.194	203.88
645.399	214.88
645.604	209.88
645.809	214.88
646.014	209.88
646.219	205.88
646.423	192.88
646.628	204.88
646.833	195.88
647.038	215.88
647.243	209.88
647.447	205.88
647.652	204.88
647.857	212.88
648.062	205.88
648.266	211.88
648.471	199.88
648.676	206.88
648.88	215.88
649.085	191.88
649.289	218.88
649.494	207.88
649.698	205.88
649.903	205.88
650.107	213.88
650.312	215.88
650.516	193.88
650.721	203.88
650.925	203.88
651.13	196.88
651.334	192.88
651.539	179.88
651.743	192.88
651.947	214.88
652.152	201.88
652.356	193.88
652.56	169.88
652.764	181.88
652.969	197.88
653.173	183.88
653.377	186.88
653.581	171.88
653.785	185.88
653.99	190.88
654.194	178.88
654.398	173.88
654.602	179.88
654.806	179.88
655.01	166.88
655.214	174.88
655.418	187.88
655.622	178.88
655.826	170.88
656.03	177.88
656.234	191.88
656.438	185.88
656.642	194.88
656.846	182.88
657.049	169.88
657.253	190.88
657.457	179.88
657.661	168.88
657.865	159.88
658.068	154.88
658.272	137.88
658.476	132.88
658.68	126.88
658.883	124.88
659.087	138.88
659.291	125.88
659.494	117.88
659.698	113.88
659.901	118.88
660.105	117.88
660.309	117.88
660.512	103.88
660.716	120.88
660.919	107.88
661.123	106.88
661.326	95.88
661.53	94.88
661.733	104.88
661.936	98.88
662.14	76.88
662.343	103.88
662.546	108.88
662.75	91.88
662.953	90.88
663.156	100.88
663.36	94.88
663.563	77.88
663.766	90.88
663.969	87.88
664.173	75.88
664.376	77.88
664.579	99.88
664.782	100.88
664.985	83.88
665.188	96.88
665.391	93.88
665.594	82.88
665.797	89.88
666	92.88
666.203	80.88
666.406	84.88
666.609	83.88
666.812	88.88
667.015	79.88
667.218	79.88
667.421	83.88
667.624	90.88
667.827	81.88
668.03	68.88
668.232	80.88
668.435	87.88
668.638	81.88
668.841	83.88
669.043	89.88
669.246	72.88
669.449	80.88
669.651	71.88
669.854	85.88
670.057	90.88
670.259	74.88
670.462	81.88
670.665	79.88
670.867	68.88
671.07	81.88
671.272	89.88
671.475	98.88
671.677	93.88
671.88	79.88
672.082	88.88
672.284	83.88
672.487	91.88
672.689	87.88
672.892	81.88
