Data from Ni(NO3)2@0.5M.TitratingCurve.Agarose3%dH2O.NegLispCup.LampEnergy10.LIBS07252019_HRD10591_17-59-26-564.txt Node
Date: Thu Jul 25 17:59:26 EDT 2019
User: cochatt
Spectrometer: HR+D1059
Trigger mode: 1
Integration Time (sec): 1.000000E-1
Scans to average: 1
Electric dark correction enabled: true
Nonlinearity correction enabled: false
Boxcar width: 0
XAxis mode: Wavelengths
Number of Pixels in Spectrum: 2048
>>>>>Begin Spectral Data<<<<<
223.165	-15.12
223.4	-15.12
223.635	-15.12
223.869	-12.12
224.104	-27.12
224.338	-9.12
224.573	-14.12
224.808	-11.12
225.042	-8.12
225.277	0.88
225.511	-2.12
225.746	5.88
225.98	11.88
226.215	10.88
226.449	1.88
226.683	21.88
226.918	18.88
227.152	26.88
227.387	29.88
227.621	39.88
227.856	34.88
228.09	54.88
228.324	45.88
228.559	49.88
228.793	70.88
229.027	109.88
229.262	118.88
229.496	111.88
229.73	113.88
229.964	154.88
230.199	170.88
230.433	154.88
230.667	154.88
230.901	153.88
231.136	133.88
231.37	146.88
231.604	147.88
231.838	170.88
232.072	167.88
232.306	163.88
232.541	152.88
232.775	157.88
233.009	135.88
233.243	137.88
233.477	140.88
233.711	149.88
233.945	136.88
234.179	165.88
234.413	131.88
234.647	160.88
234.881	142.88
235.115	149.88
235.349	137.88
235.583	142.88
235.817	134.88
236.051	133.88
236.285	133.88
236.519	140.88
236.753	140.88
236.987	128.88
237.221	142.88
237.455	145.88
237.689	155.88
237.922	152.88
238.156	149.88
238.39	143.88
238.624	153.88
238.858	144.88
239.091	180.88
239.325	148.88
239.559	162.88
239.793	176.88
240.027	188.88
240.26	166.88
240.494	146.88
240.728	163.88
240.961	148.88
241.195	162.88
241.429	166.88
241.662	167.88
241.896	204.88
242.13	199.88
242.363	179.88
242.597	168.88
242.83	163.88
243.064	162.88
243.298	184.88
243.531	167.88
243.765	170.88
243.998	184.88
244.232	192.88
244.465	175.88
244.699	171.88
244.932	199.88
245.166	170.88
245.399	176.88
245.633	185.88
245.866	175.88
246.099	196.88
246.333	186.88
246.566	182.88
246.8	180.88
247.033	197.88
247.266	220.88
247.5	188.88
247.733	210.88
247.966	200.88
248.2	208.88
248.433	194.88
248.666	201.88
248.899	219.88
249.133	197.88
249.366	210.88
249.599	197.88
249.832	218.88
250.066	206.88
250.299	221.88
250.532	222.88
250.765	218.88
250.998	221.88
251.231	231.88
251.465	237.88
251.698	216.88
251.931	225.88
252.164	219.88
252.397	231.88
252.63	216.88
252.863	219.88
253.096	239.88
253.329	225.88
253.562	231.88
253.795	235.88
254.028	244.88
254.261	224.88
254.494	236.88
254.727	219.88
254.96	243.88
255.193	226.88
255.426	258.88
255.659	226.88
255.892	227.88
256.124	248.88
256.357	269.88
256.59	268.88
256.823	258.88
257.056	241.88
257.289	234.88
257.521	251.88
257.754	255.88
257.987	269.88
258.22	261.88
258.452	279.88
258.685	257.88
258.918	263.88
259.151	247.88
259.383	266.88
259.616	274.88
259.849	263.88
260.081	285.88
260.314	275.88
260.547	266.88
260.779	266.88
261.012	268.88
261.244	285.88
261.477	281.88
261.71	271.88
261.942	283.88
262.175	281.88
262.407	267.88
262.64	279.88
262.872	292.88
263.105	263.88
263.337	285.88
263.57	294.88
263.802	303.88
264.035	289.88
264.267	288.88
264.499	283.88
264.732	303.88
264.964	294.88
265.197	312.88
265.429	288.88
265.661	312.88
265.894	296.88
266.126	316.88
266.358	307.88
266.591	309.88
266.823	341.88
267.055	304.88
267.287	307.88
267.52	305.88
267.752	315.88
267.984	311.88
268.216	326.88
268.448	324.88
268.681	303.88
268.913	318.88
269.145	312.88
269.377	315.88
269.609	331.88
269.841	344.88
270.073	330.88
270.306	310.88
270.538	352.88
270.77	306.88
271.002	353.88
271.234	305.88
271.466	329.88
271.698	340.88
271.93	356.88
272.162	353.88
272.394	336.88
272.626	331.88
272.858	336.88
273.09	348.88
273.322	359.88
273.553	339.88
273.785	340.88
274.017	345.88
274.249	353.88
274.481	330.88
274.713	344.88
274.945	348.88
275.176	355.88
275.408	342.88
275.64	348.88
275.872	351.88
276.104	367.88
276.335	365.88
276.567	363.88
276.799	349.88
277.031	370.88
277.262	373.88
277.494	383.88
277.726	379.88
277.957	387.88
278.189	371.88
278.421	367.88
278.652	354.88
278.884	387.88
279.115	371.88
279.347	392.88
279.579	371.88
279.81	368.88
280.042	355.88
280.273	389.88
280.505	374.88
280.736	392.88
280.968	371.88
281.199	390.88
281.431	392.88
281.662	379.88
281.894	399.88
282.125	375.88
282.356	371.88
282.588	376.88
282.819	383.88
283.051	392.88
283.282	398.88
283.513	401.88
283.745	411.88
283.976	401.88
284.207	418.88
284.439	406.88
284.67	382.88
284.901	396.88
285.132	398.88
285.364	406.88
285.595	380.88
285.826	386.88
286.057	417.88
286.288	387.88
286.52	407.88
286.751	424.88
286.982	411.88
287.213	438.88
287.444	420.88
287.675	449.88
287.906	428.88
288.138	407.88
288.369	423.88
288.6	439.88
288.831	412.88
289.062	454.88
289.293	444.88
289.524	419.88
289.755	424.88
289.986	420.88
290.217	424.88
290.448	417.88
290.679	421.88
290.91	441.88
291.141	446.88
291.371	429.88
291.602	450.88
291.833	451.88
292.064	438.88
292.295	441.88
292.526	418.88
292.757	435.88
292.987	441.88
293.218	433.88
293.449	440.88
293.68	434.88
293.91	444.88
294.141	433.88
294.372	435.88
294.603	433.88
294.833	446.88
295.064	430.88
295.295	439.88
295.525	442.88
295.756	434.88
295.987	435.88
296.217	447.88
296.448	433.88
296.679	446.88
296.909	451.88
297.14	456.88
297.37	465.88
297.601	479.88
297.831	472.88
298.062	463.88
298.292	462.88
298.523	487.88
298.753	488.88
298.984	476.88
299.214	465.88
299.445	472.88
299.675	477.88
299.905	484.88
300.136	488.88
300.366	496.88
300.597	496.88
300.827	495.88
301.057	510.88
301.288	491.88
301.518	524.88
301.748	500.88
301.979	513.88
302.209	485.88
302.439	475.88
302.669	510.88
302.9	484.88
303.13	483.88
303.36	497.88
303.59	506.88
303.82	496.88
304.051	517.88
304.281	513.88
304.511	496.88
304.741	497.88
304.971	502.88
305.201	521.88
305.431	524.88
305.661	522.88
305.891	530.88
306.121	525.88
306.352	532.88
306.582	508.88
306.812	482.88
307.042	525.88
307.272	506.88
307.502	487.88
307.731	522.88
307.961	529.88
308.191	506.88
308.421	508.88
308.651	517.88
308.881	519.88
309.111	498.88
309.341	511.88
309.571	552.88
309.8	521.88
310.03	520.88
310.26	556.88
310.49	543.88
310.72	525.88
310.949	519.88
311.179	525.88
311.409	505.88
311.639	504.88
311.868	533.88
312.098	513.88
312.328	504.88
312.557	519.88
312.787	520.88
313.017	544.88
313.246	546.88
313.476	536.88
313.706	563.88
313.935	538.88
314.165	530.88
314.394	539.88
314.624	538.88
314.853	540.88
315.083	567.88
315.312	540.88
315.542	564.88
315.771	548.88
316.001	561.88
316.23	570.88
316.46	551.88
316.689	556.88
316.919	553.88
317.148	542.88
317.377	551.88
317.607	556.88
317.836	551.88
318.065	579.88
318.295	563.88
318.524	539.88
318.753	563.88
318.983	528.88
319.212	559.88
319.441	579.88
319.67	574.88
319.9	572.88
320.129	571.88
320.358	567.88
320.587	537.88
320.816	551.88
321.046	586.88
321.275	586.88
321.504	573.88
321.733	578.88
321.962	564.88
322.191	579.88
322.42	579.88
322.649	586.88
322.878	582.88
323.108	565.88
323.337	579.88
323.566	619.88
323.795	580.88
324.024	585.88
324.253	590.88
324.482	592.88
324.71	578.88
324.939	598.88
325.168	599.88
325.397	593.88
325.626	588.88
325.855	595.88
326.084	611.88
326.313	629.88
326.542	612.88
326.77	646.88
326.999	616.88
327.228	594.88
327.457	618.88
327.686	613.88
327.914	629.88
328.143	611.88
328.372	599.88
328.6	622.88
328.829	619.88
329.058	611.88
329.287	639.88
329.515	639.88
329.744	624.88
329.972	637.88
330.201	628.88
330.43	632.88
330.658	641.88
330.887	649.88
331.115	635.88
331.344	634.88
331.572	658.88
331.801	667.88
332.03	657.88
332.258	704.88
332.486	667.88
332.715	657.88
332.943	665.88
333.172	672.88
333.4	705.88
333.629	721.88
333.857	720.88
334.085	731.88
334.314	722.88
334.542	712.88
334.771	729.88
334.999	747.88
335.227	724.88
335.455	725.88
335.684	724.88
335.912	736.88
336.14	713.88
336.369	706.88
336.597	707.88
336.825	707.88
337.053	749.88
337.281	767.88
337.51	723.88
337.738	708.88
337.966	710.88
338.194	747.88
338.422	720.88
338.65	704.88
338.878	700.88
339.106	697.88
339.334	709.88
339.562	732.88
339.79	691.88
340.018	677.88
340.246	640.88
340.474	660.88
340.702	688.88
340.93	668.88
341.158	699.88
341.386	705.88
341.614	748.88
341.842	738.88
342.07	680.88
342.298	656.88
342.526	679.88
342.754	676.88
342.981	679.88
343.209	675.88
343.437	705.88
343.665	711.88
343.893	739.88
344.12	763.88
344.348	720.88
344.576	729.88
344.804	751.88
345.031	735.88
345.259	717.88
345.487	698.88
345.714	707.88
345.942	707.88
346.17	731.88
346.397	709.88
346.625	672.88
346.853	661.88
347.08	661.88
347.308	659.88
347.535	666.88
347.763	655.88
347.99	652.88
348.218	663.88
348.445	667.88
348.673	668.88
348.9	653.88
349.128	656.88
349.355	697.88
349.583	661.88
349.81	648.88
350.037	675.88
350.265	624.88
350.492	628.88
350.72	623.88
350.947	632.88
351.174	681.88
351.402	692.88
351.629	681.88
351.856	661.88
352.083	655.88
352.311	688.88
352.538	713.88
352.765	727.88
352.992	668.88
353.22	618.88
353.447	629.88
353.674	631.88
353.901	629.88
354.128	621.88
354.355	613.88
354.583	616.88
354.81	624.88
355.037	625.88
355.264	637.88
355.491	639.88
355.718	618.88
355.945	631.88
356.172	637.88
356.399	645.88
356.626	675.88
356.853	676.88
357.08	680.88
357.307	654.88
357.534	637.88
357.761	633.88
357.988	644.88
358.215	635.88
358.441	633.88
358.668	642.88
358.895	621.88
359.122	651.88
359.349	647.88
359.576	631.88
359.802	687.88
360.029	667.88
360.256	636.88
360.483	624.88
360.709	625.88
360.936	654.88
361.163	647.88
361.39	664.88
361.616	645.88
361.843	675.88
362.07	706.88
362.296	697.88
362.523	654.88
362.749	630.88
362.976	656.88
363.203	631.88
363.429	640.88
363.656	654.88
363.882	646.88
364.109	644.88
364.335	639.88
364.562	653.88
364.788	659.88
365.015	654.88
365.241	632.88
365.468	660.88
365.694	629.88
365.92	640.88
366.147	627.88
366.373	671.88
366.599	641.88
366.826	664.88
367.052	651.88
367.278	658.88
367.505	645.88
367.731	654.88
367.957	655.88
368.184	648.88
368.41	676.88
368.636	661.88
368.862	666.88
369.089	647.88
369.315	656.88
369.541	674.88
369.767	675.88
369.993	676.88
370.219	649.88
370.445	664.88
370.672	649.88
370.898	671.88
371.124	673.88
371.35	673.88
371.576	692.88
371.802	695.88
372.028	663.88
372.254	692.88
372.48	690.88
372.706	704.88
372.932	687.88
373.158	689.88
373.384	672.88
373.61	702.88
373.835	698.88
374.061	710.88
374.287	670.88
374.513	714.88
374.739	719.88
374.965	695.88
375.191	706.88
375.416	713.88
375.642	690.88
375.868	706.88
376.094	679.88
376.319	712.88
376.545	707.88
376.771	707.88
376.997	697.88
377.222	705.88
377.448	679.88
377.674	690.88
377.899	664.88
378.125	680.88
378.35	670.88
378.576	665.88
378.802	673.88
379.027	682.88
379.253	699.88
379.478	672.88
379.704	676.88
379.929	675.88
380.155	680.88
380.38	671.88
380.606	683.88
380.831	683.88
381.057	692.88
381.282	674.88
381.507	664.88
381.733	690.88
381.958	680.88
382.184	678.88
382.409	681.88
382.634	705.88
382.86	705.88
383.085	710.88
383.31	699.88
383.535	705.88
383.761	724.88
383.986	715.88
384.211	732.88
384.436	743.88
384.662	736.88
384.887	738.88
385.112	752.88
385.337	745.88
385.562	745.88
385.787	756.88
386.013	792.88
386.238	775.88
386.463	788.88
386.688	771.88
386.913	733.88
387.138	761.88
387.363	773.88
387.588	776.88
387.813	799.88
388.038	764.88
388.263	780.88
388.488	759.88
388.713	781.88
388.938	775.88
389.163	771.88
389.387	776.88
389.612	785.88
389.837	793.88
390.062	791.88
390.287	785.88
390.512	799.88
390.736	791.88
390.961	780.88
391.186	794.88
391.411	796.88
391.636	825.88
391.86	808.88
392.085	807.88
392.31	829.88
392.534	825.88
392.759	812.88
392.984	828.88
393.208	823.88
393.433	820.88
393.658	805.88
393.882	808.88
394.107	794.88
394.331	793.88
394.556	794.88
394.78	835.88
395.005	848.88
395.229	817.88
395.454	809.88
395.678	822.88
395.903	845.88
396.127	834.88
396.352	834.88
396.576	823.88
396.801	844.88
397.025	848.88
397.249	863.88
397.474	864.88
397.698	856.88
397.922	876.88
398.147	863.88
398.371	869.88
398.595	900.88
398.82	928.88
399.044	943.88
399.268	963.88
399.492	1011.88
399.717	1050.88
399.941	1085.88
400.165	1046.88
400.389	1031.88
400.613	1012.88
400.837	987.88
401.062	948.88
401.286	947.88
401.51	939.88
401.734	914.88
401.958	917.88
402.182	921.88
402.406	889.88
402.63	916.88
402.854	929.88
403.078	911.88
403.302	922.88
403.526	907.88
403.75	946.88
403.974	923.88
404.198	924.88
404.422	945.88
404.645	924.88
404.869	931.88
405.093	967.88
405.317	954.88
405.541	967.88
405.765	958.88
405.988	952.88
406.212	952.88
406.436	952.88
406.66	984.88
406.883	985.88
407.107	1007.88
407.331	1043.88
407.555	1048.88
407.778	1083.88
408.002	1052.88
408.226	1049.88
408.449	1077.88
408.673	1024.88
408.896	1013.88
409.12	997.88
409.344	1025.88
409.567	992.88
409.791	991.88
410.014	988.88
410.238	1003.88
410.461	981.88
410.685	944.88
410.908	976.88
411.132	971.88
411.355	936.88
411.578	952.88
411.802	971.88
412.025	951.88
412.249	960.88
412.472	946.88
412.695	952.88
412.919	955.88
413.142	928.88
413.365	933.88
413.589	911.88
413.812	927.88
414.035	931.88
414.258	923.88
414.482	920.88
414.705	907.88
414.928	909.88
415.151	919.88
415.374	913.88
415.597	927.88
415.821	916.88
416.044	890.88
416.267	903.88
416.49	907.88
416.713	894.88
416.936	881.88
417.159	917.88
417.382	879.88
417.605	864.88
417.828	871.88
418.051	881.88
418.274	887.88
418.497	888.88
418.72	911.88
418.943	895.88
419.166	923.88
419.389	959.88
419.611	954.88
419.834	940.88
420.057	892.88
420.28	880.88
420.503	888.88
420.726	870.88
420.948	881.88
421.171	891.88
421.394	883.88
421.617	871.88
421.839	909.88
422.062	909.88
422.285	869.88
422.507	893.88
422.73	888.88
422.953	860.88
423.175	871.88
423.398	877.88
423.621	856.88
423.843	883.88
424.066	872.88
424.288	875.88
424.511	907.88
424.733	868.88
424.956	871.88
425.178	894.88
425.401	882.88
425.623	885.88
425.846	847.88
426.068	857.88
426.291	866.88
426.513	884.88
426.735	846.88
426.958	869.88
427.18	867.88
427.402	888.88
427.625	849.88
427.847	832.88
428.069	841.88
428.292	857.88
428.514	826.88
428.736	837.88
428.958	850.88
429.181	855.88
429.403	835.88
429.625	841.88
429.847	849.88
430.069	840.88
430.292	828.88
430.514	837.88
430.736	847.88
430.958	853.88
431.18	811.88
431.402	852.88
431.624	847.88
431.846	856.88
432.068	856.88
432.29	845.88
432.512	869.88
432.734	895.88
432.956	856.88
433.178	876.88
433.4	887.88
433.622	889.88
433.844	872.88
434.066	886.88
434.287	871.88
434.509	904.88
434.731	889.88
434.953	887.88
435.175	930.88
435.397	913.88
435.618	868.88
435.84	891.88
436.062	855.88
436.284	861.88
436.505	873.88
436.727	869.88
436.949	839.88
437.17	815.88
437.392	846.88
437.614	837.88
437.835	831.88
438.057	828.88
438.278	824.88
438.5	794.88
438.721	841.88
438.943	862.88
439.165	818.88
439.386	829.88
439.608	845.88
439.829	827.88
440.05	838.88
440.272	861.88
440.493	858.88
440.715	879.88
440.936	838.88
441.158	871.88
441.379	869.88
441.6	917.88
441.822	949.88
442.043	894.88
442.264	864.88
442.486	874.88
442.707	890.88
442.928	918.88
443.149	901.88
443.371	917.88
443.592	957.88
443.813	933.88
444.034	891.88
444.255	895.88
444.476	934.88
444.698	948.88
444.919	986.88
445.14	1080.88
445.361	979.88
445.582	917.88
445.803	893.88
446.024	875.88
446.245	873.88
446.466	888.88
446.687	855.88
446.908	852.88
447.129	804.88
447.35	832.88
447.571	813.88
447.792	805.88
448.013	802.88
448.234	800.88
448.455	801.88
448.675	780.88
448.896	804.88
449.117	771.88
449.338	786.88
449.559	760.88
449.779	777.88
450	767.88
450.221	769.88
450.442	792.88
450.662	785.88
450.883	797.88
451.104	818.88
451.324	789.88
451.545	781.88
451.766	744.88
451.986	755.88
452.207	745.88
452.428	769.88
452.648	758.88
452.869	720.88
453.089	771.88
453.31	785.88
453.53	761.88
453.751	741.88
453.971	751.88
454.192	757.88
454.412	753.88
454.633	731.88
454.853	765.88
455.073	776.88
455.294	762.88
455.514	744.88
455.734	766.88
455.955	773.88
456.175	779.88
456.395	741.88
456.616	751.88
456.836	760.88
457.056	746.88
457.276	749.88
457.497	733.88
457.717	785.88
457.937	755.88
458.157	770.88
458.377	767.88
458.598	759.88
458.818	789.88
459.038	797.88
459.258	856.88
459.478	896.88
459.698	954.88
459.918	962.88
460.138	925.88
460.358	908.88
460.578	933.88
460.798	951.88
461.018	948.88
461.238	921.88
461.458	915.88
461.678	934.88
461.898	937.88
462.118	915.88
462.338	969.88
462.558	1001.88
462.777	1028.88
462.997	1055.88
463.217	1058.88
463.437	1100.88
463.657	1062.88
463.876	1045.88
464.096	1027.88
464.316	975.88
464.536	1012.88
464.755	970.88
464.975	954.88
465.195	915.88
465.414	912.88
465.634	888.88
465.854	848.88
466.073	844.88
466.293	837.88
466.512	831.88
466.732	835.88
466.951	820.88
467.171	848.88
467.391	839.88
467.61	835.88
467.829	823.88
468.049	803.88
468.268	797.88
468.488	777.88
468.707	821.88
468.927	781.88
469.146	797.88
469.365	868.88
469.585	837.88
469.804	810.88
470.023	815.88
470.243	813.88
470.462	824.88
470.681	807.88
470.901	830.88
471.12	841.88
471.339	811.88
471.558	809.88
471.777	804.88
471.997	788.88
472.216	808.88
472.435	798.88
472.654	803.88
472.873	817.88
473.092	815.88
473.311	795.88
473.53	824.88
473.749	808.88
473.968	826.88
474.187	799.88
474.406	803.88
474.625	797.88
474.844	836.88
475.063	841.88
475.282	813.88
475.501	846.88
475.72	831.88
475.939	837.88
476.158	832.88
476.377	819.88
476.596	814.88
476.814	857.88
477.033	886.88
477.252	869.88
477.471	862.88
477.69	879.88
477.908	919.88
478.127	933.88
478.346	912.88
478.564	924.88
478.783	937.88
479.002	982.88
479.22	1010.88
479.439	998.88
479.658	948.88
479.876	967.88
480.095	973.88
480.313	956.88
480.532	962.88
480.751	1012.88
480.969	985.88
481.188	987.88
481.406	961.88
481.624	969.88
481.843	968.88
482.061	938.88
482.28	946.88
482.498	953.88
482.717	935.88
482.935	955.88
483.153	989.88
483.372	1023.88
483.59	1044.88
483.808	983.88
484.027	975.88
484.245	969.88
484.463	971.88
484.681	1001.88
484.9	999.88
485.118	965.88
485.336	1000.88
485.554	987.88
485.772	973.88
485.99	1007.88
486.209	989.88
486.427	988.88
486.645	969.88
486.863	1002.88
487.081	964.88
487.299	989.88
487.517	989.88
487.735	982.88
487.953	1034.88
488.171	1018.88
488.389	1016.88
488.607	984.88
488.825	989.88
489.043	975.88
489.261	975.88
489.479	967.88
489.696	981.88
489.914	964.88
490.132	985.88
490.35	974.88
490.568	994.88
490.786	1000.88
491.003	973.88
491.221	994.88
491.439	1016.88
491.657	1010.88
491.874	996.88
492.092	1029.88
492.31	1033.88
492.527	1037.88
492.745	1011.88
492.963	1041.88
493.18	1020.88
493.398	1026.88
493.615	1040.88
493.833	979.88
494.05	1033.88
494.268	1033.88
494.485	1041.88
494.703	1017.88
494.92	1023.88
495.138	1043.88
495.355	1061.88
495.573	1059.88
495.79	1083.88
496.008	1067.88
496.225	1049.88
496.442	1043.88
496.66	1086.88
496.877	1065.88
497.094	1100.88
497.312	1087.88
497.529	1121.88
497.746	1135.88
497.963	1169.88
498.181	1205.88
498.398	1195.88
498.615	1237.88
498.832	1293.88
499.049	1331.88
499.267	1408.88
499.484	1479.88
499.701	1528.88
499.918	1575.88
500.135	1683.88
500.352	1739.88
500.569	1764.88
500.786	1770.88
501.003	1746.88
501.22	1632.88
501.437	1555.88
501.654	1483.88
501.871	1436.88
502.088	1371.88
502.305	1337.88
502.522	1305.88
502.739	1277.88
502.956	1218.88
503.172	1200.88
503.389	1147.88
503.606	1132.88
503.823	1119.88
504.04	1091.88
504.256	1104.88
504.473	1062.88
504.69	1068.88
504.907	1065.88
505.123	1033.88
505.34	1019.88
505.557	984.88
505.773	969.88
505.99	975.88
506.207	953.88
506.423	930.88
506.64	945.88
506.856	909.88
507.073	903.88
507.289	899.88
507.506	884.88
507.722	868.88
507.939	903.88
508.155	876.88
508.372	869.88
508.588	897.88
508.805	853.88
509.021	862.88
509.238	845.88
509.454	847.88
509.67	823.88
509.887	833.88
510.103	835.88
510.319	804.88
510.536	833.88
510.752	811.88
510.968	806.88
511.184	803.88
511.401	817.88
511.617	803.88
511.833	812.88
512.049	814.88
512.265	805.88
512.481	836.88
512.698	811.88
512.914	799.88
513.13	812.88
513.346	814.88
513.562	808.88
513.778	816.88
513.994	823.88
514.21	822.88
514.426	794.88
514.642	816.88
514.858	834.88
515.074	833.88
515.29	839.88
515.506	836.88
515.721	849.88
515.937	868.88
516.153	825.88
516.369	858.88
516.585	857.88
516.801	878.88
517.016	905.88
517.232	887.88
517.448	891.88
517.664	907.88
517.879	923.88
518.095	943.88
518.311	887.88
518.527	891.88
518.742	865.88
518.958	857.88
519.173	866.88
519.389	839.88
519.605	858.88
519.82	821.88
520.036	809.88
520.251	809.88
520.467	820.88
520.682	805.88
520.898	794.88
521.113	809.88
521.329	779.88
521.544	812.88
521.76	782.88
521.975	727.88
522.19	764.88
522.406	755.88
522.621	744.88
522.836	756.88
523.052	735.88
523.267	730.88
523.482	747.88
523.698	755.88
523.913	723.88
524.128	749.88
524.343	731.88
524.559	713.88
524.774	722.88
524.989	732.88
525.204	708.88
525.419	737.88
525.634	721.88
525.849	713.88
526.064	717.88
526.28	715.88
526.495	706.88
526.71	705.88
526.925	706.88
527.14	688.88
527.355	697.88
527.57	694.88
527.785	709.88
527.999	707.88
528.214	727.88
528.429	733.88
528.644	696.88
528.859	729.88
529.074	708.88
529.289	727.88
529.503	733.88
529.718	700.88
529.933	710.88
530.148	685.88
530.363	724.88
530.577	689.88
530.792	703.88
531.007	699.88
531.221	703.88
531.436	702.88
531.651	703.88
531.865	688.88
532.08	655.88
532.295	673.88
532.509	676.88
532.724	698.88
532.938	701.88
533.153	693.88
533.367	684.88
533.582	697.88
533.796	706.88
534.011	691.88
534.225	683.88
534.44	665.88
534.654	685.88
534.868	674.88
535.083	672.88
535.297	681.88
535.511	678.88
535.726	657.88
535.94	652.88
536.154	661.88
536.369	660.88
536.583	648.88
536.797	647.88
537.011	651.88
537.225	657.88
537.44	651.88
537.654	661.88
537.868	637.88
538.082	639.88
538.296	657.88
538.51	629.88
538.724	654.88
538.938	634.88
539.153	651.88
539.367	657.88
539.581	648.88
539.795	645.88
540.009	616.88
540.222	602.88
540.436	613.88
540.65	640.88
540.864	635.88
541.078	653.88
541.292	644.88
541.506	639.88
541.72	655.88
541.934	624.88
542.147	645.88
542.361	637.88
542.575	668.88
542.789	639.88
543.002	626.88
543.216	597.88
543.43	638.88
543.644	620.88
543.857	625.88
544.071	634.88
544.285	623.88
544.498	618.88
544.712	632.88
544.925	639.88
545.139	627.88
545.352	647.88
545.566	637.88
545.779	660.88
545.993	641.88
546.206	637.88
546.42	654.88
546.633	641.88
546.847	636.88
547.06	623.88
547.274	640.88
547.487	636.88
547.7	652.88
547.914	660.88
548.127	655.88
548.34	638.88
548.554	621.88
548.767	651.88
548.98	681.88
549.193	636.88
549.407	619.88
549.62	619.88
549.833	626.88
550.046	631.88
550.259	622.88
550.473	593.88
550.686	617.88
550.899	632.88
551.112	631.88
551.325	614.88
551.538	617.88
551.751	616.88
551.964	627.88
552.177	627.88
552.39	627.88
552.603	630.88
552.816	645.88
553.029	630.88
553.242	629.88
553.455	631.88
553.667	621.88
553.88	644.88
554.093	632.88
554.306	616.88
554.519	626.88
554.732	615.88
554.944	601.88
555.157	603.88
555.37	583.88
555.583	584.88
555.795	571.88
556.008	573.88
556.221	581.88
556.433	577.88
556.646	568.88
556.859	574.88
557.071	571.88
557.284	566.88
557.496	546.88
557.709	552.88
557.921	561.88
558.134	551.88
558.346	559.88
558.559	540.88
558.771	547.88
558.984	551.88
559.196	558.88
559.409	551.88
559.621	537.88
559.833	522.88
560.046	520.88
560.258	567.88
560.47	550.88
560.683	530.88
560.895	543.88
561.107	547.88
561.32	540.88
561.532	535.88
561.744	542.88
561.956	540.88
562.168	525.88
562.381	539.88
562.593	543.88
562.805	543.88
563.017	528.88
563.229	544.88
563.441	536.88
563.653	549.88
563.865	552.88
564.077	541.88
564.289	525.88
564.501	537.88
564.713	548.88
564.925	563.88
565.137	562.88
565.349	575.88
565.561	615.88
565.773	607.88
565.985	609.88
566.197	624.88
566.408	640.88
566.62	643.88
566.832	671.88
567.044	684.88
567.255	672.88
567.467	675.88
567.679	681.88
567.891	680.88
568.102	704.88
568.314	662.88
568.526	641.88
568.737	666.88
568.949	615.88
569.161	593.88
569.372	552.88
569.584	551.88
569.795	533.88
570.007	535.88
570.218	528.88
570.43	517.88
570.641	494.88
570.853	526.88
571.064	512.88
571.276	500.88
571.487	489.88
571.698	471.88
571.91	486.88
572.121	477.88
572.333	461.88
572.544	474.88
572.755	465.88
572.966	441.88
573.178	456.88
573.389	429.88
573.6	445.88
573.811	440.88
574.023	449.88
574.234	430.88
574.445	443.88
574.656	428.88
574.867	433.88
575.078	417.88
575.289	422.88
575.501	442.88
575.712	437.88
575.923	441.88
576.134	395.88
576.345	412.88
576.556	418.88
576.767	393.88
576.978	434.88
577.188	403.88
577.399	419.88
577.61	401.88
577.821	407.88
578.032	395.88
578.243	419.88
578.454	417.88
578.665	406.88
578.875	385.88
579.086	381.88
579.297	400.88
579.508	395.88
579.718	375.88
579.929	390.88
580.14	394.88
580.35	373.88
580.561	353.88
580.772	383.88
580.982	391.88
581.193	361.88
581.403	377.88
581.614	385.88
581.825	381.88
582.035	364.88
582.246	397.88
582.456	347.88
582.667	360.88
582.877	360.88
583.087	381.88
583.298	366.88
583.508	377.88
583.719	374.88
583.929	380.88
584.139	368.88
584.35	377.88
584.56	350.88
584.77	364.88
584.981	360.88
585.191	359.88
585.401	360.88
585.611	352.88
585.821	363.88
586.032	360.88
586.242	328.88
586.452	365.88
586.662	354.88
586.872	356.88
587.082	357.88
587.292	349.88
587.502	360.88
587.713	363.88
587.923	353.88
588.133	355.88
588.343	322.88
588.553	353.88
588.762	354.88
588.972	354.88
589.182	385.88
589.392	369.88
589.602	351.88
589.812	379.88
590.022	356.88
590.232	348.88
590.441	368.88
590.651	351.88
590.861	360.88
591.071	354.88
591.281	333.88
591.49	369.88
591.7	371.88
591.91	371.88
592.119	341.88
592.329	354.88
592.539	356.88
592.748	386.88
592.958	385.88
593.167	370.88
593.377	375.88
593.587	383.88
593.796	364.88
594.006	356.88
594.215	380.88
594.424	380.88
594.634	378.88
594.843	358.88
595.053	335.88
595.262	358.88
595.472	350.88
595.681	337.88
595.89	345.88
596.1	340.88
596.309	333.88
596.518	335.88
596.727	330.88
596.937	313.88
597.146	342.88
597.355	330.88
597.564	328.88
597.774	306.88
597.983	315.88
598.192	314.88
598.401	314.88
598.61	319.88
598.819	320.88
599.028	315.88
599.237	315.88
599.446	304.88
599.655	301.88
599.864	304.88
600.073	299.88
600.282	309.88
600.491	290.88
600.7	309.88
600.909	305.88
601.118	301.88
601.327	301.88
601.536	275.88
601.745	292.88
601.953	286.88
602.162	291.88
602.371	293.88
602.58	304.88
602.789	293.88
602.997	276.88
603.206	301.88
603.415	286.88
603.623	290.88
603.832	295.88
604.041	278.88
604.249	273.88
604.458	283.88
604.666	280.88
604.875	282.88
605.084	270.88
605.292	275.88
605.501	283.88
605.709	294.88
605.918	283.88
606.126	281.88
606.334	278.88
606.543	276.88
606.751	275.88
606.96	276.88
607.168	278.88
607.376	264.88
607.585	282.88
607.793	272.88
608.001	279.88
608.21	290.88
608.418	267.88
608.626	275.88
608.834	266.88
609.043	276.88
609.251	281.88
609.459	280.88
609.667	292.88
609.875	277.88
610.083	264.88
610.291	245.88
610.499	244.88
610.707	277.88
610.916	270.88
611.124	280.88
611.332	261.88
611.54	278.88
611.748	251.88
611.955	265.88
612.163	281.88
612.371	273.88
612.579	262.88
612.787	261.88
612.995	271.88
613.203	283.88
613.411	262.88
613.618	272.88
613.826	267.88
614.034	265.88
614.242	255.88
614.449	259.88
614.657	243.88
614.865	265.88
615.072	257.88
615.28	270.88
615.488	269.88
615.695	281.88
615.903	263.88
616.111	268.88
616.318	267.88
616.526	242.88
616.733	266.88
616.941	252.88
617.148	278.88
617.356	249.88
617.563	266.88
617.771	247.88
617.978	235.88
618.185	234.88
618.393	241.88
618.6	256.88
618.807	251.88
619.015	248.88
619.222	242.88
619.429	253.88
619.637	245.88
619.844	244.88
620.051	262.88
620.258	251.88
620.466	235.88
620.673	245.88
620.88	257.88
621.087	248.88
621.294	265.88
621.501	219.88
621.708	234.88
621.915	237.88
622.122	239.88
622.329	234.88
622.536	233.88
622.743	239.88
622.95	243.88
623.157	260.88
623.364	245.88
623.571	227.88
623.778	265.88
623.985	247.88
624.192	239.88
624.399	254.88
624.606	248.88
624.812	255.88
625.019	224.88
625.226	232.88
625.433	247.88
625.639	232.88
625.846	239.88
626.053	223.88
626.259	228.88
626.466	230.88
626.673	223.88
626.879	204.88
627.086	223.88
627.293	219.88
627.499	216.88
627.706	232.88
627.912	233.88
628.119	232.88
628.325	243.88
628.532	201.88
628.738	215.88
628.945	212.88
629.151	212.88
629.357	223.88
629.564	211.88
629.77	221.88
629.976	217.88
630.183	216.88
630.389	202.88
630.595	215.88
630.802	219.88
631.008	216.88
631.214	209.88
631.42	216.88
631.627	227.88
631.833	233.88
632.039	216.88
632.245	225.88
632.451	207.88
632.657	215.88
632.863	216.88
633.069	196.88
633.275	204.88
633.481	197.88
633.688	210.88
633.893	213.88
634.099	203.88
634.305	207.88
634.511	202.88
634.717	189.88
634.923	202.88
635.129	203.88
635.335	191.88
635.541	203.88
635.747	208.88
635.952	194.88
636.158	185.88
636.364	189.88
636.57	227.88
636.775	217.88
636.981	198.88
637.187	192.88
637.392	214.88
637.598	191.88
637.804	195.88
638.009	211.88
638.215	194.88
638.421	203.88
638.626	205.88
638.832	201.88
639.037	192.88
639.243	187.88
639.448	207.88
639.654	210.88
639.859	205.88
640.065	199.88
640.27	208.88
640.475	191.88
640.681	209.88
640.886	202.88
641.091	210.88
641.297	183.88
641.502	184.88
641.707	199.88
641.913	186.88
642.118	191.88
642.323	197.88
642.528	204.88
642.733	184.88
642.939	215.88
643.144	186.88
643.349	201.88
643.554	184.88
643.759	209.88
643.964	200.88
644.169	204.88
644.374	191.88
644.579	217.88
644.784	209.88
644.989	203.88
645.194	196.88
645.399	206.88
645.604	203.88
645.809	189.88
646.014	209.88
646.219	194.88
646.423	183.88
646.628	200.88
646.833	203.88
647.038	218.88
647.243	185.88
647.447	203.88
647.652	218.88
647.857	221.88
648.062	180.88
648.266	192.88
648.471	200.88
648.676	212.88
648.88	212.88
649.085	208.88
649.289	213.88
649.494	194.88
649.698	217.88
649.903	194.88
650.107	203.88
650.312	216.88
650.516	206.88
650.721	205.88
650.925	216.88
651.13	204.88
651.334	198.88
651.539	196.88
651.743	204.88
651.947	198.88
652.152	206.88
652.356	200.88
652.56	192.88
652.764	183.88
652.969	187.88
653.173	212.88
653.377	200.88
653.581	198.88
653.785	191.88
653.99	191.88
654.194	197.88
654.398	194.88
654.602	204.88
654.806	205.88
655.01	199.88
655.214	214.88
655.418	207.88
655.622	223.88
655.826	226.88
656.03	244.88
656.234	220.88
656.438	227.88
656.642	226.88
656.846	222.88
657.049	217.88
657.253	202.88
657.457	187.88
657.661	192.88
657.865	166.88
658.068	164.88
658.272	157.88
658.476	148.88
658.68	141.88
658.883	139.88
659.087	132.88
659.291	123.88
659.494	139.88
659.698	125.88
659.901	116.88
660.105	111.88
660.309	113.88
660.512	111.88
660.716	101.88
660.919	106.88
661.123	108.88
661.326	106.88
661.53	104.88
661.733	99.88
661.936	92.88
662.14	97.88
662.343	93.88
662.546	88.88
662.75	81.88
662.953	81.88
663.156	87.88
663.36	69.88
663.563	95.88
663.766	73.88
663.969	83.88
664.173	84.88
664.376	80.88
664.579	85.88
664.782	86.88
664.985	89.88
665.188	92.88
665.391	80.88
665.594	85.88
665.797	77.88
666	88.88
666.203	90.88
666.406	85.88
666.609	85.88
666.812	89.88
667.015	90.88
667.218	76.88
667.421	75.88
667.624	77.88
667.827	84.88
668.03	82.88
668.232	74.88
668.435	84.88
668.638	62.88
668.841	88.88
669.043	76.88
669.246	75.88
669.449	89.88
669.651	85.88
669.854	71.88
670.057	70.88
670.259	65.88
670.462	83.88
670.665	76.88
670.867	79.88
671.07	81.88
671.272	97.88
671.475	78.88
671.677	90.88
671.88	89.88
672.082	95.88
672.284	67.88
672.487	85.88
672.689	84.88
672.892	76.88
