Data from Ni(NO3)2@0.5M.TitratingCurve.Agarose3%dH2O.NegLispCup.LampEnergy10.LIBS07252019_HRD10591_17-58-31-564.txt Node
Date: Thu Jul 25 17:58:31 EDT 2019
User: cochatt
Spectrometer: HR+D1059
Trigger mode: 1
Integration Time (sec): 1.000000E-1
Scans to average: 1
Electric dark correction enabled: true
Nonlinearity correction enabled: false
Boxcar width: 0
XAxis mode: Wavelengths
Number of Pixels in Spectrum: 2048
>>>>>Begin Spectral Data<<<<<
223.165	-13.88
223.4	-13.88
223.635	-13.88
223.869	-29.88
224.104	-23.88
224.338	-19.88
224.573	-21.88
224.808	0.12
225.042	-2.88
225.277	3.12
225.511	-1.88
225.746	1.12
225.98	-1.88
226.215	7.12
226.449	17.12
226.683	30.12
226.918	25.12
227.152	32.12
227.387	35.12
227.621	39.12
227.856	39.12
228.09	44.12
228.324	38.12
228.559	62.12
228.793	67.12
229.027	100.12
229.262	120.12
229.496	114.12
229.73	133.12
229.964	157.12
230.199	156.12
230.433	167.12
230.667	159.12
230.901	164.12
231.136	136.12
231.37	149.12
231.604	163.12
231.838	177.12
232.072	168.12
232.306	158.12
232.541	165.12
232.775	151.12
233.009	144.12
233.243	134.12
233.477	155.12
233.711	151.12
233.945	145.12
234.179	154.12
234.413	155.12
234.647	143.12
234.881	149.12
235.115	150.12
235.349	156.12
235.583	123.12
235.817	150.12
236.051	136.12
236.285	145.12
236.519	145.12
236.753	151.12
236.987	145.12
237.221	147.12
237.455	149.12
237.689	165.12
237.922	149.12
238.156	144.12
238.39	152.12
238.624	151.12
238.858	173.12
239.091	153.12
239.325	157.12
239.559	176.12
239.793	188.12
240.027	183.12
240.26	171.12
240.494	182.12
240.728	171.12
240.961	159.12
241.195	166.12
241.429	176.12
241.662	169.12
241.896	190.12
242.13	188.12
242.363	183.12
242.597	185.12
242.83	171.12
243.064	180.12
243.298	181.12
243.531	170.12
243.765	174.12
243.998	173.12
244.232	194.12
244.465	191.12
244.699	197.12
244.932	184.12
245.166	197.12
245.399	208.12
245.633	178.12
245.866	187.12
246.099	192.12
246.333	200.12
246.566	204.12
246.8	195.12
247.033	204.12
247.266	214.12
247.5	203.12
247.733	214.12
247.966	217.12
248.2	212.12
248.433	221.12
248.666	209.12
248.899	226.12
249.133	195.12
249.366	233.12
249.599	223.12
249.832	224.12
250.066	244.12
250.299	243.12
250.532	240.12
250.765	229.12
250.998	235.12
251.231	261.12
251.465	258.12
251.698	257.12
251.931	250.12
252.164	240.12
252.397	243.12
252.63	246.12
252.863	234.12
253.096	263.12
253.329	275.12
253.562	259.12
253.795	246.12
254.028	263.12
254.261	258.12
254.494	253.12
254.727	273.12
254.96	248.12
255.193	261.12
255.426	258.12
255.659	260.12
255.892	263.12
256.124	271.12
256.357	291.12
256.59	291.12
256.823	275.12
257.056	281.12
257.289	259.12
257.521	281.12
257.754	289.12
257.987	288.12
258.22	290.12
258.452	282.12
258.685	291.12
258.918	292.12
259.151	300.12
259.383	287.12
259.616	293.12
259.849	299.12
260.081	308.12
260.314	304.12
260.547	279.12
260.779	297.12
261.012	303.12
261.244	295.12
261.477	310.12
261.71	338.12
261.942	342.12
262.175	318.12
262.407	300.12
262.64	309.12
262.872	332.12
263.105	320.12
263.337	313.12
263.57	305.12
263.802	337.12
264.035	336.12
264.267	344.12
264.499	342.12
264.732	339.12
264.964	338.12
265.197	317.12
265.429	333.12
265.661	305.12
265.894	339.12
266.126	338.12
266.358	328.12
266.591	342.12
266.823	355.12
267.055	336.12
267.287	333.12
267.52	349.12
267.752	328.12
267.984	357.12
268.216	363.12
268.448	349.12
268.681	339.12
268.913	367.12
269.145	378.12
269.377	368.12
269.609	354.12
269.841	343.12
270.073	351.12
270.306	380.12
270.538	349.12
270.77	377.12
271.002	387.12
271.234	358.12
271.466	377.12
271.698	370.12
271.93	382.12
272.162	367.12
272.394	383.12
272.626	386.12
272.858	406.12
273.09	377.12
273.322	388.12
273.553	380.12
273.785	394.12
274.017	371.12
274.249	385.12
274.481	387.12
274.713	376.12
274.945	396.12
275.176	399.12
275.408	406.12
275.64	415.12
275.872	416.12
276.104	411.12
276.335	412.12
276.567	400.12
276.799	395.12
277.031	423.12
277.262	408.12
277.494	415.12
277.726	423.12
277.957	415.12
278.189	427.12
278.421	431.12
278.652	397.12
278.884	435.12
279.115	411.12
279.347	437.12
279.579	425.12
279.81	414.12
280.042	445.12
280.273	427.12
280.505	439.12
280.736	452.12
280.968	425.12
281.199	458.12
281.431	434.12
281.662	432.12
281.894	431.12
282.125	431.12
282.356	441.12
282.588	437.12
282.819	454.12
283.051	449.12
283.282	432.12
283.513	446.12
283.745	455.12
283.976	459.12
284.207	465.12
284.439	472.12
284.67	457.12
284.901	457.12
285.132	456.12
285.364	451.12
285.595	460.12
285.826	448.12
286.057	470.12
286.288	459.12
286.52	467.12
286.751	466.12
286.982	459.12
287.213	459.12
287.444	458.12
287.675	460.12
287.906	479.12
288.138	483.12
288.369	483.12
288.6	478.12
288.831	479.12
289.062	480.12
289.293	484.12
289.524	504.12
289.755	492.12
289.986	468.12
290.217	492.12
290.448	496.12
290.679	492.12
290.91	474.12
291.141	490.12
291.371	488.12
291.602	467.12
291.833	472.12
292.064	516.12
292.295	486.12
292.526	491.12
292.757	482.12
292.987	489.12
293.218	477.12
293.449	483.12
293.68	465.12
293.91	487.12
294.141	499.12
294.372	496.12
294.603	529.12
294.833	497.12
295.064	489.12
295.295	482.12
295.525	483.12
295.756	509.12
295.987	515.12
296.217	499.12
296.448	486.12
296.679	492.12
296.909	516.12
297.14	523.12
297.37	509.12
297.601	523.12
297.831	535.12
298.062	505.12
298.292	502.12
298.523	526.12
298.753	517.12
298.984	542.12
299.214	520.12
299.445	537.12
299.675	531.12
299.905	522.12
300.136	565.12
300.366	576.12
300.597	575.12
300.827	561.12
301.057	565.12
301.288	568.12
301.518	583.12
301.748	548.12
301.979	565.12
302.209	586.12
302.439	559.12
302.669	523.12
302.9	555.12
303.13	545.12
303.36	545.12
303.59	586.12
303.82	582.12
304.051	577.12
304.281	570.12
304.511	562.12
304.741	593.12
304.971	599.12
305.201	599.12
305.431	601.12
305.661	607.12
305.891	596.12
306.121	572.12
306.352	546.12
306.582	571.12
306.812	576.12
307.042	547.12
307.272	559.12
307.502	570.12
307.731	562.12
307.961	577.12
308.191	571.12
308.421	565.12
308.651	588.12
308.881	573.12
309.111	549.12
309.341	575.12
309.571	547.12
309.8	571.12
310.03	598.12
310.26	640.12
310.49	631.12
310.72	590.12
310.949	605.12
311.179	587.12
311.409	594.12
311.639	587.12
311.868	601.12
312.098	588.12
312.328	607.12
312.557	603.12
312.787	581.12
313.017	608.12
313.246	641.12
313.476	616.12
313.706	639.12
313.935	623.12
314.165	630.12
314.394	605.12
314.624	626.12
314.853	595.12
315.083	613.12
315.312	640.12
315.542	629.12
315.771	641.12
316.001	650.12
316.23	645.12
316.46	631.12
316.689	639.12
316.919	620.12
317.148	640.12
317.377	636.12
317.607	642.12
317.836	623.12
318.065	658.12
318.295	630.12
318.524	665.12
318.753	657.12
318.983	664.12
319.212	653.12
319.441	628.12
319.67	649.12
319.9	664.12
320.129	639.12
320.358	638.12
320.587	625.12
320.816	689.12
321.046	671.12
321.275	656.12
321.504	681.12
321.733	674.12
321.962	668.12
322.191	677.12
322.42	702.12
322.649	688.12
322.878	664.12
323.108	649.12
323.337	696.12
323.566	695.12
323.795	704.12
324.024	702.12
324.253	700.12
324.482	687.12
324.71	690.12
324.939	676.12
325.168	695.12
325.397	707.12
325.626	691.12
325.855	702.12
326.084	714.12
326.313	740.12
326.542	743.12
326.77	736.12
326.999	687.12
327.228	709.12
327.457	726.12
327.686	713.12
327.914	727.12
328.143	723.12
328.372	750.12
328.6	720.12
328.829	721.12
329.058	720.12
329.287	737.12
329.515	742.12
329.744	736.12
329.972	761.12
330.201	728.12
330.43	729.12
330.658	749.12
330.887	764.12
331.115	746.12
331.344	759.12
331.572	779.12
331.801	780.12
332.03	804.12
332.258	790.12
332.486	806.12
332.715	809.12
332.943	806.12
333.172	794.12
333.4	825.12
333.629	815.12
333.857	832.12
334.085	829.12
334.314	831.12
334.542	841.12
334.771	840.12
334.999	855.12
335.227	877.12
335.455	858.12
335.684	877.12
335.912	868.12
336.14	846.12
336.369	871.12
336.597	893.12
336.825	907.12
337.053	864.12
337.281	854.12
337.51	857.12
337.738	876.12
337.966	870.12
338.194	884.12
338.422	869.12
338.65	829.12
338.878	837.12
339.106	857.12
339.334	831.12
339.562	858.12
339.79	829.12
340.018	823.12
340.246	807.12
340.474	807.12
340.702	820.12
340.93	824.12
341.158	817.12
341.386	898.12
341.614	871.12
341.842	864.12
342.07	843.12
342.298	817.12
342.526	844.12
342.754	804.12
342.981	795.12
343.209	828.12
343.437	851.12
343.665	839.12
343.893	874.12
344.12	843.12
344.348	855.12
344.576	915.12
344.804	879.12
345.031	864.12
345.259	843.12
345.487	852.12
345.714	872.12
345.942	869.12
346.17	886.12
346.397	857.12
346.625	812.12
346.853	801.12
347.08	821.12
347.308	835.12
347.535	809.12
347.763	785.12
347.99	802.12
348.218	790.12
348.445	810.12
348.673	776.12
348.9	796.12
349.128	817.12
349.355	816.12
349.583	807.12
349.81	791.12
350.037	756.12
350.265	787.12
350.492	776.12
350.72	775.12
350.947	764.12
351.174	803.12
351.402	843.12
351.629	833.12
351.856	837.12
352.083	799.12
352.311	798.12
352.538	852.12
352.765	872.12
352.992	792.12
353.22	753.12
353.447	760.12
353.674	748.12
353.901	766.12
354.128	751.12
354.355	753.12
354.583	747.12
354.81	767.12
355.037	767.12
355.264	753.12
355.491	752.12
355.718	774.12
355.945	755.12
356.172	764.12
356.399	801.12
356.626	791.12
356.853	810.12
357.08	788.12
357.307	786.12
357.534	757.12
357.761	754.12
357.988	782.12
358.215	740.12
358.441	779.12
358.668	769.12
358.895	780.12
359.122	749.12
359.349	737.12
359.576	764.12
359.802	777.12
360.029	742.12
360.256	779.12
360.483	785.12
360.709	770.12
360.936	797.12
361.163	778.12
361.39	772.12
361.616	801.12
361.843	808.12
362.07	849.12
362.296	827.12
362.523	784.12
362.749	764.12
362.976	760.12
363.203	757.12
363.429	767.12
363.656	771.12
363.882	774.12
364.109	763.12
364.335	739.12
364.562	746.12
364.788	762.12
365.015	777.12
365.241	746.12
365.468	761.12
365.694	771.12
365.92	772.12
366.147	795.12
366.373	802.12
366.599	760.12
366.826	789.12
367.052	804.12
367.278	789.12
367.505	798.12
367.731	832.12
367.957	779.12
368.184	787.12
368.41	773.12
368.636	783.12
368.862	792.12
369.089	779.12
369.315	776.12
369.541	802.12
369.767	809.12
369.993	815.12
370.219	780.12
370.445	831.12
370.672	819.12
370.898	799.12
371.124	801.12
371.35	816.12
371.576	819.12
371.802	826.12
372.028	827.12
372.254	821.12
372.48	806.12
372.706	827.12
372.932	815.12
373.158	851.12
373.384	836.12
373.61	823.12
373.835	841.12
374.061	832.12
374.287	851.12
374.513	853.12
374.739	863.12
374.965	857.12
375.191	831.12
375.416	860.12
375.642	845.12
375.868	826.12
376.094	823.12
376.319	833.12
376.545	830.12
376.771	796.12
376.997	789.12
377.222	831.12
377.448	808.12
377.674	817.12
377.899	835.12
378.125	777.12
378.35	805.12
378.576	806.12
378.802	807.12
379.027	794.12
379.253	815.12
379.478	804.12
379.704	799.12
379.929	789.12
380.155	817.12
380.38	806.12
380.606	812.12
380.831	816.12
381.057	848.12
381.282	797.12
381.507	828.12
381.733	818.12
381.958	837.12
382.184	807.12
382.409	838.12
382.634	832.12
382.86	839.12
383.085	850.12
383.31	865.12
383.535	870.12
383.761	861.12
383.986	880.12
384.211	877.12
384.436	892.12
384.662	889.12
384.887	916.12
385.112	887.12
385.337	900.12
385.562	888.12
385.787	914.12
386.013	926.12
386.238	936.12
386.463	912.12
386.688	928.12
386.913	923.12
387.138	920.12
387.363	920.12
387.588	908.12
387.813	907.12
388.038	947.12
388.263	900.12
388.488	943.12
388.713	900.12
388.938	940.12
389.163	913.12
389.387	919.12
389.612	912.12
389.837	925.12
390.062	907.12
390.287	931.12
390.512	918.12
390.736	898.12
390.961	953.12
391.186	950.12
391.411	952.12
391.636	948.12
391.86	969.12
392.085	972.12
392.31	963.12
392.534	977.12
392.759	963.12
392.984	984.12
393.208	945.12
393.433	998.12
393.658	958.12
393.882	967.12
394.107	945.12
394.331	958.12
394.556	968.12
394.78	957.12
395.005	964.12
395.229	978.12
395.454	982.12
395.678	999.12
395.903	989.12
396.127	961.12
396.352	963.12
396.576	980.12
396.801	1008.12
397.025	1005.12
397.249	1002.12
397.474	1041.12
397.698	1016.12
397.922	1054.12
398.147	1038.12
398.371	1044.12
398.595	1073.12
398.82	1071.12
399.044	1107.12
399.268	1132.12
399.492	1195.12
399.717	1248.12
399.941	1248.12
400.165	1202.12
400.389	1177.12
400.613	1133.12
400.837	1155.12
401.062	1123.12
401.286	1116.12
401.51	1102.12
401.734	1074.12
401.958	1095.12
402.182	1096.12
402.406	1092.12
402.63	1090.12
402.854	1094.12
403.078	1120.12
403.302	1111.12
403.526	1144.12
403.75	1084.12
403.974	1157.12
404.198	1088.12
404.422	1111.12
404.645	1095.12
404.869	1110.12
405.093	1112.12
405.317	1125.12
405.541	1114.12
405.765	1114.12
405.988	1117.12
406.212	1146.12
406.436	1176.12
406.66	1188.12
406.883	1177.12
407.107	1207.12
407.331	1210.12
407.555	1249.12
407.778	1222.12
408.002	1206.12
408.226	1237.12
408.449	1222.12
408.673	1203.12
408.896	1168.12
409.12	1186.12
409.344	1188.12
409.567	1171.12
409.791	1197.12
410.014	1157.12
410.238	1169.12
410.461	1160.12
410.685	1163.12
410.908	1137.12
411.132	1140.12
411.355	1104.12
411.578	1097.12
411.802	1149.12
412.025	1147.12
412.249	1147.12
412.472	1140.12
412.695	1118.12
412.919	1103.12
413.142	1145.12
413.365	1120.12
413.589	1112.12
413.812	1109.12
414.035	1111.12
414.258	1107.12
414.482	1130.12
414.705	1089.12
414.928	1111.12
415.151	1100.12
415.374	1085.12
415.597	1117.12
415.821	1095.12
416.044	1064.12
416.267	1077.12
416.49	1095.12
416.713	1065.12
416.936	1068.12
417.159	1079.12
417.382	1028.12
417.605	1050.12
417.828	1073.12
418.051	1095.12
418.274	1075.12
418.497	1030.12
418.72	1040.12
418.943	1049.12
419.166	1083.12
419.389	1166.12
419.611	1163.12
419.834	1117.12
420.057	1082.12
420.28	1080.12
420.503	1051.12
420.726	1006.12
420.948	1040.12
421.171	1048.12
421.394	1033.12
421.617	1043.12
421.839	1068.12
422.062	1032.12
422.285	1032.12
422.507	1046.12
422.73	1042.12
422.953	1052.12
423.175	1068.12
423.398	1062.12
423.621	1043.12
423.843	1037.12
424.066	1061.12
424.288	1075.12
424.511	1048.12
424.733	1045.12
424.956	1034.12
425.178	1050.12
425.401	1071.12
425.623	1053.12
425.846	1019.12
426.068	1044.12
426.291	1057.12
426.513	1017.12
426.735	1007.12
426.958	1024.12
427.18	1038.12
427.402	1018.12
427.625	1044.12
427.847	1035.12
428.069	1011.12
428.292	1024.12
428.514	1016.12
428.736	1020.12
428.958	1018.12
429.181	993.12
429.403	1018.12
429.625	1018.12
429.847	1027.12
430.069	978.12
430.292	1021.12
430.514	1007.12
430.736	1047.12
430.958	1014.12
431.18	1015.12
431.402	1013.12
431.624	1027.12
431.846	994.12
432.068	995.12
432.29	1017.12
432.512	1017.12
432.734	1009.12
432.956	1011.12
433.178	1051.12
433.4	1068.12
433.622	1059.12
433.844	1076.12
434.066	1060.12
434.287	1017.12
434.509	1016.12
434.731	1066.12
434.953	1067.12
435.175	1086.12
435.397	1085.12
435.618	1049.12
435.84	1043.12
436.062	1045.12
436.284	1021.12
436.505	1013.12
436.727	1057.12
436.949	1051.12
437.17	1030.12
437.392	1050.12
437.614	1011.12
437.835	984.12
438.057	1004.12
438.278	972.12
438.5	1002.12
438.721	981.12
438.943	1003.12
439.165	1001.12
439.386	1007.12
439.608	1031.12
439.829	999.12
440.05	996.12
440.272	1016.12
440.493	1043.12
440.715	1031.12
440.936	1053.12
441.158	1049.12
441.379	1048.12
441.6	1070.12
441.822	1092.12
442.043	1055.12
442.264	1071.12
442.486	1075.12
442.707	1078.12
442.928	1052.12
443.149	1102.12
443.371	1100.12
443.592	1149.12
443.813	1111.12
444.034	1103.12
444.255	1096.12
444.476	1081.12
444.698	1088.12
444.919	1138.12
445.14	1219.12
445.361	1161.12
445.582	1132.12
445.803	1079.12
446.024	1059.12
446.245	1062.12
446.466	1037.12
446.687	1023.12
446.908	1024.12
447.129	985.12
447.35	976.12
447.571	962.12
447.792	970.12
448.013	982.12
448.234	949.12
448.455	959.12
448.675	965.12
448.896	964.12
449.117	937.12
449.338	953.12
449.559	967.12
449.779	947.12
450	961.12
450.221	976.12
450.442	944.12
450.662	921.12
450.883	941.12
451.104	979.12
451.324	961.12
451.545	945.12
451.766	964.12
451.986	934.12
452.207	917.12
452.428	929.12
452.648	900.12
452.869	900.12
453.089	922.12
453.31	945.12
453.53	912.12
453.751	910.12
453.971	919.12
454.192	953.12
454.412	913.12
454.633	943.12
454.853	913.12
455.073	921.12
455.294	959.12
455.514	945.12
455.734	936.12
455.955	949.12
456.175	943.12
456.395	923.12
456.616	920.12
456.836	941.12
457.056	911.12
457.276	904.12
457.497	952.12
457.717	935.12
457.937	953.12
458.157	935.12
458.377	931.12
458.598	940.12
458.818	985.12
459.038	955.12
459.258	1011.12
459.478	1032.12
459.698	1063.12
459.918	1099.12
460.138	1098.12
460.358	1078.12
460.578	1068.12
460.798	1145.12
461.018	1132.12
461.238	1111.12
461.458	1087.12
461.678	1108.12
461.898	1106.12
462.118	1128.12
462.338	1147.12
462.558	1195.12
462.777	1197.12
462.997	1219.12
463.217	1255.12
463.437	1304.12
463.657	1237.12
463.876	1206.12
464.096	1203.12
464.316	1199.12
464.536	1188.12
464.755	1122.12
464.975	1161.12
465.195	1117.12
465.414	1095.12
465.634	1048.12
465.854	1047.12
466.073	1051.12
466.293	1018.12
466.512	1013.12
466.732	1030.12
466.951	1045.12
467.171	980.12
467.391	1012.12
467.61	997.12
467.829	963.12
468.049	991.12
468.268	958.12
468.488	951.12
468.707	983.12
468.927	982.12
469.146	1010.12
469.365	1002.12
469.585	1011.12
469.804	973.12
470.023	987.12
470.243	967.12
470.462	964.12
470.681	997.12
470.901	1008.12
471.12	970.12
471.339	997.12
471.558	1021.12
471.777	1020.12
471.997	991.12
472.216	985.12
472.435	998.12
472.654	957.12
472.873	956.12
473.092	970.12
473.311	982.12
473.53	984.12
473.749	982.12
473.968	1002.12
474.187	957.12
474.406	1006.12
474.625	977.12
474.844	1024.12
475.063	977.12
475.282	1018.12
475.501	995.12
475.72	995.12
475.939	1021.12
476.158	1038.12
476.377	1032.12
476.596	1020.12
476.814	1042.12
477.033	1057.12
477.252	1060.12
477.471	1073.12
477.69	1089.12
477.908	1093.12
478.127	1120.12
478.346	1115.12
478.564	1107.12
478.783	1117.12
479.002	1202.12
479.22	1187.12
479.439	1146.12
479.658	1158.12
479.876	1135.12
480.095	1166.12
480.313	1176.12
480.532	1166.12
480.751	1161.12
480.969	1155.12
481.188	1118.12
481.406	1151.12
481.624	1114.12
481.843	1150.12
482.061	1128.12
482.28	1153.12
482.498	1113.12
482.717	1135.12
482.935	1139.12
483.153	1145.12
483.372	1173.12
483.59	1182.12
483.808	1177.12
484.027	1161.12
484.245	1157.12
484.463	1128.12
484.681	1152.12
484.9	1153.12
485.118	1177.12
485.336	1170.12
485.554	1193.12
485.772	1162.12
485.99	1171.12
486.209	1179.12
486.427	1146.12
486.645	1174.12
486.863	1177.12
487.081	1197.12
487.299	1178.12
487.517	1154.12
487.735	1245.12
487.953	1214.12
488.171	1206.12
488.389	1185.12
488.607	1205.12
488.825	1168.12
489.043	1173.12
489.261	1178.12
489.479	1176.12
489.696	1192.12
489.914	1216.12
490.132	1191.12
490.35	1191.12
490.568	1169.12
490.786	1200.12
491.003	1203.12
491.221	1206.12
491.439	1226.12
491.657	1224.12
491.874	1276.12
492.092	1229.12
492.31	1217.12
492.527	1236.12
492.745	1232.12
492.963	1248.12
493.18	1246.12
493.398	1221.12
493.615	1231.12
493.833	1246.12
494.05	1243.12
494.268	1286.12
494.485	1257.12
494.703	1259.12
494.92	1287.12
495.138	1284.12
495.355	1239.12
495.573	1277.12
495.79	1305.12
496.008	1304.12
496.225	1293.12
496.442	1335.12
496.66	1317.12
496.877	1316.12
497.094	1356.12
497.312	1366.12
497.529	1372.12
497.746	1401.12
497.963	1419.12
498.181	1486.12
498.398	1498.12
498.615	1538.12
498.832	1574.12
499.049	1639.12
499.267	1626.12
499.484	1729.12
499.701	1771.12
499.918	1825.12
500.135	1901.12
500.352	1945.12
500.569	1975.12
500.786	1988.12
501.003	1947.12
501.22	1901.12
501.437	1812.12
501.654	1756.12
501.871	1702.12
502.088	1659.12
502.305	1600.12
502.522	1600.12
502.739	1533.12
502.956	1491.12
503.172	1425.12
503.389	1419.12
503.606	1410.12
503.823	1378.12
504.04	1405.12
504.256	1367.12
504.473	1347.12
504.69	1336.12
504.907	1325.12
505.123	1294.12
505.34	1270.12
505.557	1236.12
505.773	1240.12
505.99	1215.12
506.207	1183.12
506.423	1193.12
506.64	1150.12
506.856	1165.12
507.073	1135.12
507.289	1132.12
507.506	1152.12
507.722	1119.12
507.939	1116.12
508.155	1128.12
508.372	1119.12
508.588	1101.12
508.805	1101.12
509.021	1075.12
509.238	1059.12
509.454	1096.12
509.67	1081.12
509.887	1098.12
510.103	1060.12
510.319	1041.12
510.536	993.12
510.752	1039.12
510.968	1037.12
511.184	1017.12
511.401	1052.12
511.617	1015.12
511.833	1019.12
512.049	1025.12
512.265	1029.12
512.481	1040.12
512.698	1025.12
512.914	1030.12
513.13	1021.12
513.346	1031.12
513.562	1038.12
513.778	1028.12
513.994	1030.12
514.21	1019.12
514.426	1026.12
514.642	1007.12
514.858	1018.12
515.074	1037.12
515.29	1032.12
515.506	1035.12
515.721	1064.12
515.937	1053.12
516.153	1091.12
516.369	1074.12
516.585	1067.12
516.801	1094.12
517.016	1104.12
517.232	1129.12
517.448	1099.12
517.664	1143.12
517.879	1112.12
518.095	1121.12
518.311	1138.12
518.527	1103.12
518.742	1090.12
518.958	1097.12
519.173	1067.12
519.389	1081.12
519.605	1041.12
519.82	1023.12
520.036	1027.12
520.251	991.12
520.467	1012.12
520.682	1010.12
520.898	993.12
521.113	1000.12
521.329	972.12
521.544	984.12
521.76	972.12
521.975	975.12
522.19	992.12
522.406	961.12
522.621	953.12
522.836	961.12
523.052	938.12
523.267	940.12
523.482	968.12
523.698	962.12
523.913	969.12
524.128	967.12
524.343	951.12
524.559	949.12
524.774	921.12
524.989	932.12
525.204	940.12
525.419	940.12
525.634	922.12
525.849	924.12
526.064	923.12
526.28	906.12
526.495	899.12
526.71	873.12
526.925	898.12
527.14	909.12
527.355	886.12
527.57	885.12
527.785	897.12
527.999	894.12
528.214	920.12
528.429	892.12
528.644	882.12
528.859	886.12
529.074	892.12
529.289	921.12
529.503	913.12
529.718	902.12
529.933	891.12
530.148	881.12
530.363	901.12
530.577	866.12
530.792	880.12
531.007	892.12
531.221	885.12
531.436	866.12
531.651	859.12
531.865	868.12
532.08	883.12
532.295	849.12
532.509	863.12
532.724	864.12
532.938	891.12
533.153	884.12
533.367	887.12
533.582	876.12
533.796	886.12
534.011	873.12
534.225	844.12
534.44	841.12
534.654	855.12
534.868	862.12
535.083	839.12
535.297	840.12
535.511	834.12
535.726	837.12
535.94	819.12
536.154	840.12
536.369	821.12
536.583	837.12
536.797	852.12
537.011	821.12
537.225	819.12
537.44	850.12
537.654	815.12
537.868	799.12
538.082	836.12
538.296	848.12
538.51	810.12
538.724	817.12
538.938	797.12
539.153	831.12
539.367	823.12
539.581	816.12
539.795	790.12
540.009	793.12
540.222	819.12
540.436	801.12
540.65	800.12
540.864	812.12
541.078	819.12
541.292	813.12
541.506	793.12
541.72	831.12
541.934	826.12
542.147	821.12
542.361	804.12
542.575	839.12
542.789	805.12
543.002	791.12
543.216	792.12
543.43	811.12
543.644	798.12
543.857	812.12
544.071	820.12
544.285	813.12
544.498	814.12
544.712	815.12
544.925	821.12
545.139	792.12
545.352	795.12
545.566	806.12
545.779	815.12
545.993	804.12
546.206	803.12
546.42	801.12
546.633	793.12
546.847	791.12
547.06	790.12
547.274	821.12
547.487	812.12
547.7	841.12
547.914	836.12
548.127	808.12
548.34	791.12
548.554	816.12
548.767	808.12
548.98	790.12
549.193	793.12
549.407	803.12
549.62	780.12
549.833	805.12
550.046	752.12
550.259	784.12
550.473	785.12
550.686	788.12
550.899	770.12
551.112	811.12
551.325	768.12
551.538	804.12
551.751	768.12
551.964	759.12
552.177	771.12
552.39	787.12
552.603	796.12
552.816	803.12
553.029	825.12
553.242	801.12
553.455	792.12
553.667	805.12
553.88	803.12
554.093	774.12
554.306	763.12
554.519	757.12
554.732	734.12
554.944	745.12
555.157	762.12
555.37	739.12
555.583	732.12
555.795	748.12
556.008	737.12
556.221	721.12
556.433	708.12
556.646	724.12
556.859	704.12
557.071	700.12
557.284	711.12
557.496	703.12
557.709	721.12
557.921	697.12
558.134	705.12
558.346	692.12
558.559	713.12
558.771	728.12
558.984	707.12
559.196	680.12
559.409	692.12
559.621	687.12
559.833	651.12
560.046	692.12
560.258	667.12
560.47	669.12
560.683	673.12
560.895	674.12
561.107	672.12
561.32	691.12
561.532	665.12
561.744	665.12
561.956	651.12
562.168	679.12
562.381	662.12
562.593	676.12
562.805	682.12
563.017	689.12
563.229	686.12
563.441	701.12
563.653	680.12
563.865	675.12
564.077	680.12
564.289	684.12
564.501	691.12
564.713	684.12
564.925	742.12
565.137	720.12
565.349	698.12
565.561	731.12
565.773	734.12
565.985	725.12
566.197	748.12
566.408	749.12
566.62	796.12
566.832	802.12
567.044	792.12
567.255	823.12
567.467	804.12
567.679	818.12
567.891	832.12
568.102	816.12
568.314	810.12
568.526	773.12
568.737	743.12
568.949	736.12
569.161	711.12
569.372	671.12
569.584	701.12
569.795	682.12
570.007	676.12
570.218	652.12
570.43	644.12
570.641	642.12
570.853	626.12
571.064	648.12
571.276	615.12
571.487	618.12
571.698	610.12
571.91	590.12
572.121	589.12
572.333	567.12
572.544	577.12
572.755	580.12
572.966	587.12
573.178	580.12
573.389	548.12
573.6	570.12
573.811	555.12
574.023	543.12
574.234	550.12
574.445	544.12
574.656	532.12
574.867	524.12
575.078	514.12
575.289	535.12
575.501	529.12
575.712	501.12
575.923	535.12
576.134	504.12
576.345	520.12
576.556	520.12
576.767	520.12
576.978	514.12
577.188	509.12
577.399	504.12
577.61	484.12
577.821	512.12
578.032	488.12
578.243	484.12
578.454	505.12
578.665	475.12
578.875	471.12
579.086	495.12
579.297	467.12
579.508	467.12
579.718	470.12
579.929	458.12
580.14	473.12
580.35	472.12
580.561	508.12
580.772	476.12
580.982	458.12
581.193	460.12
581.403	468.12
581.614	474.12
581.825	455.12
582.035	449.12
582.246	448.12
582.456	456.12
582.667	461.12
582.877	461.12
583.087	467.12
583.298	459.12
583.508	474.12
583.719	455.12
583.929	466.12
584.139	441.12
584.35	463.12
584.56	458.12
584.77	444.12
584.981	441.12
585.191	433.12
585.401	434.12
585.611	443.12
585.821	441.12
586.032	422.12
586.242	433.12
586.452	451.12
586.662	432.12
586.872	443.12
587.082	461.12
587.292	437.12
587.502	443.12
587.713	441.12
587.923	425.12
588.133	444.12
588.343	438.12
588.553	455.12
588.762	436.12
588.972	430.12
589.182	503.12
589.392	500.12
589.602	448.12
589.812	484.12
590.022	450.12
590.232	445.12
590.441	423.12
590.651	437.12
590.861	421.12
591.071	427.12
591.281	424.12
591.49	421.12
591.7	409.12
591.91	438.12
592.119	460.12
592.329	427.12
592.539	457.12
592.748	481.12
592.958	444.12
593.167	420.12
593.377	443.12
593.587	459.12
593.796	428.12
594.006	439.12
594.215	435.12
594.424	453.12
594.634	439.12
594.843	448.12
595.053	441.12
595.262	424.12
595.472	439.12
595.681	415.12
595.89	420.12
596.1	410.12
596.309	421.12
596.518	398.12
596.727	397.12
596.937	397.12
597.146	392.12
597.355	396.12
597.564	386.12
597.774	380.12
597.983	375.12
598.192	393.12
598.401	378.12
598.61	363.12
598.819	375.12
599.028	382.12
599.237	354.12
599.446	370.12
599.655	347.12
599.864	355.12
600.073	374.12
600.282	371.12
600.491	360.12
600.7	369.12
600.909	325.12
601.118	345.12
601.327	342.12
601.536	352.12
601.745	361.12
601.953	388.12
602.162	373.12
602.371	344.12
602.58	360.12
602.789	378.12
602.997	341.12
603.206	343.12
603.415	341.12
603.623	361.12
603.832	342.12
604.041	340.12
604.249	337.12
604.458	360.12
604.666	351.12
604.875	329.12
605.084	323.12
605.292	364.12
605.501	338.12
605.709	349.12
605.918	343.12
606.126	351.12
606.334	336.12
606.543	333.12
606.751	338.12
606.96	332.12
607.168	321.12
607.376	314.12
607.585	329.12
607.793	343.12
608.001	323.12
608.21	326.12
608.418	317.12
608.626	333.12
608.834	315.12
609.043	319.12
609.251	313.12
609.459	330.12
609.667	340.12
609.875	312.12
610.083	307.12
610.291	338.12
610.499	344.12
610.707	320.12
610.916	322.12
611.124	336.12
611.332	330.12
611.54	331.12
611.748	321.12
611.955	337.12
612.163	327.12
612.371	333.12
612.579	308.12
612.787	314.12
612.995	309.12
613.203	321.12
613.411	311.12
613.618	307.12
613.826	315.12
614.034	309.12
614.242	313.12
614.449	317.12
614.657	324.12
614.865	304.12
615.072	320.12
615.28	305.12
615.488	299.12
615.695	299.12
615.903	306.12
616.111	303.12
616.318	311.12
616.526	307.12
616.733	316.12
616.941	288.12
617.148	311.12
617.356	303.12
617.563	302.12
617.771	322.12
617.978	303.12
618.185	300.12
618.393	297.12
618.6	305.12
618.807	313.12
619.015	284.12
619.222	291.12
619.429	308.12
619.637	328.12
619.844	304.12
620.051	299.12
620.258	289.12
620.466	285.12
620.673	288.12
620.88	281.12
621.087	291.12
621.294	290.12
621.501	297.12
621.708	275.12
621.915	297.12
622.122	291.12
622.329	278.12
622.536	283.12
622.743	279.12
622.95	283.12
623.157	287.12
623.364	290.12
623.571	283.12
623.778	284.12
623.985	292.12
624.192	276.12
624.399	287.12
624.606	280.12
624.812	270.12
625.019	267.12
625.226	263.12
625.433	267.12
625.639	274.12
625.846	263.12
626.053	266.12
626.259	280.12
626.466	278.12
626.673	256.12
626.879	284.12
627.086	281.12
627.293	262.12
627.499	279.12
627.706	276.12
627.912	262.12
628.119	264.12
628.325	250.12
628.532	271.12
628.738	258.12
628.945	261.12
629.151	261.12
629.357	263.12
629.564	264.12
629.77	252.12
629.976	272.12
630.183	245.12
630.389	267.12
630.595	254.12
630.802	264.12
631.008	232.12
631.214	241.12
631.42	260.12
631.627	273.12
631.833	248.12
632.039	240.12
632.245	241.12
632.451	246.12
632.657	235.12
632.863	257.12
633.069	242.12
633.275	257.12
633.481	217.12
633.688	230.12
633.893	241.12
634.099	244.12
634.305	219.12
634.511	239.12
634.717	249.12
634.923	240.12
635.129	232.12
635.335	220.12
635.541	225.12
635.747	243.12
635.952	227.12
636.158	235.12
636.364	241.12
636.57	254.12
636.775	241.12
636.981	235.12
637.187	231.12
637.392	234.12
637.598	216.12
637.804	228.12
638.009	215.12
638.215	224.12
638.421	237.12
638.626	228.12
638.832	211.12
639.037	218.12
639.243	213.12
639.448	238.12
639.654	223.12
639.859	218.12
640.065	213.12
640.27	235.12
640.475	231.12
640.681	227.12
640.886	219.12
641.091	228.12
641.297	229.12
641.502	232.12
641.707	230.12
641.913	218.12
642.118	208.12
642.323	204.12
642.528	209.12
642.733	243.12
642.939	217.12
643.144	224.12
643.349	215.12
643.554	204.12
643.759	225.12
643.964	205.12
644.169	202.12
644.374	207.12
644.579	215.12
644.784	224.12
644.989	221.12
645.194	221.12
645.399	216.12
645.604	213.12
645.809	207.12
646.014	230.12
646.219	207.12
646.423	218.12
646.628	208.12
646.833	220.12
647.038	217.12
647.243	199.12
647.447	220.12
647.652	233.12
647.857	212.12
648.062	234.12
648.266	216.12
648.471	205.12
648.676	222.12
648.88	228.12
649.085	201.12
649.289	225.12
649.494	214.12
649.698	215.12
649.903	205.12
650.107	228.12
650.312	230.12
650.516	195.12
650.721	193.12
650.925	190.12
651.13	199.12
651.334	203.12
651.539	197.12
651.743	207.12
651.947	195.12
652.152	204.12
652.356	196.12
652.56	191.12
652.764	181.12
652.969	191.12
653.173	191.12
653.377	190.12
653.581	188.12
653.785	182.12
653.99	188.12
654.194	185.12
654.398	211.12
654.602	185.12
654.806	180.12
655.01	168.12
655.214	185.12
655.418	175.12
655.622	183.12
655.826	181.12
656.03	194.12
656.234	187.12
656.438	176.12
656.642	169.12
656.846	155.12
657.049	169.12
657.253	179.12
657.457	171.12
657.661	137.12
657.865	141.12
658.068	134.12
658.272	124.12
658.476	142.12
658.68	126.12
658.883	123.12
659.087	119.12
659.291	125.12
659.494	103.12
659.698	119.12
659.901	113.12
660.105	105.12
660.309	111.12
660.512	118.12
660.716	108.12
660.919	107.12
661.123	108.12
661.326	102.12
661.53	106.12
661.733	92.12
661.936	82.12
662.14	81.12
662.343	86.12
662.546	91.12
662.75	91.12
662.953	77.12
663.156	82.12
663.36	77.12
663.563	85.12
663.766	81.12
663.969	88.12
664.173	81.12
664.376	68.12
664.579	73.12
664.782	75.12
664.985	77.12
665.188	88.12
665.391	75.12
665.594	75.12
665.797	82.12
666	79.12
666.203	72.12
666.406	82.12
666.609	77.12
666.812	88.12
667.015	76.12
667.218	97.12
667.421	78.12
667.624	73.12
667.827	85.12
668.03	96.12
668.232	90.12
668.435	83.12
668.638	74.12
668.841	77.12
669.043	86.12
669.246	81.12
669.449	77.12
669.651	82.12
669.854	88.12
670.057	82.12
670.259	91.12
670.462	86.12
670.665	89.12
670.867	100.12
671.07	82.12
671.272	71.12
671.475	98.12
671.677	81.12
671.88	72.12
672.082	84.12
672.284	67.12
672.487	75.12
672.689	88.12
672.892	76.12
