Data from Ni(NO3)2@0.25M.TitratingCurve.Agarose3%dH2O.NegLispCup.LampEnergy10.LIBS07252019_HRD10591_18-03-42-565.txt Node
Date: Thu Jul 25 18:03:42 EDT 2019
User: cochatt
Spectrometer: HR+D1059
Trigger mode: 1
Integration Time (sec): 1.000000E-1
Scans to average: 1
Electric dark correction enabled: true
Nonlinearity correction enabled: false
Boxcar width: 0
XAxis mode: Wavelengths
Number of Pixels in Spectrum: 2048
>>>>>Begin Spectral Data<<<<<
223.165	-19.06
223.4	-19.06
223.635	-19.06
223.869	-20.06
224.104	-32.06
224.338	-8.06
224.573	-11.06
224.808	-16.06
225.042	-15.06
225.277	-2.06
225.511	3.94
225.746	6.94
225.98	19.94
226.215	16.94
226.449	3.94
226.683	17.94
226.918	35.94
227.152	17.94
227.387	31.94
227.621	42.94
227.856	48.94
228.09	45.94
228.324	48.94
228.559	55.94
228.793	48.94
229.027	68.94
229.262	75.94
229.496	76.94
229.73	83.94
229.964	80.94
230.199	85.94
230.433	85.94
230.667	95.94
230.901	102.94
231.136	103.94
231.37	86.94
231.604	93.94
231.838	98.94
232.072	102.94
232.306	92.94
232.541	116.94
232.775	95.94
233.009	84.94
233.243	91.94
233.477	101.94
233.711	96.94
233.945	82.94
234.179	105.94
234.413	89.94
234.647	92.94
234.881	117.94
235.115	105.94
235.349	87.94
235.583	85.94
235.817	91.94
236.051	96.94
236.285	88.94
236.519	96.94
236.753	80.94
236.987	95.94
237.221	86.94
237.455	89.94
237.689	101.94
237.922	87.94
238.156	93.94
238.39	94.94
238.624	93.94
238.858	85.94
239.091	86.94
239.325	95.94
239.559	96.94
239.793	109.94
240.027	96.94
240.26	92.94
240.494	93.94
240.728	90.94
240.961	98.94
241.195	94.94
241.429	106.94
241.662	114.94
241.896	98.94
242.13	96.94
242.363	103.94
242.597	95.94
242.83	96.94
243.064	84.94
243.298	90.94
243.531	107.94
243.765	104.94
243.998	100.94
244.232	98.94
244.465	89.94
244.699	108.94
244.932	98.94
245.166	109.94
245.399	101.94
245.633	116.94
245.866	119.94
246.099	101.94
246.333	106.94
246.566	120.94
246.8	117.94
247.033	109.94
247.266	123.94
247.5	113.94
247.733	122.94
247.966	106.94
248.2	120.94
248.433	119.94
248.666	123.94
248.899	125.94
249.133	129.94
249.366	139.94
249.599	132.94
249.832	131.94
250.066	146.94
250.299	147.94
250.532	155.94
250.765	156.94
250.998	146.94
251.231	158.94
251.465	160.94
251.698	176.94
251.931	162.94
252.164	173.94
252.397	172.94
252.63	175.94
252.863	167.94
253.096	185.94
253.329	195.94
253.562	188.94
253.795	180.94
254.028	184.94
254.261	194.94
254.494	194.94
254.727	202.94
254.96	216.94
255.193	215.94
255.426	230.94
255.659	220.94
255.892	215.94
256.124	228.94
256.357	226.94
256.59	231.94
256.823	215.94
257.056	235.94
257.289	229.94
257.521	259.94
257.754	237.94
257.987	244.94
258.22	257.94
258.452	260.94
258.685	244.94
258.918	249.94
259.151	273.94
259.383	264.94
259.616	271.94
259.849	285.94
260.081	257.94
260.314	246.94
260.547	265.94
260.779	244.94
261.012	279.94
261.244	285.94
261.477	273.94
261.71	274.94
261.942	284.94
262.175	274.94
262.407	282.94
262.64	273.94
262.872	295.94
263.105	275.94
263.337	284.94
263.57	296.94
263.802	298.94
264.035	287.94
264.267	292.94
264.499	298.94
264.732	284.94
264.964	309.94
265.197	295.94
265.429	317.94
265.661	305.94
265.894	309.94
266.126	301.94
266.358	309.94
266.591	299.94
266.823	301.94
267.055	315.94
267.287	324.94
267.52	319.94
267.752	309.94
267.984	312.94
268.216	303.94
268.448	315.94
268.681	323.94
268.913	293.94
269.145	301.94
269.377	313.94
269.609	317.94
269.841	306.94
270.073	311.94
270.306	329.94
270.538	304.94
270.77	316.94
271.002	309.94
271.234	320.94
271.466	328.94
271.698	305.94
271.93	308.94
272.162	325.94
272.394	317.94
272.626	307.94
272.858	329.94
273.09	317.94
273.322	312.94
273.553	309.94
273.785	311.94
274.017	311.94
274.249	330.94
274.481	320.94
274.713	308.94
274.945	329.94
275.176	333.94
275.408	324.94
275.64	312.94
275.872	319.94
276.104	333.94
276.335	321.94
276.567	323.94
276.799	315.94
277.031	311.94
277.262	313.94
277.494	326.94
277.726	342.94
277.957	326.94
278.189	318.94
278.421	332.94
278.652	320.94
278.884	317.94
279.115	313.94
279.347	315.94
279.579	327.94
279.81	307.94
280.042	311.94
280.273	322.94
280.505	328.94
280.736	316.94
280.968	336.94
281.199	324.94
281.431	313.94
281.662	313.94
281.894	329.94
282.125	314.94
282.356	323.94
282.588	321.94
282.819	306.94
283.051	323.94
283.282	320.94
283.513	303.94
283.745	320.94
283.976	323.94
284.207	313.94
284.439	315.94
284.67	323.94
284.901	306.94
285.132	307.94
285.364	322.94
285.595	311.94
285.826	323.94
286.057	311.94
286.288	306.94
286.52	332.94
286.751	311.94
286.982	299.94
287.213	328.94
287.444	321.94
287.675	317.94
287.906	315.94
288.138	312.94
288.369	324.94
288.6	299.94
288.831	295.94
289.062	305.94
289.293	315.94
289.524	305.94
289.755	313.94
289.986	313.94
290.217	327.94
290.448	291.94
290.679	323.94
290.91	312.94
291.141	311.94
291.371	291.94
291.602	293.94
291.833	280.94
292.064	298.94
292.295	300.94
292.526	288.94
292.757	321.94
292.987	319.94
293.218	302.94
293.449	277.94
293.68	301.94
293.91	284.94
294.141	299.94
294.372	309.94
294.603	295.94
294.833	296.94
295.064	282.94
295.295	282.94
295.525	307.94
295.756	307.94
295.987	293.94
296.217	293.94
296.448	311.94
296.679	294.94
296.909	296.94
297.14	303.94
297.37	310.94
297.601	305.94
297.831	319.94
298.062	303.94
298.292	308.94
298.523	294.94
298.753	314.94
298.984	294.94
299.214	314.94
299.445	311.94
299.675	303.94
299.905	308.94
300.136	307.94
300.366	330.94
300.597	305.94
300.827	329.94
301.057	338.94
301.288	332.94
301.518	339.94
301.748	330.94
301.979	327.94
302.209	328.94
302.439	333.94
302.669	335.94
302.9	338.94
303.13	317.94
303.36	335.94
303.59	338.94
303.82	325.94
304.051	347.94
304.281	342.94
304.511	340.94
304.741	340.94
304.971	353.94
305.201	351.94
305.431	322.94
305.661	367.94
305.891	349.94
306.121	343.94
306.352	346.94
306.582	353.94
306.812	346.94
307.042	348.94
307.272	349.94
307.502	349.94
307.731	338.94
307.961	351.94
308.191	355.94
308.421	359.94
308.651	372.94
308.881	355.94
309.111	346.94
309.341	379.94
309.571	367.94
309.8	380.94
310.03	387.94
310.26	388.94
310.49	375.94
310.72	387.94
310.949	377.94
311.179	377.94
311.409	389.94
311.639	395.94
311.868	402.94
312.098	403.94
312.328	405.94
312.557	435.94
312.787	425.94
313.017	401.94
313.246	444.94
313.476	442.94
313.706	426.94
313.935	424.94
314.165	449.94
314.394	450.94
314.624	437.94
314.853	468.94
315.083	441.94
315.312	468.94
315.542	451.94
315.771	449.94
316.001	473.94
316.23	487.94
316.46	471.94
316.689	479.94
316.919	501.94
317.148	499.94
317.377	516.94
317.607	497.94
317.836	496.94
318.065	514.94
318.295	524.94
318.524	538.94
318.753	563.94
318.983	545.94
319.212	543.94
319.441	547.94
319.67	544.94
319.9	539.94
320.129	548.94
320.358	567.94
320.587	577.94
320.816	584.94
321.046	595.94
321.275	593.94
321.504	605.94
321.733	609.94
321.962	615.94
322.191	615.94
322.42	616.94
322.649	619.94
322.878	634.94
323.108	628.94
323.337	667.94
323.566	649.94
323.795	646.94
324.024	656.94
324.253	670.94
324.482	665.94
324.71	674.94
324.939	716.94
325.168	691.94
325.397	682.94
325.626	728.94
325.855	716.94
326.084	726.94
326.313	725.94
326.542	727.94
326.77	767.94
326.999	761.94
327.228	767.94
327.457	756.94
327.686	800.94
327.914	778.94
328.143	774.94
328.372	775.94
328.6	789.94
328.829	790.94
329.058	803.94
329.287	804.94
329.515	808.94
329.744	806.94
329.972	828.94
330.201	807.94
330.43	841.94
330.658	833.94
330.887	853.94
331.115	850.94
331.344	857.94
331.572	843.94
331.801	881.94
332.03	882.94
332.258	888.94
332.486	873.94
332.715	884.94
332.943	882.94
333.172	892.94
333.4	905.94
333.629	899.94
333.857	947.94
334.085	948.94
334.314	936.94
334.542	991.94
334.771	951.94
334.999	954.94
335.227	960.94
335.455	972.94
335.684	946.94
335.912	953.94
336.14	941.94
336.369	953.94
336.597	989.94
336.825	973.94
337.053	960.94
337.281	1001.94
337.51	984.94
337.738	967.94
337.966	970.94
338.194	980.94
338.422	966.94
338.65	933.94
338.878	968.94
339.106	952.94
339.334	1001.94
339.562	945.94
339.79	915.94
340.018	922.94
340.246	957.94
340.474	945.94
340.702	972.94
340.93	955.94
341.158	938.94
341.386	943.94
341.614	968.94
341.842	971.94
342.07	951.94
342.298	947.94
342.526	950.94
342.754	954.94
342.981	940.94
343.209	963.94
343.437	952.94
343.665	985.94
343.893	965.94
344.12	985.94
344.348	1002.94
344.576	998.94
344.804	1024.94
345.031	997.94
345.259	969.94
345.487	964.94
345.714	964.94
345.942	977.94
346.17	951.94
346.397	984.94
346.625	945.94
346.853	936.94
347.08	927.94
347.308	956.94
347.535	954.94
347.763	954.94
347.99	950.94
348.218	940.94
348.445	959.94
348.673	947.94
348.9	928.94
349.128	966.94
349.355	920.94
349.583	965.94
349.81	945.94
350.037	931.94
350.265	946.94
350.492	941.94
350.72	912.94
350.947	911.94
351.174	947.94
351.402	956.94
351.629	928.94
351.856	916.94
352.083	939.94
352.311	907.94
352.538	938.94
352.765	903.94
352.992	893.94
353.22	930.94
353.447	905.94
353.674	923.94
353.901	930.94
354.128	917.94
354.355	881.94
354.583	932.94
354.81	918.94
355.037	918.94
355.264	951.94
355.491	916.94
355.718	921.94
355.945	915.94
356.172	929.94
356.399	952.94
356.626	922.94
356.853	941.94
357.08	919.94
357.307	923.94
357.534	938.94
357.761	909.94
357.988	928.94
358.215	934.94
358.441	895.94
358.668	895.94
358.895	914.94
359.122	917.94
359.349	891.94
359.576	901.94
359.802	891.94
360.029	924.94
360.256	896.94
360.483	899.94
360.709	926.94
360.936	949.94
361.163	899.94
361.39	903.94
361.616	918.94
361.843	933.94
362.07	907.94
362.296	897.94
362.523	888.94
362.749	919.94
362.976	893.94
363.203	912.94
363.429	894.94
363.656	907.94
363.882	910.94
364.109	924.94
364.335	893.94
364.562	867.94
364.788	897.94
365.015	897.94
365.241	908.94
365.468	903.94
365.694	887.94
365.92	905.94
366.147	885.94
366.373	896.94
366.599	870.94
366.826	889.94
367.052	882.94
367.278	892.94
367.505	895.94
367.731	904.94
367.957	896.94
368.184	909.94
368.41	888.94
368.636	884.94
368.862	916.94
369.089	893.94
369.315	890.94
369.541	859.94
369.767	891.94
369.993	872.94
370.219	868.94
370.445	901.94
370.672	883.94
370.898	889.94
371.124	882.94
371.35	910.94
371.576	885.94
371.802	873.94
372.028	876.94
372.254	880.94
372.48	890.94
372.706	879.94
372.932	848.94
373.158	883.94
373.384	905.94
373.61	843.94
373.835	851.94
374.061	858.94
374.287	855.94
374.513	875.94
374.739	892.94
374.965	881.94
375.191	886.94
375.416	877.94
375.642	869.94
375.868	871.94
376.094	848.94
376.319	855.94
376.545	860.94
376.771	820.94
376.997	825.94
377.222	844.94
377.448	835.94
377.674	808.94
377.899	831.94
378.125	829.94
378.35	788.94
378.576	817.94
378.802	816.94
379.027	819.94
379.253	825.94
379.478	819.94
379.704	827.94
379.929	805.94
380.155	807.94
380.38	790.94
380.606	805.94
380.831	806.94
381.057	810.94
381.282	792.94
381.507	813.94
381.733	798.94
381.958	818.94
382.184	815.94
382.409	820.94
382.634	835.94
382.86	849.94
383.085	813.94
383.31	815.94
383.535	812.94
383.761	818.94
383.986	812.94
384.211	826.94
384.436	824.94
384.662	821.94
384.887	833.94
385.112	816.94
385.337	833.94
385.562	838.94
385.787	843.94
386.013	873.94
386.238	849.94
386.463	853.94
386.688	843.94
386.913	815.94
387.138	833.94
387.363	853.94
387.588	841.94
387.813	849.94
388.038	850.94
388.263	841.94
388.488	808.94
388.713	812.94
388.938	844.94
389.163	828.94
389.387	842.94
389.612	810.94
389.837	845.94
390.062	844.94
390.287	830.94
390.512	833.94
390.736	831.94
390.961	845.94
391.186	864.94
391.411	849.94
391.636	864.94
391.86	841.94
392.085	887.94
392.31	859.94
392.534	836.94
392.759	871.94
392.984	860.94
393.208	855.94
393.433	853.94
393.658	834.94
393.882	877.94
394.107	851.94
394.331	879.94
394.556	870.94
394.78	874.94
395.005	866.94
395.229	885.94
395.454	881.94
395.678	900.94
395.903	875.94
396.127	899.94
396.352	889.94
396.576	891.94
396.801	892.94
397.025	885.94
397.249	906.94
397.474	898.94
397.698	913.94
397.922	954.94
398.147	884.94
398.371	914.94
398.595	947.94
398.82	951.94
399.044	947.94
399.268	958.94
399.492	1017.94
399.717	1017.94
399.941	1076.94
400.165	1029.94
400.389	1019.94
400.613	997.94
400.837	994.94
401.062	956.94
401.286	977.94
401.51	959.94
401.734	961.94
401.958	994.94
402.182	993.94
402.406	976.94
402.63	952.94
402.854	998.94
403.078	1005.94
403.302	1004.94
403.526	1034.94
403.75	997.94
403.974	1007.94
404.198	991.94
404.422	1011.94
404.645	987.94
404.869	998.94
405.093	1025.94
405.317	1034.94
405.541	1015.94
405.765	1007.94
405.988	1032.94
406.212	1024.94
406.436	1026.94
406.66	1077.94
406.883	1033.94
407.107	1065.94
407.331	1088.94
407.555	1116.94
407.778	1094.94
408.002	1099.94
408.226	1091.94
408.449	1106.94
408.673	1100.94
408.896	1080.94
409.12	1062.94
409.344	1099.94
409.567	1068.94
409.791	1101.94
410.014	1065.94
410.238	1080.94
410.461	1088.94
410.685	1098.94
410.908	1075.94
411.132	1097.94
411.355	1067.94
411.578	1056.94
411.802	1056.94
412.025	1073.94
412.249	1089.94
412.472	1100.94
412.695	1054.94
412.919	1079.94
413.142	1081.94
413.365	1058.94
413.589	1099.94
413.812	1065.94
414.035	1067.94
414.258	1069.94
414.482	1061.94
414.705	1070.94
414.928	1073.94
415.151	1084.94
415.374	1077.94
415.597	1068.94
415.821	1073.94
416.044	1077.94
416.267	1098.94
416.49	1058.94
416.713	1065.94
416.936	1053.94
417.159	1056.94
417.382	1061.94
417.605	1027.94
417.828	1110.94
418.051	1063.94
418.274	1044.94
418.497	1038.94
418.72	1090.94
418.943	1066.94
419.166	1115.94
419.389	1197.94
419.611	1184.94
419.834	1154.94
420.057	1111.94
420.28	1102.94
420.503	1057.94
420.726	1054.94
420.948	1055.94
421.171	1096.94
421.394	1100.94
421.617	1081.94
421.839	1099.94
422.062	1083.94
422.285	1095.94
422.507	1124.94
422.73	1057.94
422.953	1096.94
423.175	1085.94
423.398	1106.94
423.621	1076.94
423.843	1116.94
424.066	1091.94
424.288	1095.94
424.511	1106.94
424.733	1139.94
424.956	1114.94
425.178	1114.94
425.401	1104.94
425.623	1143.94
425.846	1101.94
426.068	1133.94
426.291	1123.94
426.513	1132.94
426.735	1124.94
426.958	1123.94
427.18	1079.94
427.402	1137.94
427.625	1129.94
427.847	1112.94
428.069	1122.94
428.292	1158.94
428.514	1114.94
428.736	1129.94
428.958	1128.94
429.181	1139.94
429.403	1119.94
429.625	1116.94
429.847	1151.94
430.069	1165.94
430.292	1141.94
430.514	1116.94
430.736	1162.94
430.958	1128.94
431.18	1145.94
431.402	1132.94
431.624	1148.94
431.846	1124.94
432.068	1138.94
432.29	1152.94
432.512	1136.94
432.734	1164.94
432.956	1153.94
433.178	1147.94
433.4	1161.94
433.622	1191.94
433.844	1189.94
434.066	1174.94
434.287	1165.94
434.509	1147.94
434.731	1163.94
434.953	1174.94
435.175	1169.94
435.397	1187.94
435.618	1199.94
435.84	1171.94
436.062	1125.94
436.284	1155.94
436.505	1161.94
436.727	1201.94
436.949	1155.94
437.17	1133.94
437.392	1156.94
437.614	1163.94
437.835	1150.94
438.057	1119.94
438.278	1135.94
438.5	1169.94
438.721	1169.94
438.943	1145.94
439.165	1142.94
439.386	1166.94
439.608	1148.94
439.829	1165.94
440.05	1174.94
440.272	1181.94
440.493	1176.94
440.715	1206.94
440.936	1177.94
441.158	1174.94
441.379	1149.94
441.6	1181.94
441.822	1180.94
442.043	1202.94
442.264	1203.94
442.486	1178.94
442.707	1191.94
442.928	1175.94
443.149	1187.94
443.371	1212.94
443.592	1167.94
443.813	1223.94
444.034	1173.94
444.255	1226.94
444.476	1230.94
444.698	1227.94
444.919	1199.94
445.14	1289.94
445.361	1239.94
445.582	1216.94
445.803	1202.94
446.024	1204.94
446.245	1199.94
446.466	1203.94
446.687	1167.94
446.908	1212.94
447.129	1180.94
447.35	1152.94
447.571	1160.94
447.792	1121.94
448.013	1127.94
448.234	1096.94
448.455	1109.94
448.675	1141.94
448.896	1111.94
449.117	1102.94
449.338	1123.94
449.559	1100.94
449.779	1068.94
450	1114.94
450.221	1097.94
450.442	1112.94
450.662	1122.94
450.883	1108.94
451.104	1127.94
451.324	1118.94
451.545	1111.94
451.766	1079.94
451.986	1091.94
452.207	1074.94
452.428	1065.94
452.648	1093.94
452.869	1047.94
453.089	1068.94
453.31	1111.94
453.53	1077.94
453.751	1049.94
453.971	1063.94
454.192	1065.94
454.412	1052.94
454.633	1074.94
454.853	1065.94
455.073	1075.94
455.294	1046.94
455.514	1054.94
455.734	1077.94
455.955	1075.94
456.175	1082.94
456.395	1029.94
456.616	1067.94
456.836	1081.94
457.056	1061.94
457.276	1040.94
457.497	1074.94
457.717	1115.94
457.937	1103.94
458.157	1084.94
458.377	1095.94
458.598	1076.94
458.818	1114.94
459.038	1119.94
459.258	1124.94
459.478	1137.94
459.698	1155.94
459.918	1163.94
460.138	1172.94
460.358	1150.94
460.578	1195.94
460.798	1204.94
461.018	1220.94
461.238	1223.94
461.458	1228.94
461.678	1212.94
461.898	1207.94
462.118	1207.94
462.338	1260.94
462.558	1235.94
462.777	1272.94
462.997	1308.94
463.217	1301.94
463.437	1322.94
463.657	1283.94
463.876	1286.94
464.096	1269.94
464.316	1316.94
464.536	1257.94
464.755	1277.94
464.975	1257.94
465.195	1256.94
465.414	1204.94
465.634	1201.94
465.854	1174.94
466.073	1191.94
466.293	1207.94
466.512	1187.94
466.732	1163.94
466.951	1177.94
467.171	1127.94
467.391	1154.94
467.61	1175.94
467.829	1148.94
468.049	1174.94
468.268	1152.94
468.488	1131.94
468.707	1135.94
468.927	1151.94
469.146	1148.94
469.365	1145.94
469.585	1147.94
469.804	1184.94
470.023	1203.94
470.243	1119.94
470.462	1163.94
470.681	1193.94
470.901	1206.94
471.12	1193.94
471.339	1178.94
471.558	1161.94
471.777	1169.94
471.997	1186.94
472.216	1191.94
472.435	1169.94
472.654	1171.94
472.873	1178.94
473.092	1173.94
473.311	1210.94
473.53	1196.94
473.749	1175.94
473.968	1191.94
474.187	1168.94
474.406	1172.94
474.625	1190.94
474.844	1187.94
475.063	1202.94
475.282	1219.94
475.501	1228.94
475.72	1222.94
475.939	1227.94
476.158	1239.94
476.377	1258.94
476.596	1267.94
476.814	1255.94
477.033	1239.94
477.252	1296.94
477.471	1288.94
477.69	1315.94
477.908	1308.94
478.127	1354.94
478.346	1355.94
478.564	1350.94
478.783	1339.94
479.002	1353.94
479.22	1375.94
479.439	1376.94
479.658	1396.94
479.876	1384.94
480.095	1403.94
480.313	1401.94
480.532	1397.94
480.751	1389.94
480.969	1385.94
481.188	1383.94
481.406	1422.94
481.624	1359.94
481.843	1407.94
482.061	1382.94
482.28	1374.94
482.498	1394.94
482.717	1389.94
482.935	1443.94
483.153	1426.94
483.372	1449.94
483.59	1450.94
483.808	1457.94
484.027	1390.94
484.245	1413.94
484.463	1414.94
484.681	1484.94
484.9	1439.94
485.118	1427.94
485.336	1410.94
485.554	1433.94
485.772	1450.94
485.99	1416.94
486.209	1442.94
486.427	1425.94
486.645	1437.94
486.863	1498.94
487.081	1505.94
487.299	1509.94
487.517	1482.94
487.735	1485.94
487.953	1507.94
488.171	1501.94
488.389	1514.94
488.607	1490.94
488.825	1515.94
489.043	1503.94
489.261	1496.94
489.479	1481.94
489.696	1492.94
489.914	1502.94
490.132	1496.94
490.35	1506.94
490.568	1537.94
490.786	1531.94
491.003	1564.94
491.221	1577.94
491.439	1547.94
491.657	1533.94
491.874	1569.94
492.092	1561.94
492.31	1577.94
492.527	1575.94
492.745	1532.94
492.963	1550.94
493.18	1562.94
493.398	1586.94
493.615	1575.94
493.833	1567.94
494.05	1571.94
494.268	1568.94
494.485	1563.94
494.703	1600.94
494.92	1619.94
495.138	1573.94
495.355	1591.94
495.573	1596.94
495.79	1602.94
496.008	1629.94
496.225	1605.94
496.442	1654.94
496.66	1647.94
496.877	1640.94
497.094	1651.94
497.312	1715.94
497.529	1677.94
497.746	1713.94
497.963	1715.94
498.181	1738.94
498.398	1749.94
498.615	1809.94
498.832	1829.94
499.049	1837.94
499.267	1869.94
499.484	1938.94
499.701	1959.94
499.918	1966.94
500.135	2069.94
500.352	2129.94
500.569	2122.94
500.786	2120.94
501.003	2085.94
501.22	2073.94
501.437	2023.94
501.654	1961.94
501.871	1929.94
502.088	1876.94
502.305	1873.94
502.522	1832.94
502.739	1775.94
502.956	1734.94
503.172	1743.94
503.389	1667.94
503.606	1714.94
503.823	1656.94
504.04	1642.94
504.256	1688.94
504.473	1613.94
504.69	1592.94
504.907	1612.94
505.123	1588.94
505.34	1594.94
505.557	1528.94
505.773	1513.94
505.99	1533.94
506.207	1503.94
506.423	1533.94
506.64	1496.94
506.856	1469.94
507.073	1481.94
507.289	1475.94
507.506	1462.94
507.722	1423.94
507.939	1448.94
508.155	1398.94
508.372	1419.94
508.588	1400.94
508.805	1395.94
509.021	1384.94
509.238	1393.94
509.454	1381.94
509.67	1367.94
509.887	1396.94
510.103	1373.94
510.319	1386.94
510.536	1380.94
510.752	1351.94
510.968	1340.94
511.184	1329.94
511.401	1363.94
511.617	1329.94
511.833	1337.94
512.049	1315.94
512.265	1323.94
512.481	1359.94
512.698	1335.94
512.914	1318.94
513.13	1380.94
513.346	1349.94
513.562	1339.94
513.778	1292.94
513.994	1338.94
514.21	1300.94
514.426	1348.94
514.642	1311.94
514.858	1339.94
515.074	1362.94
515.29	1340.94
515.506	1351.94
515.721	1367.94
515.937	1323.94
516.153	1351.94
516.369	1370.94
516.585	1347.94
516.801	1391.94
517.016	1368.94
517.232	1410.94
517.448	1393.94
517.664	1398.94
517.879	1393.94
518.095	1400.94
518.311	1404.94
518.527	1380.94
518.742	1386.94
518.958	1362.94
519.173	1340.94
519.389	1344.94
519.605	1318.94
519.82	1281.94
520.036	1332.94
520.251	1284.94
520.467	1304.94
520.682	1287.94
520.898	1282.94
521.113	1293.94
521.329	1260.94
521.544	1268.94
521.76	1268.94
521.975	1268.94
522.19	1252.94
522.406	1276.94
522.621	1277.94
522.836	1253.94
523.052	1245.94
523.267	1221.94
523.482	1231.94
523.698	1261.94
523.913	1228.94
524.128	1271.94
524.343	1249.94
524.559	1257.94
524.774	1273.94
524.989	1205.94
525.204	1247.94
525.419	1204.94
525.634	1236.94
525.849	1214.94
526.064	1235.94
526.28	1201.94
526.495	1209.94
526.71	1228.94
526.925	1227.94
527.14	1163.94
527.355	1179.94
527.57	1229.94
527.785	1214.94
527.999	1187.94
528.214	1193.94
528.429	1185.94
528.644	1216.94
528.859	1212.94
529.074	1205.94
529.289	1211.94
529.503	1188.94
529.718	1165.94
529.933	1161.94
530.148	1163.94
530.363	1181.94
530.577	1149.94
530.792	1155.94
531.007	1152.94
531.221	1143.94
531.436	1163.94
531.651	1161.94
531.865	1155.94
532.08	1143.94
532.295	1163.94
532.509	1161.94
532.724	1155.94
532.938	1142.94
533.153	1156.94
533.367	1141.94
533.582	1125.94
533.796	1138.94
534.011	1132.94
534.225	1149.94
534.44	1121.94
534.654	1127.94
534.868	1127.94
535.083	1119.94
535.297	1139.94
535.511	1110.94
535.726	1112.94
535.94	1107.94
536.154	1101.94
536.369	1061.94
536.583	1118.94
536.797	1113.94
537.011	1082.94
537.225	1119.94
537.44	1068.94
537.654	1098.94
537.868	1119.94
538.082	1088.94
538.296	1081.94
538.51	1080.94
538.724	1091.94
538.938	1110.94
539.153	1093.94
539.367	1093.94
539.581	1081.94
539.795	1069.94
540.009	1081.94
540.222	1034.94
540.436	1065.94
540.65	1061.94
540.864	1059.94
541.078	1081.94
541.292	1049.94
541.506	1068.94
541.72	1115.94
541.934	1100.94
542.147	1080.94
542.361	1075.94
542.575	1084.94
542.789	1053.94
543.002	1059.94
543.216	1024.94
543.43	1051.94
543.644	1040.94
543.857	1037.94
544.071	1053.94
544.285	1070.94
544.498	1043.94
544.712	1056.94
544.925	1053.94
545.139	1068.94
545.352	1045.94
545.566	1072.94
545.779	1037.94
545.993	1023.94
546.206	1057.94
546.42	1035.94
546.633	1067.94
546.847	1060.94
547.06	1034.94
547.274	1020.94
547.487	1051.94
547.7	1051.94
547.914	1039.94
548.127	1046.94
548.34	1050.94
548.554	1024.94
548.767	1048.94
548.98	1027.94
549.193	1029.94
549.407	1058.94
549.62	1021.94
549.833	1024.94
550.046	1023.94
550.259	989.94
550.473	1007.94
550.686	1024.94
550.899	1009.94
551.112	1005.94
551.325	997.94
551.538	1001.94
551.751	1004.94
551.964	999.94
552.177	1030.94
552.39	1013.94
552.603	1026.94
552.816	1016.94
553.029	1031.94
553.242	1004.94
553.455	1038.94
553.667	998.94
553.88	1010.94
554.093	972.94
554.306	979.94
554.519	961.94
554.732	971.94
554.944	965.94
555.157	975.94
555.37	965.94
555.583	962.94
555.795	939.94
556.008	936.94
556.221	942.94
556.433	941.94
556.646	929.94
556.859	919.94
557.071	933.94
557.284	913.94
557.496	926.94
557.709	922.94
557.921	914.94
558.134	908.94
558.346	891.94
558.559	915.94
558.771	921.94
558.984	889.94
559.196	875.94
559.409	897.94
559.621	891.94
559.833	856.94
560.046	876.94
560.258	855.94
560.47	864.94
560.683	868.94
560.895	852.94
561.107	872.94
561.32	858.94
561.532	865.94
561.744	867.94
561.956	902.94
562.168	868.94
562.381	869.94
562.593	861.94
562.805	909.94
563.017	863.94
563.229	886.94
563.441	873.94
563.653	851.94
563.865	876.94
564.077	872.94
564.289	868.94
564.501	860.94
564.713	891.94
564.925	885.94
565.137	876.94
565.349	893.94
565.561	899.94
565.773	897.94
565.985	921.94
566.197	886.94
566.408	893.94
566.62	916.94
566.832	914.94
567.044	914.94
567.255	919.94
567.467	911.94
567.679	946.94
567.891	948.94
568.102	934.94
568.314	925.94
568.526	881.94
568.737	891.94
568.949	855.94
569.161	856.94
569.372	850.94
569.584	828.94
569.795	849.94
570.007	809.94
570.218	827.94
570.43	785.94
570.641	771.94
570.853	772.94
571.064	796.94
571.276	794.94
571.487	763.94
571.698	752.94
571.91	773.94
572.121	771.94
572.333	748.94
572.544	727.94
572.755	718.94
572.966	729.94
573.178	717.94
573.389	726.94
573.6	707.94
573.811	695.94
574.023	698.94
574.234	682.94
574.445	695.94
574.656	706.94
574.867	684.94
575.078	679.94
575.289	684.94
575.501	657.94
575.712	640.94
575.923	671.94
576.134	660.94
576.345	667.94
576.556	667.94
576.767	659.94
576.978	672.94
577.188	648.94
577.399	641.94
577.61	639.94
577.821	664.94
578.032	641.94
578.243	618.94
578.454	660.94
578.665	616.94
578.875	631.94
579.086	623.94
579.297	639.94
579.508	632.94
579.718	632.94
579.929	644.94
580.14	613.94
580.35	620.94
580.561	613.94
580.772	586.94
580.982	604.94
581.193	600.94
581.403	600.94
581.614	614.94
581.825	602.94
582.035	589.94
582.246	593.94
582.456	598.94
582.667	591.94
582.877	599.94
583.087	579.94
583.298	591.94
583.508	569.94
583.719	587.94
583.929	562.94
584.139	593.94
584.35	583.94
584.56	566.94
584.77	568.94
584.981	560.94
585.191	570.94
585.401	565.94
585.611	572.94
585.821	571.94
586.032	578.94
586.242	575.94
586.452	549.94
586.662	579.94
586.872	552.94
587.082	569.94
587.292	561.94
587.502	548.94
587.713	549.94
587.923	562.94
588.133	555.94
588.343	544.94
588.553	540.94
588.762	519.94
588.972	530.94
589.182	552.94
589.392	553.94
589.602	565.94
589.812	554.94
590.022	533.94
590.232	526.94
590.441	521.94
590.651	531.94
590.861	537.94
591.071	529.94
591.281	535.94
591.49	539.94
591.7	538.94
591.91	520.94
592.119	535.94
592.329	539.94
592.539	532.94
592.748	553.94
592.958	536.94
593.167	540.94
593.377	515.94
593.587	559.94
593.796	557.94
594.006	564.94
594.215	538.94
594.424	501.94
594.634	516.94
594.843	513.94
595.053	508.94
595.262	524.94
595.472	511.94
595.681	499.94
595.89	487.94
596.1	526.94
596.309	504.94
596.518	498.94
596.727	496.94
596.937	479.94
597.146	459.94
597.355	471.94
597.564	456.94
597.774	471.94
597.983	481.94
598.192	485.94
598.401	455.94
598.61	437.94
598.819	469.94
599.028	461.94
599.237	477.94
599.446	457.94
599.655	480.94
599.864	449.94
600.073	458.94
600.282	458.94
600.491	449.94
600.7	454.94
600.909	442.94
601.118	436.94
601.327	438.94
601.536	457.94
601.745	423.94
601.953	431.94
602.162	455.94
602.371	416.94
602.58	419.94
602.789	427.94
602.997	448.94
603.206	437.94
603.415	448.94
603.623	422.94
603.832	431.94
604.041	421.94
604.249	426.94
604.458	418.94
604.666	421.94
604.875	396.94
605.084	406.94
605.292	408.94
605.501	421.94
605.709	433.94
605.918	427.94
606.126	432.94
606.334	427.94
606.543	427.94
606.751	431.94
606.96	431.94
607.168	407.94
607.376	426.94
607.585	412.94
607.793	410.94
608.001	412.94
608.21	397.94
608.418	389.94
608.626	407.94
608.834	402.94
609.043	427.94
609.251	393.94
609.459	403.94
609.667	393.94
609.875	397.94
610.083	395.94
610.291	391.94
610.499	398.94
610.707	411.94
610.916	384.94
611.124	387.94
611.332	398.94
611.54	403.94
611.748	403.94
611.955	389.94
612.163	389.94
612.371	420.94
612.579	384.94
612.787	376.94
612.995	383.94
613.203	381.94
613.411	354.94
613.618	387.94
613.826	385.94
614.034	381.94
614.242	387.94
614.449	371.94
614.657	361.94
614.865	371.94
615.072	387.94
615.28	373.94
615.488	392.94
615.695	364.94
615.903	382.94
616.111	371.94
616.318	379.94
616.526	381.94
616.733	366.94
616.941	374.94
617.148	360.94
617.356	359.94
617.563	390.94
617.771	366.94
617.978	375.94
618.185	358.94
618.393	354.94
618.6	362.94
618.807	364.94
619.015	365.94
619.222	350.94
619.429	344.94
619.637	351.94
619.844	340.94
620.051	358.94
620.258	345.94
620.466	343.94
620.673	328.94
620.88	336.94
621.087	348.94
621.294	345.94
621.501	354.94
621.708	342.94
621.915	343.94
622.122	348.94
622.329	349.94
622.536	325.94
622.743	348.94
622.95	323.94
623.157	333.94
623.364	358.94
623.571	350.94
623.778	333.94
623.985	325.94
624.192	330.94
624.399	340.94
624.606	322.94
624.812	300.94
625.019	325.94
625.226	333.94
625.433	325.94
625.639	315.94
625.846	301.94
626.053	311.94
626.259	313.94
626.466	312.94
626.673	303.94
626.879	303.94
627.086	326.94
627.293	309.94
627.499	301.94
627.706	317.94
627.912	319.94
628.119	320.94
628.325	305.94
628.532	307.94
628.738	307.94
628.945	285.94
629.151	292.94
629.357	283.94
629.564	312.94
629.77	291.94
629.976	304.94
630.183	301.94
630.389	303.94
630.595	295.94
630.802	307.94
631.008	303.94
631.214	286.94
631.42	282.94
631.627	293.94
631.833	275.94
632.039	287.94
632.245	274.94
632.451	273.94
632.657	275.94
632.863	283.94
633.069	292.94
633.275	286.94
633.481	277.94
633.688	275.94
633.893	286.94
634.099	279.94
634.305	309.94
634.511	283.94
634.717	280.94
634.923	267.94
635.129	291.94
635.335	263.94
635.541	255.94
635.747	281.94
635.952	285.94
636.158	277.94
636.364	260.94
636.57	277.94
636.775	273.94
636.981	272.94
637.187	275.94
637.392	281.94
637.598	260.94
637.804	251.94
638.009	272.94
638.215	247.94
638.421	272.94
638.626	263.94
638.832	246.94
639.037	258.94
639.243	254.94
639.448	255.94
639.654	259.94
639.859	263.94
640.065	247.94
640.27	263.94
640.475	259.94
640.681	257.94
640.886	251.94
641.091	237.94
641.297	267.94
641.502	254.94
641.707	241.94
641.913	235.94
642.118	235.94
642.323	256.94
642.528	248.94
642.733	243.94
642.939	254.94
643.144	237.94
643.349	250.94
643.554	249.94
643.759	272.94
643.964	256.94
644.169	260.94
644.374	260.94
644.579	242.94
644.784	255.94
644.989	239.94
645.194	240.94
645.399	236.94
645.604	239.94
645.809	236.94
646.014	239.94
646.219	239.94
646.423	263.94
646.628	230.94
646.833	240.94
647.038	221.94
647.243	243.94
647.447	255.94
647.652	245.94
647.857	256.94
648.062	239.94
648.266	241.94
648.471	246.94
648.676	242.94
648.88	258.94
649.085	235.94
649.289	241.94
649.494	240.94
649.698	230.94
649.903	220.94
650.107	236.94
650.312	225.94
650.516	237.94
650.721	226.94
650.925	227.94
651.13	220.94
651.334	224.94
651.539	231.94
651.743	220.94
651.947	212.94
652.152	209.94
652.356	224.94
652.56	204.94
652.764	202.94
652.969	202.94
653.173	189.94
653.377	201.94
653.581	211.94
653.785	195.94
653.99	193.94
654.194	204.94
654.398	195.94
654.602	189.94
654.806	189.94
655.01	195.94
655.214	182.94
655.418	175.94
655.622	171.94
655.826	167.94
656.03	153.94
656.234	171.94
656.438	165.94
656.642	165.94
656.846	179.94
657.049	147.94
657.253	171.94
657.457	152.94
657.661	158.94
657.865	156.94
658.068	140.94
658.272	145.94
658.476	122.94
658.68	132.94
658.883	124.94
659.087	116.94
659.291	125.94
659.494	111.94
659.698	112.94
659.901	125.94
660.105	106.94
660.309	115.94
660.512	105.94
660.716	100.94
660.919	111.94
661.123	104.94
661.326	102.94
661.53	113.94
661.733	102.94
661.936	97.94
662.14	78.94
662.343	86.94
662.546	80.94
662.75	73.94
662.953	105.94
663.156	83.94
663.36	84.94
663.563	89.94
663.766	81.94
663.969	83.94
664.173	88.94
664.376	87.94
664.579	77.94
664.782	78.94
664.985	90.94
665.188	89.94
665.391	81.94
665.594	83.94
665.797	79.94
666	80.94
666.203	75.94
666.406	87.94
666.609	88.94
666.812	72.94
667.015	74.94
667.218	91.94
667.421	77.94
667.624	80.94
667.827	79.94
668.03	76.94
668.232	82.94
668.435	82.94
668.638	77.94
668.841	84.94
669.043	88.94
669.246	84.94
669.449	74.94
669.651	88.94
669.854	80.94
670.057	83.94
670.259	80.94
670.462	79.94
670.665	81.94
670.867	61.94
671.07	91.94
671.272	99.94
671.475	79.94
671.677	84.94
671.88	82.94
672.082	80.94
672.284	77.94
672.487	75.94
672.689	79.94
672.892	76.94
