Data from Ni(NO3)2@0.25M.TitratingCurve.Agarose3%dH2O.NegLispCup.LampEnergy10.LIBS07252019_HRD10591_18-05-36-566.txt Node
Date: Thu Jul 25 18:05:36 EDT 2019
User: cochatt
Spectrometer: HR+D1059
Trigger mode: 1
Integration Time (sec): 1.000000E-1
Scans to average: 1
Electric dark correction enabled: true
Nonlinearity correction enabled: false
Boxcar width: 0
XAxis mode: Wavelengths
Number of Pixels in Spectrum: 2048
>>>>>Begin Spectral Data<<<<<
223.165	-11.31
223.4	-11.31
223.635	-11.31
223.869	-10.31
224.104	-4.31
224.338	-10.31
224.573	-25.31
224.808	-26.31
225.042	-17.31
225.277	4.69
225.511	18.69
225.746	13.69
225.98	-7.31
226.215	0.69
226.449	1.69
226.683	14.69
226.918	18.69
227.152	39.69
227.387	33.69
227.621	48.69
227.856	30.69
228.09	42.69
228.324	54.69
228.559	48.69
228.793	55.69
229.027	93.69
229.262	108.69
229.496	85.69
229.73	123.69
229.964	126.69
230.199	109.69
230.433	112.69
230.667	120.69
230.901	116.69
231.136	129.69
231.37	130.69
231.604	132.69
231.838	131.69
232.072	124.69
232.306	130.69
232.541	135.69
232.775	132.69
233.009	121.69
233.243	123.69
233.477	134.69
233.711	136.69
233.945	126.69
234.179	142.69
234.413	136.69
234.647	130.69
234.881	141.69
235.115	141.69
235.349	151.69
235.583	136.69
235.817	157.69
236.051	127.69
236.285	135.69
236.519	146.69
236.753	135.69
236.987	138.69
237.221	124.69
237.455	131.69
237.689	151.69
237.922	131.69
238.156	153.69
238.39	155.69
238.624	133.69
238.858	157.69
239.091	152.69
239.325	139.69
239.559	155.69
239.793	162.69
240.027	150.69
240.26	168.69
240.494	157.69
240.728	165.69
240.961	143.69
241.195	170.69
241.429	166.69
241.662	161.69
241.896	166.69
242.13	181.69
242.363	168.69
242.597	188.69
242.83	166.69
243.064	177.69
243.298	194.69
243.531	181.69
243.765	190.69
243.998	179.69
244.232	172.69
244.465	180.69
244.699	185.69
244.932	193.69
245.166	185.69
245.399	174.69
245.633	197.69
245.866	195.69
246.099	159.69
246.333	199.69
246.566	185.69
246.8	185.69
247.033	188.69
247.266	203.69
247.5	197.69
247.733	201.69
247.966	212.69
248.2	225.69
248.433	210.69
248.666	198.69
248.899	220.69
249.133	222.69
249.366	206.69
249.599	219.69
249.832	225.69
250.066	221.69
250.299	222.69
250.532	231.69
250.765	222.69
250.998	228.69
251.231	233.69
251.465	230.69
251.698	233.69
251.931	246.69
252.164	243.69
252.397	256.69
252.63	245.69
252.863	244.69
253.096	231.69
253.329	236.69
253.562	252.69
253.795	251.69
254.028	270.69
254.261	261.69
254.494	258.69
254.727	283.69
254.96	248.69
255.193	267.69
255.426	259.69
255.659	258.69
255.892	273.69
256.124	263.69
256.357	270.69
256.59	256.69
256.823	274.69
257.056	277.69
257.289	261.69
257.521	269.69
257.754	285.69
257.987	279.69
258.22	267.69
258.452	286.69
258.685	298.69
258.918	296.69
259.151	281.69
259.383	297.69
259.616	294.69
259.849	286.69
260.081	295.69
260.314	288.69
260.547	296.69
260.779	306.69
261.012	292.69
261.244	293.69
261.477	301.69
261.71	291.69
261.942	289.69
262.175	310.69
262.407	294.69
262.64	294.69
262.872	306.69
263.105	335.69
263.337	325.69
263.57	312.69
263.802	341.69
264.035	315.69
264.267	334.69
264.499	317.69
264.732	322.69
264.964	342.69
265.197	331.69
265.429	331.69
265.661	341.69
265.894	323.69
266.126	326.69
266.358	314.69
266.591	341.69
266.823	322.69
267.055	338.69
267.287	348.69
267.52	332.69
267.752	324.69
267.984	334.69
268.216	319.69
268.448	357.69
268.681	352.69
268.913	376.69
269.145	356.69
269.377	344.69
269.609	333.69
269.841	347.69
270.073	357.69
270.306	343.69
270.538	341.69
270.77	340.69
271.002	353.69
271.234	352.69
271.466	363.69
271.698	368.69
271.93	358.69
272.162	364.69
272.394	359.69
272.626	371.69
272.858	374.69
273.09	387.69
273.322	393.69
273.553	373.69
273.785	364.69
274.017	374.69
274.249	349.69
274.481	356.69
274.713	366.69
274.945	368.69
275.176	386.69
275.408	372.69
275.64	378.69
275.872	382.69
276.104	394.69
276.335	385.69
276.567	378.69
276.799	379.69
277.031	394.69
277.262	408.69
277.494	394.69
277.726	396.69
277.957	417.69
278.189	394.69
278.421	389.69
278.652	402.69
278.884	393.69
279.115	398.69
279.347	397.69
279.579	418.69
279.81	392.69
280.042	408.69
280.273	393.69
280.505	420.69
280.736	414.69
280.968	428.69
281.199	420.69
281.431	410.69
281.662	429.69
281.894	420.69
282.125	405.69
282.356	420.69
282.588	436.69
282.819	418.69
283.051	446.69
283.282	435.69
283.513	427.69
283.745	416.69
283.976	424.69
284.207	433.69
284.439	434.69
284.67	423.69
284.901	435.69
285.132	429.69
285.364	416.69
285.595	437.69
285.826	456.69
286.057	445.69
286.288	449.69
286.52	408.69
286.751	454.69
286.982	427.69
287.213	436.69
287.444	476.69
287.675	473.69
287.906	452.69
288.138	461.69
288.369	455.69
288.6	467.69
288.831	460.69
289.062	462.69
289.293	453.69
289.524	454.69
289.755	463.69
289.986	477.69
290.217	472.69
290.448	466.69
290.679	461.69
290.91	470.69
291.141	480.69
291.371	489.69
291.602	467.69
291.833	478.69
292.064	483.69
292.295	477.69
292.526	462.69
292.757	490.69
292.987	454.69
293.218	450.69
293.449	465.69
293.68	493.69
293.91	468.69
294.141	475.69
294.372	474.69
294.603	440.69
294.833	480.69
295.064	488.69
295.295	465.69
295.525	479.69
295.756	466.69
295.987	470.69
296.217	496.69
296.448	482.69
296.679	486.69
296.909	482.69
297.14	469.69
297.37	491.69
297.601	490.69
297.831	492.69
298.062	488.69
298.292	526.69
298.523	520.69
298.753	502.69
298.984	509.69
299.214	505.69
299.445	488.69
299.675	518.69
299.905	524.69
300.136	518.69
300.366	513.69
300.597	523.69
300.827	522.69
301.057	526.69
301.288	543.69
301.518	526.69
301.748	530.69
301.979	538.69
302.209	553.69
302.439	535.69
302.669	512.69
302.9	529.69
303.13	518.69
303.36	535.69
303.59	541.69
303.82	541.69
304.051	540.69
304.281	544.69
304.511	528.69
304.741	557.69
304.971	518.69
305.201	536.69
305.431	538.69
305.661	542.69
305.891	533.69
306.121	533.69
306.352	531.69
306.582	522.69
306.812	510.69
307.042	519.69
307.272	514.69
307.502	512.69
307.731	531.69
307.961	526.69
308.191	544.69
308.421	522.69
308.651	524.69
308.881	545.69
309.111	542.69
309.341	533.69
309.571	529.69
309.8	536.69
310.03	535.69
310.26	518.69
310.49	546.69
310.72	532.69
310.949	538.69
311.179	534.69
311.409	525.69
311.639	555.69
311.868	562.69
312.098	554.69
312.328	555.69
312.557	563.69
312.787	555.69
313.017	551.69
313.246	584.69
313.476	571.69
313.706	585.69
313.935	574.69
314.165	577.69
314.394	571.69
314.624	576.69
314.853	585.69
315.083	566.69
315.312	611.69
315.542	595.69
315.771	578.69
316.001	584.69
316.23	566.69
316.46	566.69
316.689	593.69
316.919	549.69
317.148	586.69
317.377	598.69
317.607	576.69
317.836	582.69
318.065	576.69
318.295	578.69
318.524	584.69
318.753	579.69
318.983	580.69
319.212	566.69
319.441	598.69
319.67	582.69
319.9	593.69
320.129	618.69
320.358	613.69
320.587	592.69
320.816	581.69
321.046	597.69
321.275	582.69
321.504	592.69
321.733	570.69
321.962	605.69
322.191	597.69
322.42	609.69
322.649	613.69
322.878	622.69
323.108	597.69
323.337	636.69
323.566	602.69
323.795	624.69
324.024	616.69
324.253	634.69
324.482	627.69
324.71	633.69
324.939	628.69
325.168	628.69
325.397	644.69
325.626	646.69
325.855	646.69
326.084	662.69
326.313	674.69
326.542	646.69
326.77	689.69
326.999	678.69
327.228	655.69
327.457	691.69
327.686	675.69
327.914	668.69
328.143	646.69
328.372	651.69
328.6	660.69
328.829	642.69
329.058	668.69
329.287	684.69
329.515	660.69
329.744	686.69
329.972	694.69
330.201	714.69
330.43	696.69
330.658	700.69
330.887	694.69
331.115	700.69
331.344	704.69
331.572	719.69
331.801	724.69
332.03	747.69
332.258	752.69
332.486	770.69
332.715	761.69
332.943	800.69
333.172	808.69
333.4	850.69
333.629	869.69
333.857	885.69
334.085	874.69
334.314	877.69
334.542	864.69
334.771	848.69
334.999	850.69
335.227	882.69
335.455	864.69
335.684	841.69
335.912	839.69
336.14	856.69
336.369	834.69
336.597	827.69
336.825	837.69
337.053	845.69
337.281	810.69
337.51	820.69
337.738	792.69
337.966	786.69
338.194	774.69
338.422	782.69
338.65	757.69
338.878	762.69
339.106	749.69
339.334	759.69
339.562	765.69
339.79	735.69
340.018	749.69
340.246	761.69
340.474	749.69
340.702	712.69
340.93	736.69
341.158	744.69
341.386	735.69
341.614	744.69
341.842	710.69
342.07	710.69
342.298	726.69
342.526	744.69
342.754	741.69
342.981	746.69
343.209	750.69
343.437	780.69
343.665	829.69
343.893	817.69
344.12	860.69
344.348	842.69
344.576	816.69
344.804	838.69
345.031	775.69
345.259	769.69
345.487	746.69
345.714	764.69
345.942	740.69
346.17	734.69
346.397	743.69
346.625	739.69
346.853	740.69
347.08	728.69
347.308	726.69
347.535	738.69
347.763	712.69
347.99	714.69
348.218	699.69
348.445	686.69
348.673	698.69
348.9	688.69
349.128	690.69
349.355	704.69
349.583	691.69
349.81	714.69
350.037	677.69
350.265	688.69
350.492	686.69
350.72	690.69
350.947	675.69
351.174	679.69
351.402	699.69
351.629	690.69
351.856	707.69
352.083	694.69
352.311	676.69
352.538	683.69
352.765	700.69
352.992	689.69
353.22	696.69
353.447	658.69
353.674	662.69
353.901	714.69
354.128	660.69
354.355	664.69
354.583	666.69
354.81	668.69
355.037	657.69
355.264	686.69
355.491	692.69
355.718	675.69
355.945	678.69
356.172	662.69
356.399	681.69
356.626	690.69
356.853	684.69
357.08	690.69
357.307	686.69
357.534	711.69
357.761	682.69
357.988	685.69
358.215	669.69
358.441	650.69
358.668	635.69
358.895	693.69
359.122	674.69
359.349	664.69
359.576	671.69
359.802	693.69
360.029	685.69
360.256	680.69
360.483	688.69
360.709	666.69
360.936	676.69
361.163	682.69
361.39	701.69
361.616	684.69
361.843	682.69
362.07	686.69
362.296	713.69
362.523	680.69
362.749	681.69
362.976	683.69
363.203	645.69
363.429	665.69
363.656	679.69
363.882	688.69
364.109	672.69
364.335	661.69
364.562	666.69
364.788	672.69
365.015	666.69
365.241	677.69
365.468	678.69
365.694	672.69
365.92	694.69
366.147	669.69
366.373	680.69
366.599	689.69
366.826	698.69
367.052	701.69
367.278	673.69
367.505	658.69
367.731	704.69
367.957	670.69
368.184	696.69
368.41	672.69
368.636	685.69
368.862	694.69
369.089	683.69
369.315	688.69
369.541	684.69
369.767	692.69
369.993	696.69
370.219	680.69
370.445	701.69
370.672	729.69
370.898	719.69
371.124	727.69
371.35	760.69
371.576	752.69
371.802	702.69
372.028	716.69
372.254	722.69
372.48	744.69
372.706	757.69
372.932	764.69
373.158	753.69
373.384	729.69
373.61	742.69
373.835	756.69
374.061	730.69
374.287	741.69
374.513	740.69
374.739	749.69
374.965	786.69
375.191	794.69
375.416	791.69
375.642	782.69
375.868	763.69
376.094	758.69
376.319	759.69
376.545	733.69
376.771	732.69
376.997	778.69
377.222	752.69
377.448	727.69
377.674	713.69
377.899	702.69
378.125	718.69
378.35	695.69
378.576	720.69
378.802	691.69
379.027	712.69
379.253	713.69
379.478	718.69
379.704	719.69
379.929	718.69
380.155	707.69
380.38	700.69
380.606	733.69
380.831	731.69
381.057	734.69
381.282	707.69
381.507	734.69
381.733	748.69
381.958	722.69
382.184	732.69
382.409	731.69
382.634	743.69
382.86	744.69
383.085	741.69
383.31	756.69
383.535	786.69
383.761	768.69
383.986	787.69
384.211	803.69
384.436	835.69
384.662	828.69
384.887	827.69
385.112	832.69
385.337	829.69
385.562	838.69
385.787	858.69
386.013	857.69
386.238	861.69
386.463	833.69
386.688	873.69
386.913	850.69
387.138	880.69
387.363	872.69
387.588	841.69
387.813	878.69
388.038	845.69
388.263	862.69
388.488	863.69
388.713	880.69
388.938	860.69
389.163	853.69
389.387	834.69
389.612	852.69
389.837	852.69
390.062	828.69
390.287	858.69
390.512	843.69
390.736	852.69
390.961	890.69
391.186	885.69
391.411	919.69
391.636	947.69
391.86	954.69
392.085	950.69
392.31	961.69
392.534	937.69
392.759	932.69
392.984	900.69
393.208	922.69
393.433	919.69
393.658	909.69
393.882	915.69
394.107	908.69
394.331	930.69
394.556	909.69
394.78	892.69
395.005	942.69
395.229	931.69
395.454	961.69
395.678	962.69
395.903	966.69
396.127	964.69
396.352	929.69
396.576	919.69
396.801	912.69
397.025	933.69
397.249	974.69
397.474	985.69
397.698	973.69
397.922	1000.69
398.147	982.69
398.371	1000.69
398.595	1045.69
398.82	1069.69
399.044	1109.69
399.268	1218.69
399.492	1357.69
399.717	1460.69
399.941	1472.69
400.165	1400.69
400.389	1296.69
400.613	1183.69
400.837	1178.69
401.062	1130.69
401.286	1100.69
401.51	1078.69
401.734	1126.69
401.958	1091.69
402.182	1078.69
402.406	1111.69
402.63	1103.69
402.854	1107.69
403.078	1131.69
403.302	1159.69
403.526	1168.69
403.75	1184.69
403.974	1187.69
404.198	1184.69
404.422	1176.69
404.645	1184.69
404.869	1148.69
405.093	1190.69
405.317	1176.69
405.541	1182.69
405.765	1164.69
405.988	1188.69
406.212	1139.69
406.436	1194.69
406.66	1216.69
406.883	1221.69
407.107	1313.69
407.331	1328.69
407.555	1364.69
407.778	1339.69
408.002	1324.69
408.226	1292.69
408.449	1309.69
408.673	1253.69
408.896	1243.69
409.12	1200.69
409.344	1249.69
409.567	1212.69
409.791	1217.69
410.014	1218.69
410.238	1195.69
410.461	1212.69
410.685	1204.69
410.908	1186.69
411.132	1157.69
411.355	1129.69
411.578	1146.69
411.802	1152.69
412.025	1137.69
412.249	1154.69
412.472	1167.69
412.695	1131.69
412.919	1084.69
413.142	1108.69
413.365	1113.69
413.589	1097.69
413.812	1112.69
414.035	1109.69
414.258	1089.69
414.482	1108.69
414.705	1120.69
414.928	1114.69
415.151	1096.69
415.374	1102.69
415.597	1102.69
415.821	1084.69
416.044	1056.69
416.267	1077.69
416.49	1060.69
416.713	1080.69
416.936	1081.69
417.159	1044.69
417.382	1091.69
417.605	1100.69
417.828	1076.69
418.051	1072.69
418.274	1046.69
418.497	1099.69
418.72	1080.69
418.943	1087.69
419.166	1175.69
419.389	1211.69
419.611	1236.69
419.834	1160.69
420.057	1150.69
420.28	1115.69
420.503	1064.69
420.726	1085.69
420.948	1071.69
421.171	1100.69
421.394	1067.69
421.617	1088.69
421.839	1081.69
422.062	1108.69
422.285	1059.69
422.507	1122.69
422.73	1078.69
422.953	1092.69
423.175	1092.69
423.398	1126.69
423.621	1161.69
423.843	1130.69
424.066	1113.69
424.288	1126.69
424.511	1118.69
424.733	1101.69
424.956	1069.69
425.178	1106.69
425.401	1098.69
425.623	1097.69
425.846	1069.69
426.068	1072.69
426.291	1016.69
426.513	1022.69
426.735	1066.69
426.958	1044.69
427.18	1009.69
427.402	1014.69
427.625	991.69
427.847	1003.69
428.069	978.69
428.292	1004.69
428.514	987.69
428.736	975.69
428.958	982.69
429.181	982.69
429.403	988.69
429.625	974.69
429.847	969.69
430.069	943.69
430.292	977.69
430.514	963.69
430.736	997.69
430.958	961.69
431.18	986.69
431.402	975.69
431.624	1001.69
431.846	993.69
432.068	996.69
432.29	1009.69
432.512	1001.69
432.734	1022.69
432.956	997.69
433.178	1017.69
433.4	1016.69
433.622	1014.69
433.844	1019.69
434.066	1013.69
434.287	1044.69
434.509	1052.69
434.731	1097.69
434.953	1095.69
435.175	1096.69
435.397	1109.69
435.618	1053.69
435.84	1021.69
436.062	1041.69
436.284	1013.69
436.505	1014.69
436.727	988.69
436.949	986.69
437.17	1036.69
437.392	993.69
437.614	974.69
437.835	950.69
438.057	978.69
438.278	970.69
438.5	974.69
438.721	964.69
438.943	991.69
439.165	968.69
439.386	979.69
439.608	980.69
439.829	991.69
440.05	978.69
440.272	1029.69
440.493	1038.69
440.715	1027.69
440.936	1037.69
441.158	1050.69
441.379	1084.69
441.6	1081.69
441.822	1108.69
442.043	1092.69
442.264	1073.69
442.486	1058.69
442.707	1085.69
442.928	1084.69
443.149	1076.69
443.371	1106.69
443.592	1077.69
443.813	1115.69
444.034	1154.69
444.255	1154.69
444.476	1183.69
444.698	1218.69
444.919	1298.69
445.14	1329.69
445.361	1208.69
445.582	1121.69
445.803	1095.69
446.024	1090.69
446.245	1067.69
446.466	1084.69
446.687	1016.69
446.908	1029.69
447.129	1000.69
447.35	962.69
447.571	991.69
447.792	972.69
448.013	948.69
448.234	940.69
448.455	961.69
448.675	938.69
448.896	950.69
449.117	910.69
449.338	939.69
449.559	932.69
449.779	914.69
450	916.69
450.221	919.69
450.442	928.69
450.662	914.69
450.883	920.69
451.104	940.69
451.324	948.69
451.545	965.69
451.766	937.69
451.986	938.69
452.207	924.69
452.428	895.69
452.648	912.69
452.869	881.69
453.089	884.69
453.31	889.69
453.53	910.69
453.751	869.69
453.971	863.69
454.192	900.69
454.412	858.69
454.633	874.69
454.853	861.69
455.073	886.69
455.294	866.69
455.514	876.69
455.734	858.69
455.955	864.69
456.175	880.69
456.395	851.69
456.616	852.69
456.836	875.69
457.056	869.69
457.276	872.69
457.497	871.69
457.717	868.69
457.937	868.69
458.157	867.69
458.377	906.69
458.598	880.69
458.818	902.69
459.038	951.69
459.258	952.69
459.478	1016.69
459.698	1016.69
459.918	1049.69
460.138	1060.69
460.358	1132.69
460.578	1146.69
460.798	1157.69
461.018	1150.69
461.238	1130.69
461.458	1141.69
461.678	1156.69
461.898	1192.69
462.118	1183.69
462.338	1236.69
462.558	1262.69
462.777	1301.69
462.997	1368.69
463.217	1460.69
463.437	1498.69
463.657	1430.69
463.876	1350.69
464.096	1345.69
464.316	1334.69
464.536	1314.69
464.755	1288.69
464.975	1214.69
465.195	1176.69
465.414	1101.69
465.634	1044.69
465.854	1019.69
466.073	1021.69
466.293	994.69
466.512	995.69
466.732	971.69
466.951	972.69
467.171	974.69
467.391	968.69
467.61	938.69
467.829	965.69
468.049	976.69
468.268	932.69
468.488	934.69
468.707	931.69
468.927	908.69
469.146	913.69
469.365	909.69
469.585	953.69
469.804	980.69
470.023	966.69
470.243	957.69
470.462	980.69
470.681	963.69
470.901	979.69
471.12	944.69
471.339	969.69
471.558	947.69
471.777	957.69
471.997	958.69
472.216	924.69
472.435	921.69
472.654	915.69
472.873	906.69
473.092	901.69
473.311	904.69
473.53	895.69
473.749	892.69
473.968	886.69
474.187	901.69
474.406	901.69
474.625	886.69
474.844	929.69
475.063	934.69
475.282	902.69
475.501	919.69
475.72	932.69
475.939	932.69
476.158	934.69
476.377	940.69
476.596	953.69
476.814	946.69
477.033	957.69
477.252	1004.69
477.471	1008.69
477.69	987.69
477.908	1024.69
478.127	1053.69
478.346	1056.69
478.564	1072.69
478.783	1077.69
479.002	1118.69
479.22	1133.69
479.439	1116.69
479.658	1131.69
479.876	1094.69
480.095	1120.69
480.313	1151.69
480.532	1179.69
480.751	1174.69
480.969	1145.69
481.188	1098.69
481.406	1081.69
481.624	1045.69
481.843	1060.69
482.061	1032.69
482.28	1016.69
482.498	1040.69
482.717	1011.69
482.935	995.69
483.153	1026.69
483.372	1020.69
483.59	1078.69
483.808	1012.69
484.027	1060.69
484.245	1038.69
484.463	1044.69
484.681	1044.69
484.9	1060.69
485.118	1072.69
485.336	1074.69
485.554	1091.69
485.772	1055.69
485.99	1056.69
486.209	1057.69
486.427	1077.69
486.645	1046.69
486.863	1089.69
487.081	1092.69
487.299	1086.69
487.517	1084.69
487.735	1109.69
487.953	1105.69
488.171	1090.69
488.389	1089.69
488.607	1097.69
488.825	1051.69
489.043	1054.69
489.261	1039.69
489.479	1069.69
489.696	1065.69
489.914	1065.69
490.132	1089.69
490.35	1081.69
490.568	1102.69
490.786	1099.69
491.003	1113.69
491.221	1113.69
491.439	1125.69
491.657	1123.69
491.874	1104.69
492.092	1121.69
492.31	1144.69
492.527	1150.69
492.745	1141.69
492.963	1117.69
493.18	1155.69
493.398	1136.69
493.615	1156.69
493.833	1152.69
494.05	1155.69
494.268	1164.69
494.485	1188.69
494.703	1177.69
494.92	1178.69
495.138	1172.69
495.355	1159.69
495.573	1180.69
495.79	1192.69
496.008	1194.69
496.225	1184.69
496.442	1191.69
496.66	1218.69
496.877	1287.69
497.094	1253.69
497.312	1289.69
497.529	1328.69
497.746	1367.69
497.963	1365.69
498.181	1457.69
498.398	1492.69
498.615	1561.69
498.832	1677.69
499.049	1742.69
499.267	1922.69
499.484	2057.69
499.701	2203.69
499.918	2368.69
500.135	2650.69
500.352	2920.69
500.569	2964.69
500.786	2923.69
501.003	2808.69
501.22	2612.69
501.437	2400.69
501.654	2116.69
501.871	1956.69
502.088	1848.69
502.305	1776.69
502.522	1676.69
502.739	1592.69
502.956	1514.69
503.172	1487.69
503.389	1422.69
503.606	1386.69
503.823	1359.69
504.04	1344.69
504.256	1349.69
504.473	1345.69
504.69	1400.69
504.907	1314.69
505.123	1268.69
505.34	1235.69
505.557	1162.69
505.773	1164.69
505.99	1143.69
506.207	1089.69
506.423	1062.69
506.64	1077.69
506.856	1072.69
507.073	1042.69
507.289	1038.69
507.506	1028.69
507.722	1026.69
507.939	1026.69
508.155	1030.69
508.372	997.69
508.588	988.69
508.805	962.69
509.021	959.69
509.238	963.69
509.454	970.69
509.67	945.69
509.887	908.69
510.103	926.69
510.319	945.69
510.536	962.69
510.752	901.69
510.968	936.69
511.184	951.69
511.401	952.69
511.617	954.69
511.833	921.69
512.049	927.69
512.265	933.69
512.481	929.69
512.698	935.69
512.914	950.69
513.13	955.69
513.346	902.69
513.562	904.69
513.778	908.69
513.994	931.69
514.21	930.69
514.426	915.69
514.642	953.69
514.858	952.69
515.074	934.69
515.29	988.69
515.506	986.69
515.721	994.69
515.937	1003.69
516.153	1025.69
516.369	1052.69
516.585	1063.69
516.801	1097.69
517.016	1134.69
517.232	1175.69
517.448	1194.69
517.664	1224.69
517.879	1245.69
518.095	1239.69
518.311	1217.69
518.527	1164.69
518.742	1110.69
518.958	1096.69
519.173	1060.69
519.389	1050.69
519.605	1016.69
519.82	1002.69
520.036	1004.69
520.251	964.69
520.467	961.69
520.682	948.69
520.898	936.69
521.113	923.69
521.329	898.69
521.544	905.69
521.76	900.69
521.975	877.69
522.19	891.69
522.406	908.69
522.621	897.69
522.836	878.69
523.052	876.69
523.267	866.69
523.482	864.69
523.698	861.69
523.913	837.69
524.128	876.69
524.343	849.69
524.559	847.69
524.774	859.69
524.989	860.69
525.204	854.69
525.419	847.69
525.634	837.69
525.849	857.69
526.064	845.69
526.28	857.69
526.495	816.69
526.71	838.69
526.925	835.69
527.14	832.69
527.355	827.69
527.57	810.69
527.785	828.69
527.999	816.69
528.214	801.69
528.429	847.69
528.644	833.69
528.859	836.69
529.074	825.69
529.289	860.69
529.503	873.69
529.718	842.69
529.933	827.69
530.148	818.69
530.363	830.69
530.577	810.69
530.792	818.69
531.007	801.69
531.221	844.69
531.436	858.69
531.651	860.69
531.865	830.69
532.08	851.69
532.295	825.69
532.509	838.69
532.724	833.69
532.938	821.69
533.153	835.69
533.367	816.69
533.582	789.69
533.796	822.69
534.011	802.69
534.225	840.69
534.44	802.69
534.654	802.69
534.868	806.69
535.083	813.69
535.297	807.69
535.511	805.69
535.726	784.69
535.94	798.69
536.154	766.69
536.369	779.69
536.583	782.69
536.797	786.69
537.011	771.69
537.225	772.69
537.44	757.69
537.654	767.69
537.868	766.69
538.082	731.69
538.296	748.69
538.51	731.69
538.724	755.69
538.938	753.69
539.153	750.69
539.367	746.69
539.581	731.69
539.795	763.69
540.009	774.69
540.222	741.69
540.436	762.69
540.65	757.69
540.864	746.69
541.078	753.69
541.292	762.69
541.506	740.69
541.72	764.69
541.934	744.69
542.147	772.69
542.361	752.69
542.575	743.69
542.789	728.69
543.002	765.69
543.216	760.69
543.43	736.69
543.644	733.69
543.857	717.69
544.071	721.69
544.285	750.69
544.498	738.69
544.712	720.69
544.925	755.69
545.139	756.69
545.352	745.69
545.566	750.69
545.779	749.69
545.993	779.69
546.206	760.69
546.42	775.69
546.633	778.69
546.847	789.69
547.06	758.69
547.274	773.69
547.487	778.69
547.7	786.69
547.914	778.69
548.127	777.69
548.34	767.69
548.554	763.69
548.767	751.69
548.98	775.69
549.193	778.69
549.407	774.69
549.62	790.69
549.833	771.69
550.046	797.69
550.259	740.69
550.473	778.69
550.686	777.69
550.899	753.69
551.112	737.69
551.325	744.69
551.538	750.69
551.751	760.69
551.964	744.69
552.177	741.69
552.39	741.69
552.603	787.69
552.816	805.69
553.029	796.69
553.242	814.69
553.455	813.69
553.667	808.69
553.88	840.69
554.093	781.69
554.306	798.69
554.519	772.69
554.732	762.69
554.944	742.69
555.157	732.69
555.37	720.69
555.583	709.69
555.795	698.69
556.008	685.69
556.221	691.69
556.433	675.69
556.646	678.69
556.859	674.69
557.071	663.69
557.284	684.69
557.496	682.69
557.709	671.69
557.921	650.69
558.134	636.69
558.346	640.69
558.559	639.69
558.771	619.69
558.984	642.69
559.196	626.69
559.409	616.69
559.621	631.69
559.833	639.69
560.046	632.69
560.258	618.69
560.47	624.69
560.683	628.69
560.895	643.69
561.107	640.69
561.32	609.69
561.532	634.69
561.744	643.69
561.956	642.69
562.168	649.69
562.381	637.69
562.593	627.69
562.805	638.69
563.017	624.69
563.229	637.69
563.441	635.69
563.653	637.69
563.865	655.69
564.077	647.69
564.289	657.69
564.501	669.69
564.713	673.69
564.925	678.69
565.137	681.69
565.349	701.69
565.561	730.69
565.773	759.69
565.985	770.69
566.197	811.69
566.408	842.69
566.62	870.69
566.832	958.69
567.044	947.69
567.255	965.69
567.467	984.69
567.679	992.69
567.891	1051.69
568.102	1060.69
568.314	1024.69
568.526	948.69
568.737	885.69
568.949	796.69
569.161	776.69
569.372	740.69
569.584	700.69
569.795	674.69
570.007	661.69
570.218	649.69
570.43	642.69
570.641	628.69
570.853	636.69
571.064	642.69
571.276	644.69
571.487	620.69
571.698	616.69
571.91	573.69
572.121	574.69
572.333	544.69
572.544	563.69
572.755	539.69
572.966	550.69
573.178	554.69
573.389	546.69
573.6	531.69
573.811	513.69
574.023	534.69
574.234	518.69
574.445	518.69
574.656	512.69
574.867	517.69
575.078	534.69
575.289	527.69
575.501	495.69
575.712	510.69
575.923	505.69
576.134	497.69
576.345	506.69
576.556	484.69
576.767	480.69
576.978	492.69
577.188	498.69
577.399	459.69
577.61	463.69
577.821	482.69
578.032	470.69
578.243	451.69
578.454	464.69
578.665	480.69
578.875	476.69
579.086	454.69
579.297	463.69
579.508	450.69
579.718	438.69
579.929	441.69
580.14	456.69
580.35	430.69
580.561	436.69
580.772	434.69
580.982	436.69
581.193	437.69
581.403	445.69
581.614	429.69
581.825	433.69
582.035	436.69
582.246	436.69
582.456	429.69
582.667	446.69
582.877	444.69
583.087	425.69
583.298	414.69
583.508	416.69
583.719	432.69
583.929	432.69
584.139	425.69
584.35	398.69
584.56	425.69
584.77	411.69
584.981	412.69
585.191	427.69
585.401	445.69
585.611	420.69
585.821	423.69
586.032	429.69
586.242	411.69
586.452	418.69
586.662	411.69
586.872	414.69
587.082	413.69
587.292	437.69
587.502	417.69
587.713	404.69
587.923	422.69
588.133	422.69
588.343	406.69
588.553	424.69
588.762	404.69
588.972	402.69
589.182	411.69
589.392	424.69
589.602	423.69
589.812	431.69
590.022	410.69
590.232	406.69
590.441	394.69
590.651	420.69
590.861	406.69
591.071	418.69
591.281	418.69
591.49	449.69
591.7	429.69
591.91	432.69
592.119	440.69
592.329	454.69
592.539	452.69
592.748	473.69
592.958	474.69
593.167	481.69
593.377	487.69
593.587	490.69
593.796	478.69
594.006	487.69
594.215	469.69
594.424	490.69
594.634	490.69
594.843	453.69
595.053	440.69
595.262	450.69
595.472	436.69
595.681	444.69
595.89	435.69
596.1	417.69
596.309	421.69
596.518	394.69
596.727	373.69
596.937	374.69
597.146	399.69
597.355	374.69
597.564	380.69
597.774	382.69
597.983	377.69
598.192	364.69
598.401	378.69
598.61	354.69
598.819	354.69
599.028	350.69
599.237	353.69
599.446	357.69
599.655	370.69
599.864	350.69
600.073	332.69
600.282	346.69
600.491	343.69
600.7	340.69
600.909	348.69
601.118	353.69
601.327	348.69
601.536	338.69
601.745	340.69
601.953	338.69
602.162	342.69
602.371	327.69
602.58	328.69
602.789	332.69
602.997	314.69
603.206	330.69
603.415	321.69
603.623	332.69
603.832	332.69
604.041	324.69
604.249	321.69
604.458	308.69
604.666	329.69
604.875	324.69
605.084	331.69
605.292	336.69
605.501	326.69
605.709	320.69
605.918	315.69
606.126	310.69
606.334	312.69
606.543	341.69
606.751	325.69
606.96	320.69
607.168	323.69
607.376	300.69
607.585	319.69
607.793	320.69
608.001	301.69
608.21	307.69
608.418	308.69
608.626	311.69
608.834	302.69
609.043	306.69
609.251	308.69
609.459	300.69
609.667	293.69
609.875	308.69
610.083	325.69
610.291	317.69
610.499	331.69
610.707	308.69
610.916	299.69
611.124	309.69
611.332	300.69
611.54	291.69
611.748	300.69
611.955	300.69
612.163	300.69
612.371	313.69
612.579	291.69
612.787	323.69
612.995	308.69
613.203	312.69
613.411	309.69
613.618	293.69
613.826	305.69
614.034	304.69
614.242	293.69
614.449	295.69
614.657	288.69
614.865	280.69
615.072	286.69
615.28	292.69
615.488	304.69
615.695	292.69
615.903	283.69
616.111	291.69
616.318	336.69
616.526	307.69
616.733	285.69
616.941	278.69
617.148	292.69
617.356	299.69
617.563	295.69
617.771	304.69
617.978	305.69
618.185	286.69
618.393	278.69
618.6	289.69
618.807	284.69
619.015	288.69
619.222	289.69
619.429	284.69
619.637	291.69
619.844	254.69
620.051	282.69
620.258	265.69
620.466	283.69
620.673	272.69
620.88	276.69
621.087	274.69
621.294	268.69
621.501	266.69
621.708	284.69
621.915	263.69
622.122	278.69
622.329	257.69
622.536	279.69
622.743	267.69
622.95	279.69
623.157	273.69
623.364	280.69
623.571	270.69
623.778	259.69
623.985	273.69
624.192	264.69
624.399	248.69
624.606	266.69
624.812	253.69
625.019	252.69
625.226	250.69
625.433	265.69
625.639	260.69
625.846	244.69
626.053	260.69
626.259	261.69
626.466	261.69
626.673	234.69
626.879	253.69
627.086	256.69
627.293	253.69
627.499	250.69
627.706	237.69
627.912	248.69
628.119	242.69
628.325	258.69
628.532	249.69
628.738	248.69
628.945	267.69
629.151	240.69
629.357	236.69
629.564	231.69
629.77	235.69
629.976	248.69
630.183	243.69
630.389	222.69
630.595	233.69
630.802	227.69
631.008	232.69
631.214	209.69
631.42	220.69
631.627	232.69
631.833	225.69
632.039	232.69
632.245	240.69
632.451	234.69
632.657	243.69
632.863	226.69
633.069	245.69
633.275	212.69
633.481	226.69
633.688	213.69
633.893	216.69
634.099	215.69
634.305	227.69
634.511	224.69
634.717	208.69
634.923	219.69
635.129	202.69
635.335	206.69
635.541	203.69
635.747	228.69
635.952	202.69
636.158	220.69
636.364	210.69
636.57	217.69
636.775	213.69
636.981	207.69
637.187	214.69
637.392	223.69
637.598	213.69
637.804	216.69
638.009	210.69
638.215	212.69
638.421	215.69
638.626	214.69
638.832	208.69
639.037	215.69
639.243	201.69
639.448	210.69
639.654	205.69
639.859	182.69
640.065	196.69
640.27	204.69
640.475	203.69
640.681	218.69
640.886	201.69
641.091	189.69
641.297	206.69
641.502	202.69
641.707	207.69
641.913	198.69
642.118	205.69
642.323	225.69
642.528	195.69
642.733	174.69
642.939	205.69
643.144	202.69
643.349	194.69
643.554	193.69
643.759	187.69
643.964	206.69
644.169	198.69
644.374	200.69
644.579	210.69
644.784	186.69
644.989	201.69
645.194	201.69
645.399	198.69
645.604	196.69
645.809	187.69
646.014	193.69
646.219	192.69
646.423	210.69
646.628	191.69
646.833	197.69
647.038	195.69
647.243	194.69
647.447	195.69
647.652	187.69
647.857	198.69
648.062	202.69
648.266	182.69
648.471	205.69
648.676	197.69
648.88	194.69
649.085	183.69
649.289	191.69
649.494	188.69
649.698	173.69
649.903	189.69
650.107	183.69
650.312	196.69
650.516	187.69
650.721	173.69
650.925	189.69
651.13	191.69
651.334	170.69
651.539	169.69
651.743	180.69
651.947	174.69
652.152	176.69
652.356	172.69
652.56	181.69
652.764	166.69
652.969	159.69
653.173	150.69
653.377	156.69
653.581	162.69
653.785	146.69
653.99	162.69
654.194	163.69
654.398	152.69
654.602	156.69
654.806	167.69
655.01	145.69
655.214	148.69
655.418	153.69
655.622	143.69
655.826	139.69
656.03	140.69
656.234	156.69
656.438	132.69
656.642	139.69
656.846	132.69
657.049	131.69
657.253	134.69
657.457	132.69
657.661	124.69
657.865	125.69
658.068	126.69
658.272	121.69
658.476	106.69
658.68	112.69
658.883	112.69
659.087	116.69
659.291	119.69
659.494	101.69
659.698	96.69
659.901	108.69
660.105	110.69
660.309	108.69
660.512	107.69
660.716	96.69
660.919	102.69
661.123	93.69
661.326	102.69
661.53	97.69
661.733	94.69
661.936	88.69
662.14	97.69
662.343	98.69
662.546	91.69
662.75	88.69
662.953	95.69
663.156	81.69
663.36	83.69
663.563	90.69
663.766	86.69
663.969	74.69
664.173	87.69
664.376	82.69
664.579	90.69
664.782	93.69
664.985	98.69
665.188	88.69
665.391	74.69
665.594	90.69
665.797	75.69
666	80.69
666.203	77.69
666.406	88.69
666.609	80.69
666.812	88.69
667.015	77.69
667.218	85.69
667.421	83.69
667.624	92.69
667.827	89.69
668.03	83.69
668.232	84.69
668.435	84.69
668.638	87.69
668.841	72.69
669.043	78.69
669.246	74.69
669.449	70.69
669.651	75.69
669.854	87.69
670.057	97.69
670.259	89.69
670.462	83.69
670.665	77.69
670.867	86.69
671.07	94.69
671.272	85.69
671.475	80.69
671.677	82.69
671.88	101.69
672.082	84.69
672.284	95.69
672.487	77.69
672.689	69.69
672.892	94.69
