Data from Ni(NO3)2@0.0625M.TitratingCurve.Agarose3%dH2O.NegLispCup.LampEnergy10.LIBS07252019_HRD10591_18-15-11-570.txt Node
Date: Thu Jul 25 18:15:11 EDT 2019
User: cochatt
Spectrometer: HR+D1059
Trigger mode: 1
Integration Time (sec): 1.000000E-1
Scans to average: 1
Electric dark correction enabled: true
Nonlinearity correction enabled: false
Boxcar width: 0
XAxis mode: Wavelengths
Number of Pixels in Spectrum: 2048
>>>>>Begin Spectral Data<<<<<
223.165	-12.12
223.4	-12.12
223.635	-12.12
223.869	-1.12
224.104	-21.12
224.338	-9.12
224.573	-16.12
224.808	-12.12
225.042	-14.12
225.277	-10.12
225.511	-6.12
225.746	3.88
225.98	3.88
226.215	12.88
226.449	14.88
226.683	10.88
226.918	25.88
227.152	29.88
227.387	32.88
227.621	36.88
227.856	41.88
228.09	67.88
228.324	55.88
228.559	55.88
228.793	73.88
229.027	114.88
229.262	103.88
229.496	117.88
229.73	123.88
229.964	125.88
230.199	123.88
230.433	133.88
230.667	138.88
230.901	153.88
231.136	143.88
231.37	131.88
231.604	131.88
231.838	151.88
232.072	142.88
232.306	158.88
232.541	165.88
232.775	164.88
233.009	138.88
233.243	133.88
233.477	140.88
233.711	149.88
233.945	135.88
234.179	136.88
234.413	161.88
234.647	142.88
234.881	141.88
235.115	149.88
235.349	159.88
235.583	160.88
235.817	134.88
236.051	147.88
236.285	162.88
236.519	158.88
236.753	176.88
236.987	157.88
237.221	151.88
237.455	163.88
237.689	169.88
237.922	168.88
238.156	162.88
238.39	162.88
238.624	179.88
238.858	174.88
239.091	174.88
239.325	150.88
239.559	180.88
239.793	143.88
240.027	187.88
240.26	180.88
240.494	180.88
240.728	187.88
240.961	185.88
241.195	187.88
241.429	190.88
241.662	178.88
241.896	187.88
242.13	187.88
242.363	212.88
242.597	193.88
242.83	193.88
243.064	200.88
243.298	196.88
243.531	191.88
243.765	211.88
243.998	216.88
244.232	199.88
244.465	204.88
244.699	208.88
244.932	221.88
245.166	221.88
245.399	224.88
245.633	210.88
245.866	233.88
246.099	225.88
246.333	218.88
246.566	217.88
246.8	222.88
247.033	219.88
247.266	221.88
247.5	225.88
247.733	237.88
247.966	235.88
248.2	223.88
248.433	242.88
248.666	231.88
248.899	233.88
249.133	241.88
249.366	245.88
249.599	242.88
249.832	231.88
250.066	238.88
250.299	254.88
250.532	251.88
250.765	233.88
250.998	252.88
251.231	257.88
251.465	262.88
251.698	267.88
251.931	264.88
252.164	257.88
252.397	274.88
252.63	255.88
252.863	281.88
253.096	293.88
253.329	277.88
253.562	274.88
253.795	278.88
254.028	275.88
254.261	264.88
254.494	274.88
254.727	268.88
254.96	277.88
255.193	291.88
255.426	275.88
255.659	294.88
255.892	299.88
256.124	291.88
256.357	296.88
256.59	296.88
256.823	306.88
257.056	289.88
257.289	310.88
257.521	293.88
257.754	283.88
257.987	289.88
258.22	298.88
258.452	307.88
258.685	315.88
258.918	289.88
259.151	301.88
259.383	318.88
259.616	321.88
259.849	305.88
260.081	322.88
260.314	338.88
260.547	315.88
260.779	311.88
261.012	313.88
261.244	299.88
261.477	325.88
261.71	305.88
261.942	314.88
262.175	320.88
262.407	324.88
262.64	330.88
262.872	320.88
263.105	359.88
263.337	325.88
263.57	333.88
263.802	347.88
264.035	335.88
264.267	344.88
264.499	347.88
264.732	332.88
264.964	347.88
265.197	336.88
265.429	336.88
265.661	346.88
265.894	369.88
266.126	348.88
266.358	358.88
266.591	359.88
266.823	364.88
267.055	368.88
267.287	372.88
267.52	358.88
267.752	359.88
267.984	376.88
268.216	365.88
268.448	363.88
268.681	374.88
268.913	359.88
269.145	385.88
269.377	365.88
269.609	367.88
269.841	374.88
270.073	373.88
270.306	377.88
270.538	380.88
270.77	368.88
271.002	362.88
271.234	381.88
271.466	393.88
271.698	386.88
271.93	388.88
272.162	392.88
272.394	378.88
272.626	394.88
272.858	389.88
273.09	390.88
273.322	393.88
273.553	410.88
273.785	387.88
274.017	399.88
274.249	401.88
274.481	399.88
274.713	406.88
274.945	421.88
275.176	401.88
275.408	418.88
275.64	425.88
275.872	416.88
276.104	408.88
276.335	416.88
276.567	410.88
276.799	416.88
277.031	445.88
277.262	440.88
277.494	414.88
277.726	453.88
277.957	418.88
278.189	421.88
278.421	404.88
278.652	422.88
278.884	434.88
279.115	420.88
279.347	439.88
279.579	423.88
279.81	433.88
280.042	434.88
280.273	437.88
280.505	442.88
280.736	436.88
280.968	450.88
281.199	424.88
281.431	442.88
281.662	462.88
281.894	475.88
282.125	448.88
282.356	474.88
282.588	474.88
282.819	453.88
283.051	453.88
283.282	453.88
283.513	478.88
283.745	460.88
283.976	475.88
284.207	484.88
284.439	488.88
284.67	451.88
284.901	477.88
285.132	474.88
285.364	485.88
285.595	470.88
285.826	479.88
286.057	486.88
286.288	485.88
286.52	494.88
286.751	494.88
286.982	498.88
287.213	499.88
287.444	498.88
287.675	483.88
287.906	499.88
288.138	498.88
288.369	508.88
288.6	531.88
288.831	513.88
289.062	504.88
289.293	495.88
289.524	521.88
289.755	535.88
289.986	519.88
290.217	521.88
290.448	518.88
290.679	538.88
290.91	516.88
291.141	504.88
291.371	532.88
291.602	525.88
291.833	531.88
292.064	530.88
292.295	524.88
292.526	515.88
292.757	532.88
292.987	517.88
293.218	533.88
293.449	547.88
293.68	538.88
293.91	522.88
294.141	542.88
294.372	533.88
294.603	523.88
294.833	544.88
295.064	526.88
295.295	530.88
295.525	521.88
295.756	561.88
295.987	541.88
296.217	528.88
296.448	555.88
296.679	543.88
296.909	542.88
297.14	538.88
297.37	553.88
297.601	565.88
297.831	575.88
298.062	600.88
298.292	576.88
298.523	598.88
298.753	581.88
298.984	588.88
299.214	590.88
299.445	564.88
299.675	566.88
299.905	578.88
300.136	577.88
300.366	566.88
300.597	595.88
300.827	564.88
301.057	625.88
301.288	621.88
301.518	617.88
301.748	597.88
301.979	632.88
302.209	588.88
302.439	586.88
302.669	603.88
302.9	589.88
303.13	593.88
303.36	570.88
303.59	588.88
303.82	587.88
304.051	606.88
304.281	586.88
304.511	583.88
304.741	587.88
304.971	595.88
305.201	569.88
305.431	579.88
305.661	587.88
305.891	576.88
306.121	569.88
306.352	590.88
306.582	578.88
306.812	574.88
307.042	584.88
307.272	574.88
307.502	601.88
307.731	570.88
307.961	571.88
308.191	594.88
308.421	565.88
308.651	558.88
308.881	575.88
309.111	573.88
309.341	539.88
309.571	573.88
309.8	575.88
310.03	587.88
310.26	566.88
310.49	574.88
310.72	582.88
310.949	573.88
311.179	586.88
311.409	582.88
311.639	583.88
311.868	575.88
312.098	573.88
312.328	607.88
312.557	614.88
312.787	604.88
313.017	600.88
313.246	603.88
313.476	624.88
313.706	615.88
313.935	620.88
314.165	619.88
314.394	647.88
314.624	631.88
314.853	630.88
315.083	630.88
315.312	629.88
315.542	637.88
315.771	632.88
316.001	618.88
316.23	615.88
316.46	571.88
316.689	619.88
316.919	610.88
317.148	597.88
317.377	594.88
317.607	571.88
317.836	613.88
318.065	611.88
318.295	627.88
318.524	591.88
318.753	579.88
318.983	585.88
319.212	586.88
319.441	609.88
319.67	610.88
319.9	626.88
320.129	603.88
320.358	608.88
320.587	584.88
320.816	608.88
321.046	619.88
321.275	599.88
321.504	603.88
321.733	621.88
321.962	597.88
322.191	605.88
322.42	611.88
322.649	608.88
322.878	608.88
323.108	608.88
323.337	640.88
323.566	639.88
323.795	624.88
324.024	614.88
324.253	627.88
324.482	609.88
324.71	615.88
324.939	619.88
325.168	618.88
325.397	630.88
325.626	643.88
325.855	625.88
326.084	656.88
326.313	695.88
326.542	645.88
326.77	681.88
326.999	668.88
327.228	666.88
327.457	668.88
327.686	686.88
327.914	653.88
328.143	653.88
328.372	684.88
328.6	635.88
328.829	650.88
329.058	670.88
329.287	660.88
329.515	656.88
329.744	658.88
329.972	676.88
330.201	681.88
330.43	698.88
330.658	660.88
330.887	704.88
331.115	683.88
331.344	710.88
331.572	685.88
331.801	733.88
332.03	712.88
332.258	757.88
332.486	793.88
332.715	783.88
332.943	827.88
333.172	866.88
333.4	877.88
333.629	948.88
333.857	910.88
334.085	899.88
334.314	890.88
334.542	877.88
334.771	849.88
334.999	818.88
335.227	823.88
335.455	834.88
335.684	816.88
335.912	839.88
336.14	809.88
336.369	776.88
336.597	817.88
336.825	835.88
337.053	813.88
337.281	802.88
337.51	775.88
337.738	757.88
337.966	743.88
338.194	745.88
338.422	701.88
338.65	723.88
338.878	732.88
339.106	718.88
339.334	718.88
339.562	734.88
339.79	715.88
340.018	711.88
340.246	693.88
340.474	662.88
340.702	699.88
340.93	698.88
341.158	708.88
341.386	699.88
341.614	714.88
341.842	694.88
342.07	685.88
342.298	687.88
342.526	695.88
342.754	699.88
342.981	693.88
343.209	702.88
343.437	741.88
343.665	790.88
343.893	855.88
344.12	874.88
344.348	836.88
344.576	780.88
344.804	792.88
345.031	758.88
345.259	686.88
345.487	699.88
345.714	678.88
345.942	700.88
346.17	687.88
346.397	711.88
346.625	685.88
346.853	678.88
347.08	684.88
347.308	679.88
347.535	704.88
347.763	694.88
347.99	705.88
348.218	692.88
348.445	700.88
348.673	673.88
348.9	709.88
349.128	701.88
349.355	673.88
349.583	677.88
349.81	687.88
350.037	657.88
350.265	653.88
350.492	656.88
350.72	650.88
350.947	651.88
351.174	662.88
351.402	663.88
351.629	636.88
351.856	640.88
352.083	659.88
352.311	659.88
352.538	654.88
352.765	647.88
352.992	670.88
353.22	638.88
353.447	621.88
353.674	635.88
353.901	639.88
354.128	639.88
354.355	644.88
354.583	637.88
354.81	661.88
355.037	666.88
355.264	659.88
355.491	646.88
355.718	681.88
355.945	646.88
356.172	661.88
356.399	660.88
356.626	677.88
356.853	661.88
357.08	662.88
357.307	655.88
357.534	650.88
357.761	652.88
357.988	654.88
358.215	669.88
358.441	653.88
358.668	655.88
358.895	642.88
359.122	657.88
359.349	653.88
359.576	655.88
359.802	648.88
360.029	662.88
360.256	667.88
360.483	650.88
360.709	664.88
360.936	643.88
361.163	653.88
361.39	678.88
361.616	606.88
361.843	646.88
362.07	647.88
362.296	640.88
362.523	644.88
362.749	650.88
362.976	640.88
363.203	677.88
363.429	637.88
363.656	654.88
363.882	643.88
364.109	646.88
364.335	628.88
364.562	655.88
364.788	643.88
365.015	645.88
365.241	630.88
365.468	660.88
365.694	635.88
365.92	641.88
366.147	650.88
366.373	658.88
366.599	657.88
366.826	625.88
367.052	638.88
367.278	674.88
367.505	642.88
367.731	660.88
367.957	633.88
368.184	653.88
368.41	652.88
368.636	661.88
368.862	670.88
369.089	684.88
369.315	662.88
369.541	681.88
369.767	656.88
369.993	664.88
370.219	689.88
370.445	738.88
370.672	698.88
370.898	706.88
371.124	703.88
371.35	700.88
371.576	698.88
371.802	695.88
372.028	699.88
372.254	754.88
372.48	739.88
372.706	727.88
372.932	749.88
373.158	755.88
373.384	711.88
373.61	689.88
373.835	714.88
374.061	705.88
374.287	708.88
374.513	725.88
374.739	765.88
374.965	761.88
375.191	799.88
375.416	778.88
375.642	789.88
375.868	771.88
376.094	732.88
376.319	727.88
376.545	729.88
376.771	710.88
376.997	731.88
377.222	711.88
377.448	706.88
377.674	705.88
377.899	693.88
378.125	717.88
378.35	703.88
378.576	709.88
378.802	686.88
379.027	718.88
379.253	698.88
379.478	700.88
379.704	713.88
379.929	705.88
380.155	697.88
380.38	714.88
380.606	710.88
380.831	697.88
381.057	702.88
381.282	690.88
381.507	709.88
381.733	720.88
381.958	703.88
382.184	729.88
382.409	725.88
382.634	732.88
382.86	744.88
383.085	762.88
383.31	765.88
383.535	795.88
383.761	821.88
383.986	795.88
384.211	799.88
384.436	841.88
384.662	841.88
384.887	848.88
385.112	887.88
385.337	861.88
385.562	846.88
385.787	889.88
386.013	847.88
386.238	848.88
386.463	863.88
386.688	860.88
386.913	882.88
387.138	865.88
387.363	861.88
387.588	827.88
387.813	845.88
388.038	855.88
388.263	842.88
388.488	862.88
388.713	854.88
388.938	828.88
389.163	836.88
389.387	832.88
389.612	798.88
389.837	811.88
390.062	826.88
390.287	846.88
390.512	847.88
390.736	861.88
390.961	863.88
391.186	860.88
391.411	909.88
391.636	899.88
391.86	956.88
392.085	977.88
392.31	950.88
392.534	955.88
392.759	905.88
392.984	888.88
393.208	901.88
393.433	915.88
393.658	899.88
393.882	924.88
394.107	942.88
394.331	933.88
394.556	915.88
394.78	933.88
395.005	912.88
395.229	923.88
395.454	943.88
395.678	970.88
395.903	964.88
396.127	965.88
396.352	944.88
396.576	887.88
396.801	899.88
397.025	898.88
397.249	921.88
397.474	939.88
397.698	926.88
397.922	930.88
398.147	929.88
398.371	972.88
398.595	985.88
398.82	1051.88
399.044	1126.88
399.268	1237.88
399.492	1496.88
399.717	1675.88
399.941	1713.88
400.165	1475.88
400.389	1263.88
400.613	1181.88
400.837	1118.88
401.062	1085.88
401.286	1097.88
401.51	1045.88
401.734	1087.88
401.958	1115.88
402.182	1116.88
402.406	1126.88
402.63	1121.88
402.854	1153.88
403.078	1193.88
403.302	1190.88
403.526	1231.88
403.75	1236.88
403.974	1283.88
404.198	1319.88
404.422	1303.88
404.645	1257.88
404.869	1245.88
405.093	1244.88
405.317	1231.88
405.541	1190.88
405.765	1169.88
405.988	1191.88
406.212	1171.88
406.436	1169.88
406.66	1189.88
406.883	1220.88
407.107	1314.88
407.331	1381.88
407.555	1401.88
407.778	1419.88
408.002	1365.88
408.226	1327.88
408.449	1304.88
408.673	1215.88
408.896	1249.88
409.12	1257.88
409.344	1231.88
409.567	1238.88
409.791	1239.88
410.014	1265.88
410.238	1245.88
410.461	1244.88
410.685	1217.88
410.908	1171.88
411.132	1175.88
411.355	1099.88
411.578	1107.88
411.802	1109.88
412.025	1147.88
412.249	1151.88
412.472	1123.88
412.695	1091.88
412.919	1053.88
413.142	1065.88
413.365	1048.88
413.589	1078.88
413.812	1043.88
414.035	1076.88
414.258	1094.88
414.482	1073.88
414.705	1084.88
414.928	1114.88
415.151	1108.88
415.374	1087.88
415.597	1103.88
415.821	1051.88
416.044	1025.88
416.267	1045.88
416.49	1028.88
416.713	1057.88
416.936	1045.88
417.159	1051.88
417.382	1042.88
417.605	1071.88
417.828	1103.88
418.051	1090.88
418.274	1116.88
418.497	1100.88
418.72	1106.88
418.943	1100.88
419.166	1166.88
419.389	1270.88
419.611	1231.88
419.834	1165.88
420.057	1138.88
420.28	1060.88
420.503	1027.88
420.726	1062.88
420.948	1085.88
421.171	1043.88
421.394	1069.88
421.617	1075.88
421.839	1066.88
422.062	1079.88
422.285	1059.88
422.507	1133.88
422.73	1119.88
422.953	1126.88
423.175	1140.88
423.398	1126.88
423.621	1139.88
423.843	1175.88
424.066	1134.88
424.288	1166.88
424.511	1154.88
424.733	1171.88
424.956	1095.88
425.178	1077.88
425.401	1062.88
425.623	1087.88
425.846	1037.88
426.068	1020.88
426.291	1039.88
426.513	982.88
426.735	1003.88
426.958	1000.88
427.18	959.88
427.402	959.88
427.625	980.88
427.847	931.88
428.069	976.88
428.292	961.88
428.514	983.88
428.736	956.88
428.958	962.88
429.181	930.88
429.403	924.88
429.625	903.88
429.847	929.88
430.069	909.88
430.292	927.88
430.514	917.88
430.736	957.88
430.958	937.88
431.18	921.88
431.402	940.88
431.624	933.88
431.846	957.88
432.068	961.88
432.29	995.88
432.512	936.88
432.734	958.88
432.956	941.88
433.178	961.88
433.4	922.88
433.622	936.88
433.844	993.88
434.066	983.88
434.287	986.88
434.509	994.88
434.731	1059.88
434.953	1084.88
435.175	1091.88
435.397	1066.88
435.618	1000.88
435.84	998.88
436.062	979.88
436.284	939.88
436.505	944.88
436.727	937.88
436.949	958.88
437.17	985.88
437.392	944.88
437.614	950.88
437.835	915.88
438.057	919.88
438.278	897.88
438.5	903.88
438.721	911.88
438.943	934.88
439.165	921.88
439.386	941.88
439.608	948.88
439.829	933.88
440.05	931.88
440.272	933.88
440.493	953.88
440.715	988.88
440.936	992.88
441.158	991.88
441.379	1004.88
441.6	1076.88
441.822	1076.88
442.043	1110.88
442.264	1074.88
442.486	1025.88
442.707	1065.88
442.928	1046.88
443.149	1049.88
443.371	1051.88
443.592	1085.88
443.813	1080.88
444.034	1116.88
444.255	1108.88
444.476	1202.88
444.698	1283.88
444.919	1306.88
445.14	1372.88
445.361	1205.88
445.582	1120.88
445.803	1063.88
446.024	1006.88
446.245	973.88
446.466	993.88
446.687	982.88
446.908	961.88
447.129	931.88
447.35	905.88
447.571	913.88
447.792	889.88
448.013	938.88
448.234	885.88
448.455	877.88
448.675	869.88
448.896	886.88
449.117	861.88
449.338	869.88
449.559	865.88
449.779	851.88
450	872.88
450.221	882.88
450.442	873.88
450.662	903.88
450.883	897.88
451.104	937.88
451.324	912.88
451.545	933.88
451.766	912.88
451.986	880.88
452.207	899.88
452.428	894.88
452.648	865.88
452.869	876.88
453.089	846.88
453.31	897.88
453.53	857.88
453.751	873.88
453.971	846.88
454.192	841.88
454.412	838.88
454.633	856.88
454.853	819.88
455.073	844.88
455.294	859.88
455.514	811.88
455.734	849.88
455.955	825.88
456.175	814.88
456.395	809.88
456.616	801.88
456.836	838.88
457.056	809.88
457.276	820.88
457.497	839.88
457.717	850.88
457.937	838.88
458.157	827.88
458.377	873.88
458.598	844.88
458.818	879.88
459.038	910.88
459.258	938.88
459.478	982.88
459.698	1005.88
459.918	1007.88
460.138	1074.88
460.358	1149.88
460.578	1120.88
460.798	1127.88
461.018	1157.88
461.238	1149.88
461.458	1143.88
461.678	1138.88
461.898	1139.88
462.118	1151.88
462.338	1188.88
462.558	1231.88
462.777	1330.88
462.997	1438.88
463.217	1593.88
463.437	1593.88
463.657	1434.88
463.876	1366.88
464.096	1365.88
464.316	1342.88
464.536	1400.88
464.755	1311.88
464.975	1285.88
465.195	1190.88
465.414	1129.88
465.634	1059.88
465.854	1011.88
466.073	979.88
466.293	981.88
466.512	953.88
466.732	918.88
466.951	929.88
467.171	921.88
467.391	963.88
467.61	915.88
467.829	936.88
468.049	906.88
468.268	889.88
468.488	879.88
468.707	857.88
468.927	891.88
469.146	893.88
469.365	915.88
469.585	917.88
469.804	930.88
470.023	933.88
470.243	968.88
470.462	980.88
470.681	974.88
470.901	942.88
471.12	945.88
471.339	929.88
471.558	913.88
471.777	892.88
471.997	891.88
472.216	868.88
472.435	874.88
472.654	866.88
472.873	853.88
473.092	868.88
473.311	869.88
473.53	826.88
473.749	869.88
473.968	863.88
474.187	848.88
474.406	847.88
474.625	868.88
474.844	852.88
475.063	858.88
475.282	845.88
475.501	882.88
475.72	895.88
475.939	891.88
476.158	889.88
476.377	888.88
476.596	900.88
476.814	925.88
477.033	917.88
477.252	927.88
477.471	930.88
477.69	967.88
477.908	991.88
478.127	1001.88
478.346	1045.88
478.564	1045.88
478.783	1059.88
479.002	1079.88
479.22	1114.88
479.439	1075.88
479.658	1087.88
479.876	1088.88
480.095	1083.88
480.313	1146.88
480.532	1201.88
480.751	1204.88
480.969	1115.88
481.188	1063.88
481.406	1042.88
481.624	1014.88
481.843	996.88
482.061	998.88
482.28	982.88
482.498	987.88
482.717	990.88
482.935	965.88
483.153	993.88
483.372	986.88
483.59	979.88
483.808	966.88
484.027	1004.88
484.245	1003.88
484.463	946.88
484.681	1014.88
484.9	1009.88
485.118	1010.88
485.336	1013.88
485.554	1049.88
485.772	1060.88
485.99	1019.88
486.209	1068.88
486.427	1068.88
486.645	1079.88
486.863	1053.88
487.081	1037.88
487.299	1046.88
487.517	1086.88
487.735	1065.88
487.953	1038.88
488.171	1051.88
488.389	1043.88
488.607	1021.88
488.825	1017.88
489.043	1002.88
489.261	1019.88
489.479	1022.88
489.696	1042.88
489.914	1002.88
490.132	1029.88
490.35	1053.88
490.568	1022.88
490.786	1013.88
491.003	1005.88
491.221	1055.88
491.439	1028.88
491.657	1002.88
491.874	1009.88
492.092	1051.88
492.31	1025.88
492.527	1032.88
492.745	1070.88
492.963	1042.88
493.18	1090.88
493.398	1099.88
493.615	1125.88
493.833	1077.88
494.05	1078.88
494.268	1073.88
494.485	1093.88
494.703	1106.88
494.92	1086.88
495.138	1106.88
495.355	1086.88
495.573	1108.88
495.79	1089.88
496.008	1102.88
496.225	1130.88
496.442	1121.88
496.66	1175.88
496.877	1133.88
497.094	1154.88
497.312	1196.88
497.529	1190.88
497.746	1214.88
497.963	1279.88
498.181	1300.88
498.398	1365.88
498.615	1441.88
498.832	1583.88
499.049	1670.88
499.267	1833.88
499.484	2028.88
499.701	2173.88
499.918	2498.88
500.135	2853.88
500.352	3350.88
500.569	3571.88
500.786	3496.88
501.003	3202.88
501.22	2837.88
501.437	2523.88
501.654	2154.88
501.871	1970.88
502.088	1796.88
502.305	1673.88
502.522	1561.88
502.739	1494.88
502.956	1443.88
503.172	1337.88
503.389	1305.88
503.606	1241.88
503.823	1241.88
504.04	1218.88
504.256	1247.88
504.473	1269.88
504.69	1374.88
504.907	1321.88
505.123	1251.88
505.34	1170.88
505.557	1065.88
505.773	1067.88
505.99	1090.88
506.207	1005.88
506.423	1021.88
506.64	1002.88
506.856	971.88
507.073	978.88
507.289	998.88
507.506	961.88
507.722	966.88
507.939	950.88
508.155	938.88
508.372	948.88
508.588	931.88
508.805	931.88
509.021	899.88
509.238	893.88
509.454	929.88
509.67	898.88
509.887	934.88
510.103	895.88
510.319	908.88
510.536	897.88
510.752	889.88
510.968	876.88
511.184	879.88
511.401	873.88
511.617	903.88
511.833	890.88
512.049	886.88
512.265	896.88
512.481	905.88
512.698	887.88
512.914	859.88
513.13	881.88
513.346	897.88
513.562	904.88
513.778	893.88
513.994	898.88
514.21	897.88
514.426	910.88
514.642	909.88
514.858	895.88
515.074	932.88
515.29	893.88
515.506	930.88
515.721	943.88
515.937	968.88
516.153	968.88
516.369	998.88
516.585	1028.88
516.801	1073.88
517.016	1100.88
517.232	1178.88
517.448	1221.88
517.664	1280.88
517.879	1287.88
518.095	1302.88
518.311	1258.88
518.527	1181.88
518.742	1129.88
518.958	1085.88
519.173	1030.88
519.389	997.88
519.605	972.88
519.82	950.88
520.036	931.88
520.251	915.88
520.467	911.88
520.682	888.88
520.898	889.88
521.113	884.88
521.329	870.88
521.544	866.88
521.76	878.88
521.975	856.88
522.19	836.88
522.406	827.88
522.621	840.88
522.836	846.88
523.052	855.88
523.267	823.88
523.482	839.88
523.698	815.88
523.913	826.88
524.128	823.88
524.343	854.88
524.559	824.88
524.774	814.88
524.989	828.88
525.204	813.88
525.419	809.88
525.634	792.88
525.849	822.88
526.064	809.88
526.28	801.88
526.495	795.88
526.71	807.88
526.925	804.88
527.14	787.88
527.355	807.88
527.57	801.88
527.785	807.88
527.999	815.88
528.214	838.88
528.429	819.88
528.644	802.88
528.859	802.88
529.074	795.88
529.289	795.88
529.503	825.88
529.718	795.88
529.933	801.88
530.148	801.88
530.363	825.88
530.577	796.88
530.792	785.88
531.007	810.88
531.221	807.88
531.436	809.88
531.651	817.88
531.865	819.88
532.08	805.88
532.295	825.88
532.509	818.88
532.724	802.88
532.938	837.88
533.153	823.88
533.367	813.88
533.582	803.88
533.796	798.88
534.011	817.88
534.225	804.88
534.44	783.88
534.654	801.88
534.868	787.88
535.083	791.88
535.297	802.88
535.511	790.88
535.726	775.88
535.94	787.88
536.154	771.88
536.369	782.88
536.583	780.88
536.797	780.88
537.011	759.88
537.225	734.88
537.44	759.88
537.654	749.88
537.868	735.88
538.082	726.88
538.296	746.88
538.51	764.88
538.724	750.88
538.938	734.88
539.153	710.88
539.367	737.88
539.581	737.88
539.795	731.88
540.009	717.88
540.222	715.88
540.436	721.88
540.65	723.88
540.864	694.88
541.078	698.88
541.292	710.88
541.506	725.88
541.72	733.88
541.934	716.88
542.147	693.88
542.361	708.88
542.575	723.88
542.789	711.88
543.002	705.88
543.216	725.88
543.43	721.88
543.644	723.88
543.857	719.88
544.071	712.88
544.285	708.88
544.498	709.88
544.712	691.88
544.925	719.88
545.139	748.88
545.352	732.88
545.566	722.88
545.779	742.88
545.993	739.88
546.206	742.88
546.42	758.88
546.633	738.88
546.847	753.88
547.06	731.88
547.274	733.88
547.487	737.88
547.7	721.88
547.914	726.88
548.127	739.88
548.34	740.88
548.554	731.88
548.767	748.88
548.98	750.88
549.193	712.88
549.407	742.88
549.62	767.88
549.833	790.88
550.046	740.88
550.259	715.88
550.473	757.88
550.686	735.88
550.899	718.88
551.112	710.88
551.325	717.88
551.538	685.88
551.751	729.88
551.964	714.88
552.177	725.88
552.39	727.88
552.603	734.88
552.816	769.88
553.029	807.88
553.242	818.88
553.455	837.88
553.667	849.88
553.88	814.88
554.093	780.88
554.306	750.88
554.519	728.88
554.732	737.88
554.944	730.88
555.157	719.88
555.37	716.88
555.583	709.88
555.795	696.88
556.008	667.88
556.221	645.88
556.433	665.88
556.646	635.88
556.859	643.88
557.071	643.88
557.284	642.88
557.496	652.88
557.709	653.88
557.921	642.88
558.134	651.88
558.346	633.88
558.559	650.88
558.771	633.88
558.984	628.88
559.196	631.88
559.409	626.88
559.621	632.88
559.833	621.88
560.046	606.88
560.258	632.88
560.47	626.88
560.683	604.88
560.895	613.88
561.107	603.88
561.32	603.88
561.532	594.88
561.744	631.88
561.956	621.88
562.168	618.88
562.381	615.88
562.593	576.88
562.805	610.88
563.017	614.88
563.229	620.88
563.441	627.88
563.653	641.88
563.865	620.88
564.077	641.88
564.289	648.88
564.501	677.88
564.713	648.88
564.925	641.88
565.137	656.88
565.349	692.88
565.561	718.88
565.773	715.88
565.985	744.88
566.197	780.88
566.408	859.88
566.62	945.88
566.832	1013.88
567.044	1029.88
567.255	1044.88
567.467	1039.88
567.679	1125.88
567.891	1190.88
568.102	1272.88
568.314	1238.88
568.526	1061.88
568.737	977.88
568.949	854.88
569.161	800.88
569.372	762.88
569.584	702.88
569.795	681.88
570.007	643.88
570.218	615.88
570.43	639.88
570.641	610.88
570.853	643.88
571.064	655.88
571.276	647.88
571.487	633.88
571.698	606.88
571.91	581.88
572.121	585.88
572.333	554.88
572.544	541.88
572.755	516.88
572.966	540.88
573.178	529.88
573.389	547.88
573.6	505.88
573.811	524.88
574.023	511.88
574.234	507.88
574.445	524.88
574.656	497.88
574.867	521.88
575.078	517.88
575.289	520.88
575.501	489.88
575.712	502.88
575.923	476.88
576.134	478.88
576.345	492.88
576.556	479.88
576.767	491.88
576.978	491.88
577.188	476.88
577.399	473.88
577.61	469.88
577.821	488.88
578.032	489.88
578.243	456.88
578.454	470.88
578.665	463.88
578.875	460.88
579.086	453.88
579.297	460.88
579.508	467.88
579.718	451.88
579.929	456.88
580.14	440.88
580.35	455.88
580.561	445.88
580.772	467.88
580.982	451.88
581.193	444.88
581.403	439.88
581.614	454.88
581.825	437.88
582.035	453.88
582.246	426.88
582.456	434.88
582.667	445.88
582.877	446.88
583.087	416.88
583.298	429.88
583.508	423.88
583.719	453.88
583.929	414.88
584.139	433.88
584.35	426.88
584.56	426.88
584.77	414.88
584.981	444.88
585.191	427.88
585.401	414.88
585.611	419.88
585.821	412.88
586.032	422.88
586.242	414.88
586.452	418.88
586.662	407.88
586.872	407.88
587.082	400.88
587.292	410.88
587.502	420.88
587.713	418.88
587.923	418.88
588.133	404.88
588.343	402.88
588.553	400.88
588.762	419.88
588.972	420.88
589.182	409.88
589.392	389.88
589.602	409.88
589.812	423.88
590.022	413.88
590.232	395.88
590.441	423.88
590.651	412.88
590.861	420.88
591.071	418.88
591.281	429.88
591.49	427.88
591.7	431.88
591.91	452.88
592.119	442.88
592.329	437.88
592.539	481.88
592.748	478.88
592.958	503.88
593.167	518.88
593.377	548.88
593.587	527.88
593.796	519.88
594.006	537.88
594.215	546.88
594.424	543.88
594.634	561.88
594.843	501.88
595.053	474.88
595.262	475.88
595.472	436.88
595.681	435.88
595.89	426.88
596.1	426.88
596.309	406.88
596.518	403.88
596.727	384.88
596.937	393.88
597.146	393.88
597.355	378.88
597.564	382.88
597.774	370.88
597.983	370.88
598.192	371.88
598.401	385.88
598.61	382.88
598.819	373.88
599.028	365.88
599.237	347.88
599.446	360.88
599.655	372.88
599.864	354.88
600.073	356.88
600.282	350.88
600.491	350.88
600.7	345.88
600.909	367.88
601.118	354.88
601.327	355.88
601.536	354.88
601.745	358.88
601.953	349.88
602.162	343.88
602.371	323.88
602.58	339.88
602.789	334.88
602.997	346.88
603.206	341.88
603.415	357.88
603.623	340.88
603.832	340.88
604.041	349.88
604.249	339.88
604.458	350.88
604.666	313.88
604.875	322.88
605.084	338.88
605.292	332.88
605.501	336.88
605.709	345.88
605.918	347.88
606.126	322.88
606.334	327.88
606.543	318.88
606.751	331.88
606.96	348.88
607.168	323.88
607.376	309.88
607.585	309.88
607.793	318.88
608.001	311.88
608.21	308.88
608.418	319.88
608.626	310.88
608.834	325.88
609.043	323.88
609.251	340.88
609.459	296.88
609.667	302.88
609.875	325.88
610.083	306.88
610.291	300.88
610.499	315.88
610.707	321.88
610.916	299.88
611.124	309.88
611.332	306.88
611.54	306.88
611.748	318.88
611.955	308.88
612.163	299.88
612.371	311.88
612.579	300.88
612.787	294.88
612.995	293.88
613.203	301.88
613.411	287.88
613.618	309.88
613.826	300.88
614.034	298.88
614.242	299.88
614.449	301.88
614.657	284.88
614.865	289.88
615.072	310.88
615.28	303.88
615.488	292.88
615.695	311.88
615.903	299.88
616.111	312.88
616.318	301.88
616.526	307.88
616.733	299.88
616.941	314.88
617.148	321.88
617.356	294.88
617.563	319.88
617.771	303.88
617.978	306.88
618.185	304.88
618.393	301.88
618.6	313.88
618.807	305.88
619.015	318.88
619.222	295.88
619.429	298.88
619.637	291.88
619.844	312.88
620.051	292.88
620.258	307.88
620.466	268.88
620.673	265.88
620.88	258.88
621.087	278.88
621.294	271.88
621.501	285.88
621.708	282.88
621.915	292.88
622.122	279.88
622.329	283.88
622.536	286.88
622.743	274.88
622.95	277.88
623.157	269.88
623.364	262.88
623.571	274.88
623.778	274.88
623.985	271.88
624.192	270.88
624.399	264.88
624.606	267.88
624.812	272.88
625.019	275.88
625.226	274.88
625.433	291.88
625.639	275.88
625.846	239.88
626.053	271.88
626.259	259.88
626.466	265.88
626.673	249.88
626.879	254.88
627.086	246.88
627.293	250.88
627.499	250.88
627.706	262.88
627.912	245.88
628.119	243.88
628.325	252.88
628.532	252.88
628.738	252.88
628.945	253.88
629.151	262.88
629.357	253.88
629.564	230.88
629.77	240.88
629.976	241.88
630.183	241.88
630.389	220.88
630.595	246.88
630.802	234.88
631.008	236.88
631.214	235.88
631.42	234.88
631.627	237.88
631.833	219.88
632.039	217.88
632.245	233.88
632.451	237.88
632.657	234.88
632.863	235.88
633.069	241.88
633.275	232.88
633.481	237.88
633.688	245.88
633.893	217.88
634.099	235.88
634.305	221.88
634.511	220.88
634.717	212.88
634.923	234.88
635.129	213.88
635.335	212.88
635.541	229.88
635.747	229.88
635.952	221.88
636.158	213.88
636.364	211.88
636.57	222.88
636.775	212.88
636.981	216.88
637.187	224.88
637.392	229.88
637.598	227.88
637.804	216.88
638.009	221.88
638.215	220.88
638.421	212.88
638.626	215.88
638.832	201.88
639.037	195.88
639.243	206.88
639.448	211.88
639.654	205.88
639.859	216.88
640.065	193.88
640.27	198.88
640.475	196.88
640.681	218.88
640.886	197.88
641.091	209.88
641.297	210.88
641.502	199.88
641.707	200.88
641.913	200.88
642.118	184.88
642.323	206.88
642.528	182.88
642.733	206.88
642.939	212.88
643.144	207.88
643.349	201.88
643.554	189.88
643.759	206.88
643.964	201.88
644.169	186.88
644.374	202.88
644.579	202.88
644.784	190.88
644.989	205.88
645.194	187.88
645.399	199.88
645.604	199.88
645.809	197.88
646.014	181.88
646.219	213.88
646.423	195.88
646.628	189.88
646.833	201.88
647.038	199.88
647.243	194.88
647.447	203.88
647.652	220.88
647.857	226.88
648.062	216.88
648.266	229.88
648.471	218.88
648.676	221.88
648.88	215.88
649.085	215.88
649.289	195.88
649.494	212.88
649.698	195.88
649.903	178.88
650.107	196.88
650.312	213.88
650.516	182.88
650.721	177.88
650.925	189.88
651.13	187.88
651.334	177.88
651.539	189.88
651.743	171.88
651.947	180.88
652.152	189.88
652.356	165.88
652.56	175.88
652.764	173.88
652.969	169.88
653.173	151.88
653.377	164.88
653.581	156.88
653.785	142.88
653.99	175.88
654.194	164.88
654.398	156.88
654.602	142.88
654.806	163.88
655.01	155.88
655.214	149.88
655.418	152.88
655.622	137.88
655.826	135.88
656.03	145.88
656.234	146.88
656.438	156.88
656.642	148.88
656.846	129.88
657.049	141.88
657.253	147.88
657.457	134.88
657.661	125.88
657.865	123.88
658.068	122.88
658.272	117.88
658.476	119.88
658.68	111.88
658.883	108.88
659.087	106.88
659.291	122.88
659.494	107.88
659.698	106.88
659.901	100.88
660.105	87.88
660.309	102.88
660.512	87.88
660.716	91.88
660.919	102.88
661.123	100.88
661.326	89.88
661.53	110.88
661.733	75.88
661.936	100.88
662.14	93.88
662.343	92.88
662.546	82.88
662.75	94.88
662.953	98.88
663.156	90.88
663.36	93.88
663.563	98.88
663.766	91.88
663.969	105.88
664.173	88.88
664.376	91.88
664.579	75.88
664.782	79.88
664.985	85.88
665.188	90.88
665.391	90.88
665.594	74.88
665.797	76.88
666	86.88
666.203	87.88
666.406	78.88
666.609	81.88
666.812	89.88
667.015	90.88
667.218	94.88
667.421	85.88
667.624	94.88
667.827	69.88
668.03	101.88
668.232	83.88
668.435	86.88
668.638	78.88
668.841	93.88
669.043	94.88
669.246	77.88
669.449	94.88
669.651	89.88
669.854	67.88
670.057	87.88
670.259	79.88
670.462	91.88
670.665	84.88
670.867	79.88
671.07	70.88
671.272	86.88
671.475	77.88
671.677	80.88
671.88	68.88
672.082	78.88
672.284	100.88
672.487	87.88
672.689	79.88
672.892	85.88
