Data from Ni(NO3)2Standard.Agarose3%.GreenCap.LampEnergy5.5.E.O_HRD10591_14-41-27-187.txt Node
Date: Mon Jul 22 14:41:27 EDT 2019
User: cochatt
Spectrometer: HR+D1059
Trigger mode: 1
Integration Time (sec): 1.000000E-1
Scans to average: 1
Electric dark correction enabled: true
Nonlinearity correction enabled: false
Boxcar width: 0
XAxis mode: Wavelengths
Number of Pixels in Spectrum: 2048
>>>>>Begin Spectral Data<<<<<
223.165	-34.06
223.4	-34.06
223.635	-34.06
223.869	-18.06
224.104	5.94
224.338	-25.06
224.573	-3.06
224.808	-11.06
225.042	-23.06
225.277	0.94
225.511	6.94
225.746	1.94
225.98	-8.06
226.215	30.94
226.449	9.94
226.683	14.94
226.918	20.94
227.152	29.94
227.387	41.94
227.621	46.94
227.856	41.94
228.09	44.94
228.324	37.94
228.559	56.94
228.793	48.94
229.027	80.94
229.262	56.94
229.496	65.94
229.73	68.94
229.964	64.94
230.199	71.94
230.433	72.94
230.667	71.94
230.901	93.94
231.136	72.94
231.37	74.94
231.604	76.94
231.838	83.94
232.072	72.94
232.306	68.94
232.541	76.94
232.775	81.94
233.009	75.94
233.243	95.94
233.477	77.94
233.711	68.94
233.945	73.94
234.179	90.94
234.413	96.94
234.647	82.94
234.881	91.94
235.115	73.94
235.349	89.94
235.583	85.94
235.817	80.94
236.051	77.94
236.285	62.94
236.519	85.94
236.753	74.94
236.987	79.94
237.221	80.94
237.455	81.94
237.689	65.94
237.922	77.94
238.156	85.94
238.39	74.94
238.624	65.94
238.858	83.94
239.091	62.94
239.325	64.94
239.559	81.94
239.793	67.94
240.027	64.94
240.26	76.94
240.494	78.94
240.728	79.94
240.961	73.94
241.195	81.94
241.429	65.94
241.662	76.94
241.896	85.94
242.13	84.94
242.363	75.94
242.597	70.94
242.83	84.94
243.064	72.94
243.298	85.94
243.531	80.94
243.765	86.94
243.998	89.94
244.232	79.94
244.465	57.94
244.699	85.94
244.932	81.94
245.166	82.94
245.399	69.94
245.633	68.94
245.866	63.94
246.099	70.94
246.333	71.94
246.566	72.94
246.8	90.94
247.033	91.94
247.266	82.94
247.5	73.94
247.733	83.94
247.966	83.94
248.2	78.94
248.433	80.94
248.666	58.94
248.899	81.94
249.133	85.94
249.366	77.94
249.599	76.94
249.832	76.94
250.066	73.94
250.299	80.94
250.532	83.94
250.765	76.94
250.998	70.94
251.231	76.94
251.465	69.94
251.698	78.94
251.931	83.94
252.164	81.94
252.397	83.94
252.63	92.94
252.863	73.94
253.096	79.94
253.329	79.94
253.562	75.94
253.795	89.94
254.028	87.94
254.261	106.94
254.494	94.94
254.727	70.94
254.96	90.94
255.193	90.94
255.426	90.94
255.659	89.94
255.892	71.94
256.124	73.94
256.357	86.94
256.59	89.94
256.823	76.94
257.056	74.94
257.289	86.94
257.521	96.94
257.754	80.94
257.987	88.94
258.22	84.94
258.452	77.94
258.685	86.94
258.918	77.94
259.151	91.94
259.383	76.94
259.616	67.94
259.849	72.94
260.081	82.94
260.314	78.94
260.547	83.94
260.779	77.94
261.012	75.94
261.244	85.94
261.477	84.94
261.71	98.94
261.942	80.94
262.175	70.94
262.407	76.94
262.64	76.94
262.872	78.94
263.105	73.94
263.337	92.94
263.57	74.94
263.802	73.94
264.035	83.94
264.267	70.94
264.499	83.94
264.732	80.94
264.964	85.94
265.197	70.94
265.429	84.94
265.661	81.94
265.894	78.94
266.126	85.94
266.358	90.94
266.591	69.94
266.823	88.94
267.055	72.94
267.287	84.94
267.52	72.94
267.752	86.94
267.984	80.94
268.216	105.94
268.448	96.94
268.681	89.94
268.913	98.94
269.145	89.94
269.377	80.94
269.609	77.94
269.841	90.94
270.073	72.94
270.306	88.94
270.538	86.94
270.77	87.94
271.002	84.94
271.234	73.94
271.466	73.94
271.698	91.94
271.93	77.94
272.162	83.94
272.394	89.94
272.626	88.94
272.858	83.94
273.09	85.94
273.322	78.94
273.553	84.94
273.785	83.94
274.017	89.94
274.249	68.94
274.481	82.94
274.713	68.94
274.945	82.94
275.176	89.94
275.408	87.94
275.64	77.94
275.872	78.94
276.104	78.94
276.335	84.94
276.567	73.94
276.799	75.94
277.031	81.94
277.262	74.94
277.494	68.94
277.726	78.94
277.957	86.94
278.189	83.94
278.421	91.94
278.652	83.94
278.884	72.94
279.115	89.94
279.347	75.94
279.579	78.94
279.81	78.94
280.042	72.94
280.273	76.94
280.505	73.94
280.736	84.94
280.968	76.94
281.199	68.94
281.431	73.94
281.662	81.94
281.894	90.94
282.125	78.94
282.356	86.94
282.588	70.94
282.819	72.94
283.051	89.94
283.282	76.94
283.513	82.94
283.745	73.94
283.976	84.94
284.207	82.94
284.439	82.94
284.67	79.94
284.901	72.94
285.132	98.94
285.364	86.94
285.595	91.94
285.826	77.94
286.057	77.94
286.288	72.94
286.52	77.94
286.751	73.94
286.982	87.94
287.213	83.94
287.444	95.94
287.675	76.94
287.906	82.94
288.138	93.94
288.369	81.94
288.6	79.94
288.831	83.94
289.062	85.94
289.293	82.94
289.524	96.94
289.755	92.94
289.986	92.94
290.217	92.94
290.448	74.94
290.679	91.94
290.91	85.94
291.141	77.94
291.371	90.94
291.602	88.94
291.833	75.94
292.064	101.94
292.295	87.94
292.526	93.94
292.757	82.94
292.987	89.94
293.218	77.94
293.449	90.94
293.68	86.94
293.91	82.94
294.141	80.94
294.372	76.94
294.603	81.94
294.833	85.94
295.064	97.94
295.295	79.94
295.525	74.94
295.756	81.94
295.987	75.94
296.217	87.94
296.448	87.94
296.679	81.94
296.909	89.94
297.14	78.94
297.37	82.94
297.601	89.94
297.831	78.94
298.062	77.94
298.292	72.94
298.523	81.94
298.753	77.94
298.984	69.94
299.214	84.94
299.445	84.94
299.675	85.94
299.905	91.94
300.136	75.94
300.366	77.94
300.597	89.94
300.827	75.94
301.057	80.94
301.288	93.94
301.518	93.94
301.748	84.94
301.979	72.94
302.209	83.94
302.439	83.94
302.669	90.94
302.9	85.94
303.13	82.94
303.36	87.94
303.59	90.94
303.82	87.94
304.051	78.94
304.281	101.94
304.511	85.94
304.741	87.94
304.971	86.94
305.201	92.94
305.431	91.94
305.661	80.94
305.891	92.94
306.121	82.94
306.352	71.94
306.582	88.94
306.812	68.94
307.042	76.94
307.272	93.94
307.502	89.94
307.731	84.94
307.961	78.94
308.191	73.94
308.421	82.94
308.651	99.94
308.881	87.94
309.111	82.94
309.341	78.94
309.571	90.94
309.8	87.94
310.03	72.94
310.26	89.94
310.49	82.94
310.72	86.94
310.949	85.94
311.179	79.94
311.409	82.94
311.639	89.94
311.868	78.94
312.098	84.94
312.328	92.94
312.557	81.94
312.787	73.94
313.017	88.94
313.246	86.94
313.476	95.94
313.706	76.94
313.935	85.94
314.165	90.94
314.394	89.94
314.624	81.94
314.853	78.94
315.083	84.94
315.312	93.94
315.542	81.94
315.771	79.94
316.001	85.94
316.23	97.94
316.46	93.94
316.689	79.94
316.919	82.94
317.148	91.94
317.377	84.94
317.607	87.94
317.836	86.94
318.065	92.94
318.295	76.94
318.524	93.94
318.753	73.94
318.983	86.94
319.212	93.94
319.441	82.94
319.67	87.94
319.9	84.94
320.129	101.94
320.358	75.94
320.587	76.94
320.816	76.94
321.046	84.94
321.275	102.94
321.504	86.94
321.733	82.94
321.962	76.94
322.191	99.94
322.42	90.94
322.649	86.94
322.878	89.94
323.108	89.94
323.337	96.94
323.566	92.94
323.795	78.94
324.024	94.94
324.253	80.94
324.482	82.94
324.71	79.94
324.939	79.94
325.168	91.94
325.397	85.94
325.626	82.94
325.855	86.94
326.084	85.94
326.313	85.94
326.542	89.94
326.77	88.94
326.999	72.94
327.228	89.94
327.457	71.94
327.686	90.94
327.914	91.94
328.143	96.94
328.372	81.94
328.6	70.94
328.829	92.94
329.058	86.94
329.287	85.94
329.515	83.94
329.744	85.94
329.972	92.94
330.201	85.94
330.43	86.94
330.658	80.94
330.887	80.94
331.115	95.94
331.344	96.94
331.572	92.94
331.801	89.94
332.03	92.94
332.258	96.94
332.486	76.94
332.715	81.94
332.943	70.94
333.172	88.94
333.4	90.94
333.629	89.94
333.857	91.94
334.085	89.94
334.314	90.94
334.542	89.94
334.771	85.94
334.999	88.94
335.227	84.94
335.455	85.94
335.684	74.94
335.912	96.94
336.14	90.94
336.369	90.94
336.597	77.94
336.825	62.94
337.053	87.94
337.281	102.94
337.51	82.94
337.738	73.94
337.966	86.94
338.194	75.94
338.422	89.94
338.65	84.94
338.878	82.94
339.106	91.94
339.334	93.94
339.562	86.94
339.79	78.94
340.018	97.94
340.246	94.94
340.474	78.94
340.702	78.94
340.93	80.94
341.158	81.94
341.386	74.94
341.614	76.94
341.842	88.94
342.07	87.94
342.298	68.94
342.526	83.94
342.754	81.94
342.981	85.94
343.209	74.94
343.437	86.94
343.665	90.94
343.893	83.94
344.12	78.94
344.348	84.94
344.576	75.94
344.804	98.94
345.031	82.94
345.259	75.94
345.487	79.94
345.714	91.94
345.942	83.94
346.17	74.94
346.397	87.94
346.625	84.94
346.853	87.94
347.08	81.94
347.308	90.94
347.535	83.94
347.763	84.94
347.99	89.94
348.218	87.94
348.445	85.94
348.673	82.94
348.9	89.94
349.128	91.94
349.355	78.94
349.583	91.94
349.81	72.94
350.037	87.94
350.265	90.94
350.492	85.94
350.72	86.94
350.947	90.94
351.174	71.94
351.402	78.94
351.629	94.94
351.856	89.94
352.083	83.94
352.311	93.94
352.538	92.94
352.765	102.94
352.992	97.94
353.22	89.94
353.447	89.94
353.674	85.94
353.901	91.94
354.128	77.94
354.355	83.94
354.583	72.94
354.81	84.94
355.037	91.94
355.264	94.94
355.491	84.94
355.718	83.94
355.945	79.94
356.172	90.94
356.399	75.94
356.626	85.94
356.853	79.94
357.08	86.94
357.307	84.94
357.534	74.94
357.761	83.94
357.988	89.94
358.215	65.94
358.441	99.94
358.668	90.94
358.895	81.94
359.122	84.94
359.349	68.94
359.576	75.94
359.802	72.94
360.029	77.94
360.256	97.94
360.483	83.94
360.709	85.94
360.936	76.94
361.163	85.94
361.39	83.94
361.616	85.94
361.843	93.94
362.07	80.94
362.296	95.94
362.523	86.94
362.749	80.94
362.976	78.94
363.203	86.94
363.429	85.94
363.656	90.94
363.882	83.94
364.109	92.94
364.335	89.94
364.562	94.94
364.788	87.94
365.015	91.94
365.241	81.94
365.468	95.94
365.694	88.94
365.92	87.94
366.147	77.94
366.373	84.94
366.599	86.94
366.826	93.94
367.052	92.94
367.278	75.94
367.505	69.94
367.731	84.94
367.957	88.94
368.184	84.94
368.41	68.94
368.636	74.94
368.862	92.94
369.089	82.94
369.315	83.94
369.541	96.94
369.767	78.94
369.993	82.94
370.219	86.94
370.445	73.94
370.672	76.94
370.898	93.94
371.124	65.94
371.35	85.94
371.576	91.94
371.802	91.94
372.028	97.94
372.254	86.94
372.48	85.94
372.706	83.94
372.932	87.94
373.158	86.94
373.384	93.94
373.61	82.94
373.835	90.94
374.061	87.94
374.287	84.94
374.513	85.94
374.739	92.94
374.965	80.94
375.191	88.94
375.416	85.94
375.642	87.94
375.868	102.94
376.094	93.94
376.319	84.94
376.545	86.94
376.771	89.94
376.997	87.94
377.222	85.94
377.448	78.94
377.674	73.94
377.899	81.94
378.125	93.94
378.35	95.94
378.576	79.94
378.802	84.94
379.027	83.94
379.253	82.94
379.478	68.94
379.704	79.94
379.929	85.94
380.155	78.94
380.38	75.94
380.606	67.94
380.831	92.94
381.057	84.94
381.282	76.94
381.507	69.94
381.733	75.94
381.958	80.94
382.184	84.94
382.409	75.94
382.634	80.94
382.86	81.94
383.085	93.94
383.31	82.94
383.535	90.94
383.761	92.94
383.986	100.94
384.211	87.94
384.436	95.94
384.662	82.94
384.887	84.94
385.112	87.94
385.337	88.94
385.562	88.94
385.787	93.94
386.013	111.94
386.238	88.94
386.463	74.94
386.688	88.94
386.913	88.94
387.138	89.94
387.363	79.94
387.588	97.94
387.813	96.94
388.038	89.94
388.263	92.94
388.488	85.94
388.713	95.94
388.938	87.94
389.163	92.94
389.387	84.94
389.612	86.94
389.837	83.94
390.062	78.94
390.287	83.94
390.512	76.94
390.736	81.94
390.961	79.94
391.186	86.94
391.411	103.94
391.636	83.94
391.86	81.94
392.085	75.94
392.31	93.94
392.534	92.94
392.759	87.94
392.984	87.94
393.208	90.94
393.433	86.94
393.658	82.94
393.882	96.94
394.107	74.94
394.331	77.94
394.556	68.94
394.78	96.94
395.005	81.94
395.229	77.94
395.454	76.94
395.678	90.94
395.903	97.94
396.127	102.94
396.352	96.94
396.576	85.94
396.801	91.94
397.025	87.94
397.249	84.94
397.474	75.94
397.698	92.94
397.922	88.94
398.147	92.94
398.371	89.94
398.595	101.94
398.82	80.94
399.044	101.94
399.268	101.94
399.492	85.94
399.717	76.94
399.941	96.94
400.165	77.94
400.389	83.94
400.613	88.94
400.837	95.94
401.062	73.94
401.286	81.94
401.51	86.94
401.734	88.94
401.958	81.94
402.182	78.94
402.406	74.94
402.63	94.94
402.854	89.94
403.078	71.94
403.302	60.94
403.526	89.94
403.75	81.94
403.974	87.94
404.198	88.94
404.422	103.94
404.645	88.94
404.869	86.94
405.093	86.94
405.317	76.94
405.541	86.94
405.765	91.94
405.988	74.94
406.212	81.94
406.436	74.94
406.66	97.94
406.883	91.94
407.107	86.94
407.331	80.94
407.555	72.94
407.778	85.94
408.002	84.94
408.226	88.94
408.449	80.94
408.673	81.94
408.896	82.94
409.12	88.94
409.344	86.94
409.567	86.94
409.791	83.94
410.014	82.94
410.238	91.94
410.461	69.94
410.685	99.94
410.908	85.94
411.132	101.94
411.355	90.94
411.578	83.94
411.802	91.94
412.025	85.94
412.249	84.94
412.472	70.94
412.695	84.94
412.919	87.94
413.142	75.94
413.365	88.94
413.589	70.94
413.812	75.94
414.035	78.94
414.258	77.94
414.482	91.94
414.705	88.94
414.928	77.94
415.151	83.94
415.374	80.94
415.597	98.94
415.821	80.94
416.044	88.94
416.267	77.94
416.49	65.94
416.713	82.94
416.936	91.94
417.159	85.94
417.382	100.94
417.605	85.94
417.828	93.94
418.051	72.94
418.274	94.94
418.497	98.94
418.72	78.94
418.943	82.94
419.166	57.94
419.389	89.94
419.611	72.94
419.834	79.94
420.057	92.94
420.28	93.94
420.503	86.94
420.726	78.94
420.948	87.94
421.171	92.94
421.394	85.94
421.617	86.94
421.839	93.94
422.062	97.94
422.285	92.94
422.507	86.94
422.73	73.94
422.953	86.94
423.175	103.94
423.398	89.94
423.621	80.94
423.843	72.94
424.066	83.94
424.288	91.94
424.511	88.94
424.733	96.94
424.956	80.94
425.178	76.94
425.401	81.94
425.623	79.94
425.846	82.94
426.068	81.94
426.291	87.94
426.513	77.94
426.735	102.94
426.958	87.94
427.18	77.94
427.402	87.94
427.625	93.94
427.847	91.94
428.069	89.94
428.292	84.94
428.514	87.94
428.736	73.94
428.958	75.94
429.181	86.94
429.403	87.94
429.625	96.94
429.847	84.94
430.069	92.94
430.292	105.94
430.514	76.94
430.736	86.94
430.958	77.94
431.18	91.94
431.402	78.94
431.624	90.94
431.846	84.94
432.068	76.94
432.29	90.94
432.512	86.94
432.734	92.94
432.956	77.94
433.178	83.94
433.4	75.94
433.622	89.94
433.844	87.94
434.066	76.94
434.287	87.94
434.509	81.94
434.731	89.94
434.953	74.94
435.175	86.94
435.397	86.94
435.618	77.94
435.84	80.94
436.062	67.94
436.284	85.94
436.505	77.94
436.727	84.94
436.949	75.94
437.17	86.94
437.392	83.94
437.614	77.94
437.835	86.94
438.057	82.94
438.278	86.94
438.5	98.94
438.721	94.94
438.943	83.94
439.165	78.94
439.386	81.94
439.608	84.94
439.829	100.94
440.05	81.94
440.272	90.94
440.493	83.94
440.715	85.94
440.936	91.94
441.158	83.94
441.379	76.94
441.6	92.94
441.822	92.94
442.043	84.94
442.264	86.94
442.486	85.94
442.707	87.94
442.928	76.94
443.149	68.94
443.371	89.94
443.592	93.94
443.813	100.94
444.034	80.94
444.255	97.94
444.476	78.94
444.698	76.94
444.919	80.94
445.14	179.94
445.361	119.94
445.582	80.94
445.803	79.94
446.024	80.94
446.245	82.94
446.466	80.94
446.687	90.94
446.908	93.94
447.129	78.94
447.35	82.94
447.571	89.94
447.792	79.94
448.013	87.94
448.234	76.94
448.455	96.94
448.675	75.94
448.896	73.94
449.117	85.94
449.338	88.94
449.559	92.94
449.779	89.94
450	81.94
450.221	90.94
450.442	95.94
450.662	56.94
450.883	89.94
451.104	93.94
451.324	89.94
451.545	95.94
451.766	81.94
451.986	89.94
452.207	76.94
452.428	90.94
452.648	97.94
452.869	94.94
453.089	88.94
453.31	79.94
453.53	81.94
453.751	85.94
453.971	89.94
454.192	86.94
454.412	85.94
454.633	74.94
454.853	103.94
455.073	87.94
455.294	92.94
455.514	72.94
455.734	85.94
455.955	88.94
456.175	82.94
456.395	76.94
456.616	104.94
456.836	82.94
457.056	76.94
457.276	76.94
457.497	80.94
457.717	85.94
457.937	72.94
458.157	72.94
458.377	73.94
458.598	65.94
458.818	91.94
459.038	93.94
459.258	100.94
459.478	92.94
459.698	86.94
459.918	94.94
460.138	82.94
460.358	86.94
460.578	92.94
460.798	76.94
461.018	103.94
461.238	88.94
461.458	93.94
461.678	101.94
461.898	99.94
462.118	97.94
462.338	100.94
462.558	74.94
462.777	97.94
462.997	82.94
463.217	99.94
463.437	84.94
463.657	102.94
463.876	88.94
464.096	83.94
464.316	86.94
464.536	79.94
464.755	86.94
464.975	85.94
465.195	73.94
465.414	91.94
465.634	79.94
465.854	76.94
466.073	83.94
466.293	88.94
466.512	76.94
466.732	92.94
466.951	95.94
467.171	92.94
467.391	106.94
467.61	68.94
467.829	76.94
468.049	89.94
468.268	90.94
468.488	81.94
468.707	87.94
468.927	86.94
469.146	93.94
469.365	75.94
469.585	73.94
469.804	88.94
470.023	96.94
470.243	85.94
470.462	84.94
470.681	90.94
470.901	86.94
471.12	98.94
471.339	109.94
471.558	92.94
471.777	92.94
471.997	99.94
472.216	92.94
472.435	78.94
472.654	95.94
472.873	95.94
473.092	73.94
473.311	94.94
473.53	88.94
473.749	89.94
473.968	90.94
474.187	92.94
474.406	69.94
474.625	74.94
474.844	85.94
475.063	90.94
475.282	92.94
475.501	84.94
475.72	91.94
475.939	88.94
476.158	88.94
476.377	85.94
476.596	87.94
476.814	95.94
477.033	81.94
477.252	87.94
477.471	83.94
477.69	84.94
477.908	85.94
478.127	85.94
478.346	78.94
478.564	84.94
478.783	82.94
479.002	83.94
479.22	86.94
479.439	81.94
479.658	89.94
479.876	78.94
480.095	97.94
480.313	78.94
480.532	84.94
480.751	77.94
480.969	103.94
481.188	74.94
481.406	83.94
481.624	92.94
481.843	85.94
482.061	88.94
482.28	90.94
482.498	82.94
482.717	88.94
482.935	90.94
483.153	98.94
483.372	93.94
483.59	75.94
483.808	92.94
484.027	89.94
484.245	96.94
484.463	83.94
484.681	82.94
484.9	91.94
485.118	81.94
485.336	75.94
485.554	88.94
485.772	82.94
485.99	90.94
486.209	82.94
486.427	79.94
486.645	75.94
486.863	98.94
487.081	100.94
487.299	101.94
487.517	80.94
487.735	78.94
487.953	85.94
488.171	92.94
488.389	99.94
488.607	95.94
488.825	96.94
489.043	88.94
489.261	79.94
489.479	96.94
489.696	87.94
489.914	93.94
490.132	91.94
490.35	89.94
490.568	93.94
490.786	94.94
491.003	102.94
491.221	92.94
491.439	115.94
491.657	82.94
491.874	101.94
492.092	75.94
492.31	117.94
492.527	89.94
492.745	90.94
492.963	80.94
493.18	93.94
493.398	71.94
493.615	92.94
493.833	92.94
494.05	89.94
494.268	89.94
494.485	81.94
494.703	87.94
494.92	95.94
495.138	101.94
495.355	97.94
495.573	96.94
495.79	85.94
496.008	83.94
496.225	107.94
496.442	88.94
496.66	117.94
496.877	93.94
497.094	103.94
497.312	87.94
497.529	99.94
497.746	87.94
497.963	90.94
498.181	90.94
498.398	97.94
498.615	98.94
498.832	98.94
499.049	86.94
499.267	96.94
499.484	94.94
499.701	97.94
499.918	103.94
500.135	107.94
500.352	119.94
500.569	108.94
500.786	108.94
501.003	103.94
501.22	99.94
501.437	105.94
501.654	107.94
501.871	87.94
502.088	91.94
502.305	94.94
502.522	104.94
502.739	105.94
502.956	104.94
503.172	92.94
503.389	82.94
503.606	92.94
503.823	99.94
504.04	96.94
504.256	101.94
504.473	96.94
504.69	110.94
504.907	84.94
505.123	97.94
505.34	98.94
505.557	88.94
505.773	91.94
505.99	99.94
506.207	97.94
506.423	87.94
506.64	100.94
506.856	90.94
507.073	83.94
507.289	101.94
507.506	84.94
507.722	81.94
507.939	84.94
508.155	90.94
508.372	106.94
508.588	81.94
508.805	90.94
509.021	93.94
509.238	94.94
509.454	104.94
509.67	97.94
509.887	75.94
510.103	104.94
510.319	101.94
510.536	87.94
510.752	89.94
510.968	90.94
511.184	81.94
511.401	74.94
511.617	92.94
511.833	80.94
512.049	92.94
512.265	97.94
512.481	92.94
512.698	98.94
512.914	93.94
513.13	94.94
513.346	101.94
513.562	89.94
513.778	93.94
513.994	88.94
514.21	85.94
514.426	90.94
514.642	81.94
514.858	108.94
515.074	86.94
515.29	95.94
515.506	91.94
515.721	87.94
515.937	95.94
516.153	87.94
516.369	96.94
516.585	89.94
516.801	84.94
517.016	96.94
517.232	97.94
517.448	97.94
517.664	100.94
517.879	77.94
518.095	89.94
518.311	87.94
518.527	78.94
518.742	86.94
518.958	96.94
519.173	94.94
519.389	108.94
519.605	86.94
519.82	88.94
520.036	88.94
520.251	74.94
520.467	78.94
520.682	84.94
520.898	84.94
521.113	86.94
521.329	93.94
521.544	82.94
521.76	90.94
521.975	101.94
522.19	75.94
522.406	84.94
522.621	92.94
522.836	86.94
523.052	90.94
523.267	94.94
523.482	84.94
523.698	96.94
523.913	90.94
524.128	106.94
524.343	81.94
524.559	93.94
524.774	94.94
524.989	94.94
525.204	93.94
525.419	69.94
525.634	80.94
525.849	86.94
526.064	68.94
526.28	88.94
526.495	96.94
526.71	85.94
526.925	98.94
527.14	82.94
527.355	100.94
527.57	93.94
527.785	89.94
527.999	91.94
528.214	104.94
528.429	89.94
528.644	88.94
528.859	88.94
529.074	85.94
529.289	85.94
529.503	103.94
529.718	85.94
529.933	96.94
530.148	89.94
530.363	89.94
530.577	77.94
530.792	83.94
531.007	82.94
531.221	77.94
531.436	93.94
531.651	92.94
531.865	97.94
532.08	80.94
532.295	86.94
532.509	92.94
532.724	77.94
532.938	98.94
533.153	96.94
533.367	97.94
533.582	87.94
533.796	88.94
534.011	93.94
534.225	69.94
534.44	84.94
534.654	86.94
534.868	73.94
535.083	90.94
535.297	85.94
535.511	97.94
535.726	83.94
535.94	84.94
536.154	83.94
536.369	74.94
536.583	83.94
536.797	86.94
537.011	81.94
537.225	88.94
537.44	89.94
537.654	89.94
537.868	103.94
538.082	95.94
538.296	85.94
538.51	102.94
538.724	90.94
538.938	92.94
539.153	101.94
539.367	70.94
539.581	79.94
539.795	82.94
540.009	91.94
540.222	107.94
540.436	79.94
540.65	98.94
540.864	78.94
541.078	89.94
541.292	93.94
541.506	84.94
541.72	91.94
541.934	93.94
542.147	97.94
542.361	98.94
542.575	96.94
542.789	96.94
543.002	95.94
543.216	86.94
543.43	86.94
543.644	100.94
543.857	97.94
544.071	88.94
544.285	95.94
544.498	79.94
544.712	93.94
544.925	81.94
545.139	96.94
545.352	89.94
545.566	101.94
545.779	94.94
545.993	76.94
546.206	93.94
546.42	89.94
546.633	83.94
546.847	103.94
547.06	104.94
547.274	90.94
547.487	95.94
547.7	74.94
547.914	85.94
548.127	75.94
548.34	98.94
548.554	84.94
548.767	91.94
548.98	88.94
549.193	86.94
549.407	82.94
549.62	91.94
549.833	89.94
550.046	99.94
550.259	89.94
550.473	85.94
550.686	88.94
550.899	88.94
551.112	90.94
551.325	78.94
551.538	79.94
551.751	84.94
551.964	83.94
552.177	84.94
552.39	89.94
552.603	87.94
552.816	93.94
553.029	101.94
553.242	84.94
553.455	91.94
553.667	102.94
553.88	74.94
554.093	90.94
554.306	84.94
554.519	86.94
554.732	92.94
554.944	96.94
555.157	89.94
555.37	83.94
555.583	101.94
555.795	104.94
556.008	78.94
556.221	86.94
556.433	88.94
556.646	71.94
556.859	83.94
557.071	97.94
557.284	83.94
557.496	91.94
557.709	93.94
557.921	95.94
558.134	84.94
558.346	85.94
558.559	90.94
558.771	89.94
558.984	97.94
559.196	96.94
559.409	116.94
559.621	86.94
559.833	78.94
560.046	78.94
560.258	77.94
560.47	83.94
560.683	84.94
560.895	97.94
561.107	93.94
561.32	84.94
561.532	90.94
561.744	76.94
561.956	72.94
562.168	98.94
562.381	92.94
562.593	98.94
562.805	93.94
563.017	82.94
563.229	100.94
563.441	93.94
563.653	92.94
563.865	93.94
564.077	90.94
564.289	85.94
564.501	100.94
564.713	88.94
564.925	80.94
565.137	81.94
565.349	88.94
565.561	91.94
565.773	92.94
565.985	90.94
566.197	96.94
566.408	81.94
566.62	83.94
566.832	97.94
567.044	77.94
567.255	100.94
567.467	84.94
567.679	83.94
567.891	72.94
568.102	89.94
568.314	96.94
568.526	103.94
568.737	102.94
568.949	93.94
569.161	87.94
569.372	81.94
569.584	84.94
569.795	93.94
570.007	92.94
570.218	88.94
570.43	87.94
570.641	77.94
570.853	78.94
571.064	85.94
571.276	81.94
571.487	97.94
571.698	90.94
571.91	94.94
572.121	90.94
572.333	87.94
572.544	93.94
572.755	97.94
572.966	97.94
573.178	86.94
573.389	78.94
573.6	85.94
573.811	89.94
574.023	100.94
574.234	95.94
574.445	93.94
574.656	74.94
574.867	83.94
575.078	93.94
575.289	78.94
575.501	72.94
575.712	85.94
575.923	85.94
576.134	84.94
576.345	96.94
576.556	91.94
576.767	76.94
576.978	96.94
577.188	78.94
577.399	76.94
577.61	81.94
577.821	84.94
578.032	84.94
578.243	84.94
578.454	93.94
578.665	102.94
578.875	92.94
579.086	97.94
579.297	81.94
579.508	90.94
579.718	80.94
579.929	84.94
580.14	88.94
580.35	83.94
580.561	97.94
580.772	90.94
580.982	92.94
581.193	90.94
581.403	80.94
581.614	86.94
581.825	86.94
582.035	93.94
582.246	79.94
582.456	77.94
582.667	70.94
582.877	74.94
583.087	88.94
583.298	90.94
583.508	101.94
583.719	88.94
583.929	91.94
584.139	100.94
584.35	86.94
584.56	85.94
584.77	89.94
584.981	77.94
585.191	71.94
585.401	79.94
585.611	79.94
585.821	88.94
586.032	84.94
586.242	91.94
586.452	86.94
586.662	93.94
586.872	97.94
587.082	85.94
587.292	81.94
587.502	74.94
587.713	82.94
587.923	83.94
588.133	87.94
588.343	97.94
588.553	83.94
588.762	93.94
588.972	85.94
589.182	83.94
589.392	80.94
589.602	83.94
589.812	85.94
590.022	89.94
590.232	88.94
590.441	93.94
590.651	62.94
590.861	80.94
591.071	82.94
591.281	94.94
591.49	93.94
591.7	80.94
591.91	92.94
592.119	88.94
592.329	77.94
592.539	90.94
592.748	106.94
592.958	88.94
593.167	84.94
593.377	83.94
593.587	95.94
593.796	92.94
594.006	80.94
594.215	81.94
594.424	91.94
594.634	100.94
594.843	101.94
595.053	84.94
595.262	81.94
595.472	85.94
595.681	91.94
595.89	101.94
596.1	76.94
596.309	89.94
596.518	93.94
596.727	80.94
596.937	71.94
597.146	86.94
597.355	90.94
597.564	87.94
597.774	75.94
597.983	77.94
598.192	81.94
598.401	88.94
598.61	70.94
598.819	86.94
599.028	88.94
599.237	82.94
599.446	77.94
599.655	76.94
599.864	100.94
600.073	78.94
600.282	88.94
600.491	78.94
600.7	72.94
600.909	74.94
601.118	77.94
601.327	77.94
601.536	74.94
601.745	76.94
601.953	85.94
602.162	86.94
602.371	79.94
602.58	77.94
602.789	81.94
602.997	78.94
603.206	81.94
603.415	81.94
603.623	77.94
603.832	96.94
604.041	77.94
604.249	86.94
604.458	78.94
604.666	78.94
604.875	89.94
605.084	84.94
605.292	71.94
605.501	84.94
605.709	84.94
605.918	81.94
606.126	80.94
606.334	73.94
606.543	81.94
606.751	92.94
606.96	96.94
607.168	94.94
607.376	80.94
607.585	82.94
607.793	88.94
608.001	88.94
608.21	87.94
608.418	88.94
608.626	75.94
608.834	79.94
609.043	81.94
609.251	93.94
609.459	84.94
609.667	95.94
609.875	81.94
610.083	92.94
610.291	84.94
610.499	85.94
610.707	78.94
610.916	84.94
611.124	80.94
611.332	80.94
611.54	86.94
611.748	91.94
611.955	84.94
612.163	90.94
612.371	86.94
612.579	87.94
612.787	100.94
612.995	84.94
613.203	86.94
613.411	86.94
613.618	79.94
613.826	89.94
614.034	99.94
614.242	85.94
614.449	72.94
614.657	76.94
614.865	85.94
615.072	92.94
615.28	73.94
615.488	74.94
615.695	89.94
615.903	89.94
616.111	94.94
616.318	93.94
616.526	95.94
616.733	88.94
616.941	86.94
617.148	91.94
617.356	90.94
617.563	81.94
617.771	84.94
617.978	84.94
618.185	75.94
618.393	81.94
618.6	82.94
618.807	62.94
619.015	82.94
619.222	89.94
619.429	79.94
619.637	73.94
619.844	78.94
620.051	86.94
620.258	88.94
620.466	94.94
620.673	98.94
620.88	80.94
621.087	88.94
621.294	86.94
621.501	94.94
621.708	81.94
621.915	75.94
622.122	86.94
622.329	85.94
622.536	81.94
622.743	83.94
622.95	97.94
623.157	84.94
623.364	88.94
623.571	78.94
623.778	82.94
623.985	85.94
624.192	72.94
624.399	83.94
624.606	92.94
624.812	88.94
625.019	83.94
625.226	97.94
625.433	102.94
625.639	93.94
625.846	90.94
626.053	85.94
626.259	78.94
626.466	85.94
626.673	75.94
626.879	82.94
627.086	69.94
627.293	83.94
627.499	73.94
627.706	72.94
627.912	72.94
628.119	92.94
628.325	85.94
628.532	88.94
628.738	84.94
628.945	84.94
629.151	89.94
629.357	89.94
629.564	85.94
629.77	78.94
629.976	74.94
630.183	74.94
630.389	94.94
630.595	92.94
630.802	77.94
631.008	96.94
631.214	67.94
631.42	75.94
631.627	76.94
631.833	83.94
632.039	78.94
632.245	93.94
632.451	87.94
632.657	73.94
632.863	68.94
633.069	84.94
633.275	77.94
633.481	93.94
633.688	88.94
633.893	87.94
634.099	86.94
634.305	80.94
634.511	72.94
634.717	92.94
634.923	93.94
635.129	68.94
635.335	81.94
635.541	78.94
635.747	83.94
635.952	94.94
636.158	84.94
636.364	86.94
636.57	92.94
636.775	87.94
636.981	75.94
637.187	73.94
637.392	76.94
637.598	79.94
637.804	78.94
638.009	99.94
638.215	77.94
638.421	78.94
638.626	85.94
638.832	75.94
639.037	92.94
639.243	86.94
639.448	81.94
639.654	79.94
639.859	85.94
640.065	73.94
640.27	92.94
640.475	85.94
640.681	80.94
640.886	88.94
641.091	87.94
641.297	92.94
641.502	78.94
641.707	83.94
641.913	90.94
642.118	81.94
642.323	88.94
642.528	80.94
642.733	82.94
642.939	86.94
643.144	85.94
643.349	99.94
643.554	80.94
643.759	73.94
643.964	87.94
644.169	72.94
644.374	74.94
644.579	90.94
644.784	75.94
644.989	80.94
645.194	87.94
645.399	86.94
645.604	81.94
645.809	86.94
646.014	73.94
646.219	81.94
646.423	78.94
646.628	74.94
646.833	69.94
647.038	83.94
647.243	73.94
647.447	85.94
647.652	73.94
647.857	84.94
648.062	94.94
648.266	87.94
648.471	75.94
648.676	79.94
648.88	79.94
649.085	98.94
649.289	75.94
649.494	76.94
649.698	91.94
649.903	82.94
650.107	91.94
650.312	95.94
650.516	84.94
650.721	84.94
650.925	86.94
651.13	66.94
651.334	72.94
651.539	84.94
651.743	78.94
651.947	95.94
652.152	90.94
652.356	72.94
652.56	93.94
652.764	92.94
652.969	89.94
653.173	68.94
653.377	76.94
653.581	85.94
653.785	72.94
653.99	82.94
654.194	77.94
654.398	98.94
654.602	68.94
654.806	70.94
655.01	77.94
655.214	73.94
655.418	90.94
655.622	85.94
655.826	82.94
656.03	78.94
656.234	68.94
656.438	71.94
656.642	89.94
656.846	81.94
657.049	86.94
657.253	82.94
657.457	84.94
657.661	76.94
657.865	80.94
658.068	78.94
658.272	94.94
658.476	84.94
658.68	81.94
658.883	83.94
659.087	87.94
659.291	74.94
659.494	78.94
659.698	82.94
659.901	91.94
660.105	86.94
660.309	74.94
660.512	79.94
660.716	81.94
660.919	83.94
661.123	88.94
661.326	81.94
661.53	85.94
661.733	80.94
661.936	69.94
662.14	74.94
662.343	86.94
662.546	68.94
662.75	70.94
662.953	95.94
663.156	92.94
663.36	97.94
663.563	84.94
663.766	77.94
663.969	74.94
664.173	91.94
664.376	68.94
664.579	85.94
664.782	89.94
664.985	70.94
665.188	85.94
665.391	86.94
665.594	86.94
665.797	84.94
666	78.94
666.203	79.94
666.406	94.94
666.609	71.94
666.812	86.94
667.015	73.94
667.218	89.94
667.421	83.94
667.624	75.94
667.827	68.94
668.03	66.94
668.232	65.94
668.435	79.94
668.638	74.94
668.841	73.94
669.043	78.94
669.246	72.94
669.449	70.94
669.651	97.94
669.854	73.94
670.057	74.94
670.259	85.94
670.462	81.94
670.665	76.94
670.867	80.94
671.07	97.94
671.272	93.94
671.475	88.94
671.677	90.94
671.88	80.94
672.082	86.94
672.284	77.94
672.487	84.94
672.689	83.94
672.892	75.94
