Data from Ni(NO3)2@0.125M.TitratingCurve.Agarose3%dH2O.NegLispCup.LampEnergy10.LIBS07252019_HRD10591_18-10-15-568.txt Node
Date: Thu Jul 25 18:10:15 EDT 2019
User: cochatt
Spectrometer: HR+D1059
Trigger mode: 1
Integration Time (sec): 1.000000E-1
Scans to average: 1
Electric dark correction enabled: true
Nonlinearity correction enabled: false
Boxcar width: 0
XAxis mode: Wavelengths
Number of Pixels in Spectrum: 2048
>>>>>Begin Spectral Data<<<<<
223.165	-18.19
223.4	-18.19
223.635	-18.19
223.869	-19.19
224.104	-22.19
224.338	-20.19
224.573	-24.19
224.808	-13.19
225.042	-3.19
225.277	-0.19
225.511	-0.19
225.746	16.81
225.98	4.81
226.215	13.81
226.449	8.81
226.683	14.81
226.918	24.81
227.152	36.81
227.387	35.81
227.621	44.81
227.856	26.81
228.09	31.81
228.324	59.81
228.559	48.81
228.793	64.81
229.027	85.81
229.262	95.81
229.496	100.81
229.73	94.81
229.964	103.81
230.199	112.81
230.433	114.81
230.667	103.81
230.901	103.81
231.136	107.81
231.37	117.81
231.604	120.81
231.838	132.81
232.072	126.81
232.306	129.81
232.541	125.81
232.775	123.81
233.009	142.81
233.243	122.81
233.477	138.81
233.711	137.81
233.945	126.81
234.179	136.81
234.413	117.81
234.647	122.81
234.881	139.81
235.115	134.81
235.349	130.81
235.583	139.81
235.817	129.81
236.051	124.81
236.285	142.81
236.519	136.81
236.753	115.81
236.987	137.81
237.221	126.81
237.455	137.81
237.689	147.81
237.922	120.81
238.156	133.81
238.39	132.81
238.624	137.81
238.858	139.81
239.091	123.81
239.325	123.81
239.559	137.81
239.793	154.81
240.027	146.81
240.26	147.81
240.494	138.81
240.728	148.81
240.961	130.81
241.195	162.81
241.429	140.81
241.662	160.81
241.896	160.81
242.13	153.81
242.363	153.81
242.597	159.81
242.83	160.81
243.064	164.81
243.298	161.81
243.531	169.81
243.765	160.81
243.998	166.81
244.232	164.81
244.465	168.81
244.699	170.81
244.932	161.81
245.166	163.81
245.399	157.81
245.633	156.81
245.866	172.81
246.099	183.81
246.333	185.81
246.566	183.81
246.8	173.81
247.033	184.81
247.266	185.81
247.5	170.81
247.733	172.81
247.966	189.81
248.2	186.81
248.433	196.81
248.666	178.81
248.899	182.81
249.133	192.81
249.366	189.81
249.599	186.81
249.832	195.81
250.066	193.81
250.299	194.81
250.532	198.81
250.765	206.81
250.998	196.81
251.231	192.81
251.465	189.81
251.698	196.81
251.931	205.81
252.164	209.81
252.397	191.81
252.63	207.81
252.863	206.81
253.096	222.81
253.329	200.81
253.562	214.81
253.795	217.81
254.028	194.81
254.261	200.81
254.494	218.81
254.727	223.81
254.96	203.81
255.193	213.81
255.426	230.81
255.659	207.81
255.892	246.81
256.124	235.81
256.357	223.81
256.59	211.81
256.823	214.81
257.056	232.81
257.289	233.81
257.521	240.81
257.754	242.81
257.987	232.81
258.22	262.81
258.452	235.81
258.685	244.81
258.918	248.81
259.151	240.81
259.383	226.81
259.616	243.81
259.849	235.81
260.081	253.81
260.314	258.81
260.547	246.81
260.779	258.81
261.012	244.81
261.244	247.81
261.477	256.81
261.71	259.81
261.942	261.81
262.175	252.81
262.407	260.81
262.64	247.81
262.872	249.81
263.105	242.81
263.337	249.81
263.57	261.81
263.802	268.81
264.035	254.81
264.267	249.81
264.499	264.81
264.732	292.81
264.964	281.81
265.197	269.81
265.429	257.81
265.661	290.81
265.894	292.81
266.126	295.81
266.358	284.81
266.591	287.81
266.823	284.81
267.055	288.81
267.287	278.81
267.52	283.81
267.752	281.81
267.984	286.81
268.216	292.81
268.448	278.81
268.681	286.81
268.913	295.81
269.145	281.81
269.377	297.81
269.609	286.81
269.841	308.81
270.073	312.81
270.306	288.81
270.538	306.81
270.77	289.81
271.002	281.81
271.234	280.81
271.466	307.81
271.698	294.81
271.93	278.81
272.162	289.81
272.394	316.81
272.626	307.81
272.858	299.81
273.09	301.81
273.322	337.81
273.553	320.81
273.785	301.81
274.017	298.81
274.249	293.81
274.481	322.81
274.713	322.81
274.945	323.81
275.176	326.81
275.408	314.81
275.64	311.81
275.872	327.81
276.104	334.81
276.335	321.81
276.567	320.81
276.799	309.81
277.031	328.81
277.262	313.81
277.494	351.81
277.726	325.81
277.957	327.81
278.189	325.81
278.421	327.81
278.652	310.81
278.884	343.81
279.115	353.81
279.347	362.81
279.579	334.81
279.81	344.81
280.042	325.81
280.273	331.81
280.505	339.81
280.736	358.81
280.968	333.81
281.199	347.81
281.431	350.81
281.662	318.81
281.894	358.81
282.125	349.81
282.356	341.81
282.588	352.81
282.819	362.81
283.051	340.81
283.282	363.81
283.513	353.81
283.745	362.81
283.976	347.81
284.207	361.81
284.439	371.81
284.67	368.81
284.901	364.81
285.132	354.81
285.364	371.81
285.595	364.81
285.826	374.81
286.057	399.81
286.288	375.81
286.52	381.81
286.751	380.81
286.982	395.81
287.213	391.81
287.444	393.81
287.675	385.81
287.906	369.81
288.138	389.81
288.369	403.81
288.6	392.81
288.831	399.81
289.062	398.81
289.293	405.81
289.524	382.81
289.755	380.81
289.986	374.81
290.217	393.81
290.448	404.81
290.679	402.81
290.91	384.81
291.141	389.81
291.371	394.81
291.602	386.81
291.833	386.81
292.064	394.81
292.295	414.81
292.526	404.81
292.757	398.81
292.987	394.81
293.218	388.81
293.449	387.81
293.68	397.81
293.91	386.81
294.141	391.81
294.372	393.81
294.603	413.81
294.833	389.81
295.064	389.81
295.295	412.81
295.525	402.81
295.756	433.81
295.987	409.81
296.217	436.81
296.448	410.81
296.679	409.81
296.909	408.81
297.14	405.81
297.37	424.81
297.601	449.81
297.831	407.81
298.062	424.81
298.292	420.81
298.523	452.81
298.753	441.81
298.984	439.81
299.214	435.81
299.445	436.81
299.675	416.81
299.905	439.81
300.136	424.81
300.366	432.81
300.597	446.81
300.827	483.81
301.057	459.81
301.288	453.81
301.518	471.81
301.748	461.81
301.979	466.81
302.209	477.81
302.439	446.81
302.669	439.81
302.9	446.81
303.13	442.81
303.36	459.81
303.59	453.81
303.82	450.81
304.051	442.81
304.281	457.81
304.511	456.81
304.741	451.81
304.971	440.81
305.201	443.81
305.431	437.81
305.661	456.81
305.891	433.81
306.121	449.81
306.352	447.81
306.582	425.81
306.812	432.81
307.042	452.81
307.272	442.81
307.502	438.81
307.731	441.81
307.961	440.81
308.191	418.81
308.421	411.81
308.651	417.81
308.881	421.81
309.111	418.81
309.341	431.81
309.571	443.81
309.8	438.81
310.03	419.81
310.26	418.81
310.49	455.81
310.72	434.81
310.949	436.81
311.179	439.81
311.409	477.81
311.639	455.81
311.868	452.81
312.098	472.81
312.328	465.81
312.557	463.81
312.787	450.81
313.017	462.81
313.246	474.81
313.476	474.81
313.706	488.81
313.935	476.81
314.165	493.81
314.394	483.81
314.624	484.81
314.853	450.81
315.083	457.81
315.312	459.81
315.542	442.81
315.771	472.81
316.001	450.81
316.23	471.81
316.46	480.81
316.689	469.81
316.919	478.81
317.148	455.81
317.377	455.81
317.607	451.81
317.836	453.81
318.065	462.81
318.295	465.81
318.524	440.81
318.753	482.81
318.983	469.81
319.212	444.81
319.441	461.81
319.67	469.81
319.9	480.81
320.129	463.81
320.358	476.81
320.587	483.81
320.816	455.81
321.046	475.81
321.275	464.81
321.504	463.81
321.733	489.81
321.962	463.81
322.191	465.81
322.42	466.81
322.649	448.81
322.878	469.81
323.108	476.81
323.337	492.81
323.566	499.81
323.795	468.81
324.024	483.81
324.253	482.81
324.482	478.81
324.71	474.81
324.939	480.81
325.168	485.81
325.397	476.81
325.626	508.81
325.855	529.81
326.084	524.81
326.313	525.81
326.542	529.81
326.77	540.81
326.999	521.81
327.228	512.81
327.457	491.81
327.686	488.81
327.914	502.81
328.143	508.81
328.372	493.81
328.6	500.81
328.829	517.81
329.058	520.81
329.287	524.81
329.515	510.81
329.744	531.81
329.972	536.81
330.201	536.81
330.43	506.81
330.658	536.81
330.887	514.81
331.115	517.81
331.344	539.81
331.572	562.81
331.801	562.81
332.03	577.81
332.258	605.81
332.486	581.81
332.715	614.81
332.943	644.81
333.172	668.81
333.4	701.81
333.629	699.81
333.857	707.81
334.085	664.81
334.314	696.81
334.542	658.81
334.771	658.81
334.999	650.81
335.227	644.81
335.455	650.81
335.684	619.81
335.912	633.81
336.14	631.81
336.369	629.81
336.597	620.81
336.825	613.81
337.053	641.81
337.281	610.81
337.51	622.81
337.738	598.81
337.966	574.81
338.194	579.81
338.422	532.81
338.65	576.81
338.878	560.81
339.106	557.81
339.334	557.81
339.562	560.81
339.79	530.81
340.018	541.81
340.246	564.81
340.474	544.81
340.702	537.81
340.93	569.81
341.158	556.81
341.386	548.81
341.614	544.81
341.842	539.81
342.07	530.81
342.298	524.81
342.526	518.81
342.754	518.81
342.981	543.81
343.209	545.81
343.437	573.81
343.665	598.81
343.893	666.81
344.12	682.81
344.348	646.81
344.576	609.81
344.804	564.81
345.031	565.81
345.259	545.81
345.487	534.81
345.714	544.81
345.942	543.81
346.17	522.81
346.397	537.81
346.625	546.81
346.853	525.81
347.08	511.81
347.308	530.81
347.535	541.81
347.763	535.81
347.99	515.81
348.218	534.81
348.445	550.81
348.673	520.81
348.9	527.81
349.128	533.81
349.355	531.81
349.583	533.81
349.81	526.81
350.037	527.81
350.265	500.81
350.492	519.81
350.72	511.81
350.947	515.81
351.174	513.81
351.402	497.81
351.629	487.81
351.856	505.81
352.083	512.81
352.311	498.81
352.538	485.81
352.765	498.81
352.992	492.81
353.22	522.81
353.447	517.81
353.674	517.81
353.901	508.81
354.128	506.81
354.355	505.81
354.583	489.81
354.81	518.81
355.037	528.81
355.264	492.81
355.491	506.81
355.718	496.81
355.945	503.81
356.172	509.81
356.399	492.81
356.626	524.81
356.853	488.81
357.08	488.81
357.307	500.81
357.534	531.81
357.761	503.81
357.988	486.81
358.215	488.81
358.441	515.81
358.668	521.81
358.895	517.81
359.122	501.81
359.349	510.81
359.576	508.81
359.802	522.81
360.029	489.81
360.256	508.81
360.483	512.81
360.709	507.81
360.936	517.81
361.163	498.81
361.39	505.81
361.616	512.81
361.843	516.81
362.07	500.81
362.296	485.81
362.523	496.81
362.749	493.81
362.976	499.81
363.203	504.81
363.429	492.81
363.656	505.81
363.882	524.81
364.109	502.81
364.335	496.81
364.562	497.81
364.788	502.81
365.015	499.81
365.241	515.81
365.468	480.81
365.694	516.81
365.92	514.81
366.147	506.81
366.373	514.81
366.599	504.81
366.826	528.81
367.052	499.81
367.278	504.81
367.505	500.81
367.731	529.81
367.957	490.81
368.184	501.81
368.41	516.81
368.636	496.81
368.862	512.81
369.089	506.81
369.315	528.81
369.541	540.81
369.767	525.81
369.993	519.81
370.219	532.81
370.445	526.81
370.672	543.81
370.898	560.81
371.124	550.81
371.35	560.81
371.576	570.81
371.802	554.81
372.028	557.81
372.254	540.81
372.48	562.81
372.706	571.81
372.932	557.81
373.158	577.81
373.384	552.81
373.61	546.81
373.835	562.81
374.061	571.81
374.287	570.81
374.513	583.81
374.739	577.81
374.965	595.81
375.191	618.81
375.416	599.81
375.642	602.81
375.868	602.81
376.094	576.81
376.319	560.81
376.545	560.81
376.771	585.81
376.997	534.81
377.222	540.81
377.448	560.81
377.674	557.81
377.899	553.81
378.125	552.81
378.35	529.81
378.576	572.81
378.802	538.81
379.027	574.81
379.253	546.81
379.478	548.81
379.704	537.81
379.929	571.81
380.155	534.81
380.38	548.81
380.606	556.81
380.831	558.81
381.057	578.81
381.282	553.81
381.507	564.81
381.733	564.81
381.958	552.81
382.184	552.81
382.409	569.81
382.634	578.81
382.86	594.81
383.085	599.81
383.31	591.81
383.535	606.81
383.761	604.81
383.986	611.81
384.211	657.81
384.436	666.81
384.662	622.81
384.887	660.81
385.112	648.81
385.337	690.81
385.562	665.81
385.787	678.81
386.013	673.81
386.238	694.81
386.463	652.81
386.688	632.81
386.913	658.81
387.138	653.81
387.363	660.81
387.588	630.81
387.813	671.81
388.038	661.81
388.263	651.81
388.488	656.81
388.713	650.81
388.938	655.81
389.163	646.81
389.387	646.81
389.612	646.81
389.837	655.81
390.062	678.81
390.287	652.81
390.512	645.81
390.736	640.81
390.961	674.81
391.186	680.81
391.411	692.81
391.636	728.81
391.86	754.81
392.085	749.81
392.31	741.81
392.534	745.81
392.759	720.81
392.984	698.81
393.208	702.81
393.433	693.81
393.658	711.81
393.882	682.81
394.107	719.81
394.331	694.81
394.556	705.81
394.78	712.81
395.005	708.81
395.229	680.81
395.454	709.81
395.678	717.81
395.903	740.81
396.127	699.81
396.352	706.81
396.576	704.81
396.801	696.81
397.025	700.81
397.249	733.81
397.474	710.81
397.698	738.81
397.922	728.81
398.147	720.81
398.371	734.81
398.595	770.81
398.82	797.81
399.044	856.81
399.268	964.81
399.492	1134.81
399.717	1276.81
399.941	1254.81
400.165	1110.81
400.389	992.81
400.613	919.81
400.837	883.81
401.062	849.81
401.286	828.81
401.51	837.81
401.734	818.81
401.958	818.81
402.182	834.81
402.406	829.81
402.63	865.81
402.854	890.81
403.078	880.81
403.302	907.81
403.526	946.81
403.75	966.81
403.974	976.81
404.198	969.81
404.422	981.81
404.645	972.81
404.869	953.81
405.093	946.81
405.317	905.81
405.541	912.81
405.765	903.81
405.988	879.81
406.212	892.81
406.436	917.81
406.66	920.81
406.883	957.81
407.107	1003.81
407.331	1035.81
407.555	1074.81
407.778	1109.81
408.002	1053.81
408.226	998.81
408.449	997.81
408.673	973.81
408.896	921.81
409.12	936.81
409.344	960.81
409.567	922.81
409.791	942.81
410.014	965.81
410.238	932.81
410.461	932.81
410.685	941.81
410.908	919.81
411.132	891.81
411.355	881.81
411.578	874.81
411.802	850.81
412.025	863.81
412.249	867.81
412.472	840.81
412.695	877.81
412.919	844.81
413.142	816.81
413.365	827.81
413.589	839.81
413.812	822.81
414.035	809.81
414.258	808.81
414.482	841.81
414.705	847.81
414.928	857.81
415.151	842.81
415.374	841.81
415.597	844.81
415.821	811.81
416.044	807.81
416.267	788.81
416.49	800.81
416.713	786.81
416.936	802.81
417.159	839.81
417.382	829.81
417.605	816.81
417.828	829.81
418.051	829.81
418.274	846.81
418.497	857.81
418.72	848.81
418.943	863.81
419.166	904.81
419.389	946.81
419.611	932.81
419.834	891.81
420.057	872.81
420.28	842.81
420.503	808.81
420.726	821.81
420.948	811.81
421.171	831.81
421.394	813.81
421.617	820.81
421.839	834.81
422.062	820.81
422.285	813.81
422.507	873.81
422.73	870.81
422.953	834.81
423.175	893.81
423.398	874.81
423.621	898.81
423.843	913.81
424.066	885.81
424.288	884.81
424.511	868.81
424.733	849.81
424.956	852.81
425.178	867.81
425.401	832.81
425.623	810.81
425.846	812.81
426.068	800.81
426.291	821.81
426.513	774.81
426.735	773.81
426.958	765.81
427.18	760.81
427.402	755.81
427.625	753.81
427.847	749.81
428.069	766.81
428.292	785.81
428.514	734.81
428.736	745.81
428.958	743.81
429.181	726.81
429.403	717.81
429.625	724.81
429.847	722.81
430.069	728.81
430.292	724.81
430.514	708.81
430.736	737.81
430.958	716.81
431.18	738.81
431.402	748.81
431.624	746.81
431.846	729.81
432.068	733.81
432.29	734.81
432.512	723.81
432.734	759.81
432.956	754.81
433.178	746.81
433.4	754.81
433.622	738.81
433.844	758.81
434.066	746.81
434.287	759.81
434.509	795.81
434.731	824.81
434.953	849.81
435.175	850.81
435.397	829.81
435.618	780.81
435.84	773.81
436.062	749.81
436.284	770.81
436.505	731.81
436.727	732.81
436.949	768.81
437.17	765.81
437.392	729.81
437.614	714.81
437.835	730.81
438.057	685.81
438.278	699.81
438.5	704.81
438.721	712.81
438.943	726.81
439.165	708.81
439.386	731.81
439.608	754.81
439.829	760.81
440.05	754.81
440.272	749.81
440.493	745.81
440.715	759.81
440.936	788.81
441.158	781.81
441.379	808.81
441.6	846.81
441.822	816.81
442.043	856.81
442.264	837.81
442.486	814.81
442.707	835.81
442.928	820.81
443.149	837.81
443.371	824.81
443.592	849.81
443.813	834.81
444.034	864.81
444.255	862.81
444.476	925.81
444.698	984.81
444.919	1034.81
445.14	1110.81
445.361	969.81
445.582	888.81
445.803	829.81
446.024	794.81
446.245	802.81
446.466	800.81
446.687	776.81
446.908	772.81
447.129	722.81
447.35	724.81
447.571	717.81
447.792	718.81
448.013	722.81
448.234	714.81
448.455	693.81
448.675	672.81
448.896	701.81
449.117	664.81
449.338	683.81
449.559	703.81
449.779	696.81
450	713.81
450.221	679.81
450.442	702.81
450.662	720.81
450.883	706.81
451.104	706.81
451.324	717.81
451.545	720.81
451.766	700.81
451.986	705.81
452.207	692.81
452.428	694.81
452.648	714.81
452.869	683.81
453.089	673.81
453.31	685.81
453.53	679.81
453.751	676.81
453.971	658.81
454.192	657.81
454.412	651.81
454.633	665.81
454.853	637.81
455.073	647.81
455.294	649.81
455.514	671.81
455.734	638.81
455.955	609.81
456.175	646.81
456.395	666.81
456.616	627.81
456.836	636.81
457.056	647.81
457.276	638.81
457.497	631.81
457.717	650.81
457.937	640.81
458.157	652.81
458.377	663.81
458.598	681.81
458.818	706.81
459.038	694.81
459.258	740.81
459.478	743.81
459.698	780.81
459.918	799.81
460.138	835.81
460.358	875.81
460.578	869.81
460.798	884.81
461.018	912.81
461.238	874.81
461.458	886.81
461.678	859.81
461.898	880.81
462.118	912.81
462.338	939.81
462.558	983.81
462.777	1000.81
462.997	1105.81
463.217	1179.81
463.437	1210.81
463.657	1105.81
463.876	1066.81
464.096	1021.81
464.316	1016.81
464.536	1042.81
464.755	1013.81
464.975	939.81
465.195	933.81
465.414	879.81
465.634	830.81
465.854	774.81
466.073	778.81
466.293	774.81
466.512	733.81
466.732	743.81
466.951	732.81
467.171	706.81
467.391	740.81
467.61	754.81
467.829	682.81
468.049	721.81
468.268	694.81
468.488	676.81
468.707	675.81
468.927	684.81
469.146	691.81
469.365	705.81
469.585	713.81
469.804	701.81
470.023	755.81
470.243	734.81
470.462	758.81
470.681	761.81
470.901	768.81
471.12	736.81
471.339	721.81
471.558	712.81
471.777	713.81
471.997	701.81
472.216	676.81
472.435	696.81
472.654	681.81
472.873	682.81
473.092	678.81
473.311	649.81
473.53	670.81
473.749	663.81
473.968	676.81
474.187	684.81
474.406	675.81
474.625	674.81
474.844	666.81
475.063	657.81
475.282	677.81
475.501	697.81
475.72	681.81
475.939	696.81
476.158	689.81
476.377	675.81
476.596	683.81
476.814	710.81
477.033	692.81
477.252	726.81
477.471	709.81
477.69	736.81
477.908	774.81
478.127	788.81
478.346	811.81
478.564	825.81
478.783	818.81
479.002	844.81
479.22	885.81
479.439	854.81
479.658	817.81
479.876	837.81
480.095	832.81
480.313	884.81
480.532	912.81
480.751	886.81
480.969	876.81
481.188	827.81
481.406	819.81
481.624	786.81
481.843	769.81
482.061	771.81
482.28	777.81
482.498	764.81
482.717	757.81
482.935	760.81
483.153	783.81
483.372	761.81
483.59	779.81
483.808	786.81
484.027	745.81
484.245	768.81
484.463	775.81
484.681	779.81
484.9	797.81
485.118	787.81
485.336	798.81
485.554	781.81
485.772	798.81
485.99	805.81
486.209	824.81
486.427	813.81
486.645	819.81
486.863	820.81
487.081	823.81
487.299	837.81
487.517	820.81
487.735	801.81
487.953	799.81
488.171	805.81
488.389	812.81
488.607	791.81
488.825	783.81
489.043	793.81
489.261	790.81
489.479	790.81
489.696	808.81
489.914	790.81
490.132	795.81
490.35	800.81
490.568	800.81
490.786	790.81
491.003	818.81
491.221	817.81
491.439	810.81
491.657	825.81
491.874	818.81
492.092	801.81
492.31	846.81
492.527	823.81
492.745	842.81
492.963	833.81
493.18	838.81
493.398	843.81
493.615	846.81
493.833	866.81
494.05	845.81
494.268	847.81
494.485	877.81
494.703	853.81
494.92	864.81
495.138	837.81
495.355	840.81
495.573	875.81
495.79	861.81
496.008	861.81
496.225	870.81
496.442	880.81
496.66	890.81
496.877	848.81
497.094	909.81
497.312	932.81
497.529	913.81
497.746	949.81
497.963	978.81
498.181	1013.81
498.398	1046.81
498.615	1119.81
498.832	1204.81
499.049	1327.81
499.267	1403.81
499.484	1543.81
499.701	1717.81
499.918	1854.81
500.135	2217.81
500.352	2502.81
500.569	2695.81
500.786	2620.81
501.003	2443.81
501.22	2158.81
501.437	1893.81
501.654	1637.81
501.871	1517.81
502.088	1337.81
502.305	1264.81
502.522	1195.81
502.739	1178.81
502.956	1101.81
503.172	1073.81
503.389	1008.81
503.606	971.81
503.823	948.81
504.04	961.81
504.256	940.81
504.473	992.81
504.69	1017.81
504.907	1026.81
505.123	940.81
505.34	882.81
505.557	843.81
505.773	818.81
505.99	822.81
506.207	809.81
506.423	804.81
506.64	782.81
506.856	800.81
507.073	783.81
507.289	769.81
507.506	730.81
507.722	750.81
507.939	724.81
508.155	736.81
508.372	740.81
508.588	721.81
508.805	717.81
509.021	704.81
509.238	678.81
509.454	718.81
509.67	711.81
509.887	692.81
510.103	686.81
510.319	695.81
510.536	693.81
510.752	703.81
510.968	693.81
511.184	695.81
511.401	716.81
511.617	702.81
511.833	700.81
512.049	679.81
512.265	697.81
512.481	688.81
512.698	691.81
512.914	701.81
513.13	676.81
513.346	662.81
513.562	680.81
513.778	692.81
513.994	701.81
514.21	696.81
514.426	693.81
514.642	696.81
514.858	700.81
515.074	723.81
515.29	711.81
515.506	721.81
515.721	736.81
515.937	726.81
516.153	736.81
516.369	771.81
516.585	773.81
516.801	790.81
517.016	822.81
517.232	905.81
517.448	932.81
517.664	968.81
517.879	997.81
518.095	975.81
518.311	983.81
518.527	914.81
518.742	848.81
518.958	820.81
519.173	804.81
519.389	789.81
519.605	760.81
519.82	715.81
520.036	746.81
520.251	704.81
520.467	732.81
520.682	697.81
520.898	696.81
521.113	664.81
521.329	677.81
521.544	662.81
521.76	673.81
521.975	653.81
522.19	655.81
522.406	651.81
522.621	642.81
522.836	649.81
523.052	654.81
523.267	641.81
523.482	621.81
523.698	642.81
523.913	626.81
524.128	630.81
524.343	647.81
524.559	650.81
524.774	644.81
524.989	634.81
525.204	636.81
525.419	636.81
525.634	626.81
525.849	649.81
526.064	634.81
526.28	624.81
526.495	629.81
526.71	648.81
526.925	633.81
527.14	633.81
527.355	633.81
527.57	614.81
527.785	634.81
527.999	618.81
528.214	631.81
528.429	626.81
528.644	656.81
528.859	638.81
529.074	640.81
529.289	646.81
529.503	632.81
529.718	624.81
529.933	638.81
530.148	633.81
530.363	635.81
530.577	619.81
530.792	627.81
531.007	614.81
531.221	630.81
531.436	660.81
531.651	662.81
531.865	634.81
532.08	654.81
532.295	629.81
532.509	630.81
532.724	620.81
532.938	633.81
533.153	660.81
533.367	633.81
533.582	647.81
533.796	651.81
534.011	620.81
534.225	628.81
534.44	619.81
534.654	628.81
534.868	637.81
535.083	618.81
535.297	592.81
535.511	616.81
535.726	620.81
535.94	610.81
536.154	594.81
536.369	593.81
536.583	601.81
536.797	593.81
537.011	597.81
537.225	583.81
537.44	589.81
537.654	596.81
537.868	566.81
538.082	598.81
538.296	589.81
538.51	578.81
538.724	587.81
538.938	568.81
539.153	566.81
539.367	555.81
539.581	573.81
539.795	553.81
540.009	572.81
540.222	565.81
540.436	566.81
540.65	577.81
540.864	571.81
541.078	568.81
541.292	572.81
541.506	575.81
541.72	553.81
541.934	564.81
542.147	568.81
542.361	560.81
542.575	549.81
542.789	535.81
543.002	540.81
543.216	544.81
543.43	561.81
543.644	568.81
543.857	553.81
544.071	566.81
544.285	588.81
544.498	568.81
544.712	569.81
544.925	589.81
545.139	594.81
545.352	586.81
545.566	566.81
545.779	582.81
545.993	582.81
546.206	597.81
546.42	572.81
546.633	586.81
546.847	590.81
547.06	580.81
547.274	583.81
547.487	590.81
547.7	570.81
547.914	586.81
548.127	597.81
548.34	599.81
548.554	613.81
548.767	592.81
548.98	564.81
549.193	599.81
549.407	597.81
549.62	596.81
549.833	599.81
550.046	595.81
550.259	582.81
550.473	577.81
550.686	583.81
550.899	590.81
551.112	579.81
551.325	563.81
551.538	560.81
551.751	574.81
551.964	577.81
552.177	580.81
552.39	580.81
552.603	601.81
552.816	615.81
553.029	618.81
553.242	616.81
553.455	646.81
553.667	648.81
553.88	633.81
554.093	592.81
554.306	596.81
554.519	583.81
554.732	572.81
554.944	583.81
555.157	562.81
555.37	556.81
555.583	554.81
555.795	550.81
556.008	524.81
556.221	523.81
556.433	525.81
556.646	499.81
556.859	532.81
557.071	478.81
557.284	502.81
557.496	503.81
557.709	502.81
557.921	502.81
558.134	466.81
558.346	496.81
558.559	500.81
558.771	484.81
558.984	488.81
559.196	509.81
559.409	490.81
559.621	490.81
559.833	513.81
560.046	488.81
560.258	482.81
560.47	486.81
560.683	479.81
560.895	476.81
561.107	484.81
561.32	489.81
561.532	485.81
561.744	481.81
561.956	491.81
562.168	479.81
562.381	483.81
562.593	480.81
562.805	484.81
563.017	469.81
563.229	480.81
563.441	486.81
563.653	476.81
563.865	483.81
564.077	498.81
564.289	520.81
564.501	492.81
564.713	509.81
564.925	527.81
565.137	537.81
565.349	514.81
565.561	554.81
565.773	569.81
565.985	589.81
566.197	594.81
566.408	658.81
566.62	750.81
566.832	804.81
567.044	800.81
567.255	796.81
567.467	801.81
567.679	855.81
567.891	915.81
568.102	934.81
568.314	916.81
568.526	824.81
568.737	733.81
568.949	674.81
569.161	636.81
569.372	550.81
569.584	535.81
569.795	522.81
570.007	494.81
570.218	506.81
570.43	503.81
570.641	484.81
570.853	510.81
571.064	483.81
571.276	493.81
571.487	495.81
571.698	467.81
571.91	447.81
572.121	454.81
572.333	425.81
572.544	419.81
572.755	431.81
572.966	436.81
573.178	410.81
573.389	408.81
573.6	425.81
573.811	378.81
574.023	400.81
574.234	392.81
574.445	394.81
574.656	391.81
574.867	402.81
575.078	414.81
575.289	393.81
575.501	398.81
575.712	385.81
575.923	384.81
576.134	385.81
576.345	379.81
576.556	388.81
576.767	375.81
576.978	388.81
577.188	390.81
577.399	386.81
577.61	373.81
577.821	378.81
578.032	344.81
578.243	347.81
578.454	353.81
578.665	361.81
578.875	375.81
579.086	359.81
579.297	359.81
579.508	343.81
579.718	347.81
579.929	360.81
580.14	344.81
580.35	353.81
580.561	359.81
580.772	355.81
580.982	354.81
581.193	348.81
581.403	333.81
581.614	337.81
581.825	348.81
582.035	373.81
582.246	355.81
582.456	345.81
582.667	341.81
582.877	328.81
583.087	347.81
583.298	361.81
583.508	362.81
583.719	344.81
583.929	339.81
584.139	343.81
584.35	337.81
584.56	334.81
584.77	318.81
584.981	320.81
585.191	332.81
585.401	353.81
585.611	331.81
585.821	338.81
586.032	325.81
586.242	333.81
586.452	328.81
586.662	328.81
586.872	341.81
587.082	320.81
587.292	322.81
587.502	312.81
587.713	333.81
587.923	309.81
588.133	330.81
588.343	307.81
588.553	334.81
588.762	333.81
588.972	323.81
589.182	330.81
589.392	323.81
589.602	319.81
589.812	327.81
590.022	337.81
590.232	319.81
590.441	338.81
590.651	335.81
590.861	330.81
591.071	346.81
591.281	346.81
591.49	337.81
591.7	345.81
591.91	381.81
592.119	358.81
592.329	352.81
592.539	373.81
592.748	384.81
592.958	391.81
593.167	397.81
593.377	412.81
593.587	412.81
593.796	405.81
594.006	418.81
594.215	426.81
594.424	429.81
594.634	428.81
594.843	387.81
595.053	375.81
595.262	366.81
595.472	351.81
595.681	356.81
595.89	328.81
596.1	327.81
596.309	300.81
596.518	312.81
596.727	325.81
596.937	316.81
597.146	304.81
597.355	314.81
597.564	315.81
597.774	304.81
597.983	288.81
598.192	276.81
598.401	281.81
598.61	282.81
598.819	281.81
599.028	279.81
599.237	284.81
599.446	286.81
599.655	298.81
599.864	289.81
600.073	279.81
600.282	266.81
600.491	292.81
600.7	279.81
600.909	280.81
601.118	286.81
601.327	275.81
601.536	268.81
601.745	274.81
601.953	265.81
602.162	282.81
602.371	268.81
602.58	270.81
602.789	276.81
602.997	274.81
603.206	276.81
603.415	278.81
603.623	256.81
603.832	281.81
604.041	259.81
604.249	266.81
604.458	254.81
604.666	261.81
604.875	250.81
605.084	280.81
605.292	256.81
605.501	267.81
605.709	279.81
605.918	260.81
606.126	266.81
606.334	259.81
606.543	263.81
606.751	268.81
606.96	270.81
607.168	265.81
607.376	249.81
607.585	251.81
607.793	252.81
608.001	253.81
608.21	246.81
608.418	266.81
608.626	252.81
608.834	252.81
609.043	257.81
609.251	242.81
609.459	273.81
609.667	262.81
609.875	250.81
610.083	243.81
610.291	263.81
610.499	264.81
610.707	261.81
610.916	251.81
611.124	263.81
611.332	235.81
611.54	249.81
611.748	245.81
611.955	260.81
612.163	241.81
612.371	245.81
612.579	231.81
612.787	231.81
612.995	228.81
613.203	245.81
613.411	246.81
613.618	252.81
613.826	252.81
614.034	245.81
614.242	232.81
614.449	249.81
614.657	241.81
614.865	251.81
615.072	250.81
615.28	250.81
615.488	249.81
615.695	248.81
615.903	254.81
616.111	256.81
616.318	249.81
616.526	264.81
616.733	240.81
616.941	254.81
617.148	243.81
617.356	248.81
617.563	253.81
617.771	263.81
617.978	259.81
618.185	238.81
618.393	224.81
618.6	221.81
618.807	246.81
619.015	252.81
619.222	257.81
619.429	241.81
619.637	249.81
619.844	246.81
620.051	245.81
620.258	239.81
620.466	215.81
620.673	243.81
620.88	233.81
621.087	243.81
621.294	224.81
621.501	204.81
621.708	225.81
621.915	232.81
622.122	237.81
622.329	232.81
622.536	224.81
622.743	226.81
622.95	217.81
623.157	214.81
623.364	213.81
623.571	230.81
623.778	215.81
623.985	228.81
624.192	210.81
624.399	217.81
624.606	219.81
624.812	211.81
625.019	215.81
625.226	217.81
625.433	227.81
625.639	213.81
625.846	204.81
626.053	213.81
626.259	206.81
626.466	216.81
626.673	210.81
626.879	212.81
627.086	208.81
627.293	202.81
627.499	213.81
627.706	198.81
627.912	202.81
628.119	195.81
628.325	207.81
628.532	208.81
628.738	214.81
628.945	216.81
629.151	202.81
629.357	188.81
629.564	199.81
629.77	193.81
629.976	198.81
630.183	214.81
630.389	197.81
630.595	200.81
630.802	198.81
631.008	197.81
631.214	214.81
631.42	188.81
631.627	200.81
631.833	183.81
632.039	190.81
632.245	188.81
632.451	186.81
632.657	197.81
632.863	200.81
633.069	180.81
633.275	183.81
633.481	194.81
633.688	184.81
633.893	181.81
634.099	186.81
634.305	180.81
634.511	192.81
634.717	193.81
634.923	182.81
635.129	158.81
635.335	181.81
635.541	182.81
635.747	189.81
635.952	208.81
636.158	194.81
636.364	177.81
636.57	178.81
636.775	185.81
636.981	176.81
637.187	191.81
637.392	192.81
637.598	187.81
637.804	168.81
638.009	187.81
638.215	189.81
638.421	185.81
638.626	180.81
638.832	195.81
639.037	185.81
639.243	178.81
639.448	188.81
639.654	180.81
639.859	178.81
640.065	188.81
640.27	185.81
640.475	161.81
640.681	165.81
640.886	170.81
641.091	165.81
641.297	181.81
641.502	176.81
641.707	165.81
641.913	170.81
642.118	176.81
642.323	186.81
642.528	172.81
642.733	187.81
642.939	163.81
643.144	177.81
643.349	167.81
643.554	173.81
643.759	165.81
643.964	177.81
644.169	168.81
644.374	150.81
644.579	165.81
644.784	180.81
644.989	179.81
645.194	173.81
645.399	171.81
645.604	158.81
645.809	164.81
646.014	162.81
646.219	155.81
646.423	154.81
646.628	163.81
646.833	180.81
647.038	165.81
647.243	182.81
647.447	178.81
647.652	158.81
647.857	163.81
648.062	162.81
648.266	168.81
648.471	180.81
648.676	190.81
648.88	174.81
649.085	169.81
649.289	179.81
649.494	165.81
649.698	161.81
649.903	156.81
650.107	160.81
650.312	157.81
650.516	154.81
650.721	158.81
650.925	159.81
651.13	146.81
651.334	142.81
651.539	134.81
651.743	142.81
651.947	147.81
652.152	142.81
652.356	140.81
652.56	139.81
652.764	142.81
652.969	131.81
653.173	137.81
653.377	141.81
653.581	135.81
653.785	124.81
653.99	124.81
654.194	127.81
654.398	146.81
654.602	133.81
654.806	132.81
655.01	140.81
655.214	131.81
655.418	139.81
655.622	126.81
655.826	130.81
656.03	129.81
656.234	139.81
656.438	131.81
656.642	125.81
656.846	122.81
657.049	119.81
657.253	128.81
657.457	125.81
657.661	120.81
657.865	124.81
658.068	119.81
658.272	109.81
658.476	93.81
658.68	115.81
658.883	88.81
659.087	108.81
659.291	95.81
659.494	105.81
659.698	91.81
659.901	93.81
660.105	101.81
660.309	86.81
660.512	100.81
660.716	99.81
660.919	98.81
661.123	93.81
661.326	97.81
661.53	100.81
661.733	89.81
661.936	88.81
662.14	77.81
662.343	95.81
662.546	80.81
662.75	90.81
662.953	89.81
663.156	77.81
663.36	78.81
663.563	92.81
663.766	102.81
663.969	85.81
664.173	74.81
664.376	80.81
664.579	82.81
664.782	81.81
664.985	73.81
665.188	96.81
665.391	90.81
665.594	99.81
665.797	84.81
666	99.81
666.203	82.81
666.406	66.81
666.609	75.81
666.812	88.81
667.015	90.81
667.218	86.81
667.421	91.81
667.624	89.81
667.827	80.81
668.03	80.81
668.232	71.81
668.435	75.81
668.638	93.81
668.841	78.81
669.043	94.81
669.246	87.81
669.449	82.81
669.651	88.81
669.854	84.81
670.057	78.81
670.259	68.81
670.462	81.81
670.665	86.81
670.867	77.81
671.07	86.81
671.272	82.81
671.475	89.81
671.677	65.81
671.88	92.81
672.082	107.81
672.284	86.81
672.487	70.81
672.689	81.81
672.892	90.81
