Data from Ni(NO3)2@0.0625M.TitratingCurve.Agarose3%dH2O.NegLispCup.LampEnergy10.LIBS07252019_HRD10591_18-14-51-569.txt Node
Date: Thu Jul 25 18:14:51 EDT 2019
User: cochatt
Spectrometer: HR+D1059
Trigger mode: 1
Integration Time (sec): 1.000000E-1
Scans to average: 1
Electric dark correction enabled: true
Nonlinearity correction enabled: false
Boxcar width: 0
XAxis mode: Wavelengths
Number of Pixels in Spectrum: 2048
>>>>>Begin Spectral Data<<<<<
223.165	-19.12
223.4	-19.12
223.635	-19.12
223.869	-10.12
224.104	-26.12
224.338	-20.12
224.573	-22.12
224.808	-13.12
225.042	-20.12
225.277	-8.12
225.511	-3.12
225.746	11.88
225.98	15.88
226.215	8.88
226.449	21.88
226.683	29.88
226.918	24.88
227.152	28.88
227.387	36.88
227.621	33.88
227.856	41.88
228.09	50.88
228.324	44.88
228.559	49.88
228.793	75.88
229.027	97.88
229.262	111.88
229.496	119.88
229.73	128.88
229.964	135.88
230.199	147.88
230.433	126.88
230.667	149.88
230.901	126.88
231.136	133.88
231.37	137.88
231.604	148.88
231.838	148.88
232.072	135.88
232.306	163.88
232.541	166.88
232.775	158.88
233.009	149.88
233.243	138.88
233.477	159.88
233.711	154.88
233.945	162.88
234.179	147.88
234.413	150.88
234.647	155.88
234.881	135.88
235.115	161.88
235.349	166.88
235.583	151.88
235.817	153.88
236.051	166.88
236.285	149.88
236.519	148.88
236.753	152.88
236.987	157.88
237.221	158.88
237.455	155.88
237.689	161.88
237.922	156.88
238.156	153.88
238.39	151.88
238.624	165.88
238.858	185.88
239.091	177.88
239.325	170.88
239.559	179.88
239.793	178.88
240.027	178.88
240.26	162.88
240.494	182.88
240.728	175.88
240.961	185.88
241.195	204.88
241.429	178.88
241.662	194.88
241.896	193.88
242.13	194.88
242.363	197.88
242.597	198.88
242.83	193.88
243.064	202.88
243.298	193.88
243.531	203.88
243.765	214.88
243.998	220.88
244.232	203.88
244.465	226.88
244.699	205.88
244.932	216.88
245.166	220.88
245.399	223.88
245.633	215.88
245.866	211.88
246.099	223.88
246.333	226.88
246.566	213.88
246.8	231.88
247.033	228.88
247.266	235.88
247.5	235.88
247.733	238.88
247.966	223.88
248.2	210.88
248.433	231.88
248.666	232.88
248.899	255.88
249.133	252.88
249.366	235.88
249.599	256.88
249.832	241.88
250.066	253.88
250.299	244.88
250.532	242.88
250.765	268.88
250.998	265.88
251.231	269.88
251.465	262.88
251.698	259.88
251.931	257.88
252.164	265.88
252.397	268.88
252.63	275.88
252.863	272.88
253.096	290.88
253.329	280.88
253.562	248.88
253.795	279.88
254.028	303.88
254.261	277.88
254.494	287.88
254.727	291.88
254.96	310.88
255.193	276.88
255.426	264.88
255.659	290.88
255.892	291.88
256.124	292.88
256.357	283.88
256.59	291.88
256.823	304.88
257.056	301.88
257.289	271.88
257.521	295.88
257.754	309.88
257.987	310.88
258.22	314.88
258.452	306.88
258.685	303.88
258.918	307.88
259.151	322.88
259.383	297.88
259.616	314.88
259.849	309.88
260.081	320.88
260.314	303.88
260.547	311.88
260.779	318.88
261.012	316.88
261.244	311.88
261.477	329.88
261.71	334.88
261.942	331.88
262.175	325.88
262.407	344.88
262.64	333.88
262.872	333.88
263.105	321.88
263.337	334.88
263.57	339.88
263.802	340.88
264.035	338.88
264.267	347.88
264.499	361.88
264.732	359.88
264.964	342.88
265.197	337.88
265.429	358.88
265.661	381.88
265.894	355.88
266.126	381.88
266.358	353.88
266.591	355.88
266.823	367.88
267.055	353.88
267.287	391.88
267.52	370.88
267.752	371.88
267.984	374.88
268.216	362.88
268.448	369.88
268.681	371.88
268.913	379.88
269.145	380.88
269.377	381.88
269.609	386.88
269.841	390.88
270.073	389.88
270.306	386.88
270.538	379.88
270.77	376.88
271.002	408.88
271.234	385.88
271.466	364.88
271.698	407.88
271.93	397.88
272.162	403.88
272.394	393.88
272.626	391.88
272.858	395.88
273.09	404.88
273.322	409.88
273.553	394.88
273.785	401.88
274.017	410.88
274.249	412.88
274.481	423.88
274.713	414.88
274.945	427.88
275.176	412.88
275.408	389.88
275.64	400.88
275.872	417.88
276.104	429.88
276.335	411.88
276.567	425.88
276.799	412.88
277.031	407.88
277.262	430.88
277.494	421.88
277.726	420.88
277.957	441.88
278.189	449.88
278.421	428.88
278.652	444.88
278.884	440.88
279.115	430.88
279.347	443.88
279.579	434.88
279.81	454.88
280.042	453.88
280.273	445.88
280.505	451.88
280.736	443.88
280.968	446.88
281.199	474.88
281.431	479.88
281.662	451.88
281.894	457.88
282.125	473.88
282.356	458.88
282.588	447.88
282.819	467.88
283.051	467.88
283.282	463.88
283.513	482.88
283.745	497.88
283.976	497.88
284.207	479.88
284.439	482.88
284.67	484.88
284.901	481.88
285.132	494.88
285.364	484.88
285.595	486.88
285.826	475.88
286.057	489.88
286.288	495.88
286.52	508.88
286.751	500.88
286.982	497.88
287.213	492.88
287.444	507.88
287.675	514.88
287.906	525.88
288.138	504.88
288.369	533.88
288.6	517.88
288.831	518.88
289.062	498.88
289.293	539.88
289.524	516.88
289.755	493.88
289.986	515.88
290.217	548.88
290.448	525.88
290.679	547.88
290.91	541.88
291.141	531.88
291.371	539.88
291.602	543.88
291.833	517.88
292.064	517.88
292.295	520.88
292.526	526.88
292.757	542.88
292.987	528.88
293.218	519.88
293.449	541.88
293.68	530.88
293.91	525.88
294.141	552.88
294.372	526.88
294.603	549.88
294.833	518.88
295.064	539.88
295.295	531.88
295.525	537.88
295.756	524.88
295.987	569.88
296.217	555.88
296.448	577.88
296.679	561.88
296.909	572.88
297.14	574.88
297.37	591.88
297.601	567.88
297.831	584.88
298.062	577.88
298.292	583.88
298.523	605.88
298.753	598.88
298.984	576.88
299.214	581.88
299.445	571.88
299.675	586.88
299.905	580.88
300.136	585.88
300.366	587.88
300.597	605.88
300.827	617.88
301.057	593.88
301.288	614.88
301.518	597.88
301.748	571.88
301.979	615.88
302.209	593.88
302.439	607.88
302.669	589.88
302.9	596.88
303.13	606.88
303.36	612.88
303.59	595.88
303.82	591.88
304.051	592.88
304.281	619.88
304.511	604.88
304.741	569.88
304.971	617.88
305.201	583.88
305.431	601.88
305.661	613.88
305.891	585.88
306.121	606.88
306.352	595.88
306.582	587.88
306.812	591.88
307.042	593.88
307.272	587.88
307.502	590.88
307.731	573.88
307.961	580.88
308.191	590.88
308.421	585.88
308.651	589.88
308.881	549.88
309.111	586.88
309.341	569.88
309.571	602.88
309.8	586.88
310.03	594.88
310.26	619.88
310.49	601.88
310.72	610.88
310.949	571.88
311.179	604.88
311.409	589.88
311.639	613.88
311.868	582.88
312.098	601.88
312.328	631.88
312.557	605.88
312.787	628.88
313.017	618.88
313.246	639.88
313.476	631.88
313.706	640.88
313.935	652.88
314.165	666.88
314.394	639.88
314.624	615.88
314.853	613.88
315.083	664.88
315.312	651.88
315.542	627.88
315.771	626.88
316.001	607.88
316.23	619.88
316.46	612.88
316.689	609.88
316.919	604.88
317.148	612.88
317.377	616.88
317.607	627.88
317.836	589.88
318.065	609.88
318.295	622.88
318.524	609.88
318.753	606.88
318.983	607.88
319.212	606.88
319.441	611.88
319.67	619.88
319.9	602.88
320.129	636.88
320.358	615.88
320.587	637.88
320.816	617.88
321.046	619.88
321.275	632.88
321.504	620.88
321.733	610.88
321.962	613.88
322.191	591.88
322.42	631.88
322.649	615.88
322.878	621.88
323.108	619.88
323.337	635.88
323.566	645.88
323.795	642.88
324.024	608.88
324.253	658.88
324.482	633.88
324.71	632.88
324.939	647.88
325.168	635.88
325.397	627.88
325.626	626.88
325.855	650.88
326.084	670.88
326.313	711.88
326.542	670.88
326.77	691.88
326.999	675.88
327.228	651.88
327.457	646.88
327.686	673.88
327.914	681.88
328.143	679.88
328.372	672.88
328.6	689.88
328.829	667.88
329.058	649.88
329.287	675.88
329.515	668.88
329.744	675.88
329.972	711.88
330.201	695.88
330.43	707.88
330.658	678.88
330.887	701.88
331.115	699.88
331.344	699.88
331.572	702.88
331.801	715.88
332.03	784.88
332.258	747.88
332.486	764.88
332.715	829.88
332.943	838.88
333.172	874.88
333.4	905.88
333.629	950.88
333.857	931.88
334.085	905.88
334.314	903.88
334.542	867.88
334.771	858.88
334.999	844.88
335.227	868.88
335.455	871.88
335.684	869.88
335.912	822.88
336.14	821.88
336.369	818.88
336.597	811.88
336.825	795.88
337.053	849.88
337.281	815.88
337.51	783.88
337.738	761.88
337.966	760.88
338.194	781.88
338.422	731.88
338.65	699.88
338.878	751.88
339.106	716.88
339.334	728.88
339.562	738.88
339.79	705.88
340.018	691.88
340.246	686.88
340.474	705.88
340.702	701.88
340.93	709.88
341.158	726.88
341.386	719.88
341.614	749.88
341.842	719.88
342.07	685.88
342.298	696.88
342.526	713.88
342.754	694.88
342.981	722.88
343.209	724.88
343.437	758.88
343.665	789.88
343.893	861.88
344.12	886.88
344.348	861.88
344.576	804.88
344.804	745.88
345.031	748.88
345.259	718.88
345.487	715.88
345.714	721.88
345.942	731.88
346.17	730.88
346.397	703.88
346.625	701.88
346.853	676.88
347.08	691.88
347.308	692.88
347.535	719.88
347.763	711.88
347.99	725.88
348.218	711.88
348.445	708.88
348.673	684.88
348.9	709.88
349.128	701.88
349.355	686.88
349.583	677.88
349.81	681.88
350.037	668.88
350.265	684.88
350.492	684.88
350.72	662.88
350.947	676.88
351.174	667.88
351.402	662.88
351.629	658.88
351.856	686.88
352.083	644.88
352.311	671.88
352.538	666.88
352.765	667.88
352.992	659.88
353.22	618.88
353.447	636.88
353.674	653.88
353.901	663.88
354.128	672.88
354.355	659.88
354.583	651.88
354.81	681.88
355.037	675.88
355.264	650.88
355.491	674.88
355.718	666.88
355.945	658.88
356.172	670.88
356.399	676.88
356.626	681.88
356.853	658.88
357.08	657.88
357.307	660.88
357.534	664.88
357.761	656.88
357.988	657.88
358.215	653.88
358.441	662.88
358.668	677.88
358.895	669.88
359.122	666.88
359.349	663.88
359.576	663.88
359.802	668.88
360.029	657.88
360.256	690.88
360.483	655.88
360.709	676.88
360.936	641.88
361.163	663.88
361.39	685.88
361.616	665.88
361.843	690.88
362.07	660.88
362.296	678.88
362.523	667.88
362.749	683.88
362.976	657.88
363.203	647.88
363.429	647.88
363.656	660.88
363.882	673.88
364.109	676.88
364.335	672.88
364.562	659.88
364.788	675.88
365.015	681.88
365.241	661.88
365.468	663.88
365.694	653.88
365.92	671.88
366.147	651.88
366.373	659.88
366.599	649.88
366.826	671.88
367.052	638.88
367.278	667.88
367.505	674.88
367.731	680.88
367.957	656.88
368.184	661.88
368.41	673.88
368.636	689.88
368.862	665.88
369.089	675.88
369.315	687.88
369.541	683.88
369.767	708.88
369.993	685.88
370.219	696.88
370.445	695.88
370.672	698.88
370.898	708.88
371.124	677.88
371.35	724.88
371.576	745.88
371.802	732.88
372.028	722.88
372.254	700.88
372.48	719.88
372.706	746.88
372.932	755.88
373.158	750.88
373.384	757.88
373.61	737.88
373.835	754.88
374.061	723.88
374.287	706.88
374.513	745.88
374.739	769.88
374.965	805.88
375.191	804.88
375.416	802.88
375.642	775.88
375.868	789.88
376.094	747.88
376.319	757.88
376.545	734.88
376.771	763.88
376.997	716.88
377.222	721.88
377.448	722.88
377.674	719.88
377.899	713.88
378.125	722.88
378.35	723.88
378.576	711.88
378.802	710.88
379.027	725.88
379.253	710.88
379.478	702.88
379.704	739.88
379.929	707.88
380.155	706.88
380.38	681.88
380.606	714.88
380.831	713.88
381.057	726.88
381.282	734.88
381.507	727.88
381.733	738.88
381.958	753.88
382.184	722.88
382.409	747.88
382.634	749.88
382.86	745.88
383.085	779.88
383.31	787.88
383.535	817.88
383.761	815.88
383.986	805.88
384.211	825.88
384.436	872.88
384.662	840.88
384.887	890.88
385.112	861.88
385.337	891.88
385.562	891.88
385.787	871.88
386.013	877.88
386.238	851.88
386.463	870.88
386.688	883.88
386.913	866.88
387.138	842.88
387.363	839.88
387.588	850.88
387.813	851.88
388.038	854.88
388.263	864.88
388.488	870.88
388.713	869.88
388.938	853.88
389.163	852.88
389.387	867.88
389.612	836.88
389.837	828.88
390.062	849.88
390.287	861.88
390.512	862.88
390.736	840.88
390.961	839.88
391.186	892.88
391.411	910.88
391.636	942.88
391.86	954.88
392.085	1009.88
392.31	988.88
392.534	939.88
392.759	934.88
392.984	921.88
393.208	908.88
393.433	893.88
393.658	930.88
393.882	923.88
394.107	926.88
394.331	934.88
394.556	935.88
394.78	947.88
395.005	955.88
395.229	931.88
395.454	945.88
395.678	969.88
395.903	974.88
396.127	936.88
396.352	941.88
396.576	904.88
396.801	896.88
397.025	905.88
397.249	927.88
397.474	972.88
397.698	973.88
397.922	961.88
398.147	970.88
398.371	1014.88
398.595	1033.88
398.82	1051.88
399.044	1133.88
399.268	1258.88
399.492	1459.88
399.717	1695.88
399.941	1665.88
400.165	1503.88
400.389	1335.88
400.613	1196.88
400.837	1150.88
401.062	1112.88
401.286	1070.88
401.51	1057.88
401.734	1077.88
401.958	1071.88
402.182	1119.88
402.406	1157.88
402.63	1140.88
402.854	1145.88
403.078	1190.88
403.302	1216.88
403.526	1203.88
403.75	1241.88
403.974	1279.88
404.198	1259.88
404.422	1270.88
404.645	1282.88
404.869	1234.88
405.093	1247.88
405.317	1204.88
405.541	1207.88
405.765	1164.88
405.988	1149.88
406.212	1212.88
406.436	1213.88
406.66	1188.88
406.883	1230.88
407.107	1280.88
407.331	1376.88
407.555	1420.88
407.778	1417.88
408.002	1408.88
408.226	1361.88
408.449	1312.88
408.673	1258.88
408.896	1281.88
409.12	1265.88
409.344	1244.88
409.567	1258.88
409.791	1268.88
410.014	1262.88
410.238	1226.88
410.461	1240.88
410.685	1231.88
410.908	1215.88
411.132	1208.88
411.355	1142.88
411.578	1100.88
411.802	1115.88
412.025	1133.88
412.249	1138.88
412.472	1155.88
412.695	1110.88
412.919	1093.88
413.142	1084.88
413.365	1079.88
413.589	1088.88
413.812	1115.88
414.035	1094.88
414.258	1055.88
414.482	1096.88
414.705	1110.88
414.928	1134.88
415.151	1115.88
415.374	1103.88
415.597	1119.88
415.821	1102.88
416.044	1055.88
416.267	1041.88
416.49	1055.88
416.713	1081.88
416.936	1047.88
417.159	1055.88
417.382	1076.88
417.605	1061.88
417.828	1073.88
418.051	1109.88
418.274	1091.88
418.497	1102.88
418.72	1104.88
418.943	1097.88
419.166	1177.88
419.389	1239.88
419.611	1227.88
419.834	1142.88
420.057	1128.88
420.28	1113.88
420.503	1061.88
420.726	1045.88
420.948	1055.88
421.171	1063.88
421.394	1062.88
421.617	1060.88
421.839	1039.88
422.062	1051.88
422.285	1057.88
422.507	1121.88
422.73	1110.88
422.953	1114.88
423.175	1156.88
423.398	1141.88
423.621	1120.88
423.843	1152.88
424.066	1171.88
424.288	1152.88
424.511	1146.88
424.733	1131.88
424.956	1114.88
425.178	1121.88
425.401	1066.88
425.623	1059.88
425.846	1047.88
426.068	1049.88
426.291	1009.88
426.513	1018.88
426.735	996.88
426.958	1023.88
427.18	956.88
427.402	972.88
427.625	995.88
427.847	964.88
428.069	955.88
428.292	957.88
428.514	950.88
428.736	957.88
428.958	986.88
429.181	916.88
429.403	934.88
429.625	949.88
429.847	949.88
430.069	922.88
430.292	962.88
430.514	936.88
430.736	941.88
430.958	922.88
431.18	971.88
431.402	939.88
431.624	949.88
431.846	968.88
432.068	972.88
432.29	986.88
432.512	979.88
432.734	974.88
432.956	978.88
433.178	999.88
433.4	940.88
433.622	938.88
433.844	974.88
434.066	970.88
434.287	976.88
434.509	1027.88
434.731	1063.88
434.953	1100.88
435.175	1113.88
435.397	1095.88
435.618	1053.88
435.84	999.88
436.062	971.88
436.284	969.88
436.505	977.88
436.727	961.88
436.949	966.88
437.17	968.88
437.392	941.88
437.614	965.88
437.835	885.88
438.057	909.88
438.278	902.88
438.5	938.88
438.721	935.88
438.943	921.88
439.165	919.88
439.386	917.88
439.608	945.88
439.829	941.88
440.05	977.88
440.272	933.88
440.493	978.88
440.715	978.88
440.936	980.88
441.158	1003.88
441.379	1028.88
441.6	1062.88
441.822	1075.88
442.043	1101.88
442.264	1068.88
442.486	1097.88
442.707	1055.88
442.928	1041.88
443.149	1079.88
443.371	1091.88
443.592	1078.88
443.813	1075.88
444.034	1126.88
444.255	1117.88
444.476	1180.88
444.698	1280.88
444.919	1358.88
445.14	1392.88
445.361	1233.88
445.582	1145.88
445.803	1074.88
446.024	1035.88
446.245	1001.88
446.466	1002.88
446.687	950.88
446.908	962.88
447.129	966.88
447.35	933.88
447.571	919.88
447.792	958.88
448.013	916.88
448.234	890.88
448.455	899.88
448.675	918.88
448.896	897.88
449.117	872.88
449.338	891.88
449.559	852.88
449.779	907.88
450	881.88
450.221	901.88
450.442	896.88
450.662	897.88
450.883	916.88
451.104	937.88
451.324	947.88
451.545	924.88
451.766	905.88
451.986	918.88
452.207	869.88
452.428	890.88
452.648	909.88
452.869	901.88
453.089	848.88
453.31	885.88
453.53	868.88
453.751	865.88
453.971	867.88
454.192	873.88
454.412	857.88
454.633	847.88
454.853	851.88
455.073	847.88
455.294	837.88
455.514	856.88
455.734	839.88
455.955	831.88
456.175	839.88
456.395	807.88
456.616	804.88
456.836	821.88
457.056	835.88
457.276	813.88
457.497	824.88
457.717	830.88
457.937	835.88
458.157	814.88
458.377	844.88
458.598	865.88
458.818	912.88
459.038	927.88
459.258	936.88
459.478	969.88
459.698	1023.88
459.918	1027.88
460.138	1086.88
460.358	1128.88
460.578	1157.88
460.798	1144.88
461.018	1193.88
461.238	1144.88
461.458	1116.88
461.678	1132.88
461.898	1143.88
462.118	1123.88
462.338	1203.88
462.558	1231.88
462.777	1284.88
462.997	1393.88
463.217	1615.88
463.437	1624.88
463.657	1424.88
463.876	1351.88
464.096	1366.88
464.316	1331.88
464.536	1369.88
464.755	1292.88
464.975	1245.88
465.195	1174.88
465.414	1142.88
465.634	1063.88
465.854	1013.88
466.073	1005.88
466.293	971.88
466.512	952.88
466.732	899.88
466.951	933.88
467.171	933.88
467.391	953.88
467.61	943.88
467.829	921.88
468.049	932.88
468.268	907.88
468.488	888.88
468.707	897.88
468.927	864.88
469.146	862.88
469.365	913.88
469.585	897.88
469.804	922.88
470.023	950.88
470.243	941.88
470.462	933.88
470.681	960.88
470.901	985.88
471.12	925.88
471.339	914.88
471.558	911.88
471.777	910.88
471.997	910.88
472.216	906.88
472.435	889.88
472.654	871.88
472.873	837.88
473.092	862.88
473.311	890.88
473.53	881.88
473.749	850.88
473.968	846.88
474.187	886.88
474.406	865.88
474.625	877.88
474.844	853.88
475.063	899.88
475.282	876.88
475.501	863.88
475.72	873.88
475.939	906.88
476.158	904.88
476.377	899.88
476.596	885.88
476.814	937.88
477.033	951.88
477.252	949.88
477.471	960.88
477.69	974.88
477.908	1004.88
478.127	1037.88
478.346	1057.88
478.564	1060.88
478.783	1052.88
479.002	1083.88
479.22	1092.88
479.439	1079.88
479.658	1085.88
479.876	1073.88
480.095	1099.88
480.313	1145.88
480.532	1213.88
480.751	1184.88
480.969	1105.88
481.188	1076.88
481.406	1055.88
481.624	1019.88
481.843	1003.88
482.061	1001.88
482.28	1003.88
482.498	1022.88
482.717	982.88
482.935	998.88
483.153	1000.88
483.372	1022.88
483.59	993.88
483.808	1003.88
484.027	999.88
484.245	1012.88
484.463	999.88
484.681	1063.88
484.9	1053.88
485.118	1025.88
485.336	1052.88
485.554	1063.88
485.772	1056.88
485.99	1054.88
486.209	1039.88
486.427	1063.88
486.645	1057.88
486.863	1074.88
487.081	1069.88
487.299	1060.88
487.517	1035.88
487.735	1037.88
487.953	1040.88
488.171	1089.88
488.389	1047.88
488.607	1043.88
488.825	1033.88
489.043	1039.88
489.261	1021.88
489.479	1017.88
489.696	1059.88
489.914	1042.88
490.132	1054.88
490.35	1022.88
490.568	1035.88
490.786	1029.88
491.003	1047.88
491.221	1055.88
491.439	1032.88
491.657	1045.88
491.874	1051.88
492.092	1066.88
492.31	1069.88
492.527	1040.88
492.745	1085.88
492.963	1076.88
493.18	1066.88
493.398	1085.88
493.615	1103.88
493.833	1099.88
494.05	1084.88
494.268	1110.88
494.485	1089.88
494.703	1087.88
494.92	1107.88
495.138	1098.88
495.355	1085.88
495.573	1069.88
495.79	1106.88
496.008	1087.88
496.225	1099.88
496.442	1119.88
496.66	1161.88
496.877	1133.88
497.094	1171.88
497.312	1179.88
497.529	1183.88
497.746	1215.88
497.963	1271.88
498.181	1331.88
498.398	1370.88
498.615	1421.88
498.832	1523.88
499.049	1674.88
499.267	1803.88
499.484	1999.88
499.701	2234.88
499.918	2473.88
500.135	2825.88
500.352	3283.88
500.569	3528.88
500.786	3481.88
501.003	3174.88
501.22	2806.88
501.437	2449.88
501.654	2125.88
501.871	2001.88
502.088	1761.88
502.305	1655.88
502.522	1560.88
502.739	1534.88
502.956	1440.88
503.172	1370.88
503.389	1315.88
503.606	1260.88
503.823	1240.88
504.04	1230.88
504.256	1267.88
504.473	1307.88
504.69	1340.88
504.907	1321.88
505.123	1229.88
505.34	1150.88
505.557	1094.88
505.773	1066.88
505.99	1046.88
506.207	1030.88
506.423	1031.88
506.64	964.88
506.856	989.88
507.073	996.88
507.289	958.88
507.506	956.88
507.722	962.88
507.939	961.88
508.155	928.88
508.372	956.88
508.588	965.88
508.805	943.88
509.021	924.88
509.238	934.88
509.454	900.88
509.67	919.88
509.887	903.88
510.103	926.88
510.319	885.88
510.536	907.88
510.752	917.88
510.968	899.88
511.184	897.88
511.401	889.88
511.617	889.88
511.833	883.88
512.049	883.88
512.265	882.88
512.481	870.88
512.698	894.88
512.914	871.88
513.13	855.88
513.346	908.88
513.562	878.88
513.778	937.88
513.994	899.88
514.21	905.88
514.426	919.88
514.642	907.88
514.858	923.88
515.074	929.88
515.29	911.88
515.506	921.88
515.721	939.88
515.937	956.88
516.153	977.88
516.369	980.88
516.585	1022.88
516.801	1063.88
517.016	1095.88
517.232	1167.88
517.448	1195.88
517.664	1267.88
517.879	1259.88
518.095	1271.88
518.311	1214.88
518.527	1178.88
518.742	1130.88
518.958	1059.88
519.173	1037.88
519.389	1027.88
519.605	990.88
519.82	965.88
520.036	941.88
520.251	930.88
520.467	896.88
520.682	909.88
520.898	883.88
521.113	881.88
521.329	894.88
521.544	858.88
521.76	873.88
521.975	857.88
522.19	858.88
522.406	854.88
522.621	846.88
522.836	837.88
523.052	844.88
523.267	861.88
523.482	841.88
523.698	836.88
523.913	848.88
524.128	845.88
524.343	822.88
524.559	841.88
524.774	805.88
524.989	825.88
525.204	840.88
525.419	801.88
525.634	797.88
525.849	807.88
526.064	827.88
526.28	814.88
526.495	823.88
526.71	807.88
526.925	803.88
527.14	801.88
527.355	792.88
527.57	823.88
527.785	805.88
527.999	807.88
528.214	825.88
528.429	809.88
528.644	814.88
528.859	822.88
529.074	822.88
529.289	813.88
529.503	829.88
529.718	830.88
529.933	825.88
530.148	773.88
530.363	802.88
530.577	815.88
530.792	820.88
531.007	802.88
531.221	813.88
531.436	787.88
531.651	813.88
531.865	823.88
532.08	809.88
532.295	801.88
532.509	835.88
532.724	828.88
532.938	821.88
533.153	796.88
533.367	829.88
533.582	797.88
533.796	772.88
534.011	793.88
534.225	819.88
534.44	803.88
534.654	791.88
534.868	805.88
535.083	801.88
535.297	803.88
535.511	798.88
535.726	760.88
535.94	795.88
536.154	778.88
536.369	777.88
536.583	770.88
536.797	734.88
537.011	759.88
537.225	771.88
537.44	737.88
537.654	759.88
537.868	734.88
538.082	765.88
538.296	742.88
538.51	731.88
538.724	744.88
538.938	765.88
539.153	745.88
539.367	754.88
539.581	718.88
539.795	718.88
540.009	727.88
540.222	734.88
540.436	717.88
540.65	691.88
540.864	738.88
541.078	730.88
541.292	741.88
541.506	738.88
541.72	708.88
541.934	719.88
542.147	735.88
542.361	721.88
542.575	730.88
542.789	737.88
543.002	726.88
543.216	702.88
543.43	722.88
543.644	703.88
543.857	694.88
544.071	715.88
544.285	715.88
544.498	707.88
544.712	695.88
544.925	713.88
545.139	752.88
545.352	755.88
545.566	742.88
545.779	759.88
545.993	749.88
546.206	739.88
546.42	714.88
546.633	740.88
546.847	731.88
547.06	731.88
547.274	719.88
547.487	730.88
547.7	729.88
547.914	731.88
548.127	706.88
548.34	753.88
548.554	741.88
548.767	734.88
548.98	730.88
549.193	750.88
549.407	745.88
549.62	760.88
549.833	790.88
550.046	766.88
550.259	757.88
550.473	717.88
550.686	724.88
550.899	730.88
551.112	716.88
551.325	716.88
551.538	730.88
551.751	731.88
551.964	729.88
552.177	726.88
552.39	745.88
552.603	765.88
552.816	784.88
553.029	810.88
553.242	833.88
553.455	840.88
553.667	838.88
553.88	800.88
554.093	781.88
554.306	758.88
554.519	747.88
554.732	756.88
554.944	699.88
555.157	691.88
555.37	693.88
555.583	696.88
555.795	711.88
556.008	649.88
556.221	697.88
556.433	653.88
556.646	653.88
556.859	668.88
557.071	650.88
557.284	648.88
557.496	643.88
557.709	627.88
557.921	604.88
558.134	649.88
558.346	625.88
558.559	621.88
558.771	635.88
558.984	630.88
559.196	617.88
559.409	619.88
559.621	616.88
559.833	610.88
560.046	620.88
560.258	610.88
560.47	623.88
560.683	594.88
560.895	613.88
561.107	614.88
561.32	604.88
561.532	621.88
561.744	607.88
561.956	629.88
562.168	618.88
562.381	607.88
562.593	611.88
562.805	627.88
563.017	651.88
563.229	610.88
563.441	641.88
563.653	626.88
563.865	629.88
564.077	621.88
564.289	633.88
564.501	648.88
564.713	638.88
564.925	649.88
565.137	651.88
565.349	687.88
565.561	712.88
565.773	703.88
565.985	778.88
566.197	827.88
566.408	847.88
566.62	938.88
566.832	1019.88
567.044	1027.88
567.255	1042.88
567.467	1044.88
567.679	1122.88
567.891	1226.88
568.102	1246.88
568.314	1234.88
568.526	1047.88
568.737	939.88
568.949	858.88
569.161	779.88
569.372	725.88
569.584	708.88
569.795	657.88
570.007	673.88
570.218	638.88
570.43	633.88
570.641	621.88
570.853	632.88
571.064	627.88
571.276	635.88
571.487	628.88
571.698	609.88
571.91	593.88
572.121	580.88
572.333	556.88
572.544	520.88
572.755	527.88
572.966	543.88
573.178	537.88
573.389	531.88
573.6	538.88
573.811	520.88
574.023	533.88
574.234	531.88
574.445	531.88
574.656	507.88
574.867	517.88
575.078	519.88
575.289	521.88
575.501	479.88
575.712	485.88
575.923	476.88
576.134	481.88
576.345	494.88
576.556	486.88
576.767	476.88
576.978	481.88
577.188	492.88
577.399	456.88
577.61	461.88
577.821	464.88
578.032	464.88
578.243	464.88
578.454	468.88
578.665	443.88
578.875	462.88
579.086	452.88
579.297	462.88
579.508	453.88
579.718	458.88
579.929	445.88
580.14	469.88
580.35	442.88
580.561	441.88
580.772	446.88
580.982	427.88
581.193	426.88
581.403	431.88
581.614	435.88
581.825	440.88
582.035	439.88
582.246	435.88
582.456	447.88
582.667	434.88
582.877	455.88
583.087	430.88
583.298	428.88
583.508	408.88
583.719	427.88
583.929	417.88
584.139	425.88
584.35	437.88
584.56	416.88
584.77	406.88
584.981	435.88
585.191	422.88
585.401	414.88
585.611	391.88
585.821	426.88
586.032	424.88
586.242	424.88
586.452	428.88
586.662	414.88
586.872	426.88
587.082	413.88
587.292	395.88
587.502	407.88
587.713	402.88
587.923	396.88
588.133	417.88
588.343	419.88
588.553	399.88
588.762	414.88
588.972	403.88
589.182	405.88
589.392	378.88
589.602	404.88
589.812	409.88
590.022	424.88
590.232	406.88
590.441	393.88
590.651	406.88
590.861	412.88
591.071	394.88
591.281	410.88
591.49	423.88
591.7	435.88
591.91	445.88
592.119	456.88
592.329	446.88
592.539	492.88
592.748	494.88
592.958	507.88
593.167	503.88
593.377	517.88
593.587	518.88
593.796	530.88
594.006	542.88
594.215	555.88
594.424	546.88
594.634	536.88
594.843	522.88
595.053	472.88
595.262	486.88
595.472	437.88
595.681	430.88
595.89	414.88
596.1	417.88
596.309	391.88
596.518	388.88
596.727	400.88
596.937	404.88
597.146	379.88
597.355	373.88
597.564	386.88
597.774	381.88
597.983	372.88
598.192	374.88
598.401	393.88
598.61	369.88
598.819	374.88
599.028	368.88
599.237	364.88
599.446	369.88
599.655	364.88
599.864	355.88
600.073	354.88
600.282	351.88
600.491	345.88
600.7	355.88
600.909	325.88
601.118	332.88
601.327	357.88
601.536	336.88
601.745	344.88
601.953	342.88
602.162	343.88
602.371	338.88
602.58	349.88
602.789	337.88
602.997	352.88
603.206	335.88
603.415	337.88
603.623	321.88
603.832	322.88
604.041	332.88
604.249	315.88
604.458	336.88
604.666	320.88
604.875	323.88
605.084	313.88
605.292	346.88
605.501	323.88
605.709	321.88
605.918	317.88
606.126	323.88
606.334	314.88
606.543	328.88
606.751	345.88
606.96	331.88
607.168	331.88
607.376	330.88
607.585	324.88
607.793	335.88
608.001	323.88
608.21	303.88
608.418	307.88
608.626	323.88
608.834	316.88
609.043	309.88
609.251	298.88
609.459	315.88
609.667	303.88
609.875	299.88
610.083	312.88
610.291	317.88
610.499	298.88
610.707	327.88
610.916	322.88
611.124	313.88
611.332	299.88
611.54	314.88
611.748	299.88
611.955	296.88
612.163	327.88
612.371	305.88
612.579	302.88
612.787	313.88
612.995	312.88
613.203	309.88
613.411	312.88
613.618	310.88
613.826	299.88
614.034	309.88
614.242	300.88
614.449	293.88
614.657	312.88
614.865	305.88
615.072	309.88
615.28	314.88
615.488	313.88
615.695	302.88
615.903	289.88
616.111	311.88
616.318	322.88
616.526	318.88
616.733	303.88
616.941	310.88
617.148	289.88
617.356	323.88
617.563	312.88
617.771	294.88
617.978	291.88
618.185	281.88
618.393	316.88
618.6	312.88
618.807	293.88
619.015	297.88
619.222	299.88
619.429	315.88
619.637	294.88
619.844	285.88
620.051	290.88
620.258	294.88
620.466	296.88
620.673	304.88
620.88	267.88
621.087	275.88
621.294	286.88
621.501	286.88
621.708	276.88
621.915	281.88
622.122	293.88
622.329	271.88
622.536	270.88
622.743	267.88
622.95	289.88
623.157	277.88
623.364	275.88
623.571	279.88
623.778	278.88
623.985	263.88
624.192	252.88
624.399	280.88
624.606	271.88
624.812	266.88
625.019	251.88
625.226	249.88
625.433	250.88
625.639	249.88
625.846	256.88
626.053	248.88
626.259	249.88
626.466	243.88
626.673	266.88
626.879	269.88
627.086	265.88
627.293	231.88
627.499	245.88
627.706	245.88
627.912	240.88
628.119	259.88
628.325	242.88
628.532	244.88
628.738	249.88
628.945	232.88
629.151	245.88
629.357	245.88
629.564	234.88
629.77	242.88
629.976	225.88
630.183	231.88
630.389	245.88
630.595	233.88
630.802	235.88
631.008	231.88
631.214	230.88
631.42	238.88
631.627	221.88
631.833	220.88
632.039	229.88
632.245	221.88
632.451	210.88
632.657	230.88
632.863	226.88
633.069	243.88
633.275	235.88
633.481	216.88
633.688	222.88
633.893	214.88
634.099	206.88
634.305	217.88
634.511	231.88
634.717	229.88
634.923	214.88
635.129	217.88
635.335	232.88
635.541	234.88
635.747	219.88
635.952	221.88
636.158	218.88
636.364	235.88
636.57	223.88
636.775	221.88
636.981	210.88
637.187	213.88
637.392	218.88
637.598	201.88
637.804	221.88
638.009	210.88
638.215	210.88
638.421	219.88
638.626	201.88
638.832	217.88
639.037	211.88
639.243	206.88
639.448	211.88
639.654	214.88
639.859	219.88
640.065	195.88
640.27	199.88
640.475	213.88
640.681	203.88
640.886	197.88
641.091	200.88
641.297	211.88
641.502	214.88
641.707	194.88
641.913	202.88
642.118	214.88
642.323	198.88
642.528	200.88
642.733	204.88
642.939	201.88
643.144	194.88
643.349	210.88
643.554	199.88
643.759	198.88
643.964	201.88
644.169	193.88
644.374	196.88
644.579	207.88
644.784	193.88
644.989	192.88
645.194	197.88
645.399	180.88
645.604	202.88
645.809	184.88
646.014	186.88
646.219	202.88
646.423	193.88
646.628	201.88
646.833	203.88
647.038	216.88
647.243	210.88
647.447	205.88
647.652	215.88
647.857	219.88
648.062	192.88
648.266	216.88
648.471	223.88
648.676	208.88
648.88	209.88
649.085	210.88
649.289	211.88
649.494	199.88
649.698	197.88
649.903	201.88
650.107	188.88
650.312	187.88
650.516	178.88
650.721	181.88
650.925	180.88
651.13	186.88
651.334	173.88
651.539	169.88
651.743	165.88
651.947	184.88
652.152	163.88
652.356	165.88
652.56	180.88
652.764	172.88
652.969	166.88
653.173	160.88
653.377	170.88
653.581	159.88
653.785	161.88
653.99	155.88
654.194	149.88
654.398	163.88
654.602	144.88
654.806	152.88
655.01	144.88
655.214	152.88
655.418	150.88
655.622	155.88
655.826	144.88
656.03	157.88
656.234	153.88
656.438	169.88
656.642	154.88
656.846	163.88
657.049	153.88
657.253	121.88
657.457	126.88
657.661	129.88
657.865	121.88
658.068	122.88
658.272	113.88
658.476	125.88
658.68	122.88
658.883	109.88
659.087	103.88
659.291	125.88
659.494	117.88
659.698	98.88
659.901	105.88
660.105	110.88
660.309	103.88
660.512	106.88
660.716	102.88
660.919	107.88
661.123	98.88
661.326	90.88
661.53	91.88
661.733	109.88
661.936	102.88
662.14	79.88
662.343	87.88
662.546	94.88
662.75	105.88
662.953	92.88
663.156	79.88
663.36	89.88
663.563	86.88
663.766	87.88
663.969	78.88
664.173	88.88
664.376	90.88
664.579	83.88
664.782	84.88
664.985	76.88
665.188	85.88
665.391	77.88
665.594	69.88
665.797	70.88
666	75.88
666.203	69.88
666.406	88.88
666.609	81.88
666.812	95.88
667.015	103.88
667.218	73.88
667.421	68.88
667.624	81.88
667.827	86.88
668.03	68.88
668.232	100.88
668.435	78.88
668.638	84.88
668.841	77.88
669.043	84.88
669.246	82.88
669.449	91.88
669.651	75.88
669.854	74.88
670.057	79.88
670.259	78.88
670.462	90.88
670.665	66.88
670.867	97.88
671.07	93.88
671.272	80.88
671.475	78.88
671.677	90.88
671.88	82.88
672.082	97.88
672.284	85.88
672.487	98.88
672.689	63.88
672.892	71.88
