Data from Ni(NO3)2@0.25M.TitratingCurve.Agarose3%dH2O.NegLispCup.LampEnergy10.LIBS07252019_HRD10591_18-05-47-566.txt Node
Date: Thu Jul 25 18:05:47 EDT 2019
User: cochatt
Spectrometer: HR+D1059
Trigger mode: 1
Integration Time (sec): 1.000000E-1
Scans to average: 1
Electric dark correction enabled: true
Nonlinearity correction enabled: false
Boxcar width: 0
XAxis mode: Wavelengths
Number of Pixels in Spectrum: 2048
>>>>>Begin Spectral Data<<<<<
223.165	-27.19
223.4	-27.19
223.635	-27.19
223.869	-24.19
224.104	-35.19
224.338	-12.19
224.573	-12.19
224.808	-11.19
225.042	1.81
225.277	-2.19
225.511	-4.19
225.746	2.81
225.98	-2.19
226.215	20.81
226.449	22.81
226.683	21.81
226.918	26.81
227.152	33.81
227.387	41.81
227.621	24.81
227.856	35.81
228.09	41.81
228.324	59.81
228.559	54.81
228.793	62.81
229.027	119.81
229.262	114.81
229.496	112.81
229.73	125.81
229.964	108.81
230.199	129.81
230.433	147.81
230.667	136.81
230.901	122.81
231.136	118.81
231.37	134.81
231.604	137.81
231.838	135.81
232.072	153.81
232.306	139.81
232.541	137.81
232.775	146.81
233.009	156.81
233.243	168.81
233.477	156.81
233.711	159.81
233.945	151.81
234.179	141.81
234.413	149.81
234.647	167.81
234.881	143.81
235.115	152.81
235.349	162.81
235.583	146.81
235.817	167.81
236.051	141.81
236.285	160.81
236.519	159.81
236.753	162.81
236.987	153.81
237.221	168.81
237.455	172.81
237.689	160.81
237.922	160.81
238.156	166.81
238.39	172.81
238.624	182.81
238.858	179.81
239.091	175.81
239.325	171.81
239.559	163.81
239.793	168.81
240.027	187.81
240.26	179.81
240.494	195.81
240.728	177.81
240.961	177.81
241.195	181.81
241.429	188.81
241.662	184.81
241.896	208.81
242.13	199.81
242.363	209.81
242.597	184.81
242.83	205.81
243.064	196.81
243.298	206.81
243.531	216.81
243.765	207.81
243.998	202.81
244.232	208.81
244.465	243.81
244.699	221.81
244.932	199.81
245.166	220.81
245.399	225.81
245.633	231.81
245.866	228.81
246.099	240.81
246.333	236.81
246.566	234.81
246.8	251.81
247.033	241.81
247.266	247.81
247.5	253.81
247.733	242.81
247.966	242.81
248.2	240.81
248.433	264.81
248.666	256.81
248.899	260.81
249.133	257.81
249.366	268.81
249.599	272.81
249.832	257.81
250.066	263.81
250.299	279.81
250.532	271.81
250.765	272.81
250.998	284.81
251.231	277.81
251.465	303.81
251.698	303.81
251.931	276.81
252.164	287.81
252.397	302.81
252.63	309.81
252.863	314.81
253.096	321.81
253.329	315.81
253.562	307.81
253.795	323.81
254.028	323.81
254.261	303.81
254.494	328.81
254.727	336.81
254.96	326.81
255.193	315.81
255.426	331.81
255.659	337.81
255.892	339.81
256.124	326.81
256.357	337.81
256.59	337.81
256.823	333.81
257.056	339.81
257.289	342.81
257.521	358.81
257.754	339.81
257.987	347.81
258.22	342.81
258.452	362.81
258.685	359.81
258.918	349.81
259.151	364.81
259.383	361.81
259.616	362.81
259.849	349.81
260.081	376.81
260.314	367.81
260.547	387.81
260.779	363.81
261.012	363.81
261.244	385.81
261.477	381.81
261.71	378.81
261.942	379.81
262.175	354.81
262.407	373.81
262.64	384.81
262.872	390.81
263.105	393.81
263.337	392.81
263.57	383.81
263.802	406.81
264.035	400.81
264.267	414.81
264.499	405.81
264.732	418.81
264.964	397.81
265.197	400.81
265.429	424.81
265.661	414.81
265.894	409.81
266.126	413.81
266.358	408.81
266.591	407.81
266.823	425.81
267.055	437.81
267.287	434.81
267.52	431.81
267.752	420.81
267.984	425.81
268.216	415.81
268.448	434.81
268.681	437.81
268.913	431.81
269.145	438.81
269.377	425.81
269.609	438.81
269.841	461.81
270.073	455.81
270.306	431.81
270.538	449.81
270.77	452.81
271.002	454.81
271.234	448.81
271.466	448.81
271.698	468.81
271.93	441.81
272.162	453.81
272.394	471.81
272.626	462.81
272.858	446.81
273.09	474.81
273.322	468.81
273.553	476.81
273.785	464.81
274.017	472.81
274.249	480.81
274.481	478.81
274.713	485.81
274.945	489.81
275.176	503.81
275.408	484.81
275.64	507.81
275.872	495.81
276.104	502.81
276.335	503.81
276.567	511.81
276.799	502.81
277.031	492.81
277.262	470.81
277.494	521.81
277.726	500.81
277.957	527.81
278.189	519.81
278.421	503.81
278.652	496.81
278.884	515.81
279.115	513.81
279.347	522.81
279.579	524.81
279.81	524.81
280.042	528.81
280.273	517.81
280.505	531.81
280.736	537.81
280.968	520.81
281.199	542.81
281.431	545.81
281.662	543.81
281.894	563.81
282.125	534.81
282.356	547.81
282.588	566.81
282.819	551.81
283.051	553.81
283.282	560.81
283.513	561.81
283.745	566.81
283.976	560.81
284.207	542.81
284.439	541.81
284.67	565.81
284.901	548.81
285.132	559.81
285.364	548.81
285.595	592.81
285.826	565.81
286.057	589.81
286.288	539.81
286.52	552.81
286.751	569.81
286.982	590.81
287.213	575.81
287.444	588.81
287.675	589.81
287.906	580.81
288.138	605.81
288.369	589.81
288.6	589.81
288.831	600.81
289.062	584.81
289.293	589.81
289.524	576.81
289.755	585.81
289.986	610.81
290.217	596.81
290.448	612.81
290.679	599.81
290.91	594.81
291.141	610.81
291.371	592.81
291.602	597.81
291.833	590.81
292.064	603.81
292.295	600.81
292.526	585.81
292.757	587.81
292.987	611.81
293.218	556.81
293.449	606.81
293.68	595.81
293.91	605.81
294.141	592.81
294.372	626.81
294.603	601.81
294.833	597.81
295.064	623.81
295.295	567.81
295.525	580.81
295.756	613.81
295.987	595.81
296.217	631.81
296.448	616.81
296.679	629.81
296.909	609.81
297.14	631.81
297.37	647.81
297.601	635.81
297.831	641.81
298.062	643.81
298.292	645.81
298.523	684.81
298.753	655.81
298.984	646.81
299.214	664.81
299.445	651.81
299.675	641.81
299.905	669.81
300.136	633.81
300.366	679.81
300.597	678.81
300.827	663.81
301.057	673.81
301.288	676.81
301.518	659.81
301.748	685.81
301.979	693.81
302.209	716.81
302.439	671.81
302.669	689.81
302.9	693.81
303.13	682.81
303.36	658.81
303.59	687.81
303.82	693.81
304.051	685.81
304.281	689.81
304.511	677.81
304.741	690.81
304.971	697.81
305.201	690.81
305.431	705.81
305.661	690.81
305.891	687.81
306.121	688.81
306.352	677.81
306.582	680.81
306.812	684.81
307.042	684.81
307.272	661.81
307.502	654.81
307.731	658.81
307.961	661.81
308.191	676.81
308.421	684.81
308.651	671.81
308.881	675.81
309.111	650.81
309.341	650.81
309.571	654.81
309.8	697.81
310.03	697.81
310.26	692.81
310.49	699.81
310.72	726.81
310.949	708.81
311.179	695.81
311.409	684.81
311.639	682.81
311.868	724.81
312.098	714.81
312.328	731.81
312.557	700.81
312.787	708.81
313.017	722.81
313.246	735.81
313.476	737.81
313.706	752.81
313.935	735.81
314.165	739.81
314.394	733.81
314.624	743.81
314.853	713.81
315.083	740.81
315.312	731.81
315.542	746.81
315.771	729.81
316.001	715.81
316.23	746.81
316.46	759.81
316.689	771.81
316.919	735.81
317.148	720.81
317.377	744.81
317.607	732.81
317.836	754.81
318.065	727.81
318.295	769.81
318.524	748.81
318.753	759.81
318.983	731.81
319.212	723.81
319.441	746.81
319.67	751.81
319.9	747.81
320.129	777.81
320.358	753.81
320.587	757.81
320.816	748.81
321.046	775.81
321.275	779.81
321.504	764.81
321.733	770.81
321.962	769.81
322.191	779.81
322.42	772.81
322.649	775.81
322.878	772.81
323.108	788.81
323.337	800.81
323.566	777.81
323.795	812.81
324.024	800.81
324.253	809.81
324.482	776.81
324.71	800.81
324.939	826.81
325.168	810.81
325.397	799.81
325.626	821.81
325.855	806.81
326.084	858.81
326.313	855.81
326.542	880.81
326.77	865.81
326.999	851.81
327.228	863.81
327.457	861.81
327.686	847.81
327.914	828.81
328.143	862.81
328.372	870.81
328.6	875.81
328.829	841.81
329.058	860.81
329.287	879.81
329.515	865.81
329.744	887.81
329.972	869.81
330.201	899.81
330.43	889.81
330.658	895.81
330.887	902.81
331.115	932.81
331.344	916.81
331.572	936.81
331.801	960.81
332.03	964.81
332.258	971.81
332.486	970.81
332.715	997.81
332.943	1020.81
333.172	993.81
333.4	1064.81
333.629	1056.81
333.857	1098.81
334.085	1093.81
334.314	1101.81
334.542	1135.81
334.771	1107.81
334.999	1106.81
335.227	1129.81
335.455	1129.81
335.684	1119.81
335.912	1119.81
336.14	1090.81
336.369	1095.81
336.597	1096.81
336.825	1101.81
337.053	1122.81
337.281	1093.81
337.51	1059.81
337.738	1035.81
337.966	1045.81
338.194	1017.81
338.422	1021.81
338.65	983.81
338.878	996.81
339.106	985.81
339.334	1010.81
339.562	1002.81
339.79	943.81
340.018	961.81
340.246	926.81
340.474	950.81
340.702	931.81
340.93	969.81
341.158	991.81
341.386	961.81
341.614	987.81
341.842	970.81
342.07	951.81
342.298	922.81
342.526	982.81
342.754	945.81
342.981	925.81
343.209	957.81
343.437	1008.81
343.665	1026.81
343.893	1053.81
344.12	1085.81
344.348	1077.81
344.576	1048.81
344.804	1061.81
345.031	1042.81
345.259	996.81
345.487	961.81
345.714	943.81
345.942	931.81
346.17	984.81
346.397	975.81
346.625	960.81
346.853	916.81
347.08	906.81
347.308	917.81
347.535	922.81
347.763	909.81
347.99	930.81
348.218	899.81
348.445	924.81
348.673	920.81
348.9	906.81
349.128	947.81
349.355	898.81
349.583	919.81
349.81	923.81
350.037	902.81
350.265	867.81
350.492	899.81
350.72	882.81
350.947	886.81
351.174	887.81
351.402	899.81
351.629	924.81
351.856	906.81
352.083	889.81
352.311	896.81
352.538	927.81
352.765	914.81
352.992	873.81
353.22	863.81
353.447	896.81
353.674	847.81
353.901	862.81
354.128	856.81
354.355	864.81
354.583	895.81
354.81	859.81
355.037	860.81
355.264	883.81
355.491	850.81
355.718	843.81
355.945	868.81
356.172	870.81
356.399	885.81
356.626	883.81
356.853	924.81
357.08	901.81
357.307	864.81
357.534	860.81
357.761	893.81
357.988	875.81
358.215	866.81
358.441	860.81
358.668	870.81
358.895	864.81
359.122	874.81
359.349	864.81
359.576	887.81
359.802	889.81
360.029	873.81
360.256	876.81
360.483	901.81
360.709	883.81
360.936	895.81
361.163	854.81
361.39	892.81
361.616	892.81
361.843	887.81
362.07	923.81
362.296	920.81
362.523	860.81
362.749	874.81
362.976	871.81
363.203	871.81
363.429	872.81
363.656	875.81
363.882	875.81
364.109	883.81
364.335	849.81
364.562	875.81
364.788	887.81
365.015	855.81
365.241	885.81
365.468	887.81
365.694	870.81
365.92	879.81
366.147	848.81
366.373	885.81
366.599	860.81
366.826	857.81
367.052	871.81
367.278	882.81
367.505	881.81
367.731	882.81
367.957	869.81
368.184	852.81
368.41	873.81
368.636	870.81
368.862	868.81
369.089	871.81
369.315	876.81
369.541	903.81
369.767	879.81
369.993	922.81
370.219	885.81
370.445	923.81
370.672	921.81
370.898	911.81
371.124	931.81
371.35	939.81
371.576	928.81
371.802	925.81
372.028	940.81
372.254	918.81
372.48	942.81
372.706	970.81
372.932	952.81
373.158	956.81
373.384	954.81
373.61	936.81
373.835	956.81
374.061	944.81
374.287	953.81
374.513	931.81
374.739	999.81
374.965	991.81
375.191	995.81
375.416	1027.81
375.642	987.81
375.868	982.81
376.094	964.81
376.319	972.81
376.545	952.81
376.771	932.81
376.997	915.81
377.222	939.81
377.448	928.81
377.674	905.81
377.899	932.81
378.125	919.81
378.35	914.81
378.576	929.81
378.802	879.81
379.027	917.81
379.253	938.81
379.478	933.81
379.704	921.81
379.929	927.81
380.155	927.81
380.38	890.81
380.606	938.81
380.831	912.81
381.057	939.81
381.282	946.81
381.507	929.81
381.733	927.81
381.958	949.81
382.184	954.81
382.409	958.81
382.634	972.81
382.86	956.81
383.085	967.81
383.31	979.81
383.535	961.81
383.761	969.81
383.986	1017.81
384.211	1005.81
384.436	1035.81
384.662	1030.81
384.887	1044.81
385.112	1031.81
385.337	1052.81
385.562	1071.81
385.787	1066.81
386.013	1074.81
386.238	1090.81
386.463	1101.81
386.688	1109.81
386.913	1050.81
387.138	1106.81
387.363	1079.81
387.588	1075.81
387.813	1105.81
388.038	1096.81
388.263	1082.81
388.488	1088.81
388.713	1129.81
388.938	1097.81
389.163	1084.81
389.387	1116.81
389.612	1086.81
389.837	1075.81
390.062	1100.81
390.287	1131.81
390.512	1105.81
390.736	1103.81
390.961	1114.81
391.186	1131.81
391.411	1155.81
391.636	1151.81
391.86	1195.81
392.085	1217.81
392.31	1207.81
392.534	1199.81
392.759	1209.81
392.984	1200.81
393.208	1153.81
393.433	1189.81
393.658	1194.81
393.882	1177.81
394.107	1189.81
394.331	1152.81
394.556	1177.81
394.78	1149.81
395.005	1189.81
395.229	1200.81
395.454	1188.81
395.678	1239.81
395.903	1219.81
396.127	1235.81
396.352	1195.81
396.576	1195.81
396.801	1203.81
397.025	1196.81
397.249	1241.81
397.474	1251.81
397.698	1272.81
397.922	1307.81
398.147	1329.81
398.371	1294.81
398.595	1340.81
398.82	1395.81
399.044	1442.81
399.268	1521.81
399.492	1647.81
399.717	1712.81
399.941	1743.81
400.165	1748.81
400.389	1666.81
400.613	1567.81
400.837	1530.81
401.062	1481.81
401.286	1434.81
401.51	1415.81
401.734	1403.81
401.958	1430.81
402.182	1376.81
402.406	1385.81
402.63	1389.81
402.854	1414.81
403.078	1391.81
403.302	1412.81
403.526	1414.81
403.75	1451.81
403.974	1443.81
404.198	1439.81
404.422	1445.81
404.645	1455.81
404.869	1425.81
405.093	1479.81
405.317	1474.81
405.541	1463.81
405.765	1442.81
405.988	1493.81
406.212	1506.81
406.436	1508.81
406.66	1559.81
406.883	1547.81
407.107	1608.81
407.331	1644.81
407.555	1663.81
407.778	1714.81
408.002	1651.81
408.226	1683.81
408.449	1644.81
408.673	1607.81
408.896	1608.81
409.12	1549.81
409.344	1601.81
409.567	1537.81
409.791	1551.81
410.014	1549.81
410.238	1550.81
410.461	1541.81
410.685	1521.81
410.908	1448.81
411.132	1500.81
411.355	1453.81
411.578	1428.81
411.802	1462.81
412.025	1431.81
412.249	1461.81
412.472	1501.81
412.695	1417.81
412.919	1418.81
413.142	1424.81
413.365	1419.81
413.589	1422.81
413.812	1404.81
414.035	1369.81
414.258	1386.81
414.482	1444.81
414.705	1423.81
414.928	1417.81
415.151	1398.81
415.374	1417.81
415.597	1417.81
415.821	1362.81
416.044	1365.81
416.267	1359.81
416.49	1365.81
416.713	1385.81
416.936	1360.81
417.159	1362.81
417.382	1339.81
417.605	1380.81
417.828	1335.81
418.051	1384.81
418.274	1377.81
418.497	1364.81
418.72	1375.81
418.943	1381.81
419.166	1458.81
419.389	1555.81
419.611	1539.81
419.834	1497.81
420.057	1444.81
420.28	1407.81
420.503	1357.81
420.726	1354.81
420.948	1355.81
421.171	1389.81
421.394	1369.81
421.617	1351.81
421.839	1375.81
422.062	1384.81
422.285	1315.81
422.507	1403.81
422.73	1364.81
422.953	1376.81
423.175	1377.81
423.398	1386.81
423.621	1341.81
423.843	1380.81
424.066	1401.81
424.288	1372.81
424.511	1351.81
424.733	1359.81
424.956	1370.81
425.178	1375.81
425.401	1378.81
425.623	1386.81
425.846	1344.81
426.068	1361.81
426.291	1340.81
426.513	1306.81
426.735	1338.81
426.958	1345.81
427.18	1288.81
427.402	1312.81
427.625	1290.81
427.847	1290.81
428.069	1291.81
428.292	1305.81
428.514	1265.81
428.736	1300.81
428.958	1331.81
429.181	1271.81
429.403	1256.81
429.625	1256.81
429.847	1298.81
430.069	1244.81
430.292	1257.81
430.514	1233.81
430.736	1250.81
430.958	1279.81
431.18	1261.81
431.402	1263.81
431.624	1293.81
431.846	1302.81
432.068	1279.81
432.29	1320.81
432.512	1279.81
432.734	1313.81
432.956	1261.81
433.178	1285.81
433.4	1311.81
433.622	1309.81
433.844	1341.81
434.066	1295.81
434.287	1314.81
434.509	1332.81
434.731	1345.81
434.953	1364.81
435.175	1360.81
435.397	1378.81
435.618	1320.81
435.84	1344.81
436.062	1300.81
436.284	1302.81
436.505	1297.81
436.727	1300.81
436.949	1292.81
437.17	1259.81
437.392	1282.81
437.614	1259.81
437.835	1225.81
438.057	1261.81
438.278	1202.81
438.5	1232.81
438.721	1221.81
438.943	1265.81
439.165	1235.81
439.386	1239.81
439.608	1268.81
439.829	1242.81
440.05	1253.81
440.272	1296.81
440.493	1291.81
440.715	1288.81
440.936	1322.81
441.158	1324.81
441.379	1343.81
441.6	1362.81
441.822	1355.81
442.043	1397.81
442.264	1371.81
442.486	1367.81
442.707	1380.81
442.928	1388.81
443.149	1382.81
443.371	1353.81
443.592	1380.81
443.813	1410.81
444.034	1370.81
444.255	1433.81
444.476	1447.81
444.698	1488.81
444.919	1508.81
445.14	1626.81
445.361	1491.81
445.582	1463.81
445.803	1402.81
446.024	1409.81
446.245	1339.81
446.466	1324.81
446.687	1320.81
446.908	1308.81
447.129	1284.81
447.35	1271.81
447.571	1265.81
447.792	1223.81
448.013	1217.81
448.234	1174.81
448.455	1225.81
448.675	1219.81
448.896	1196.81
449.117	1185.81
449.338	1211.81
449.559	1180.81
449.779	1158.81
450	1164.81
450.221	1178.81
450.442	1188.81
450.662	1222.81
450.883	1172.81
451.104	1204.81
451.324	1194.81
451.545	1186.81
451.766	1166.81
451.986	1160.81
452.207	1178.81
452.428	1152.81
452.648	1148.81
452.869	1137.81
453.089	1119.81
453.31	1133.81
453.53	1155.81
453.751	1119.81
453.971	1125.81
454.192	1106.81
454.412	1089.81
454.633	1100.81
454.853	1113.81
455.073	1104.81
455.294	1114.81
455.514	1127.81
455.734	1101.81
455.955	1067.81
456.175	1091.81
456.395	1089.81
456.616	1104.81
456.836	1077.81
457.056	1113.81
457.276	1083.81
457.497	1097.81
457.717	1120.81
457.937	1121.81
458.157	1121.81
458.377	1110.81
458.598	1153.81
458.818	1197.81
459.038	1204.81
459.258	1269.81
459.478	1301.81
459.698	1299.81
459.918	1361.81
460.138	1396.81
460.358	1392.81
460.578	1433.81
460.798	1443.81
461.018	1493.81
461.238	1453.81
461.458	1482.81
461.678	1463.81
461.898	1489.81
462.118	1515.81
462.338	1603.81
462.558	1602.81
462.777	1618.81
462.997	1702.81
463.217	1783.81
463.437	1785.81
463.657	1757.81
463.876	1711.81
464.096	1695.81
464.316	1643.81
464.536	1675.81
464.755	1601.81
464.975	1559.81
465.195	1546.81
465.414	1448.81
465.634	1352.81
465.854	1354.81
466.073	1319.81
466.293	1299.81
466.512	1253.81
466.732	1260.81
466.951	1224.81
467.171	1225.81
467.391	1185.81
467.61	1223.81
467.829	1217.81
468.049	1209.81
468.268	1216.81
468.488	1179.81
468.707	1163.81
468.927	1191.81
469.146	1183.81
469.365	1208.81
469.585	1196.81
469.804	1209.81
470.023	1228.81
470.243	1220.81
470.462	1242.81
470.681	1219.81
470.901	1295.81
471.12	1257.81
471.339	1227.81
471.558	1208.81
471.777	1229.81
471.997	1250.81
472.216	1221.81
472.435	1191.81
472.654	1193.81
472.873	1225.81
473.092	1174.81
473.311	1170.81
473.53	1167.81
473.749	1157.81
473.968	1178.81
474.187	1157.81
474.406	1155.81
474.625	1173.81
474.844	1176.81
475.063	1187.81
475.282	1165.81
475.501	1173.81
475.72	1183.81
475.939	1186.81
476.158	1226.81
476.377	1223.81
476.596	1207.81
476.814	1246.81
477.033	1236.81
477.252	1270.81
477.471	1299.81
477.69	1263.81
477.908	1358.81
478.127	1352.81
478.346	1363.81
478.564	1376.81
478.783	1385.81
479.002	1433.81
479.22	1435.81
479.439	1427.81
479.658	1429.81
479.876	1445.81
480.095	1465.81
480.313	1453.81
480.532	1438.81
480.751	1463.81
480.969	1456.81
481.188	1397.81
481.406	1411.81
481.624	1405.81
481.843	1363.81
482.061	1379.81
482.28	1351.81
482.498	1335.81
482.717	1343.81
482.935	1374.81
483.153	1369.81
483.372	1378.81
483.59	1370.81
483.808	1391.81
484.027	1355.81
484.245	1383.81
484.463	1360.81
484.681	1378.81
484.9	1347.81
485.118	1371.81
485.336	1384.81
485.554	1414.81
485.772	1395.81
485.99	1401.81
486.209	1435.81
486.427	1400.81
486.645	1411.81
486.863	1426.81
487.081	1416.81
487.299	1412.81
487.517	1401.81
487.735	1397.81
487.953	1401.81
488.171	1395.81
488.389	1383.81
488.607	1372.81
488.825	1353.81
489.043	1354.81
489.261	1397.81
489.479	1409.81
489.696	1392.81
489.914	1368.81
490.132	1398.81
490.35	1381.81
490.568	1403.81
490.786	1444.81
491.003	1431.81
491.221	1432.81
491.439	1443.81
491.657	1421.81
491.874	1427.81
492.092	1444.81
492.31	1467.81
492.527	1477.81
492.745	1455.81
492.963	1466.81
493.18	1441.81
493.398	1483.81
493.615	1496.81
493.833	1484.81
494.05	1503.81
494.268	1507.81
494.485	1527.81
494.703	1499.81
494.92	1498.81
495.138	1516.81
495.355	1508.81
495.573	1503.81
495.79	1556.81
496.008	1553.81
496.225	1580.81
496.442	1575.81
496.66	1615.81
496.877	1652.81
497.094	1659.81
497.312	1716.81
497.529	1746.81
497.746	1788.81
497.963	1850.81
498.181	1917.81
498.398	1997.81
498.615	2065.81
498.832	2168.81
499.049	2292.81
499.267	2428.81
499.484	2593.81
499.701	2780.81
499.918	2889.81
500.135	3085.81
500.352	3280.81
500.569	3400.81
500.786	3423.81
501.003	3303.81
501.22	3168.81
501.437	2922.81
501.654	2739.81
501.871	2588.81
502.088	2409.81
502.305	2331.81
502.522	2182.81
502.739	2096.81
502.956	2026.81
503.172	1935.81
503.389	1877.81
503.606	1844.81
503.823	1777.81
504.04	1814.81
504.256	1752.81
504.473	1748.81
504.69	1732.81
504.907	1703.81
505.123	1613.81
505.34	1594.81
505.557	1533.81
505.773	1545.81
505.99	1500.81
506.207	1452.81
506.423	1439.81
506.64	1409.81
506.856	1378.81
507.073	1419.81
507.289	1359.81
507.506	1351.81
507.722	1356.81
507.939	1297.81
508.155	1299.81
508.372	1319.81
508.588	1304.81
508.805	1293.81
509.021	1267.81
509.238	1259.81
509.454	1258.81
509.67	1255.81
509.887	1236.81
510.103	1286.81
510.319	1241.81
510.536	1227.81
510.752	1225.81
510.968	1210.81
511.184	1215.81
511.401	1210.81
511.617	1212.81
511.833	1227.81
512.049	1201.81
512.265	1231.81
512.481	1230.81
512.698	1224.81
512.914	1188.81
513.13	1222.81
513.346	1220.81
513.562	1195.81
513.778	1207.81
513.994	1218.81
514.21	1242.81
514.426	1257.81
514.642	1243.81
514.858	1271.81
515.074	1246.81
515.29	1287.81
515.506	1271.81
515.721	1297.81
515.937	1301.81
516.153	1317.81
516.369	1363.81
516.585	1369.81
516.801	1431.81
517.016	1459.81
517.232	1513.81
517.448	1508.81
517.664	1566.81
517.879	1562.81
518.095	1534.81
518.311	1556.81
518.527	1493.81
518.742	1463.81
518.958	1443.81
519.173	1362.81
519.389	1359.81
519.605	1323.81
519.82	1315.81
520.036	1282.81
520.251	1248.81
520.467	1224.81
520.682	1252.81
520.898	1213.81
521.113	1207.81
521.329	1215.81
521.544	1192.81
521.76	1189.81
521.975	1178.81
522.19	1158.81
522.406	1137.81
522.621	1130.81
522.836	1139.81
523.052	1139.81
523.267	1153.81
523.482	1116.81
523.698	1107.81
523.913	1132.81
524.128	1123.81
524.343	1114.81
524.559	1114.81
524.774	1095.81
524.989	1122.81
525.204	1087.81
525.419	1102.81
525.634	1096.81
525.849	1078.81
526.064	1089.81
526.28	1112.81
526.495	1107.81
526.71	1108.81
526.925	1075.81
527.14	1072.81
527.355	1069.81
527.57	1082.81
527.785	1080.81
527.999	1074.81
528.214	1050.81
528.429	1084.81
528.644	1062.81
528.859	1054.81
529.074	1093.81
529.289	1070.81
529.503	1087.81
529.718	1056.81
529.933	1066.81
530.148	1071.81
530.363	1061.81
530.577	1052.81
530.792	1024.81
531.007	1060.81
531.221	1058.81
531.436	1093.81
531.651	1075.81
531.865	1075.81
532.08	1091.81
532.295	1068.81
532.509	1081.81
532.724	1067.81
532.938	1059.81
533.153	1074.81
533.367	1041.81
533.582	1057.81
533.796	1075.81
534.011	1051.81
534.225	1016.81
534.44	1055.81
534.654	1034.81
534.868	1039.81
535.083	1053.81
535.297	1034.81
535.511	1043.81
535.726	1078.81
535.94	1050.81
536.154	1039.81
536.369	992.81
536.583	1009.81
536.797	985.81
537.011	988.81
537.225	968.81
537.44	1031.81
537.654	982.81
537.868	1001.81
538.082	976.81
538.296	974.81
538.51	976.81
538.724	1019.81
538.938	983.81
539.153	983.81
539.367	976.81
539.581	1001.81
539.795	985.81
540.009	961.81
540.222	948.81
540.436	978.81
540.65	962.81
540.864	987.81
541.078	995.81
541.292	980.81
541.506	979.81
541.72	952.81
541.934	976.81
542.147	962.81
542.361	963.81
542.575	965.81
542.789	947.81
543.002	947.81
543.216	952.81
543.43	940.81
543.644	961.81
543.857	963.81
544.071	956.81
544.285	972.81
544.498	965.81
544.712	965.81
544.925	981.81
545.139	963.81
545.352	967.81
545.566	969.81
545.779	966.81
545.993	1007.81
546.206	992.81
546.42	978.81
546.633	979.81
546.847	988.81
547.06	1027.81
547.274	987.81
547.487	1020.81
547.7	1008.81
547.914	991.81
548.127	998.81
548.34	1011.81
548.554	991.81
548.767	1001.81
548.98	1014.81
549.193	995.81
549.407	986.81
549.62	972.81
549.833	977.81
550.046	986.81
550.259	975.81
550.473	999.81
550.686	1002.81
550.899	979.81
551.112	975.81
551.325	971.81
551.538	976.81
551.751	971.81
551.964	989.81
552.177	977.81
552.39	1001.81
552.603	1028.81
552.816	1017.81
553.029	1018.81
553.242	1009.81
553.455	1026.81
553.667	1051.81
553.88	1028.81
554.093	1012.81
554.306	984.81
554.519	995.81
554.732	957.81
554.944	959.81
555.157	950.81
555.37	935.81
555.583	908.81
555.795	916.81
556.008	895.81
556.221	856.81
556.433	883.81
556.646	882.81
556.859	887.81
557.071	863.81
557.284	843.81
557.496	817.81
557.709	845.81
557.921	867.81
558.134	843.81
558.346	864.81
558.559	827.81
558.771	834.81
558.984	825.81
559.196	827.81
559.409	821.81
559.621	829.81
559.833	808.81
560.046	815.81
560.258	859.81
560.47	825.81
560.683	837.81
560.895	830.81
561.107	839.81
561.32	810.81
561.532	830.81
561.744	811.81
561.956	821.81
562.168	819.81
562.381	817.81
562.593	843.81
562.805	824.81
563.017	833.81
563.229	830.81
563.441	845.81
563.653	853.81
563.865	866.81
564.077	871.81
564.289	870.81
564.501	869.81
564.713	893.81
564.925	895.81
565.137	924.81
565.349	933.81
565.561	972.81
565.773	999.81
565.985	1015.81
566.197	1071.81
566.408	1059.81
566.62	1111.81
566.832	1154.81
567.044	1196.81
567.255	1206.81
567.467	1232.81
567.679	1218.81
567.891	1275.81
568.102	1241.81
568.314	1195.81
568.526	1145.81
568.737	1115.81
568.949	1055.81
569.161	1007.81
569.372	959.81
569.584	921.81
569.795	903.81
570.007	887.81
570.218	860.81
570.43	837.81
570.641	869.81
570.853	834.81
571.064	820.81
571.276	792.81
571.487	807.81
571.698	776.81
571.91	752.81
572.121	751.81
572.333	714.81
572.544	706.81
572.755	715.81
572.966	694.81
573.178	692.81
573.389	700.81
573.6	685.81
573.811	679.81
574.023	664.81
574.234	673.81
574.445	666.81
574.656	646.81
574.867	642.81
575.078	672.81
575.289	660.81
575.501	632.81
575.712	630.81
575.923	638.81
576.134	648.81
576.345	639.81
576.556	634.81
576.767	619.81
576.978	627.81
577.188	613.81
577.399	631.81
577.61	586.81
577.821	567.81
578.032	575.81
578.243	599.81
578.454	592.81
578.665	610.81
578.875	578.81
579.086	605.81
579.297	568.81
579.508	608.81
579.718	572.81
579.929	580.81
580.14	574.81
580.35	578.81
580.561	584.81
580.772	571.81
580.982	587.81
581.193	575.81
581.403	567.81
581.614	564.81
581.825	579.81
582.035	571.81
582.246	561.81
582.456	579.81
582.667	578.81
582.877	567.81
583.087	547.81
583.298	549.81
583.508	553.81
583.719	566.81
583.929	553.81
584.139	559.81
584.35	524.81
584.56	556.81
584.77	529.81
584.981	539.81
585.191	547.81
585.401	526.81
585.611	536.81
585.821	539.81
586.032	532.81
586.242	529.81
586.452	505.81
586.662	519.81
586.872	529.81
587.082	541.81
587.292	516.81
587.502	519.81
587.713	546.81
587.923	536.81
588.133	508.81
588.343	526.81
588.553	526.81
588.762	524.81
588.972	529.81
589.182	552.81
589.392	558.81
589.602	565.81
589.812	529.81
590.022	546.81
590.232	522.81
590.441	548.81
590.651	524.81
590.861	544.81
591.071	542.81
591.281	549.81
591.49	547.81
591.7	572.81
591.91	572.81
592.119	567.81
592.329	577.81
592.539	573.81
592.748	580.81
592.958	593.81
593.167	593.81
593.377	600.81
593.587	613.81
593.796	607.81
594.006	603.81
594.215	605.81
594.424	586.81
594.634	600.81
594.843	597.81
595.053	563.81
595.262	563.81
595.472	561.81
595.681	546.81
595.89	538.81
596.1	497.81
596.309	497.81
596.518	488.81
596.727	518.81
596.937	488.81
597.146	483.81
597.355	512.81
597.564	486.81
597.774	474.81
597.983	452.81
598.192	447.81
598.401	459.81
598.61	474.81
598.819	466.81
599.028	468.81
599.237	443.81
599.446	446.81
599.655	464.81
599.864	439.81
600.073	448.81
600.282	434.81
600.491	449.81
600.7	428.81
600.909	432.81
601.118	441.81
601.327	426.81
601.536	426.81
601.745	417.81
601.953	439.81
602.162	427.81
602.371	441.81
602.58	413.81
602.789	411.81
602.997	428.81
603.206	412.81
603.415	408.81
603.623	408.81
603.832	400.81
604.041	414.81
604.249	398.81
604.458	399.81
604.666	410.81
604.875	402.81
605.084	386.81
605.292	404.81
605.501	404.81
605.709	398.81
605.918	387.81
606.126	385.81
606.334	395.81
606.543	387.81
606.751	387.81
606.96	387.81
607.168	380.81
607.376	409.81
607.585	403.81
607.793	391.81
608.001	374.81
608.21	400.81
608.418	384.81
608.626	389.81
608.834	375.81
609.043	406.81
609.251	396.81
609.459	406.81
609.667	385.81
609.875	394.81
610.083	383.81
610.291	387.81
610.499	387.81
610.707	383.81
610.916	374.81
611.124	385.81
611.332	379.81
611.54	379.81
611.748	363.81
611.955	392.81
612.163	389.81
612.371	367.81
612.579	373.81
612.787	349.81
612.995	353.81
613.203	381.81
613.411	372.81
613.618	376.81
613.826	371.81
614.034	373.81
614.242	364.81
614.449	372.81
614.657	362.81
614.865	359.81
615.072	369.81
615.28	358.81
615.488	359.81
615.695	373.81
615.903	350.81
616.111	372.81
616.318	371.81
616.526	379.81
616.733	375.81
616.941	365.81
617.148	373.81
617.356	367.81
617.563	350.81
617.771	356.81
617.978	347.81
618.185	361.81
618.393	369.81
618.6	363.81
618.807	360.81
619.015	356.81
619.222	360.81
619.429	356.81
619.637	327.81
619.844	332.81
620.051	346.81
620.258	337.81
620.466	339.81
620.673	356.81
620.88	316.81
621.087	345.81
621.294	346.81
621.501	326.81
621.708	343.81
621.915	331.81
622.122	328.81
622.329	341.81
622.536	347.81
622.743	331.81
622.95	339.81
623.157	330.81
623.364	337.81
623.571	299.81
623.778	327.81
623.985	337.81
624.192	337.81
624.399	325.81
624.606	326.81
624.812	320.81
625.019	310.81
625.226	318.81
625.433	320.81
625.639	317.81
625.846	317.81
626.053	303.81
626.259	315.81
626.466	319.81
626.673	325.81
626.879	300.81
627.086	318.81
627.293	312.81
627.499	283.81
627.706	308.81
627.912	314.81
628.119	305.81
628.325	312.81
628.532	299.81
628.738	293.81
628.945	291.81
629.151	292.81
629.357	298.81
629.564	287.81
629.77	293.81
629.976	278.81
630.183	280.81
630.389	286.81
630.595	296.81
630.802	296.81
631.008	273.81
631.214	287.81
631.42	279.81
631.627	300.81
631.833	284.81
632.039	288.81
632.245	277.81
632.451	266.81
632.657	295.81
632.863	295.81
633.069	273.81
633.275	279.81
633.481	282.81
633.688	255.81
633.893	267.81
634.099	285.81
634.305	254.81
634.511	267.81
634.717	252.81
634.923	281.81
635.129	259.81
635.335	268.81
635.541	263.81
635.747	284.81
635.952	268.81
636.158	258.81
636.364	248.81
636.57	252.81
636.775	266.81
636.981	261.81
637.187	264.81
637.392	215.81
637.598	250.81
637.804	263.81
638.009	245.81
638.215	243.81
638.421	243.81
638.626	247.81
638.832	253.81
639.037	249.81
639.243	262.81
639.448	236.81
639.654	249.81
639.859	243.81
640.065	253.81
640.27	276.81
640.475	257.81
640.681	230.81
640.886	235.81
641.091	235.81
641.297	252.81
641.502	235.81
641.707	239.81
641.913	255.81
642.118	256.81
642.323	234.81
642.528	243.81
642.733	231.81
642.939	233.81
643.144	242.81
643.349	227.81
643.554	211.81
643.759	227.81
643.964	231.81
644.169	242.81
644.374	243.81
644.579	243.81
644.784	229.81
644.989	232.81
645.194	226.81
645.399	217.81
645.604	234.81
645.809	227.81
646.014	230.81
646.219	227.81
646.423	241.81
646.628	220.81
646.833	229.81
647.038	240.81
647.243	232.81
647.447	232.81
647.652	236.81
647.857	224.81
648.062	225.81
648.266	225.81
648.471	242.81
648.676	226.81
648.88	241.81
649.085	227.81
649.289	216.81
649.494	206.81
649.698	202.81
649.903	229.81
650.107	218.81
650.312	232.81
650.516	220.81
650.721	217.81
650.925	227.81
651.13	196.81
651.334	197.81
651.539	211.81
651.743	201.81
651.947	191.81
652.152	199.81
652.356	181.81
652.56	193.81
652.764	194.81
652.969	196.81
653.173	181.81
653.377	168.81
653.581	173.81
653.785	184.81
653.99	183.81
654.194	170.81
654.398	169.81
654.602	183.81
654.806	172.81
655.01	182.81
655.214	170.81
655.418	176.81
655.622	165.81
655.826	165.81
656.03	160.81
656.234	152.81
656.438	153.81
656.642	168.81
656.846	151.81
657.049	151.81
657.253	139.81
657.457	149.81
657.661	136.81
657.865	147.81
658.068	140.81
658.272	131.81
658.476	128.81
658.68	120.81
658.883	131.81
659.087	132.81
659.291	124.81
659.494	120.81
659.698	100.81
659.901	102.81
660.105	97.81
660.309	98.81
660.512	104.81
660.716	114.81
660.919	96.81
661.123	108.81
661.326	93.81
661.53	105.81
661.733	85.81
661.936	93.81
662.14	88.81
662.343	92.81
662.546	94.81
662.75	83.81
662.953	87.81
663.156	87.81
663.36	88.81
663.563	87.81
663.766	75.81
663.969	101.81
664.173	88.81
664.376	90.81
664.579	77.81
664.782	72.81
664.985	76.81
665.188	78.81
665.391	92.81
665.594	83.81
665.797	61.81
666	75.81
666.203	81.81
666.406	77.81
666.609	86.81
666.812	84.81
667.015	82.81
667.218	85.81
667.421	92.81
667.624	86.81
667.827	96.81
668.03	90.81
668.232	79.81
668.435	87.81
668.638	77.81
668.841	83.81
669.043	81.81
669.246	99.81
669.449	92.81
669.651	89.81
669.854	78.81
670.057	74.81
670.259	77.81
670.462	86.81
670.665	74.81
670.867	78.81
671.07	89.81
671.272	79.81
671.475	98.81
671.677	79.81
671.88	74.81
672.082	80.81
672.284	84.81
672.487	89.81
672.689	91.81
672.892	84.81
