Data from Ni(NO3)2@0.125M.TitratingCurve.Agarose3%dH2O.NegLispCup.LampEnergy10.LIBS07252019_HRD10591_18-11-40-568.txt Node
Date: Thu Jul 25 18:11:40 EDT 2019
User: cochatt
Spectrometer: HR+D1059
Trigger mode: 1
Integration Time (sec): 1.000000E-1
Scans to average: 1
Electric dark correction enabled: true
Nonlinearity correction enabled: false
Boxcar width: 0
XAxis mode: Wavelengths
Number of Pixels in Spectrum: 2048
>>>>>Begin Spectral Data<<<<<
223.165	-5.62
223.4	-5.62
223.635	-5.62
223.869	-26.62
224.104	-12.62
224.338	-6.62
224.573	4.38
224.808	-14.62
225.042	-11.62
225.277	-12.62
225.511	-17.62
225.746	-6.62
225.98	3.38
226.215	13.38
226.449	18.38
226.683	19.38
226.918	27.38
227.152	28.38
227.387	39.38
227.621	45.38
227.856	40.38
228.09	39.38
228.324	53.38
228.559	71.38
228.793	78.38
229.027	107.38
229.262	115.38
229.496	125.38
229.73	123.38
229.964	121.38
230.199	149.38
230.433	141.38
230.667	140.38
230.901	148.38
231.136	138.38
231.37	153.38
231.604	151.38
231.838	149.38
232.072	151.38
232.306	146.38
232.541	155.38
232.775	156.38
233.009	168.38
233.243	169.38
233.477	179.38
233.711	167.38
233.945	164.38
234.179	162.38
234.413	159.38
234.647	171.38
234.881	160.38
235.115	152.38
235.349	161.38
235.583	171.38
235.817	144.38
236.051	171.38
236.285	176.38
236.519	169.38
236.753	178.38
236.987	181.38
237.221	191.38
237.455	173.38
237.689	171.38
237.922	187.38
238.156	175.38
238.39	174.38
238.624	181.38
238.858	203.38
239.091	182.38
239.325	174.38
239.559	191.38
239.793	176.38
240.027	200.38
240.26	195.38
240.494	192.38
240.728	197.38
240.961	200.38
241.195	204.38
241.429	204.38
241.662	216.38
241.896	203.38
242.13	227.38
242.363	211.38
242.597	213.38
242.83	240.38
243.064	224.38
243.298	227.38
243.531	234.38
243.765	234.38
243.998	237.38
244.232	230.38
244.465	248.38
244.699	224.38
244.932	229.38
245.166	228.38
245.399	248.38
245.633	252.38
245.866	249.38
246.099	231.38
246.333	245.38
246.566	259.38
246.8	239.38
247.033	249.38
247.266	257.38
247.5	244.38
247.733	260.38
247.966	253.38
248.2	278.38
248.433	250.38
248.666	267.38
248.899	287.38
249.133	276.38
249.366	274.38
249.599	287.38
249.832	291.38
250.066	310.38
250.299	275.38
250.532	289.38
250.765	287.38
250.998	297.38
251.231	281.38
251.465	316.38
251.698	282.38
251.931	332.38
252.164	294.38
252.397	308.38
252.63	309.38
252.863	316.38
253.096	323.38
253.329	319.38
253.562	312.38
253.795	326.38
254.028	310.38
254.261	324.38
254.494	315.38
254.727	311.38
254.96	319.38
255.193	319.38
255.426	320.38
255.659	330.38
255.892	327.38
256.124	325.38
256.357	325.38
256.59	332.38
256.823	328.38
257.056	342.38
257.289	355.38
257.521	344.38
257.754	358.38
257.987	347.38
258.22	347.38
258.452	356.38
258.685	359.38
258.918	354.38
259.151	336.38
259.383	350.38
259.616	340.38
259.849	368.38
260.081	363.38
260.314	362.38
260.547	393.38
260.779	369.38
261.012	379.38
261.244	371.38
261.477	368.38
261.71	377.38
261.942	383.38
262.175	389.38
262.407	385.38
262.64	363.38
262.872	383.38
263.105	369.38
263.337	383.38
263.57	386.38
263.802	393.38
264.035	395.38
264.267	374.38
264.499	397.38
264.732	381.38
264.964	392.38
265.197	385.38
265.429	407.38
265.661	394.38
265.894	407.38
266.126	402.38
266.358	412.38
266.591	419.38
266.823	423.38
267.055	421.38
267.287	419.38
267.52	408.38
267.752	435.38
267.984	452.38
268.216	441.38
268.448	431.38
268.681	433.38
268.913	436.38
269.145	430.38
269.377	435.38
269.609	453.38
269.841	450.38
270.073	437.38
270.306	442.38
270.538	448.38
270.77	431.38
271.002	455.38
271.234	441.38
271.466	460.38
271.698	436.38
271.93	448.38
272.162	447.38
272.394	462.38
272.626	432.38
272.858	471.38
273.09	490.38
273.322	477.38
273.553	448.38
273.785	467.38
274.017	475.38
274.249	469.38
274.481	472.38
274.713	467.38
274.945	481.38
275.176	483.38
275.408	476.38
275.64	503.38
275.872	486.38
276.104	500.38
276.335	509.38
276.567	478.38
276.799	486.38
277.031	513.38
277.262	482.38
277.494	507.38
277.726	495.38
277.957	502.38
278.189	512.38
278.421	500.38
278.652	506.38
278.884	516.38
279.115	499.38
279.347	525.38
279.579	514.38
279.81	531.38
280.042	519.38
280.273	513.38
280.505	530.38
280.736	530.38
280.968	516.38
281.199	550.38
281.431	547.38
281.662	539.38
281.894	530.38
282.125	547.38
282.356	551.38
282.588	538.38
282.819	557.38
283.051	543.38
283.282	540.38
283.513	570.38
283.745	571.38
283.976	567.38
284.207	542.38
284.439	595.38
284.67	569.38
284.901	567.38
285.132	592.38
285.364	571.38
285.595	546.38
285.826	565.38
286.057	579.38
286.288	597.38
286.52	560.38
286.751	595.38
286.982	587.38
287.213	594.38
287.444	582.38
287.675	601.38
287.906	592.38
288.138	604.38
288.369	626.38
288.6	605.38
288.831	583.38
289.062	609.38
289.293	603.38
289.524	616.38
289.755	601.38
289.986	621.38
290.217	630.38
290.448	629.38
290.679	621.38
290.91	627.38
291.141	617.38
291.371	649.38
291.602	612.38
291.833	614.38
292.064	598.38
292.295	608.38
292.526	627.38
292.757	620.38
292.987	607.38
293.218	588.38
293.449	592.38
293.68	606.38
293.91	637.38
294.141	611.38
294.372	607.38
294.603	629.38
294.833	626.38
295.064	632.38
295.295	628.38
295.525	637.38
295.756	617.38
295.987	615.38
296.217	626.38
296.448	631.38
296.679	638.38
296.909	644.38
297.14	662.38
297.37	670.38
297.601	651.38
297.831	656.38
298.062	669.38
298.292	677.38
298.523	689.38
298.753	709.38
298.984	691.38
299.214	656.38
299.445	681.38
299.675	663.38
299.905	663.38
300.136	666.38
300.366	679.38
300.597	689.38
300.827	695.38
301.057	706.38
301.288	721.38
301.518	704.38
301.748	710.38
301.979	714.38
302.209	714.38
302.439	720.38
302.669	688.38
302.9	707.38
303.13	709.38
303.36	696.38
303.59	681.38
303.82	691.38
304.051	702.38
304.281	688.38
304.511	690.38
304.741	715.38
304.971	697.38
305.201	676.38
305.431	694.38
305.661	689.38
305.891	693.38
306.121	677.38
306.352	693.38
306.582	704.38
306.812	693.38
307.042	693.38
307.272	680.38
307.502	679.38
307.731	684.38
307.961	698.38
308.191	675.38
308.421	699.38
308.651	677.38
308.881	667.38
309.111	695.38
309.341	697.38
309.571	686.38
309.8	697.38
310.03	678.38
310.26	689.38
310.49	672.38
310.72	712.38
310.949	693.38
311.179	695.38
311.409	675.38
311.639	715.38
311.868	735.38
312.098	712.38
312.328	710.38
312.557	738.38
312.787	726.38
313.017	735.38
313.246	695.38
313.476	752.38
313.706	750.38
313.935	739.38
314.165	758.38
314.394	729.38
314.624	740.38
314.853	740.38
315.083	741.38
315.312	721.38
315.542	716.38
315.771	756.38
316.001	719.38
316.23	738.38
316.46	736.38
316.689	711.38
316.919	736.38
317.148	740.38
317.377	724.38
317.607	709.38
317.836	734.38
318.065	705.38
318.295	729.38
318.524	722.38
318.753	717.38
318.983	719.38
319.212	738.38
319.441	697.38
319.67	730.38
319.9	747.38
320.129	695.38
320.358	736.38
320.587	727.38
320.816	693.38
321.046	758.38
321.275	735.38
321.504	744.38
321.733	732.38
321.962	717.38
322.191	727.38
322.42	733.38
322.649	771.38
322.878	741.38
323.108	752.38
323.337	747.38
323.566	732.38
323.795	732.38
324.024	756.38
324.253	756.38
324.482	726.38
324.71	749.38
324.939	745.38
325.168	767.38
325.397	779.38
325.626	778.38
325.855	778.38
326.084	791.38
326.313	791.38
326.542	817.38
326.77	826.38
326.999	787.38
327.228	807.38
327.457	788.38
327.686	800.38
327.914	767.38
328.143	797.38
328.372	781.38
328.6	811.38
328.829	800.38
329.058	809.38
329.287	811.38
329.515	811.38
329.744	823.38
329.972	820.38
330.201	801.38
330.43	817.38
330.658	824.38
330.887	811.38
331.115	832.38
331.344	849.38
331.572	868.38
331.801	859.38
332.03	876.38
332.258	921.38
332.486	970.38
332.715	972.38
332.943	1004.38
333.172	1049.38
333.4	1101.38
333.629	1139.38
333.857	1125.38
334.085	1086.38
334.314	1084.38
334.542	1041.38
334.771	1019.38
334.999	1029.38
335.227	977.38
335.455	983.38
335.684	1018.38
335.912	990.38
336.14	995.38
336.369	980.38
336.597	980.38
336.825	1000.38
337.053	984.38
337.281	944.38
337.51	949.38
337.738	905.38
337.966	899.38
338.194	893.38
338.422	876.38
338.65	891.38
338.878	889.38
339.106	862.38
339.334	888.38
339.562	888.38
339.79	852.38
340.018	861.38
340.246	863.38
340.474	807.38
340.702	835.38
340.93	861.38
341.158	852.38
341.386	829.38
341.614	816.38
341.842	861.38
342.07	841.38
342.298	863.38
342.526	821.38
342.754	840.38
342.981	816.38
343.209	863.38
343.437	897.38
343.665	947.38
343.893	1060.38
344.12	1062.38
344.348	992.38
344.576	969.38
344.804	914.38
345.031	899.38
345.259	869.38
345.487	863.38
345.714	862.38
345.942	835.38
346.17	811.38
346.397	824.38
346.625	830.38
346.853	811.38
347.08	831.38
347.308	823.38
347.535	856.38
347.763	813.38
347.99	825.38
348.218	830.38
348.445	819.38
348.673	809.38
348.9	813.38
349.128	791.38
349.355	805.38
349.583	822.38
349.81	795.38
350.037	813.38
350.265	797.38
350.492	813.38
350.72	792.38
350.947	791.38
351.174	787.38
351.402	780.38
351.629	779.38
351.856	746.38
352.083	789.38
352.311	791.38
352.538	774.38
352.765	777.38
352.992	777.38
353.22	772.38
353.447	776.38
353.674	780.38
353.901	773.38
354.128	801.38
354.355	799.38
354.583	776.38
354.81	803.38
355.037	805.38
355.264	769.38
355.491	779.38
355.718	800.38
355.945	793.38
356.172	790.38
356.399	799.38
356.626	809.38
356.853	799.38
357.08	787.38
357.307	812.38
357.534	782.38
357.761	798.38
357.988	761.38
358.215	796.38
358.441	806.38
358.668	799.38
358.895	795.38
359.122	782.38
359.349	809.38
359.576	802.38
359.802	789.38
360.029	785.38
360.256	776.38
360.483	780.38
360.709	803.38
360.936	805.38
361.163	784.38
361.39	793.38
361.616	802.38
361.843	792.38
362.07	791.38
362.296	796.38
362.523	785.38
362.749	755.38
362.976	771.38
363.203	809.38
363.429	783.38
363.656	785.38
363.882	777.38
364.109	792.38
364.335	795.38
364.562	791.38
364.788	755.38
365.015	780.38
365.241	795.38
365.468	781.38
365.694	785.38
365.92	771.38
366.147	778.38
366.373	769.38
366.599	805.38
366.826	766.38
367.052	776.38
367.278	771.38
367.505	803.38
367.731	788.38
367.957	797.38
368.184	783.38
368.41	787.38
368.636	820.38
368.862	794.38
369.089	824.38
369.315	797.38
369.541	775.38
369.767	809.38
369.993	805.38
370.219	821.38
370.445	839.38
370.672	848.38
370.898	823.38
371.124	887.38
371.35	853.38
371.576	864.38
371.802	860.38
372.028	843.38
372.254	840.38
372.48	873.38
372.706	872.38
372.932	893.38
373.158	891.38
373.384	874.38
373.61	837.38
373.835	862.38
374.061	901.38
374.287	866.38
374.513	871.38
374.739	900.38
374.965	940.38
375.191	943.38
375.416	971.38
375.642	917.38
375.868	937.38
376.094	903.38
376.319	876.38
376.545	878.38
376.771	865.38
376.997	868.38
377.222	833.38
377.448	852.38
377.674	863.38
377.899	855.38
378.125	838.38
378.35	850.38
378.576	851.38
378.802	823.38
379.027	837.38
379.253	852.38
379.478	832.38
379.704	841.38
379.929	844.38
380.155	871.38
380.38	864.38
380.606	855.38
380.831	857.38
381.057	869.38
381.282	874.38
381.507	852.38
381.733	845.38
381.958	890.38
382.184	904.38
382.409	861.38
382.634	885.38
382.86	911.38
383.085	926.38
383.31	918.38
383.535	947.38
383.761	951.38
383.986	1007.38
384.211	992.38
384.436	995.38
384.662	1008.38
384.887	1031.38
385.112	1004.38
385.337	1045.38
385.562	1050.38
385.787	1054.38
386.013	1039.38
386.238	1064.38
386.463	1045.38
386.688	1056.38
386.913	1017.38
387.138	1039.38
387.363	1020.38
387.588	992.38
387.813	1029.38
388.038	1000.38
388.263	1035.38
388.488	1061.38
388.713	1023.38
388.938	1039.38
389.163	1005.38
389.387	1035.38
389.612	1005.38
389.837	1028.38
390.062	993.38
390.287	1005.38
390.512	1032.38
390.736	1037.38
390.961	1054.38
391.186	1033.38
391.411	1079.38
391.636	1144.38
391.86	1167.38
392.085	1179.38
392.31	1170.38
392.534	1125.38
392.759	1139.38
392.984	1091.38
393.208	1107.38
393.433	1105.38
393.658	1109.38
393.882	1085.38
394.107	1106.38
394.331	1124.38
394.556	1102.38
394.78	1115.38
395.005	1120.38
395.229	1118.38
395.454	1139.38
395.678	1157.38
395.903	1169.38
396.127	1144.38
396.352	1086.38
396.576	1079.38
396.801	1092.38
397.025	1097.38
397.249	1137.38
397.474	1142.38
397.698	1185.38
397.922	1124.38
398.147	1167.38
398.371	1183.38
398.595	1203.38
398.82	1274.38
399.044	1393.38
399.268	1526.38
399.492	1757.38
399.717	2079.38
399.941	2016.38
400.165	1744.38
400.389	1570.38
400.613	1444.38
400.837	1363.38
401.062	1314.38
401.286	1312.38
401.51	1285.38
401.734	1298.38
401.958	1297.38
402.182	1310.38
402.406	1309.38
402.63	1369.38
402.854	1382.38
403.078	1422.38
403.302	1455.38
403.526	1446.38
403.75	1502.38
403.974	1549.38
404.198	1566.38
404.422	1565.38
404.645	1488.38
404.869	1494.38
405.093	1491.38
405.317	1445.38
405.541	1443.38
405.765	1455.38
405.988	1437.38
406.212	1423.38
406.436	1401.38
406.66	1457.38
406.883	1470.38
407.107	1585.38
407.331	1657.38
407.555	1713.38
407.778	1687.38
408.002	1610.38
408.226	1575.38
408.449	1569.38
408.673	1517.38
408.896	1479.38
409.12	1461.38
409.344	1492.38
409.567	1452.38
409.791	1477.38
410.014	1495.38
410.238	1461.38
410.461	1462.38
410.685	1446.38
410.908	1401.38
411.132	1425.38
411.355	1341.38
411.578	1355.38
411.802	1345.38
412.025	1376.38
412.249	1352.38
412.472	1385.38
412.695	1325.38
412.919	1299.38
413.142	1307.38
413.365	1289.38
413.589	1290.38
413.812	1326.38
414.035	1297.38
414.258	1248.38
414.482	1296.38
414.705	1375.38
414.928	1317.38
415.151	1320.38
415.374	1327.38
415.597	1299.38
415.821	1283.38
416.044	1247.38
416.267	1252.38
416.49	1267.38
416.713	1266.38
416.936	1271.38
417.159	1279.38
417.382	1261.38
417.605	1272.38
417.828	1265.38
418.051	1279.38
418.274	1304.38
418.497	1280.38
418.72	1352.38
418.943	1295.38
419.166	1414.38
419.389	1488.38
419.611	1456.38
419.834	1382.38
420.057	1399.38
420.28	1324.38
420.503	1291.38
420.726	1260.38
420.948	1272.38
421.171	1285.38
421.394	1306.38
421.617	1262.38
421.839	1278.38
422.062	1307.38
422.285	1274.38
422.507	1326.38
422.73	1333.38
422.953	1355.38
423.175	1350.38
423.398	1348.38
423.621	1379.38
423.843	1353.38
424.066	1364.38
424.288	1393.38
424.511	1342.38
424.733	1348.38
424.956	1313.38
425.178	1311.38
425.401	1289.38
425.623	1287.38
425.846	1234.38
426.068	1257.38
426.291	1249.38
426.513	1199.38
426.735	1215.38
426.958	1159.38
427.18	1184.38
427.402	1155.38
427.625	1157.38
427.847	1137.38
428.069	1164.38
428.292	1168.38
428.514	1133.38
428.736	1111.38
428.958	1127.38
429.181	1123.38
429.403	1140.38
429.625	1111.38
429.847	1101.38
430.069	1082.38
430.292	1115.38
430.514	1082.38
430.736	1119.38
430.958	1120.38
431.18	1117.38
431.402	1093.38
431.624	1138.38
431.846	1142.38
432.068	1169.38
432.29	1155.38
432.512	1097.38
432.734	1117.38
432.956	1147.38
433.178	1156.38
433.4	1150.38
433.622	1150.38
433.844	1140.38
434.066	1161.38
434.287	1167.38
434.509	1212.38
434.731	1246.38
434.953	1284.38
435.175	1319.38
435.397	1311.38
435.618	1206.38
435.84	1147.38
436.062	1151.38
436.284	1121.38
436.505	1133.38
436.727	1136.38
436.949	1144.38
437.17	1140.38
437.392	1132.38
437.614	1126.38
437.835	1087.38
438.057	1073.38
438.278	1090.38
438.5	1085.38
438.721	1099.38
438.943	1079.38
439.165	1091.38
439.386	1099.38
439.608	1115.38
439.829	1115.38
440.05	1157.38
440.272	1141.38
440.493	1126.38
440.715	1147.38
440.936	1189.38
441.158	1225.38
441.379	1211.38
441.6	1292.38
441.822	1283.38
442.043	1331.38
442.264	1268.38
442.486	1245.38
442.707	1243.38
442.928	1244.38
443.149	1286.38
443.371	1256.38
443.592	1291.38
443.813	1291.38
444.034	1312.38
444.255	1328.38
444.476	1373.38
444.698	1448.38
444.919	1587.38
445.14	1626.38
445.361	1441.38
445.582	1319.38
445.803	1270.38
446.024	1207.38
446.245	1214.38
446.466	1154.38
446.687	1144.38
446.908	1155.38
447.129	1145.38
447.35	1117.38
447.571	1086.38
447.792	1074.38
448.013	1072.38
448.234	1053.38
448.455	1061.38
448.675	1028.38
448.896	1040.38
449.117	1017.38
449.338	1062.38
449.559	1028.38
449.779	1026.38
450	1030.38
450.221	999.38
450.442	1045.38
450.662	1032.38
450.883	1073.38
451.104	1083.38
451.324	1063.38
451.545	1053.38
451.766	1059.38
451.986	1039.38
452.207	1037.38
452.428	1046.38
452.648	1039.38
452.869	1044.38
453.089	1013.38
453.31	1059.38
453.53	1016.38
453.751	1022.38
453.971	1020.38
454.192	993.38
454.412	975.38
454.633	981.38
454.853	1001.38
455.073	960.38
455.294	984.38
455.514	969.38
455.734	988.38
455.955	967.38
456.175	949.38
456.395	961.38
456.616	942.38
456.836	987.38
457.056	947.38
457.276	923.38
457.497	968.38
457.717	969.38
457.937	956.38
458.157	995.38
458.377	997.38
458.598	1010.38
458.818	1060.38
459.038	1082.38
459.258	1101.38
459.478	1151.38
459.698	1177.38
459.918	1186.38
460.138	1269.38
460.358	1315.38
460.578	1344.38
460.798	1353.38
461.018	1379.38
461.238	1336.38
461.458	1335.38
461.678	1337.38
461.898	1324.38
462.118	1342.38
462.338	1435.38
462.558	1495.38
462.777	1541.38
462.997	1683.38
463.217	1840.38
463.437	1831.38
463.657	1695.38
463.876	1596.38
464.096	1573.38
464.316	1591.38
464.536	1641.38
464.755	1528.38
464.975	1459.38
465.195	1401.38
465.414	1301.38
465.634	1209.38
465.854	1198.38
466.073	1147.38
466.293	1153.38
466.512	1130.38
466.732	1120.38
466.951	1114.38
467.171	1099.38
467.391	1087.38
467.61	1091.38
467.829	1075.38
468.049	1065.38
468.268	1067.38
468.488	1036.38
468.707	1048.38
468.927	1041.38
469.146	998.38
469.365	1050.38
469.585	1054.38
469.804	1129.38
470.023	1120.38
470.243	1152.38
470.462	1135.38
470.681	1126.38
470.901	1105.38
471.12	1107.38
471.339	1065.38
471.558	1054.38
471.777	1070.38
471.997	1035.38
472.216	1029.38
472.435	1016.38
472.654	1022.38
472.873	1017.38
473.092	1011.38
473.311	996.38
473.53	1019.38
473.749	997.38
473.968	988.38
474.187	988.38
474.406	1004.38
474.625	987.38
474.844	995.38
475.063	1002.38
475.282	996.38
475.501	1031.38
475.72	1007.38
475.939	1043.38
476.158	1041.38
476.377	1045.38
476.596	1054.38
476.814	1036.38
477.033	1055.38
477.252	1104.38
477.471	1120.38
477.69	1149.38
477.908	1156.38
478.127	1205.38
478.346	1233.38
478.564	1222.38
478.783	1232.38
479.002	1250.38
479.22	1293.38
479.439	1287.38
479.658	1267.38
479.876	1245.38
480.095	1256.38
480.313	1323.38
480.532	1397.38
480.751	1387.38
480.969	1307.38
481.188	1276.38
481.406	1227.38
481.624	1190.38
481.843	1172.38
482.061	1168.38
482.28	1146.38
482.498	1171.38
482.717	1153.38
482.935	1131.38
483.153	1173.38
483.372	1177.38
483.59	1144.38
483.808	1172.38
484.027	1150.38
484.245	1150.38
484.463	1180.38
484.681	1185.38
484.9	1220.38
485.118	1227.38
485.336	1193.38
485.554	1237.38
485.772	1231.38
485.99	1235.38
486.209	1219.38
486.427	1228.38
486.645	1253.38
486.863	1227.38
487.081	1219.38
487.299	1211.38
487.517	1239.38
487.735	1194.38
487.953	1220.38
488.171	1216.38
488.389	1198.38
488.607	1206.38
488.825	1183.38
489.043	1171.38
489.261	1186.38
489.479	1226.38
489.696	1175.38
489.914	1191.38
490.132	1240.38
490.35	1209.38
490.568	1221.38
490.786	1188.38
491.003	1201.38
491.221	1193.38
491.439	1183.38
491.657	1231.38
491.874	1210.38
492.092	1206.38
492.31	1233.38
492.527	1220.38
492.745	1246.38
492.963	1233.38
493.18	1248.38
493.398	1233.38
493.615	1297.38
493.833	1261.38
494.05	1269.38
494.268	1288.38
494.485	1308.38
494.703	1243.38
494.92	1254.38
495.138	1230.38
495.355	1258.38
495.573	1314.38
495.79	1293.38
496.008	1290.38
496.225	1282.38
496.442	1308.38
496.66	1326.38
496.877	1348.38
497.094	1358.38
497.312	1379.38
497.529	1411.38
497.746	1459.38
497.963	1505.38
498.181	1593.38
498.398	1607.38
498.615	1764.38
498.832	1853.38
499.049	1986.38
499.267	2165.38
499.484	2396.38
499.701	2672.38
499.918	2934.38
500.135	3385.38
500.352	3946.38
500.569	4206.38
500.786	4096.38
501.003	3823.38
501.22	3293.38
501.437	2914.38
501.654	2467.38
501.871	2320.38
502.088	2095.38
502.305	1929.38
502.522	1881.38
502.739	1787.38
502.956	1692.38
503.172	1630.38
503.389	1563.38
503.606	1491.38
503.823	1437.38
504.04	1487.38
504.256	1486.38
504.473	1509.38
504.69	1561.38
504.907	1529.38
505.123	1396.38
505.34	1333.38
505.557	1279.38
505.773	1258.38
505.99	1229.38
506.207	1212.38
506.423	1160.38
506.64	1157.38
506.856	1145.38
507.073	1146.38
507.289	1114.38
507.506	1145.38
507.722	1136.38
507.939	1128.38
508.155	1105.38
508.372	1073.38
508.588	1082.38
508.805	1054.38
509.021	1093.38
509.238	1085.38
509.454	1038.38
509.67	1064.38
509.887	1036.38
510.103	1052.38
510.319	1020.38
510.536	1049.38
510.752	1031.38
510.968	1014.38
511.184	1023.38
511.401	1031.38
511.617	1031.38
511.833	1020.38
512.049	1004.38
512.265	1029.38
512.481	1027.38
512.698	1023.38
512.914	1025.38
513.13	1016.38
513.346	999.38
513.562	1021.38
513.778	1063.38
513.994	1032.38
514.21	1039.38
514.426	1031.38
514.642	1040.38
514.858	1046.38
515.074	1055.38
515.29	1058.38
515.506	1063.38
515.721	1081.38
515.937	1117.38
516.153	1141.38
516.369	1141.38
516.585	1193.38
516.801	1215.38
517.016	1268.38
517.232	1365.38
517.448	1426.38
517.664	1487.38
517.879	1499.38
518.095	1443.38
518.311	1440.38
518.527	1376.38
518.742	1325.38
518.958	1262.38
519.173	1242.38
519.389	1161.38
519.605	1149.38
519.82	1109.38
520.036	1100.38
520.251	1056.38
520.467	1044.38
520.682	1027.38
520.898	1038.38
521.113	1029.38
521.329	1012.38
521.544	1007.38
521.76	1014.38
521.975	947.38
522.19	979.38
522.406	990.38
522.621	963.38
522.836	968.38
523.052	960.38
523.267	969.38
523.482	958.38
523.698	940.38
523.913	975.38
524.128	961.38
524.343	934.38
524.559	949.38
524.774	936.38
524.989	945.38
525.204	970.38
525.419	929.38
525.634	941.38
525.849	946.38
526.064	929.38
526.28	910.38
526.495	910.38
526.71	924.38
526.925	922.38
527.14	932.38
527.355	944.38
527.57	964.38
527.785	908.38
527.999	904.38
528.214	914.38
528.429	939.38
528.644	928.38
528.859	910.38
529.074	921.38
529.289	924.38
529.503	927.38
529.718	923.38
529.933	936.38
530.148	938.38
530.363	951.38
530.577	896.38
530.792	908.38
531.007	926.38
531.221	923.38
531.436	933.38
531.651	951.38
531.865	917.38
532.08	955.38
532.295	953.38
532.509	901.38
532.724	928.38
532.938	951.38
533.153	931.38
533.367	914.38
533.582	927.38
533.796	930.38
534.011	924.38
534.225	923.38
534.44	921.38
534.654	921.38
534.868	925.38
535.083	913.38
535.297	900.38
535.511	901.38
535.726	889.38
535.94	876.38
536.154	863.38
536.369	860.38
536.583	864.38
536.797	875.38
537.011	877.38
537.225	845.38
537.44	854.38
537.654	860.38
537.868	824.38
538.082	847.38
538.296	831.38
538.51	847.38
538.724	842.38
538.938	834.38
539.153	811.38
539.367	836.38
539.581	823.38
539.795	854.38
540.009	828.38
540.222	823.38
540.436	829.38
540.65	812.38
540.864	816.38
541.078	828.38
541.292	826.38
541.506	836.38
541.72	806.38
541.934	837.38
542.147	837.38
542.361	814.38
542.575	823.38
542.789	829.38
543.002	799.38
543.216	821.38
543.43	795.38
543.644	811.38
543.857	810.38
544.071	829.38
544.285	812.38
544.498	858.38
544.712	823.38
544.925	829.38
545.139	824.38
545.352	843.38
545.566	840.38
545.779	856.38
545.993	868.38
546.206	855.38
546.42	841.38
546.633	842.38
546.847	821.38
547.06	831.38
547.274	853.38
547.487	873.38
547.7	833.38
547.914	877.38
548.127	859.38
548.34	855.38
548.554	851.38
548.767	855.38
548.98	835.38
549.193	843.38
549.407	885.38
549.62	896.38
549.833	883.38
550.046	856.38
550.259	850.38
550.473	832.38
550.686	813.38
550.899	836.38
551.112	826.38
551.325	819.38
551.538	829.38
551.751	821.38
551.964	829.38
552.177	841.38
552.39	833.38
552.603	892.38
552.816	892.38
553.029	914.38
553.242	928.38
553.455	910.38
553.667	974.38
553.88	925.38
554.093	917.38
554.306	870.38
554.519	846.38
554.732	842.38
554.944	819.38
555.157	822.38
555.37	798.38
555.583	790.38
555.795	776.38
556.008	758.38
556.221	755.38
556.433	759.38
556.646	737.38
556.859	728.38
557.071	716.38
557.284	712.38
557.496	730.38
557.709	723.38
557.921	708.38
558.134	747.38
558.346	700.38
558.559	716.38
558.771	715.38
558.984	715.38
559.196	696.38
559.409	701.38
559.621	711.38
559.833	699.38
560.046	670.38
560.258	676.38
560.47	688.38
560.683	701.38
560.895	696.38
561.107	685.38
561.32	680.38
561.532	679.38
561.744	679.38
561.956	714.38
562.168	676.38
562.381	696.38
562.593	715.38
562.805	723.38
563.017	688.38
563.229	689.38
563.441	712.38
563.653	693.38
563.865	712.38
564.077	723.38
564.289	713.38
564.501	739.38
564.713	740.38
564.925	744.38
565.137	765.38
565.349	761.38
565.561	755.38
565.773	783.38
565.985	857.38
566.197	904.38
566.408	983.38
566.62	1063.38
566.832	1158.38
567.044	1198.38
567.255	1182.38
567.467	1173.38
567.679	1297.38
567.891	1403.38
568.102	1430.38
568.314	1397.38
568.526	1183.38
568.737	1079.38
568.949	983.38
569.161	904.38
569.372	827.38
569.584	775.38
569.795	750.38
570.007	743.38
570.218	730.38
570.43	731.38
570.641	694.38
570.853	707.38
571.064	702.38
571.276	725.38
571.487	681.38
571.698	680.38
571.91	666.38
572.121	636.38
572.333	620.38
572.544	599.38
572.755	582.38
572.966	600.38
573.178	600.38
573.389	581.38
573.6	585.38
573.811	563.38
574.023	570.38
574.234	569.38
574.445	586.38
574.656	583.38
574.867	587.38
575.078	574.38
575.289	575.38
575.501	569.38
575.712	531.38
575.923	524.38
576.134	551.38
576.345	535.38
576.556	541.38
576.767	544.38
576.978	527.38
577.188	552.38
577.399	548.38
577.61	517.38
577.821	524.38
578.032	509.38
578.243	501.38
578.454	509.38
578.665	500.38
578.875	505.38
579.086	501.38
579.297	496.38
579.508	518.38
579.718	515.38
579.929	516.38
580.14	487.38
580.35	494.38
580.561	496.38
580.772	502.38
580.982	485.38
581.193	481.38
581.403	495.38
581.614	483.38
581.825	489.38
582.035	487.38
582.246	464.38
582.456	476.38
582.667	481.38
582.877	477.38
583.087	503.38
583.298	474.38
583.508	465.38
583.719	472.38
583.929	483.38
584.139	482.38
584.35	465.38
584.56	463.38
584.77	463.38
584.981	472.38
585.191	467.38
585.401	457.38
585.611	464.38
585.821	478.38
586.032	469.38
586.242	463.38
586.452	434.38
586.662	439.38
586.872	459.38
587.082	455.38
587.292	455.38
587.502	471.38
587.713	453.38
587.923	457.38
588.133	462.38
588.343	459.38
588.553	431.38
588.762	448.38
588.972	461.38
589.182	458.38
589.392	457.38
589.602	440.38
589.812	452.38
590.022	453.38
590.232	457.38
590.441	459.38
590.651	454.38
590.861	471.38
591.071	465.38
591.281	480.38
591.49	472.38
591.7	502.38
591.91	473.38
592.119	469.38
592.329	506.38
592.539	513.38
592.748	550.38
592.958	571.38
593.167	590.38
593.377	584.38
593.587	598.38
593.796	605.38
594.006	594.38
594.215	612.38
594.424	607.38
594.634	599.38
594.843	567.38
595.053	544.38
595.262	522.38
595.472	505.38
595.681	478.38
595.89	462.38
596.1	464.38
596.309	446.38
596.518	433.38
596.727	436.38
596.937	446.38
597.146	420.38
597.355	406.38
597.564	414.38
597.774	396.38
597.983	404.38
598.192	407.38
598.401	384.38
598.61	391.38
598.819	409.38
599.028	397.38
599.237	397.38
599.446	382.38
599.655	377.38
599.864	403.38
600.073	388.38
600.282	384.38
600.491	382.38
600.7	376.38
600.909	373.38
601.118	395.38
601.327	384.38
601.536	376.38
601.745	405.38
601.953	384.38
602.162	375.38
602.371	386.38
602.58	392.38
602.789	363.38
602.997	385.38
603.206	375.38
603.415	372.38
603.623	372.38
603.832	353.38
604.041	348.38
604.249	371.38
604.458	373.38
604.666	362.38
604.875	356.38
605.084	363.38
605.292	352.38
605.501	368.38
605.709	368.38
605.918	366.38
606.126	370.38
606.334	365.38
606.543	357.38
606.751	354.38
606.96	350.38
607.168	335.38
607.376	341.38
607.585	355.38
607.793	335.38
608.001	343.38
608.21	360.38
608.418	327.38
608.626	327.38
608.834	348.38
609.043	358.38
609.251	347.38
609.459	351.38
609.667	357.38
609.875	333.38
610.083	349.38
610.291	317.38
610.499	337.38
610.707	331.38
610.916	321.38
611.124	321.38
611.332	346.38
611.54	338.38
611.748	328.38
611.955	328.38
612.163	345.38
612.371	329.38
612.579	340.38
612.787	328.38
612.995	331.38
613.203	326.38
613.411	315.38
613.618	333.38
613.826	325.38
614.034	339.38
614.242	319.38
614.449	339.38
614.657	344.38
614.865	338.38
615.072	328.38
615.28	325.38
615.488	317.38
615.695	328.38
615.903	353.38
616.111	354.38
616.318	355.38
616.526	351.38
616.733	352.38
616.941	320.38
617.148	351.38
617.356	333.38
617.563	337.38
617.771	361.38
617.978	320.38
618.185	347.38
618.393	320.38
618.6	331.38
618.807	326.38
619.015	331.38
619.222	334.38
619.429	327.38
619.637	322.38
619.844	312.38
620.051	323.38
620.258	312.38
620.466	315.38
620.673	301.38
620.88	292.38
621.087	305.38
621.294	308.38
621.501	307.38
621.708	310.38
621.915	301.38
622.122	311.38
622.329	288.38
622.536	310.38
622.743	300.38
622.95	311.38
623.157	304.38
623.364	297.38
623.571	292.38
623.778	275.38
623.985	308.38
624.192	283.38
624.399	276.38
624.606	307.38
624.812	281.38
625.019	276.38
625.226	292.38
625.433	290.38
625.639	302.38
625.846	266.38
626.053	291.38
626.259	275.38
626.466	284.38
626.673	282.38
626.879	259.38
627.086	278.38
627.293	292.38
627.499	261.38
627.706	269.38
627.912	293.38
628.119	279.38
628.325	275.38
628.532	270.38
628.738	263.38
628.945	249.38
629.151	272.38
629.357	248.38
629.564	250.38
629.77	273.38
629.976	267.38
630.183	263.38
630.389	254.38
630.595	240.38
630.802	241.38
631.008	264.38
631.214	252.38
631.42	266.38
631.627	264.38
631.833	235.38
632.039	269.38
632.245	234.38
632.451	250.38
632.657	231.38
632.863	235.38
633.069	243.38
633.275	234.38
633.481	234.38
633.688	247.38
633.893	238.38
634.099	243.38
634.305	231.38
634.511	243.38
634.717	230.38
634.923	248.38
635.129	236.38
635.335	232.38
635.541	221.38
635.747	237.38
635.952	231.38
636.158	230.38
636.364	228.38
636.57	237.38
636.775	236.38
636.981	225.38
637.187	227.38
637.392	237.38
637.598	242.38
637.804	238.38
638.009	234.38
638.215	229.38
638.421	212.38
638.626	237.38
638.832	220.38
639.037	220.38
639.243	225.38
639.448	233.38
639.654	229.38
639.859	224.38
640.065	228.38
640.27	221.38
640.475	226.38
640.681	225.38
640.886	226.38
641.091	224.38
641.297	202.38
641.502	206.38
641.707	197.38
641.913	219.38
642.118	211.38
642.323	220.38
642.528	211.38
642.733	208.38
642.939	201.38
643.144	199.38
643.349	217.38
643.554	203.38
643.759	206.38
643.964	210.38
644.169	210.38
644.374	200.38
644.579	221.38
644.784	208.38
644.989	218.38
645.194	212.38
645.399	212.38
645.604	215.38
645.809	212.38
646.014	221.38
646.219	227.38
646.423	226.38
646.628	210.38
646.833	221.38
647.038	201.38
647.243	211.38
647.447	212.38
647.652	209.38
647.857	214.38
648.062	201.38
648.266	232.38
648.471	228.38
648.676	236.38
648.88	232.38
649.085	238.38
649.289	236.38
649.494	217.38
649.698	219.38
649.903	202.38
650.107	203.38
650.312	209.38
650.516	202.38
650.721	205.38
650.925	203.38
651.13	204.38
651.334	191.38
651.539	192.38
651.743	201.38
651.947	185.38
652.152	183.38
652.356	184.38
652.56	179.38
652.764	174.38
652.969	187.38
653.173	185.38
653.377	164.38
653.581	175.38
653.785	154.38
653.99	174.38
654.194	166.38
654.398	171.38
654.602	167.38
654.806	152.38
655.01	138.38
655.214	156.38
655.418	158.38
655.622	161.38
655.826	171.38
656.03	168.38
656.234	164.38
656.438	171.38
656.642	169.38
656.846	166.38
657.049	143.38
657.253	133.38
657.457	132.38
657.661	144.38
657.865	111.38
658.068	125.38
658.272	137.38
658.476	122.38
658.68	125.38
658.883	113.38
659.087	123.38
659.291	116.38
659.494	121.38
659.698	95.38
659.901	104.38
660.105	97.38
660.309	118.38
660.512	104.38
660.716	88.38
660.919	104.38
661.123	108.38
661.326	96.38
661.53	105.38
661.733	119.38
661.936	103.38
662.14	85.38
662.343	89.38
662.546	87.38
662.75	99.38
662.953	95.38
663.156	75.38
663.36	96.38
663.563	90.38
663.766	74.38
663.969	92.38
664.173	84.38
664.376	95.38
664.579	90.38
664.782	87.38
664.985	85.38
665.188	80.38
665.391	91.38
665.594	79.38
665.797	73.38
666	84.38
666.203	95.38
666.406	88.38
666.609	84.38
666.812	92.38
667.015	92.38
667.218	87.38
667.421	88.38
667.624	84.38
667.827	93.38
668.03	87.38
668.232	73.38
668.435	88.38
668.638	92.38
668.841	95.38
669.043	79.38
669.246	95.38
669.449	82.38
669.651	78.38
669.854	80.38
670.057	85.38
670.259	87.38
670.462	90.38
670.665	83.38
670.867	82.38
671.07	93.38
671.272	87.38
671.475	99.38
671.677	94.38
671.88	83.38
672.082	84.38
672.284	78.38
672.487	71.38
672.689	67.38
672.892	77.38
