Data from Ni(NO3)2@0.5M.TitratingCurve.Agarose3%dH2O.NegLispCup.LampEnergy10.LIBS07252019_HRD10591_17-58-15-564.txt Node
Date: Thu Jul 25 17:58:15 EDT 2019
User: cochatt
Spectrometer: HR+D1059
Trigger mode: 1
Integration Time (sec): 1.000000E-1
Scans to average: 1
Electric dark correction enabled: true
Nonlinearity correction enabled: false
Boxcar width: 0
XAxis mode: Wavelengths
Number of Pixels in Spectrum: 2048
>>>>>Begin Spectral Data<<<<<
223.165	-16.62
223.4	-16.62
223.635	-16.62
223.869	-14.62
224.104	-19.62
224.338	-14.62
224.573	-16.62
224.808	-14.62
225.042	8.38
225.277	-1.62
225.511	1.38
225.746	-6.62
225.98	3.38
226.215	8.38
226.449	14.38
226.683	15.38
226.918	19.38
227.152	34.38
227.387	29.38
227.621	40.38
227.856	41.38
228.09	24.38
228.324	50.38
228.559	48.38
228.793	86.38
229.027	124.38
229.262	118.38
229.496	136.38
229.73	113.38
229.964	159.38
230.199	179.38
230.433	183.38
230.667	157.38
230.901	164.38
231.136	148.38
231.37	148.38
231.604	169.38
231.838	181.38
232.072	198.38
232.306	175.38
232.541	180.38
232.775	165.38
233.009	172.38
233.243	149.38
233.477	167.38
233.711	149.38
233.945	169.38
234.179	160.38
234.413	167.38
234.647	181.38
234.881	155.38
235.115	164.38
235.349	164.38
235.583	151.38
235.817	159.38
236.051	159.38
236.285	159.38
236.519	166.38
236.753	160.38
236.987	147.38
237.221	161.38
237.455	163.38
237.689	167.38
237.922	187.38
238.156	196.38
238.39	170.38
238.624	183.38
238.858	164.38
239.091	163.38
239.325	188.38
239.559	191.38
239.793	226.38
240.027	208.38
240.26	191.38
240.494	181.38
240.728	195.38
240.961	200.38
241.195	185.38
241.429	187.38
241.662	199.38
241.896	217.38
242.13	233.38
242.363	217.38
242.597	192.38
242.83	189.38
243.064	219.38
243.298	210.38
243.531	208.38
243.765	212.38
243.998	231.38
244.232	228.38
244.465	223.38
244.699	226.38
244.932	228.38
245.166	231.38
245.399	241.38
245.633	227.38
245.866	231.38
246.099	233.38
246.333	230.38
246.566	238.38
246.8	229.38
247.033	257.38
247.266	229.38
247.5	237.38
247.733	274.38
247.966	260.38
248.2	262.38
248.433	260.38
248.666	266.38
248.899	247.38
249.133	261.38
249.366	290.38
249.599	275.38
249.832	280.38
250.066	264.38
250.299	275.38
250.532	281.38
250.765	277.38
250.998	291.38
251.231	320.38
251.465	335.38
251.698	309.38
251.931	318.38
252.164	296.38
252.397	310.38
252.63	305.38
252.863	300.38
253.096	299.38
253.329	329.38
253.562	311.38
253.795	322.38
254.028	309.38
254.261	313.38
254.494	323.38
254.727	339.38
254.96	345.38
255.193	335.38
255.426	332.38
255.659	352.38
255.892	352.38
256.124	363.38
256.357	344.38
256.59	346.38
256.823	369.38
257.056	359.38
257.289	369.38
257.521	362.38
257.754	352.38
257.987	365.38
258.22	364.38
258.452	354.38
258.685	379.38
258.918	374.38
259.151	376.38
259.383	401.38
259.616	390.38
259.849	386.38
260.081	383.38
260.314	383.38
260.547	372.38
260.779	399.38
261.012	388.38
261.244	416.38
261.477	401.38
261.71	386.38
261.942	405.38
262.175	400.38
262.407	425.38
262.64	422.38
262.872	400.38
263.105	396.38
263.337	412.38
263.57	409.38
263.802	422.38
264.035	416.38
264.267	423.38
264.499	425.38
264.732	426.38
264.964	433.38
265.197	421.38
265.429	422.38
265.661	428.38
265.894	427.38
266.126	438.38
266.358	423.38
266.591	422.38
266.823	439.38
267.055	455.38
267.287	440.38
267.52	434.38
267.752	451.38
267.984	461.38
268.216	468.38
268.448	447.38
268.681	451.38
268.913	484.38
269.145	446.38
269.377	436.38
269.609	452.38
269.841	483.38
270.073	463.38
270.306	479.38
270.538	486.38
270.77	495.38
271.002	492.38
271.234	457.38
271.466	479.38
271.698	464.38
271.93	481.38
272.162	468.38
272.394	510.38
272.626	482.38
272.858	489.38
273.09	495.38
273.322	474.38
273.553	497.38
273.785	511.38
274.017	514.38
274.249	506.38
274.481	489.38
274.713	513.38
274.945	522.38
275.176	502.38
275.408	515.38
275.64	528.38
275.872	516.38
276.104	522.38
276.335	504.38
276.567	504.38
276.799	529.38
277.031	522.38
277.262	518.38
277.494	526.38
277.726	531.38
277.957	519.38
278.189	518.38
278.421	531.38
278.652	537.38
278.884	540.38
279.115	552.38
279.347	529.38
279.579	549.38
279.81	546.38
280.042	568.38
280.273	576.38
280.505	557.38
280.736	547.38
280.968	578.38
281.199	557.38
281.431	549.38
281.662	560.38
281.894	561.38
282.125	554.38
282.356	571.38
282.588	591.38
282.819	569.38
283.051	545.38
283.282	551.38
283.513	569.38
283.745	550.38
283.976	584.38
284.207	568.38
284.439	576.38
284.67	596.38
284.901	587.38
285.132	594.38
285.364	586.38
285.595	582.38
285.826	585.38
286.057	593.38
286.288	614.38
286.52	609.38
286.751	595.38
286.982	592.38
287.213	609.38
287.444	606.38
287.675	586.38
287.906	596.38
288.138	623.38
288.369	620.38
288.6	629.38
288.831	594.38
289.062	616.38
289.293	610.38
289.524	616.38
289.755	626.38
289.986	618.38
290.217	606.38
290.448	614.38
290.679	611.38
290.91	623.38
291.141	625.38
291.371	624.38
291.602	598.38
291.833	639.38
292.064	618.38
292.295	653.38
292.526	630.38
292.757	624.38
292.987	624.38
293.218	635.38
293.449	635.38
293.68	613.38
293.91	613.38
294.141	628.38
294.372	627.38
294.603	634.38
294.833	637.38
295.064	622.38
295.295	649.38
295.525	619.38
295.756	620.38
295.987	628.38
296.217	625.38
296.448	659.38
296.679	639.38
296.909	649.38
297.14	641.38
297.37	647.38
297.601	656.38
297.831	634.38
298.062	655.38
298.292	693.38
298.523	685.38
298.753	685.38
298.984	663.38
299.214	660.38
299.445	668.38
299.675	665.38
299.905	664.38
300.136	693.38
300.366	686.38
300.597	689.38
300.827	715.38
301.057	698.38
301.288	693.38
301.518	700.38
301.748	689.38
301.979	692.38
302.209	688.38
302.439	692.38
302.669	699.38
302.9	709.38
303.13	705.38
303.36	700.38
303.59	685.38
303.82	697.38
304.051	736.38
304.281	695.38
304.511	729.38
304.741	727.38
304.971	749.38
305.201	724.38
305.431	723.38
305.661	742.38
305.891	736.38
306.121	695.38
306.352	717.38
306.582	723.38
306.812	729.38
307.042	724.38
307.272	728.38
307.502	700.38
307.731	721.38
307.961	715.38
308.191	723.38
308.421	727.38
308.651	724.38
308.881	717.38
309.111	742.38
309.341	733.38
309.571	738.38
309.8	737.38
310.03	765.38
310.26	784.38
310.49	773.38
310.72	756.38
310.949	746.38
311.179	739.38
311.409	752.38
311.639	769.38
311.868	734.38
312.098	766.38
312.328	769.38
312.557	805.38
312.787	792.38
313.017	798.38
313.246	802.38
313.476	824.38
313.706	817.38
313.935	791.38
314.165	787.38
314.394	783.38
314.624	817.38
314.853	777.38
315.083	809.38
315.312	810.38
315.542	830.38
315.771	775.38
316.001	818.38
316.23	810.38
316.46	809.38
316.689	807.38
316.919	836.38
317.148	809.38
317.377	820.38
317.607	823.38
317.836	804.38
318.065	845.38
318.295	833.38
318.524	833.38
318.753	829.38
318.983	851.38
319.212	829.38
319.441	860.38
319.67	843.38
319.9	853.38
320.129	873.38
320.358	829.38
320.587	863.38
320.816	865.38
321.046	881.38
321.275	876.38
321.504	899.38
321.733	905.38
321.962	900.38
322.191	886.38
322.42	896.38
322.649	883.38
322.878	893.38
323.108	896.38
323.337	903.38
323.566	888.38
323.795	918.38
324.024	904.38
324.253	916.38
324.482	903.38
324.71	913.38
324.939	909.38
325.168	939.38
325.397	916.38
325.626	924.38
325.855	935.38
326.084	965.38
326.313	958.38
326.542	941.38
326.77	976.38
326.999	960.38
327.228	952.38
327.457	964.38
327.686	977.38
327.914	978.38
328.143	970.38
328.372	973.38
328.6	991.38
328.829	947.38
329.058	997.38
329.287	999.38
329.515	997.38
329.744	992.38
329.972	993.38
330.201	994.38
330.43	983.38
330.658	994.38
330.887	1023.38
331.115	1012.38
331.344	1001.38
331.572	1012.38
331.801	1042.38
332.03	1036.38
332.258	993.38
332.486	996.38
332.715	995.38
332.943	1023.38
333.172	1032.38
333.4	1064.38
333.629	1073.38
333.857	1061.38
334.085	1062.38
334.314	1068.38
334.542	1057.38
334.771	1075.38
334.999	1068.38
335.227	1057.38
335.455	1079.38
335.684	1077.38
335.912	1097.38
336.14	1101.38
336.369	1097.38
336.597	1087.38
336.825	1135.38
337.053	1097.38
337.281	1113.38
337.51	1105.38
337.738	1113.38
337.966	1055.38
338.194	1118.38
338.422	1118.38
338.65	1074.38
338.878	1060.38
339.106	1061.38
339.334	1110.38
339.562	1110.38
339.79	1076.38
340.018	1078.38
340.246	1032.38
340.474	1086.38
340.702	1077.38
340.93	1054.38
341.158	1052.38
341.386	1109.38
341.614	1150.38
341.842	1099.38
342.07	1056.38
342.298	1105.38
342.526	1091.38
342.754	1110.38
342.981	1032.38
343.209	1063.38
343.437	1117.38
343.665	1102.38
343.893	1092.38
344.12	1087.38
344.348	1090.38
344.576	1127.38
344.804	1137.38
345.031	1111.38
345.259	1093.38
345.487	1090.38
345.714	1088.38
345.942	1096.38
346.17	1134.38
346.397	1107.38
346.625	1011.38
346.853	1030.38
347.08	1018.38
347.308	1042.38
347.535	1050.38
347.763	1063.38
347.99	1035.38
348.218	1025.38
348.445	1043.38
348.673	1012.38
348.9	1030.38
349.128	1083.38
349.355	1081.38
349.583	1094.38
349.81	1025.38
350.037	1040.38
350.265	1048.38
350.492	1040.38
350.72	1012.38
350.947	1057.38
351.174	1051.38
351.402	1075.38
351.629	1062.38
351.856	1035.38
352.083	1046.38
352.311	1071.38
352.538	1055.38
352.765	1072.38
352.992	1047.38
353.22	1010.38
353.447	993.38
353.674	994.38
353.901	994.38
354.128	1002.38
354.355	1031.38
354.583	1011.38
354.81	1003.38
355.037	1039.38
355.264	999.38
355.491	1047.38
355.718	1014.38
355.945	992.38
356.172	1009.38
356.399	1035.38
356.626	1043.38
356.853	1089.38
357.08	1044.38
357.307	1028.38
357.534	1031.38
357.761	1052.38
357.988	1007.38
358.215	1040.38
358.441	1007.38
358.668	1016.38
358.895	1020.38
359.122	1008.38
359.349	1011.38
359.576	1019.38
359.802	1015.38
360.029	1031.38
360.256	1009.38
360.483	1003.38
360.709	1027.38
360.936	1002.38
361.163	1037.38
361.39	1021.38
361.616	1033.38
361.843	1088.38
362.07	1087.38
362.296	1063.38
362.523	1040.38
362.749	990.38
362.976	1061.38
363.203	1024.38
363.429	1011.38
363.656	1014.38
363.882	1058.38
364.109	1014.38
364.335	1028.38
364.562	1027.38
364.788	1023.38
365.015	1073.38
365.241	1009.38
365.468	1041.38
365.694	1024.38
365.92	1047.38
366.147	1041.38
366.373	1026.38
366.599	1063.38
366.826	1041.38
367.052	1071.38
367.278	1035.38
367.505	1043.38
367.731	1068.38
367.957	1054.38
368.184	1059.38
368.41	1056.38
368.636	1078.38
368.862	1085.38
369.089	1067.38
369.315	1023.38
369.541	1048.38
369.767	1073.38
369.993	1017.38
370.219	1062.38
370.445	1066.38
370.672	1049.38
370.898	1060.38
371.124	1055.38
371.35	1081.38
371.576	1080.38
371.802	1058.38
372.028	1084.38
372.254	1094.38
372.48	1056.38
372.706	1077.38
372.932	1063.38
373.158	1055.38
373.384	1074.38
373.61	1039.38
373.835	1059.38
374.061	1060.38
374.287	1115.38
374.513	1079.38
374.739	1118.38
374.965	1109.38
375.191	1079.38
375.416	1071.38
375.642	1095.38
375.868	1063.38
376.094	1082.38
376.319	1088.38
376.545	1041.38
376.771	1052.38
376.997	1054.38
377.222	1082.38
377.448	1059.38
377.674	1097.38
377.899	1073.38
378.125	1060.38
378.35	1051.38
378.576	1045.38
378.802	1063.38
379.027	1047.38
379.253	1043.38
379.478	1054.38
379.704	1090.38
379.929	1056.38
380.155	1031.38
380.38	1049.38
380.606	1076.38
380.831	1077.38
381.057	1067.38
381.282	1059.38
381.507	1056.38
381.733	1052.38
381.958	1079.38
382.184	1079.38
382.409	1079.38
382.634	1073.38
382.86	1075.38
383.085	1085.38
383.31	1088.38
383.535	1043.38
383.761	1093.38
383.986	1051.38
384.211	1060.38
384.436	1083.38
384.662	1114.38
384.887	1082.38
385.112	1105.38
385.337	1130.38
385.562	1075.38
385.787	1106.38
386.013	1143.38
386.238	1147.38
386.463	1143.38
386.688	1116.38
386.913	1104.38
387.138	1133.38
387.363	1133.38
387.588	1086.38
387.813	1147.38
388.038	1148.38
388.263	1131.38
388.488	1112.38
388.713	1148.38
388.938	1145.38
389.163	1139.38
389.387	1154.38
389.612	1126.38
389.837	1147.38
390.062	1122.38
390.287	1167.38
390.512	1153.38
390.736	1139.38
390.961	1156.38
391.186	1141.38
391.411	1130.38
391.636	1149.38
391.86	1183.38
392.085	1151.38
392.31	1133.38
392.534	1180.38
392.759	1191.38
392.984	1132.38
393.208	1183.38
393.433	1190.38
393.658	1169.38
393.882	1171.38
394.107	1172.38
394.331	1166.38
394.556	1172.38
394.78	1175.38
395.005	1169.38
395.229	1159.38
395.454	1184.38
395.678	1153.38
395.903	1168.38
396.127	1168.38
396.352	1203.38
396.576	1228.38
396.801	1199.38
397.025	1170.38
397.249	1195.38
397.474	1201.38
397.698	1225.38
397.922	1232.38
398.147	1196.38
398.371	1236.38
398.595	1233.38
398.82	1242.38
399.044	1251.38
399.268	1281.38
399.492	1322.38
399.717	1314.38
399.941	1362.38
400.165	1353.38
400.389	1324.38
400.613	1311.38
400.837	1253.38
401.062	1270.38
401.286	1279.38
401.51	1265.38
401.734	1250.38
401.958	1281.38
402.182	1252.38
402.406	1244.38
402.63	1244.38
402.854	1258.38
403.078	1259.38
403.302	1291.38
403.526	1260.38
403.75	1243.38
403.974	1280.38
404.198	1245.38
404.422	1288.38
404.645	1264.38
404.869	1273.38
405.093	1288.38
405.317	1282.38
405.541	1315.38
405.765	1261.38
405.988	1293.38
406.212	1331.38
406.436	1321.38
406.66	1322.38
406.883	1294.38
407.107	1344.38
407.331	1331.38
407.555	1411.38
407.778	1364.38
408.002	1347.38
408.226	1368.38
408.449	1355.38
408.673	1367.38
408.896	1340.38
409.12	1349.38
409.344	1352.38
409.567	1338.38
409.791	1316.38
410.014	1296.38
410.238	1329.38
410.461	1301.38
410.685	1309.38
410.908	1327.38
411.132	1340.38
411.355	1311.38
411.578	1281.38
411.802	1329.38
412.025	1301.38
412.249	1316.38
412.472	1282.38
412.695	1292.38
412.919	1294.38
413.142	1290.38
413.365	1310.38
413.589	1324.38
413.812	1279.38
414.035	1287.38
414.258	1266.38
414.482	1267.38
414.705	1238.38
414.928	1259.38
415.151	1265.38
415.374	1270.38
415.597	1248.38
415.821	1231.38
416.044	1251.38
416.267	1246.38
416.49	1251.38
416.713	1233.38
416.936	1256.38
417.159	1225.38
417.382	1205.38
417.605	1221.38
417.828	1242.38
418.051	1219.38
418.274	1216.38
418.497	1235.38
418.72	1220.38
418.943	1227.38
419.166	1309.38
419.389	1305.38
419.611	1303.38
419.834	1276.38
420.057	1249.38
420.28	1231.38
420.503	1190.38
420.726	1192.38
420.948	1219.38
421.171	1202.38
421.394	1233.38
421.617	1217.38
421.839	1237.38
422.062	1217.38
422.285	1194.38
422.507	1227.38
422.73	1189.38
422.953	1222.38
423.175	1227.38
423.398	1216.38
423.621	1200.38
423.843	1215.38
424.066	1233.38
424.288	1222.38
424.511	1229.38
424.733	1222.38
424.956	1238.38
425.178	1211.38
425.401	1200.38
425.623	1235.38
425.846	1217.38
426.068	1235.38
426.291	1242.38
426.513	1249.38
426.735	1191.38
426.958	1207.38
427.18	1195.38
427.402	1225.38
427.625	1217.38
427.847	1225.38
428.069	1231.38
428.292	1236.38
428.514	1210.38
428.736	1222.38
428.958	1241.38
429.181	1177.38
429.403	1192.38
429.625	1215.38
429.847	1220.38
430.069	1220.38
430.292	1215.38
430.514	1203.38
430.736	1228.38
430.958	1193.38
431.18	1211.38
431.402	1223.38
431.624	1184.38
431.846	1189.38
432.068	1184.38
432.29	1224.38
432.512	1171.38
432.734	1240.38
432.956	1232.38
433.178	1251.38
433.4	1232.38
433.622	1274.38
433.844	1264.38
434.066	1249.38
434.287	1229.38
434.509	1227.38
434.731	1209.38
434.953	1247.38
435.175	1265.38
435.397	1283.38
435.618	1239.38
435.84	1223.38
436.062	1237.38
436.284	1233.38
436.505	1211.38
436.727	1215.38
436.949	1204.38
437.17	1220.38
437.392	1213.38
437.614	1195.38
437.835	1199.38
438.057	1177.38
438.278	1194.38
438.5	1195.38
438.721	1172.38
438.943	1197.38
439.165	1177.38
439.386	1218.38
439.608	1205.38
439.829	1220.38
440.05	1221.38
440.272	1200.38
440.493	1247.38
440.715	1242.38
440.936	1209.38
441.158	1206.38
441.379	1244.38
441.6	1272.38
441.822	1212.38
442.043	1240.38
442.264	1223.38
442.486	1228.38
442.707	1243.38
442.928	1209.38
443.149	1252.38
443.371	1242.38
443.592	1293.38
443.813	1243.38
444.034	1273.38
444.255	1276.38
444.476	1275.38
444.698	1258.38
444.919	1308.38
445.14	1393.38
445.361	1364.38
445.582	1285.38
445.803	1264.38
446.024	1196.38
446.245	1224.38
446.466	1202.38
446.687	1190.38
446.908	1223.38
447.129	1174.38
447.35	1187.38
447.571	1192.38
447.792	1150.38
448.013	1147.38
448.234	1151.38
448.455	1116.38
448.675	1121.38
448.896	1133.38
449.117	1123.38
449.338	1148.38
449.559	1137.38
449.779	1084.38
450	1124.38
450.221	1117.38
450.442	1121.38
450.662	1111.38
450.883	1136.38
451.104	1146.38
451.324	1115.38
451.545	1130.38
451.766	1124.38
451.986	1102.38
452.207	1113.38
452.428	1091.38
452.648	1100.38
452.869	1119.38
453.089	1115.38
453.31	1149.38
453.53	1129.38
453.751	1097.38
453.971	1097.38
454.192	1136.38
454.412	1135.38
454.633	1131.38
454.853	1116.38
455.073	1115.38
455.294	1125.38
455.514	1141.38
455.734	1113.38
455.955	1128.38
456.175	1124.38
456.395	1084.38
456.616	1069.38
456.836	1082.38
457.056	1067.38
457.276	1055.38
457.497	1120.38
457.717	1143.38
457.937	1106.38
458.157	1132.38
458.377	1122.38
458.598	1119.38
458.818	1134.38
459.038	1141.38
459.258	1164.38
459.478	1185.38
459.698	1273.38
459.918	1246.38
460.138	1266.38
460.358	1229.38
460.578	1234.38
460.798	1243.38
461.018	1281.38
461.238	1244.38
461.458	1232.38
461.678	1233.38
461.898	1249.38
462.118	1250.38
462.338	1266.38
462.558	1271.38
462.777	1322.38
462.997	1334.38
463.217	1307.38
463.437	1372.38
463.657	1340.38
463.876	1311.38
464.096	1268.38
464.316	1284.38
464.536	1297.38
464.755	1286.38
464.975	1286.38
465.195	1238.38
465.414	1273.38
465.634	1189.38
465.854	1209.38
466.073	1209.38
466.293	1183.38
466.512	1162.38
466.732	1175.38
466.951	1166.38
467.171	1217.38
467.391	1172.38
467.61	1173.38
467.829	1189.38
468.049	1147.38
468.268	1183.38
468.488	1146.38
468.707	1167.38
468.927	1185.38
469.146	1184.38
469.365	1209.38
469.585	1171.38
469.804	1180.38
470.023	1188.38
470.243	1153.38
470.462	1189.38
470.681	1172.38
470.901	1164.38
471.12	1164.38
471.339	1170.38
471.558	1188.38
471.777	1180.38
471.997	1185.38
472.216	1163.38
472.435	1196.38
472.654	1179.38
472.873	1176.38
473.092	1192.38
473.311	1217.38
473.53	1193.38
473.749	1177.38
473.968	1222.38
474.187	1196.38
474.406	1195.38
474.625	1206.38
474.844	1216.38
475.063	1196.38
475.282	1234.38
475.501	1237.38
475.72	1247.38
475.939	1260.38
476.158	1232.38
476.377	1272.38
476.596	1265.38
476.814	1246.38
477.033	1229.38
477.252	1284.38
477.471	1292.38
477.69	1301.38
477.908	1317.38
478.127	1299.38
478.346	1349.38
478.564	1380.38
478.783	1353.38
479.002	1413.38
479.22	1420.38
479.439	1412.38
479.658	1389.38
479.876	1394.38
480.095	1383.38
480.313	1384.38
480.532	1412.38
480.751	1385.38
480.969	1353.38
481.188	1379.38
481.406	1364.38
481.624	1380.38
481.843	1398.38
482.061	1393.38
482.28	1374.38
482.498	1359.38
482.717	1375.38
482.935	1435.38
483.153	1439.38
483.372	1435.38
483.59	1466.38
483.808	1414.38
484.027	1412.38
484.245	1422.38
484.463	1427.38
484.681	1456.38
484.9	1404.38
485.118	1439.38
485.336	1401.38
485.554	1412.38
485.772	1416.38
485.99	1426.38
486.209	1401.38
486.427	1423.38
486.645	1447.38
486.863	1443.38
487.081	1451.38
487.299	1467.38
487.517	1464.38
487.735	1468.38
487.953	1513.38
488.171	1482.38
488.389	1469.38
488.607	1434.38
488.825	1468.38
489.043	1463.38
489.261	1469.38
489.479	1429.38
489.696	1453.38
489.914	1437.38
490.132	1445.38
490.35	1477.38
490.568	1473.38
490.786	1448.38
491.003	1467.38
491.221	1509.38
491.439	1478.38
491.657	1488.38
491.874	1530.38
492.092	1538.38
492.31	1547.38
492.527	1530.38
492.745	1519.38
492.963	1521.38
493.18	1509.38
493.398	1515.38
493.615	1505.38
493.833	1519.38
494.05	1505.38
494.268	1522.38
494.485	1537.38
494.703	1535.38
494.92	1557.38
495.138	1547.38
495.355	1523.38
495.573	1561.38
495.79	1539.38
496.008	1546.38
496.225	1558.38
496.442	1556.38
496.66	1559.38
496.877	1613.38
497.094	1590.38
497.312	1602.38
497.529	1599.38
497.746	1633.38
497.963	1635.38
498.181	1671.38
498.398	1713.38
498.615	1686.38
498.832	1756.38
499.049	1773.38
499.267	1792.38
499.484	1790.38
499.701	1883.38
499.918	1872.38
500.135	1945.38
500.352	1980.38
500.569	1986.38
500.786	1963.38
501.003	1963.38
501.22	1954.38
501.437	1874.38
501.654	1842.38
501.871	1836.38
502.088	1789.38
502.305	1776.38
502.522	1726.38
502.739	1717.38
502.956	1628.38
503.172	1618.38
503.389	1629.38
503.606	1603.38
503.823	1593.38
504.04	1561.38
504.256	1560.38
504.473	1578.38
504.69	1505.38
504.907	1493.38
505.123	1457.38
505.34	1464.38
505.557	1456.38
505.773	1459.38
505.99	1463.38
506.207	1387.38
506.423	1411.38
506.64	1386.38
506.856	1384.38
507.073	1401.38
507.289	1364.38
507.506	1381.38
507.722	1380.38
507.939	1364.38
508.155	1368.38
508.372	1334.38
508.588	1363.38
508.805	1321.38
509.021	1306.38
509.238	1315.38
509.454	1286.38
509.67	1241.38
509.887	1275.38
510.103	1305.38
510.319	1273.38
510.536	1273.38
510.752	1259.38
510.968	1248.38
511.184	1243.38
511.401	1310.38
511.617	1245.38
511.833	1241.38
512.049	1257.38
512.265	1252.38
512.481	1257.38
512.698	1260.38
512.914	1221.38
513.13	1229.38
513.346	1229.38
513.562	1264.38
513.778	1251.38
513.994	1269.38
514.21	1249.38
514.426	1232.38
514.642	1243.38
514.858	1231.38
515.074	1266.38
515.29	1264.38
515.506	1253.38
515.721	1232.38
515.937	1278.38
516.153	1266.38
516.369	1228.38
516.585	1272.38
516.801	1254.38
517.016	1254.38
517.232	1279.38
517.448	1277.38
517.664	1304.38
517.879	1257.38
518.095	1286.38
518.311	1299.38
518.527	1281.38
518.742	1238.38
518.958	1281.38
519.173	1248.38
519.389	1240.38
519.605	1229.38
519.82	1195.38
520.036	1241.38
520.251	1212.38
520.467	1186.38
520.682	1204.38
520.898	1183.38
521.113	1195.38
521.329	1181.38
521.544	1188.38
521.76	1205.38
521.975	1165.38
522.19	1170.38
522.406	1140.38
522.621	1174.38
522.836	1163.38
523.052	1160.38
523.267	1161.38
523.482	1149.38
523.698	1157.38
523.913	1141.38
524.128	1157.38
524.343	1142.38
524.559	1147.38
524.774	1140.38
524.989	1161.38
525.204	1132.38
525.419	1169.38
525.634	1159.38
525.849	1163.38
526.064	1114.38
526.28	1139.38
526.495	1131.38
526.71	1117.38
526.925	1082.38
527.14	1108.38
527.355	1119.38
527.57	1115.38
527.785	1104.38
527.999	1104.38
528.214	1131.38
528.429	1098.38
528.644	1112.38
528.859	1120.38
529.074	1099.38
529.289	1112.38
529.503	1104.38
529.718	1101.38
529.933	1079.38
530.148	1114.38
530.363	1094.38
530.577	1081.38
530.792	1072.38
531.007	1048.38
531.221	1094.38
531.436	1087.38
531.651	1072.38
531.865	1057.38
532.08	1087.38
532.295	1060.38
532.509	1071.38
532.724	1048.38
532.938	1061.38
533.153	1059.38
533.367	1062.38
533.582	1087.38
533.796	1057.38
534.011	1047.38
534.225	1019.38
534.44	1037.38
534.654	1067.38
534.868	1035.38
535.083	1036.38
535.297	1031.38
535.511	1011.38
535.726	1007.38
535.94	1038.38
536.154	1004.38
536.369	1023.38
536.583	996.38
536.797	1011.38
537.011	1003.38
537.225	1038.38
537.44	1010.38
537.654	1024.38
537.868	989.38
538.082	995.38
538.296	1003.38
538.51	1002.38
538.724	1003.38
538.938	1007.38
539.153	995.38
539.367	1003.38
539.581	987.38
539.795	981.38
540.009	976.38
540.222	951.38
540.436	971.38
540.65	964.38
540.864	979.38
541.078	957.38
541.292	986.38
541.506	1026.38
541.72	986.38
541.934	981.38
542.147	1011.38
542.361	963.38
542.575	947.38
542.789	952.38
543.002	963.38
543.216	956.38
543.43	975.38
543.644	955.38
543.857	963.38
544.071	967.38
544.285	956.38
544.498	956.38
544.712	985.38
544.925	974.38
545.139	984.38
545.352	963.38
545.566	952.38
545.779	969.38
545.993	970.38
546.206	988.38
546.42	962.38
546.633	962.38
546.847	969.38
547.06	958.38
547.274	943.38
547.487	936.38
547.7	970.38
547.914	987.38
548.127	963.38
548.34	953.38
548.554	937.38
548.767	917.38
548.98	949.38
549.193	934.38
549.407	949.38
549.62	940.38
549.833	920.38
550.046	950.38
550.259	905.38
550.473	899.38
550.686	924.38
550.899	945.38
551.112	924.38
551.325	913.38
551.538	930.38
551.751	913.38
551.964	915.38
552.177	893.38
552.39	904.38
552.603	920.38
552.816	901.38
553.029	918.38
553.242	938.38
553.455	929.38
553.667	939.38
553.88	909.38
554.093	890.38
554.306	881.38
554.519	880.38
554.732	872.38
554.944	878.38
555.157	882.38
555.37	875.38
555.583	892.38
555.795	891.38
556.008	858.38
556.221	836.38
556.433	847.38
556.646	820.38
556.859	841.38
557.071	860.38
557.284	836.38
557.496	839.38
557.709	834.38
557.921	804.38
558.134	825.38
558.346	824.38
558.559	793.38
558.771	811.38
558.984	817.38
559.196	806.38
559.409	822.38
559.621	826.38
559.833	799.38
560.046	822.38
560.258	834.38
560.47	786.38
560.683	789.38
560.895	800.38
561.107	806.38
561.32	797.38
561.532	803.38
561.744	810.38
561.956	777.38
562.168	808.38
562.381	783.38
562.593	806.38
562.805	793.38
563.017	789.38
563.229	809.38
563.441	793.38
563.653	795.38
563.865	820.38
564.077	784.38
564.289	824.38
564.501	792.38
564.713	777.38
564.925	780.38
565.137	810.38
565.349	815.38
565.561	807.38
565.773	799.38
565.985	824.38
566.197	829.38
566.408	849.38
566.62	850.38
566.832	851.38
567.044	841.38
567.255	861.38
567.467	829.38
567.679	820.38
567.891	864.38
568.102	815.38
568.314	803.38
568.526	801.38
568.737	808.38
568.949	797.38
569.161	765.38
569.372	773.38
569.584	741.38
569.795	744.38
570.007	741.38
570.218	731.38
570.43	711.38
570.641	729.38
570.853	714.38
571.064	692.38
571.276	713.38
571.487	693.38
571.698	710.38
571.91	689.38
572.121	687.38
572.333	671.38
572.544	662.38
572.755	674.38
572.966	649.38
573.178	641.38
573.389	646.38
573.6	657.38
573.811	631.38
574.023	646.38
574.234	637.38
574.445	641.38
574.656	604.38
574.867	604.38
575.078	620.38
575.289	612.38
575.501	598.38
575.712	599.38
575.923	605.38
576.134	625.38
576.345	588.38
576.556	643.38
576.767	620.38
576.978	612.38
577.188	597.38
577.399	625.38
577.61	595.38
577.821	604.38
578.032	582.38
578.243	573.38
578.454	585.38
578.665	584.38
578.875	577.38
579.086	552.38
579.297	549.38
579.508	560.38
579.718	569.38
579.929	571.38
580.14	557.38
580.35	559.38
580.561	565.38
580.772	571.38
580.982	560.38
581.193	579.38
581.403	532.38
581.614	529.38
581.825	549.38
582.035	544.38
582.246	555.38
582.456	528.38
582.667	533.38
582.877	546.38
583.087	568.38
583.298	537.38
583.508	529.38
583.719	547.38
583.929	511.38
584.139	520.38
584.35	507.38
584.56	516.38
584.77	538.38
584.981	529.38
585.191	515.38
585.401	511.38
585.611	523.38
585.821	512.38
586.032	515.38
586.242	533.38
586.452	520.38
586.662	500.38
586.872	502.38
587.082	507.38
587.292	515.38
587.502	491.38
587.713	515.38
587.923	488.38
588.133	513.38
588.343	502.38
588.553	486.38
588.762	516.38
588.972	503.38
589.182	549.38
589.392	532.38
589.602	525.38
589.812	538.38
590.022	504.38
590.232	495.38
590.441	512.38
590.651	489.38
590.861	478.38
591.071	501.38
591.281	495.38
591.49	489.38
591.7	498.38
591.91	491.38
592.119	485.38
592.329	514.38
592.539	493.38
592.748	487.38
592.958	492.38
593.167	472.38
593.377	509.38
593.587	492.38
593.796	492.38
594.006	497.38
594.215	491.38
594.424	485.38
594.634	485.38
594.843	466.38
595.053	490.38
595.262	471.38
595.472	474.38
595.681	486.38
595.89	448.38
596.1	452.38
596.309	456.38
596.518	459.38
596.727	467.38
596.937	464.38
597.146	437.38
597.355	444.38
597.564	444.38
597.774	451.38
597.983	449.38
598.192	433.38
598.401	460.38
598.61	458.38
598.819	433.38
599.028	455.38
599.237	429.38
599.446	423.38
599.655	439.38
599.864	421.38
600.073	426.38
600.282	413.38
600.491	410.38
600.7	422.38
600.909	431.38
601.118	407.38
601.327	406.38
601.536	426.38
601.745	416.38
601.953	427.38
602.162	417.38
602.371	416.38
602.58	440.38
602.789	423.38
602.997	405.38
603.206	407.38
603.415	403.38
603.623	409.38
603.832	396.38
604.041	397.38
604.249	410.38
604.458	391.38
604.666	407.38
604.875	395.38
605.084	397.38
605.292	393.38
605.501	372.38
605.709	373.38
605.918	390.38
606.126	393.38
606.334	381.38
606.543	387.38
606.751	382.38
606.96	393.38
607.168	375.38
607.376	383.38
607.585	390.38
607.793	361.38
608.001	383.38
608.21	379.38
608.418	375.38
608.626	376.38
608.834	381.38
609.043	403.38
609.251	388.38
609.459	364.38
609.667	375.38
609.875	382.38
610.083	391.38
610.291	374.38
610.499	378.38
610.707	362.38
610.916	373.38
611.124	383.38
611.332	367.38
611.54	383.38
611.748	374.38
611.955	365.38
612.163	371.38
612.371	369.38
612.579	364.38
612.787	367.38
612.995	363.38
613.203	367.38
613.411	343.38
613.618	351.38
613.826	369.38
614.034	351.38
614.242	359.38
614.449	343.38
614.657	366.38
614.865	331.38
615.072	350.38
615.28	360.38
615.488	355.38
615.695	370.38
615.903	354.38
616.111	357.38
616.318	354.38
616.526	351.38
616.733	352.38
616.941	351.38
617.148	324.38
617.356	345.38
617.563	345.38
617.771	354.38
617.978	328.38
618.185	342.38
618.393	332.38
618.6	343.38
618.807	348.38
619.015	346.38
619.222	329.38
619.429	336.38
619.637	348.38
619.844	342.38
620.051	340.38
620.258	327.38
620.466	335.38
620.673	336.38
620.88	311.38
621.087	332.38
621.294	308.38
621.501	326.38
621.708	327.38
621.915	327.38
622.122	323.38
622.329	341.38
622.536	330.38
622.743	331.38
622.95	321.38
623.157	323.38
623.364	297.38
623.571	324.38
623.778	323.38
623.985	324.38
624.192	310.38
624.399	319.38
624.606	307.38
624.812	327.38
625.019	300.38
625.226	329.38
625.433	309.38
625.639	306.38
625.846	291.38
626.053	298.38
626.259	279.38
626.466	275.38
626.673	288.38
626.879	275.38
627.086	291.38
627.293	305.38
627.499	293.38
627.706	315.38
627.912	309.38
628.119	312.38
628.325	289.38
628.532	304.38
628.738	264.38
628.945	295.38
629.151	299.38
629.357	306.38
629.564	293.38
629.77	289.38
629.976	299.38
630.183	272.38
630.389	269.38
630.595	283.38
630.802	264.38
631.008	281.38
631.214	291.38
631.42	289.38
631.627	285.38
631.833	301.38
632.039	268.38
632.245	271.38
632.451	251.38
632.657	257.38
632.863	263.38
633.069	273.38
633.275	296.38
633.481	288.38
633.688	273.38
633.893	253.38
634.099	262.38
634.305	268.38
634.511	270.38
634.717	264.38
634.923	273.38
635.129	266.38
635.335	265.38
635.541	277.38
635.747	252.38
635.952	259.38
636.158	271.38
636.364	248.38
636.57	257.38
636.775	259.38
636.981	242.38
637.187	259.38
637.392	262.38
637.598	276.38
637.804	251.38
638.009	267.38
638.215	273.38
638.421	265.38
638.626	262.38
638.832	251.38
639.037	252.38
639.243	271.38
639.448	262.38
639.654	228.38
639.859	259.38
640.065	248.38
640.27	266.38
640.475	259.38
640.681	249.38
640.886	250.38
641.091	268.38
641.297	246.38
641.502	241.38
641.707	255.38
641.913	255.38
642.118	231.38
642.323	248.38
642.528	249.38
642.733	259.38
642.939	257.38
643.144	246.38
643.349	247.38
643.554	227.38
643.759	224.38
643.964	241.38
644.169	253.38
644.374	257.38
644.579	256.38
644.784	260.38
644.989	244.38
645.194	260.38
645.399	244.38
645.604	255.38
645.809	249.38
646.014	255.38
646.219	235.38
646.423	244.38
646.628	242.38
646.833	239.38
647.038	233.38
647.243	257.38
647.447	253.38
647.652	259.38
647.857	257.38
648.062	236.38
648.266	246.38
648.471	261.38
648.676	267.38
648.88	241.38
649.085	259.38
649.289	242.38
649.494	232.38
649.698	259.38
649.903	235.38
650.107	253.38
650.312	250.38
650.516	232.38
650.721	237.38
650.925	229.38
651.13	229.38
651.334	224.38
651.539	217.38
651.743	221.38
651.947	228.38
652.152	239.38
652.356	219.38
652.56	225.38
652.764	214.38
652.969	221.38
653.173	224.38
653.377	222.38
653.581	218.38
653.785	213.38
653.99	211.38
654.194	200.38
654.398	202.38
654.602	190.38
654.806	186.38
655.01	196.38
655.214	205.38
655.418	210.38
655.622	205.38
655.826	198.38
656.03	227.38
656.234	209.38
656.438	202.38
656.642	207.38
656.846	176.38
657.049	193.38
657.253	191.38
657.457	188.38
657.661	178.38
657.865	168.38
658.068	161.38
658.272	151.38
658.476	154.38
658.68	149.38
658.883	155.38
659.087	141.38
659.291	125.38
659.494	119.38
659.698	128.38
659.901	131.38
660.105	115.38
660.309	113.38
660.512	116.38
660.716	99.38
660.919	109.38
661.123	115.38
661.326	114.38
661.53	117.38
661.733	105.38
661.936	110.38
662.14	85.38
662.343	86.38
662.546	91.38
662.75	90.38
662.953	85.38
663.156	83.38
663.36	87.38
663.563	95.38
663.766	78.38
663.969	79.38
664.173	90.38
664.376	75.38
664.579	81.38
664.782	104.38
664.985	79.38
665.188	65.38
665.391	89.38
665.594	80.38
665.797	85.38
666	90.38
666.203	75.38
666.406	79.38
666.609	81.38
666.812	81.38
667.015	85.38
667.218	89.38
667.421	92.38
667.624	84.38
667.827	76.38
668.03	75.38
668.232	83.38
668.435	83.38
668.638	81.38
668.841	75.38
669.043	84.38
669.246	62.38
669.449	82.38
669.651	85.38
669.854	99.38
670.057	74.38
670.259	72.38
670.462	82.38
670.665	84.38
670.867	81.38
671.07	92.38
671.272	87.38
671.475	83.38
671.677	82.38
671.88	87.38
672.082	74.38
672.284	67.38
672.487	73.38
672.689	77.38
672.892	78.38
