Data from Ni(NO3)2@0.125M.TitratingCurve.Agarose3%dH2O.NegLispCup.LampEnergy10.LIBS07252019_HRD10591_18-10-35-567.txt Node
Date: Thu Jul 25 18:10:35 EDT 2019
User: cochatt
Spectrometer: HR+D1059
Trigger mode: 1
Integration Time (sec): 1.000000E-1
Scans to average: 1
Electric dark correction enabled: true
Nonlinearity correction enabled: false
Boxcar width: 0
XAxis mode: Wavelengths
Number of Pixels in Spectrum: 2048
>>>>>Begin Spectral Data<<<<<
223.165	-19.94
223.4	-19.94
223.635	-19.94
223.869	-24.94
224.104	-37.94
224.338	-13.94
224.573	-10.94
224.808	-6.94
225.042	-5.94
225.277	-13.94
225.511	-2.94
225.746	-1.94
225.98	12.06
226.215	4.06
226.449	27.06
226.683	29.06
226.918	26.06
227.152	41.06
227.387	23.06
227.621	39.06
227.856	36.06
228.09	53.06
228.324	51.06
228.559	57.06
228.793	75.06
229.027	109.06
229.262	110.06
229.496	118.06
229.73	115.06
229.964	125.06
230.199	123.06
230.433	134.06
230.667	133.06
230.901	121.06
231.136	125.06
231.37	127.06
231.604	143.06
231.838	138.06
232.072	148.06
232.306	143.06
232.541	150.06
232.775	131.06
233.009	149.06
233.243	149.06
233.477	138.06
233.711	148.06
233.945	147.06
234.179	145.06
234.413	157.06
234.647	158.06
234.881	141.06
235.115	157.06
235.349	150.06
235.583	148.06
235.817	158.06
236.051	139.06
236.285	152.06
236.519	163.06
236.753	168.06
236.987	149.06
237.221	151.06
237.455	188.06
237.689	167.06
237.922	161.06
238.156	157.06
238.39	155.06
238.624	177.06
238.858	168.06
239.091	149.06
239.325	165.06
239.559	185.06
239.793	168.06
240.027	170.06
240.26	165.06
240.494	170.06
240.728	173.06
240.961	177.06
241.195	179.06
241.429	184.06
241.662	193.06
241.896	177.06
242.13	172.06
242.363	172.06
242.597	207.06
242.83	197.06
243.064	203.06
243.298	203.06
243.531	194.06
243.765	202.06
243.998	222.06
244.232	201.06
244.465	215.06
244.699	221.06
244.932	215.06
245.166	197.06
245.399	202.06
245.633	226.06
245.866	225.06
246.099	222.06
246.333	213.06
246.566	230.06
246.8	217.06
247.033	243.06
247.266	221.06
247.5	227.06
247.733	229.06
247.966	210.06
248.2	229.06
248.433	219.06
248.666	234.06
248.899	247.06
249.133	236.06
249.366	245.06
249.599	253.06
249.832	237.06
250.066	227.06
250.299	243.06
250.532	239.06
250.765	251.06
250.998	247.06
251.231	254.06
251.465	261.06
251.698	265.06
251.931	281.06
252.164	269.06
252.397	271.06
252.63	298.06
252.863	267.06
253.096	265.06
253.329	263.06
253.562	271.06
253.795	296.06
254.028	288.06
254.261	268.06
254.494	283.06
254.727	282.06
254.96	276.06
255.193	269.06
255.426	282.06
255.659	294.06
255.892	295.06
256.124	291.06
256.357	297.06
256.59	298.06
256.823	264.06
257.056	293.06
257.289	299.06
257.521	306.06
257.754	297.06
257.987	305.06
258.22	307.06
258.452	297.06
258.685	318.06
258.918	321.06
259.151	301.06
259.383	309.06
259.616	319.06
259.849	313.06
260.081	312.06
260.314	295.06
260.547	315.06
260.779	307.06
261.012	323.06
261.244	310.06
261.477	318.06
261.71	333.06
261.942	335.06
262.175	318.06
262.407	344.06
262.64	317.06
262.872	353.06
263.105	334.06
263.337	342.06
263.57	335.06
263.802	335.06
264.035	350.06
264.267	351.06
264.499	358.06
264.732	322.06
264.964	346.06
265.197	341.06
265.429	341.06
265.661	350.06
265.894	336.06
266.126	361.06
266.358	352.06
266.591	357.06
266.823	350.06
267.055	358.06
267.287	349.06
267.52	351.06
267.752	359.06
267.984	354.06
268.216	360.06
268.448	355.06
268.681	372.06
268.913	359.06
269.145	366.06
269.377	370.06
269.609	385.06
269.841	349.06
270.073	377.06
270.306	350.06
270.538	349.06
270.77	371.06
271.002	389.06
271.234	403.06
271.466	385.06
271.698	382.06
271.93	395.06
272.162	385.06
272.394	403.06
272.626	399.06
272.858	393.06
273.09	391.06
273.322	394.06
273.553	398.06
273.785	397.06
274.017	400.06
274.249	393.06
274.481	396.06
274.713	412.06
274.945	422.06
275.176	406.06
275.408	416.06
275.64	408.06
275.872	422.06
276.104	415.06
276.335	418.06
276.567	403.06
276.799	436.06
277.031	418.06
277.262	409.06
277.494	416.06
277.726	418.06
277.957	456.06
278.189	442.06
278.421	411.06
278.652	442.06
278.884	433.06
279.115	450.06
279.347	448.06
279.579	439.06
279.81	469.06
280.042	449.06
280.273	438.06
280.505	442.06
280.736	441.06
280.968	454.06
281.199	441.06
281.431	467.06
281.662	462.06
281.894	457.06
282.125	438.06
282.356	490.06
282.588	462.06
282.819	460.06
283.051	463.06
283.282	485.06
283.513	481.06
283.745	465.06
283.976	483.06
284.207	478.06
284.439	496.06
284.67	479.06
284.901	487.06
285.132	490.06
285.364	496.06
285.595	484.06
285.826	486.06
286.057	513.06
286.288	491.06
286.52	491.06
286.751	499.06
286.982	489.06
287.213	495.06
287.444	518.06
287.675	522.06
287.906	525.06
288.138	509.06
288.369	496.06
288.6	529.06
288.831	501.06
289.062	527.06
289.293	513.06
289.524	526.06
289.755	515.06
289.986	528.06
290.217	534.06
290.448	522.06
290.679	517.06
290.91	520.06
291.141	505.06
291.371	514.06
291.602	509.06
291.833	511.06
292.064	519.06
292.295	521.06
292.526	537.06
292.757	521.06
292.987	511.06
293.218	510.06
293.449	540.06
293.68	541.06
293.91	545.06
294.141	539.06
294.372	518.06
294.603	527.06
294.833	537.06
295.064	533.06
295.295	539.06
295.525	526.06
295.756	546.06
295.987	540.06
296.217	541.06
296.448	534.06
296.679	554.06
296.909	557.06
297.14	554.06
297.37	580.06
297.601	550.06
297.831	589.06
298.062	566.06
298.292	583.06
298.523	595.06
298.753	595.06
298.984	584.06
299.214	577.06
299.445	584.06
299.675	555.06
299.905	570.06
300.136	563.06
300.366	586.06
300.597	572.06
300.827	602.06
301.057	574.06
301.288	595.06
301.518	613.06
301.748	607.06
301.979	613.06
302.209	604.06
302.439	597.06
302.669	576.06
302.9	605.06
303.13	588.06
303.36	602.06
303.59	587.06
303.82	576.06
304.051	589.06
304.281	588.06
304.511	587.06
304.741	596.06
304.971	598.06
305.201	597.06
305.431	577.06
305.661	587.06
305.891	610.06
306.121	567.06
306.352	560.06
306.582	601.06
306.812	552.06
307.042	577.06
307.272	579.06
307.502	581.06
307.731	590.06
307.961	577.06
308.191	583.06
308.421	578.06
308.651	599.06
308.881	561.06
309.111	583.06
309.341	570.06
309.571	583.06
309.8	595.06
310.03	581.06
310.26	585.06
310.49	579.06
310.72	560.06
310.949	593.06
311.179	579.06
311.409	582.06
311.639	591.06
311.868	589.06
312.098	601.06
312.328	599.06
312.557	584.06
312.787	607.06
313.017	618.06
313.246	615.06
313.476	620.06
313.706	653.06
313.935	628.06
314.165	647.06
314.394	636.06
314.624	645.06
314.853	626.06
315.083	612.06
315.312	641.06
315.542	614.06
315.771	612.06
316.001	616.06
316.23	607.06
316.46	578.06
316.689	612.06
316.919	607.06
317.148	621.06
317.377	617.06
317.607	610.06
317.836	583.06
318.065	594.06
318.295	601.06
318.524	620.06
318.753	618.06
318.983	617.06
319.212	602.06
319.441	604.06
319.67	590.06
319.9	601.06
320.129	625.06
320.358	637.06
320.587	605.06
320.816	614.06
321.046	633.06
321.275	605.06
321.504	604.06
321.733	594.06
321.962	606.06
322.191	614.06
322.42	620.06
322.649	619.06
322.878	646.06
323.108	655.06
323.337	630.06
323.566	620.06
323.795	629.06
324.024	645.06
324.253	631.06
324.482	634.06
324.71	635.06
324.939	638.06
325.168	637.06
325.397	692.06
325.626	675.06
325.855	662.06
326.084	669.06
326.313	687.06
326.542	678.06
326.77	697.06
326.999	687.06
327.228	663.06
327.457	692.06
327.686	689.06
327.914	679.06
328.143	681.06
328.372	697.06
328.6	673.06
328.829	666.06
329.058	656.06
329.287	688.06
329.515	692.06
329.744	674.06
329.972	682.06
330.201	695.06
330.43	695.06
330.658	694.06
330.887	698.06
331.115	726.06
331.344	753.06
331.572	705.06
331.801	746.06
332.03	773.06
332.258	791.06
332.486	790.06
332.715	848.06
332.943	868.06
333.172	886.06
333.4	951.06
333.629	942.06
333.857	931.06
334.085	954.06
334.314	916.06
334.542	878.06
334.771	896.06
334.999	862.06
335.227	862.06
335.455	832.06
335.684	883.06
335.912	851.06
336.14	842.06
336.369	836.06
336.597	843.06
336.825	831.06
337.053	833.06
337.281	823.06
337.51	790.06
337.738	768.06
337.966	782.06
338.194	789.06
338.422	746.06
338.65	747.06
338.878	756.06
339.106	753.06
339.334	765.06
339.562	737.06
339.79	706.06
340.018	734.06
340.246	689.06
340.474	702.06
340.702	726.06
340.93	701.06
341.158	745.06
341.386	727.06
341.614	732.06
341.842	710.06
342.07	705.06
342.298	684.06
342.526	721.06
342.754	719.06
342.981	727.06
343.209	750.06
343.437	767.06
343.665	837.06
343.893	910.06
344.12	891.06
344.348	849.06
344.576	827.06
344.804	750.06
345.031	747.06
345.259	734.06
345.487	744.06
345.714	699.06
345.942	726.06
346.17	699.06
346.397	706.06
346.625	719.06
346.853	688.06
347.08	685.06
347.308	721.06
347.535	723.06
347.763	697.06
347.99	709.06
348.218	693.06
348.445	693.06
348.673	698.06
348.9	699.06
349.128	690.06
349.355	684.06
349.583	685.06
349.81	684.06
350.037	679.06
350.265	665.06
350.492	682.06
350.72	696.06
350.947	653.06
351.174	701.06
351.402	683.06
351.629	674.06
351.856	694.06
352.083	681.06
352.311	677.06
352.538	660.06
352.765	665.06
352.992	698.06
353.22	655.06
353.447	666.06
353.674	665.06
353.901	684.06
354.128	668.06
354.355	667.06
354.583	683.06
354.81	675.06
355.037	711.06
355.264	669.06
355.491	683.06
355.718	665.06
355.945	665.06
356.172	669.06
356.399	677.06
356.626	661.06
356.853	685.06
357.08	680.06
357.307	677.06
357.534	697.06
357.761	676.06
357.988	667.06
358.215	661.06
358.441	673.06
358.668	662.06
358.895	652.06
359.122	668.06
359.349	671.06
359.576	681.06
359.802	670.06
360.029	661.06
360.256	663.06
360.483	669.06
360.709	654.06
360.936	673.06
361.163	657.06
361.39	654.06
361.616	697.06
361.843	657.06
362.07	655.06
362.296	671.06
362.523	660.06
362.749	663.06
362.976	681.06
363.203	689.06
363.429	683.06
363.656	679.06
363.882	668.06
364.109	702.06
364.335	663.06
364.562	663.06
364.788	678.06
365.015	674.06
365.241	658.06
365.468	683.06
365.694	657.06
365.92	667.06
366.147	663.06
366.373	662.06
366.599	661.06
366.826	669.06
367.052	665.06
367.278	696.06
367.505	684.06
367.731	685.06
367.957	686.06
368.184	668.06
368.41	675.06
368.636	669.06
368.862	666.06
369.089	695.06
369.315	693.06
369.541	704.06
369.767	691.06
369.993	713.06
370.219	710.06
370.445	695.06
370.672	715.06
370.898	701.06
371.124	729.06
371.35	729.06
371.576	739.06
371.802	732.06
372.028	741.06
372.254	748.06
372.48	736.06
372.706	743.06
372.932	763.06
373.158	774.06
373.384	722.06
373.61	737.06
373.835	730.06
374.061	719.06
374.287	705.06
374.513	777.06
374.739	775.06
374.965	826.06
375.191	836.06
375.416	799.06
375.642	806.06
375.868	774.06
376.094	763.06
376.319	729.06
376.545	722.06
376.771	718.06
376.997	746.06
377.222	725.06
377.448	741.06
377.674	743.06
377.899	700.06
378.125	735.06
378.35	714.06
378.576	707.06
378.802	701.06
379.027	692.06
379.253	702.06
379.478	708.06
379.704	721.06
379.929	709.06
380.155	730.06
380.38	691.06
380.606	710.06
380.831	725.06
381.057	721.06
381.282	710.06
381.507	733.06
381.733	732.06
381.958	710.06
382.184	740.06
382.409	762.06
382.634	768.06
382.86	768.06
383.085	772.06
383.31	825.06
383.535	821.06
383.761	807.06
383.986	817.06
384.211	831.06
384.436	854.06
384.662	853.06
384.887	872.06
385.112	875.06
385.337	884.06
385.562	853.06
385.787	881.06
386.013	878.06
386.238	891.06
386.463	874.06
386.688	892.06
386.913	870.06
387.138	876.06
387.363	865.06
387.588	877.06
387.813	876.06
388.038	871.06
388.263	875.06
388.488	886.06
388.713	873.06
388.938	853.06
389.163	885.06
389.387	875.06
389.612	846.06
389.837	849.06
390.062	843.06
390.287	855.06
390.512	873.06
390.736	897.06
390.961	878.06
391.186	915.06
391.411	928.06
391.636	948.06
391.86	973.06
392.085	1027.06
392.31	999.06
392.534	988.06
392.759	955.06
392.984	931.06
393.208	930.06
393.433	911.06
393.658	919.06
393.882	954.06
394.107	947.06
394.331	934.06
394.556	963.06
394.78	929.06
395.005	961.06
395.229	932.06
395.454	970.06
395.678	989.06
395.903	988.06
396.127	983.06
396.352	928.06
396.576	913.06
396.801	927.06
397.025	913.06
397.249	963.06
397.474	970.06
397.698	991.06
397.922	979.06
398.147	1018.06
398.371	993.06
398.595	1021.06
398.82	1077.06
399.044	1169.06
399.268	1297.06
399.492	1525.06
399.717	1735.06
399.941	1701.06
400.165	1491.06
400.389	1333.06
400.613	1228.06
400.837	1166.06
401.062	1116.06
401.286	1131.06
401.51	1111.06
401.734	1077.06
401.958	1101.06
402.182	1123.06
402.406	1151.06
402.63	1159.06
402.854	1202.06
403.078	1203.06
403.302	1227.06
403.526	1257.06
403.75	1269.06
403.974	1307.06
404.198	1303.06
404.422	1290.06
404.645	1275.06
404.869	1268.06
405.093	1263.06
405.317	1237.06
405.541	1224.06
405.765	1228.06
405.988	1169.06
406.212	1218.06
406.436	1201.06
406.66	1242.06
406.883	1227.06
407.107	1314.06
407.331	1397.06
407.555	1447.06
407.778	1423.06
408.002	1384.06
408.226	1356.06
408.449	1319.06
408.673	1278.06
408.896	1237.06
409.12	1214.06
409.344	1282.06
409.567	1258.06
409.791	1261.06
410.014	1242.06
410.238	1254.06
410.461	1256.06
410.685	1256.06
410.908	1195.06
411.132	1190.06
411.355	1142.06
411.578	1162.06
411.802	1142.06
412.025	1177.06
412.249	1198.06
412.472	1158.06
412.695	1151.06
412.919	1100.06
413.142	1099.06
413.365	1097.06
413.589	1113.06
413.812	1108.06
414.035	1081.06
414.258	1101.06
414.482	1107.06
414.705	1113.06
414.928	1109.06
415.151	1117.06
415.374	1105.06
415.597	1095.06
415.821	1071.06
416.044	1119.06
416.267	1083.06
416.49	1055.06
416.713	1070.06
416.936	1116.06
417.159	1070.06
417.382	1070.06
417.605	1061.06
417.828	1098.06
418.051	1089.06
418.274	1093.06
418.497	1097.06
418.72	1098.06
418.943	1134.06
419.166	1198.06
419.389	1268.06
419.611	1222.06
419.834	1194.06
420.057	1149.06
420.28	1111.06
420.503	1079.06
420.726	1100.06
420.948	1087.06
421.171	1076.06
421.394	1091.06
421.617	1075.06
421.839	1089.06
422.062	1089.06
422.285	1104.06
422.507	1138.06
422.73	1133.06
422.953	1161.06
423.175	1171.06
423.398	1212.06
423.621	1150.06
423.843	1193.06
424.066	1194.06
424.288	1170.06
424.511	1181.06
424.733	1159.06
424.956	1113.06
425.178	1096.06
425.401	1116.06
425.623	1113.06
425.846	1077.06
426.068	1086.06
426.291	1040.06
426.513	1018.06
426.735	1010.06
426.958	1014.06
427.18	1005.06
427.402	991.06
427.625	976.06
427.847	981.06
428.069	954.06
428.292	975.06
428.514	973.06
428.736	951.06
428.958	962.06
429.181	953.06
429.403	937.06
429.625	958.06
429.847	953.06
430.069	942.06
430.292	968.06
430.514	950.06
430.736	968.06
430.958	969.06
431.18	935.06
431.402	954.06
431.624	957.06
431.846	990.06
432.068	1003.06
432.29	995.06
432.512	1004.06
432.734	982.06
432.956	968.06
433.178	1001.06
433.4	942.06
433.622	981.06
433.844	992.06
434.066	983.06
434.287	1013.06
434.509	1043.06
434.731	1091.06
434.953	1103.06
435.175	1109.06
435.397	1100.06
435.618	1043.06
435.84	1029.06
436.062	969.06
436.284	997.06
436.505	996.06
436.727	994.06
436.949	1027.06
437.17	1009.06
437.392	952.06
437.614	957.06
437.835	966.06
438.057	915.06
438.278	919.06
438.5	932.06
438.721	949.06
438.943	937.06
439.165	950.06
439.386	965.06
439.608	967.06
439.829	969.06
440.05	978.06
440.272	970.06
440.493	979.06
440.715	986.06
440.936	1053.06
441.158	1043.06
441.379	1068.06
441.6	1098.06
441.822	1116.06
442.043	1117.06
442.264	1082.06
442.486	1059.06
442.707	1099.06
442.928	1079.06
443.149	1109.06
443.371	1068.06
443.592	1083.06
443.813	1089.06
444.034	1141.06
444.255	1171.06
444.476	1214.06
444.698	1312.06
444.919	1375.06
445.14	1399.06
445.361	1266.06
445.582	1153.06
445.803	1084.06
446.024	1051.06
446.245	1020.06
446.466	997.06
446.687	1015.06
446.908	976.06
447.129	963.06
447.35	982.06
447.571	956.06
447.792	933.06
448.013	951.06
448.234	899.06
448.455	895.06
448.675	915.06
448.896	914.06
449.117	904.06
449.338	864.06
449.559	879.06
449.779	907.06
450	880.06
450.221	904.06
450.442	929.06
450.662	902.06
450.883	921.06
451.104	929.06
451.324	898.06
451.545	932.06
451.766	914.06
451.986	897.06
452.207	915.06
452.428	887.06
452.648	895.06
452.869	885.06
453.089	877.06
453.31	877.06
453.53	891.06
453.751	877.06
453.971	857.06
454.192	881.06
454.412	879.06
454.633	843.06
454.853	860.06
455.073	836.06
455.294	855.06
455.514	877.06
455.734	831.06
455.955	825.06
456.175	829.06
456.395	822.06
456.616	837.06
456.836	857.06
457.056	839.06
457.276	813.06
457.497	817.06
457.717	822.06
457.937	858.06
458.157	845.06
458.377	853.06
458.598	856.06
458.818	907.06
459.038	935.06
459.258	962.06
459.478	1012.06
459.698	1029.06
459.918	1033.06
460.138	1079.06
460.358	1159.06
460.578	1149.06
460.798	1182.06
461.018	1183.06
461.238	1161.06
461.458	1155.06
461.678	1164.06
461.898	1132.06
462.118	1143.06
462.338	1235.06
462.558	1273.06
462.777	1291.06
462.997	1430.06
463.217	1604.06
463.437	1621.06
463.657	1438.06
463.876	1397.06
464.096	1358.06
464.316	1326.06
464.536	1414.06
464.755	1345.06
464.975	1243.06
465.195	1202.06
465.414	1175.06
465.634	1090.06
465.854	1031.06
466.073	1018.06
466.293	1023.06
466.512	978.06
466.732	949.06
466.951	949.06
467.171	938.06
467.391	950.06
467.61	947.06
467.829	910.06
468.049	953.06
468.268	898.06
468.488	897.06
468.707	909.06
468.927	898.06
469.146	898.06
469.365	917.06
469.585	935.06
469.804	931.06
470.023	980.06
470.243	973.06
470.462	957.06
470.681	979.06
470.901	991.06
471.12	972.06
471.339	969.06
471.558	956.06
471.777	899.06
471.997	919.06
472.216	904.06
472.435	905.06
472.654	879.06
472.873	849.06
473.092	885.06
473.311	861.06
473.53	874.06
473.749	875.06
473.968	873.06
474.187	862.06
474.406	875.06
474.625	888.06
474.844	878.06
475.063	884.06
475.282	877.06
475.501	876.06
475.72	917.06
475.939	881.06
476.158	876.06
476.377	917.06
476.596	921.06
476.814	926.06
477.033	937.06
477.252	945.06
477.471	942.06
477.69	976.06
477.908	1028.06
478.127	1016.06
478.346	1061.06
478.564	1067.06
478.783	1088.06
479.002	1100.06
479.22	1110.06
479.439	1074.06
479.658	1086.06
479.876	1083.06
480.095	1119.06
480.313	1150.06
480.532	1190.06
480.751	1178.06
480.969	1102.06
481.188	1115.06
481.406	1066.06
481.624	1030.06
481.843	1013.06
482.061	1010.06
482.28	1023.06
482.498	986.06
482.717	951.06
482.935	997.06
483.153	1003.06
483.372	1023.06
483.59	989.06
483.808	1009.06
484.027	993.06
484.245	1002.06
484.463	1012.06
484.681	1006.06
484.9	1017.06
485.118	1056.06
485.336	1087.06
485.554	1065.06
485.772	1065.06
485.99	1061.06
486.209	1073.06
486.427	1059.06
486.645	1057.06
486.863	1075.06
487.081	1030.06
487.299	1045.06
487.517	1065.06
487.735	1066.06
487.953	1052.06
488.171	1074.06
488.389	1057.06
488.607	1032.06
488.825	1038.06
489.043	1013.06
489.261	1023.06
489.479	1047.06
489.696	1042.06
489.914	1033.06
490.132	1054.06
490.35	1039.06
490.568	1035.06
490.786	1060.06
491.003	1087.06
491.221	1081.06
491.439	1078.06
491.657	1065.06
491.874	1073.06
492.092	1033.06
492.31	1064.06
492.527	1109.06
492.745	1088.06
492.963	1076.06
493.18	1087.06
493.398	1105.06
493.615	1082.06
493.833	1108.06
494.05	1112.06
494.268	1094.06
494.485	1121.06
494.703	1089.06
494.92	1141.06
495.138	1094.06
495.355	1121.06
495.573	1116.06
495.79	1118.06
496.008	1125.06
496.225	1121.06
496.442	1141.06
496.66	1177.06
496.877	1207.06
497.094	1205.06
497.312	1225.06
497.529	1235.06
497.746	1233.06
497.963	1299.06
498.181	1397.06
498.398	1405.06
498.615	1510.06
498.832	1631.06
499.049	1714.06
499.267	1879.06
499.484	2018.06
499.701	2273.06
499.918	2499.06
500.135	2930.06
500.352	3371.06
500.569	3605.06
500.786	3540.06
501.003	3210.06
501.22	2835.06
501.437	2543.06
501.654	2227.06
501.871	1965.06
502.088	1795.06
502.305	1693.06
502.522	1629.06
502.739	1535.06
502.956	1469.06
503.172	1400.06
503.389	1341.06
503.606	1281.06
503.823	1290.06
504.04	1283.06
504.256	1250.06
504.473	1335.06
504.69	1366.06
504.907	1350.06
505.123	1245.06
505.34	1168.06
505.557	1121.06
505.773	1096.06
505.99	1076.06
506.207	1049.06
506.423	1024.06
506.64	1033.06
506.856	1001.06
507.073	972.06
507.289	995.06
507.506	1000.06
507.722	973.06
507.939	982.06
508.155	935.06
508.372	948.06
508.588	947.06
508.805	921.06
509.021	942.06
509.238	926.06
509.454	919.06
509.67	901.06
509.887	892.06
510.103	917.06
510.319	911.06
510.536	903.06
510.752	915.06
510.968	897.06
511.184	914.06
511.401	866.06
511.617	890.06
511.833	886.06
512.049	898.06
512.265	868.06
512.481	897.06
512.698	887.06
512.914	897.06
513.13	897.06
513.346	876.06
513.562	909.06
513.778	911.06
513.994	884.06
514.21	932.06
514.426	932.06
514.642	905.06
514.858	916.06
515.074	939.06
515.29	922.06
515.506	921.06
515.721	925.06
515.937	939.06
516.153	1001.06
516.369	1013.06
516.585	1038.06
516.801	1063.06
517.016	1095.06
517.232	1181.06
517.448	1262.06
517.664	1286.06
517.879	1302.06
518.095	1276.06
518.311	1267.06
518.527	1196.06
518.742	1145.06
518.958	1071.06
519.173	1052.06
519.389	1023.06
519.605	965.06
519.82	958.06
520.036	951.06
520.251	941.06
520.467	931.06
520.682	914.06
520.898	895.06
521.113	898.06
521.329	872.06
521.544	875.06
521.76	891.06
521.975	857.06
522.19	840.06
522.406	866.06
522.621	849.06
522.836	836.06
523.052	843.06
523.267	830.06
523.482	848.06
523.698	828.06
523.913	839.06
524.128	843.06
524.343	814.06
524.559	798.06
524.774	834.06
524.989	835.06
525.204	813.06
525.419	832.06
525.634	825.06
525.849	829.06
526.064	834.06
526.28	799.06
526.495	785.06
526.71	797.06
526.925	831.06
527.14	797.06
527.355	794.06
527.57	808.06
527.785	830.06
527.999	807.06
528.214	832.06
528.429	829.06
528.644	830.06
528.859	812.06
529.074	798.06
529.289	832.06
529.503	846.06
529.718	804.06
529.933	825.06
530.148	788.06
530.363	810.06
530.577	800.06
530.792	789.06
531.007	803.06
531.221	812.06
531.436	818.06
531.651	802.06
531.865	806.06
532.08	812.06
532.295	828.06
532.509	815.06
532.724	803.06
532.938	808.06
533.153	794.06
533.367	820.06
533.582	813.06
533.796	813.06
534.011	787.06
534.225	833.06
534.44	799.06
534.654	793.06
534.868	784.06
535.083	805.06
535.297	772.06
535.511	789.06
535.726	790.06
535.94	772.06
536.154	770.06
536.369	744.06
536.583	757.06
536.797	750.06
537.011	747.06
537.225	740.06
537.44	728.06
537.654	762.06
537.868	729.06
538.082	718.06
538.296	749.06
538.51	743.06
538.724	733.06
538.938	727.06
539.153	738.06
539.367	701.06
539.581	735.06
539.795	724.06
540.009	733.06
540.222	742.06
540.436	735.06
540.65	720.06
540.864	727.06
541.078	729.06
541.292	742.06
541.506	711.06
541.72	707.06
541.934	721.06
542.147	719.06
542.361	729.06
542.575	709.06
542.789	705.06
543.002	714.06
543.216	705.06
543.43	711.06
543.644	737.06
543.857	721.06
544.071	717.06
544.285	705.06
544.498	725.06
544.712	738.06
544.925	741.06
545.139	749.06
545.352	751.06
545.566	742.06
545.779	763.06
545.993	741.06
546.206	756.06
546.42	727.06
546.633	745.06
546.847	727.06
547.06	725.06
547.274	735.06
547.487	740.06
547.7	755.06
547.914	746.06
548.127	770.06
548.34	773.06
548.554	742.06
548.767	733.06
548.98	740.06
549.193	749.06
549.407	742.06
549.62	764.06
549.833	777.06
550.046	790.06
550.259	745.06
550.473	711.06
550.686	727.06
550.899	717.06
551.112	686.06
551.325	733.06
551.538	695.06
551.751	712.06
551.964	716.06
552.177	714.06
552.39	737.06
552.603	765.06
552.816	790.06
553.029	814.06
553.242	817.06
553.455	807.06
553.667	833.06
553.88	845.06
554.093	808.06
554.306	795.06
554.519	737.06
554.732	761.06
554.944	727.06
555.157	718.06
555.37	694.06
555.583	705.06
555.795	693.06
556.008	666.06
556.221	669.06
556.433	676.06
556.646	649.06
556.859	630.06
557.071	665.06
557.284	663.06
557.496	640.06
557.709	631.06
557.921	634.06
558.134	631.06
558.346	636.06
558.559	639.06
558.771	621.06
558.984	642.06
559.196	620.06
559.409	618.06
559.621	613.06
559.833	619.06
560.046	606.06
560.258	632.06
560.47	638.06
560.683	609.06
560.895	622.06
561.107	591.06
561.32	620.06
561.532	625.06
561.744	604.06
561.956	631.06
562.168	617.06
562.381	619.06
562.593	629.06
562.805	633.06
563.017	616.06
563.229	631.06
563.441	602.06
563.653	621.06
563.865	617.06
564.077	638.06
564.289	629.06
564.501	631.06
564.713	661.06
564.925	642.06
565.137	653.06
565.349	684.06
565.561	699.06
565.773	733.06
565.985	741.06
566.197	796.06
566.408	883.06
566.62	941.06
566.832	1013.06
567.044	1011.06
567.255	1011.06
567.467	1040.06
567.679	1106.06
567.891	1169.06
568.102	1240.06
568.314	1183.06
568.526	1065.06
568.737	945.06
568.949	881.06
569.161	790.06
569.372	709.06
569.584	716.06
569.795	693.06
570.007	645.06
570.218	622.06
570.43	637.06
570.641	618.06
570.853	635.06
571.064	657.06
571.276	648.06
571.487	612.06
571.698	590.06
571.91	565.06
572.121	573.06
572.333	556.06
572.544	538.06
572.755	526.06
572.966	525.06
573.178	541.06
573.389	519.06
573.6	512.06
573.811	503.06
574.023	498.06
574.234	485.06
574.445	494.06
574.656	526.06
574.867	492.06
575.078	495.06
575.289	513.06
575.501	486.06
575.712	477.06
575.923	473.06
576.134	488.06
576.345	486.06
576.556	492.06
576.767	495.06
576.978	467.06
577.188	465.06
577.399	475.06
577.61	461.06
577.821	471.06
578.032	472.06
578.243	457.06
578.454	454.06
578.665	458.06
578.875	447.06
579.086	451.06
579.297	437.06
579.508	442.06
579.718	447.06
579.929	443.06
580.14	455.06
580.35	409.06
580.561	434.06
580.772	439.06
580.982	457.06
581.193	421.06
581.403	434.06
581.614	424.06
581.825	430.06
582.035	436.06
582.246	433.06
582.456	435.06
582.667	443.06
582.877	420.06
583.087	428.06
583.298	428.06
583.508	406.06
583.719	417.06
583.929	427.06
584.139	414.06
584.35	422.06
584.56	413.06
584.77	418.06
584.981	422.06
585.191	433.06
585.401	386.06
585.611	395.06
585.821	405.06
586.032	421.06
586.242	399.06
586.452	404.06
586.662	401.06
586.872	401.06
587.082	408.06
587.292	403.06
587.502	405.06
587.713	413.06
587.923	421.06
588.133	402.06
588.343	407.06
588.553	417.06
588.762	400.06
588.972	399.06
589.182	404.06
589.392	409.06
589.602	395.06
589.812	385.06
590.022	403.06
590.232	401.06
590.441	405.06
590.651	405.06
590.861	406.06
591.071	417.06
591.281	420.06
591.49	437.06
591.7	420.06
591.91	429.06
592.119	407.06
592.329	451.06
592.539	462.06
592.748	469.06
592.958	492.06
593.167	514.06
593.377	527.06
593.587	530.06
593.796	533.06
594.006	528.06
594.215	555.06
594.424	547.06
594.634	541.06
594.843	533.06
595.053	471.06
595.262	462.06
595.472	445.06
595.681	433.06
595.89	398.06
596.1	430.06
596.309	391.06
596.518	408.06
596.727	385.06
596.937	393.06
597.146	398.06
597.355	385.06
597.564	369.06
597.774	369.06
597.983	372.06
598.192	358.06
598.401	348.06
598.61	358.06
598.819	353.06
599.028	360.06
599.237	356.06
599.446	341.06
599.655	353.06
599.864	357.06
600.073	352.06
600.282	341.06
600.491	350.06
600.7	335.06
600.909	329.06
601.118	343.06
601.327	328.06
601.536	341.06
601.745	329.06
601.953	329.06
602.162	333.06
602.371	323.06
602.58	329.06
602.789	350.06
602.997	340.06
603.206	335.06
603.415	312.06
603.623	329.06
603.832	325.06
604.041	311.06
604.249	321.06
604.458	338.06
604.666	336.06
604.875	317.06
605.084	319.06
605.292	320.06
605.501	331.06
605.709	323.06
605.918	318.06
606.126	328.06
606.334	313.06
606.543	312.06
606.751	307.06
606.96	315.06
607.168	313.06
607.376	317.06
607.585	301.06
607.793	301.06
608.001	316.06
608.21	308.06
608.418	311.06
608.626	313.06
608.834	316.06
609.043	302.06
609.251	313.06
609.459	292.06
609.667	302.06
609.875	302.06
610.083	298.06
610.291	295.06
610.499	312.06
610.707	309.06
610.916	302.06
611.124	305.06
611.332	311.06
611.54	312.06
611.748	295.06
611.955	303.06
612.163	293.06
612.371	289.06
612.579	293.06
612.787	311.06
612.995	289.06
613.203	282.06
613.411	290.06
613.618	288.06
613.826	293.06
614.034	293.06
614.242	297.06
614.449	303.06
614.657	296.06
614.865	286.06
615.072	300.06
615.28	306.06
615.488	297.06
615.695	291.06
615.903	305.06
616.111	295.06
616.318	317.06
616.526	310.06
616.733	295.06
616.941	293.06
617.148	309.06
617.356	312.06
617.563	315.06
617.771	296.06
617.978	281.06
618.185	287.06
618.393	311.06
618.6	296.06
618.807	291.06
619.015	286.06
619.222	296.06
619.429	294.06
619.637	292.06
619.844	297.06
620.051	295.06
620.258	301.06
620.466	266.06
620.673	275.06
620.88	287.06
621.087	281.06
621.294	273.06
621.501	273.06
621.708	266.06
621.915	279.06
622.122	270.06
622.329	267.06
622.536	263.06
622.743	281.06
622.95	278.06
623.157	278.06
623.364	280.06
623.571	261.06
623.778	259.06
623.985	268.06
624.192	262.06
624.399	278.06
624.606	246.06
624.812	268.06
625.019	270.06
625.226	269.06
625.433	270.06
625.639	258.06
625.846	261.06
626.053	252.06
626.259	257.06
626.466	249.06
626.673	258.06
626.879	238.06
627.086	240.06
627.293	257.06
627.499	236.06
627.706	247.06
627.912	256.06
628.119	249.06
628.325	257.06
628.532	259.06
628.738	241.06
628.945	239.06
629.151	259.06
629.357	230.06
629.564	233.06
629.77	221.06
629.976	235.06
630.183	245.06
630.389	243.06
630.595	232.06
630.802	218.06
631.008	221.06
631.214	234.06
631.42	233.06
631.627	227.06
631.833	222.06
632.039	229.06
632.245	235.06
632.451	245.06
632.657	212.06
632.863	227.06
633.069	220.06
633.275	211.06
633.481	200.06
633.688	233.06
633.893	218.06
634.099	222.06
634.305	220.06
634.511	213.06
634.717	216.06
634.923	219.06
635.129	204.06
635.335	203.06
635.541	215.06
635.747	198.06
635.952	209.06
636.158	209.06
636.364	201.06
636.57	214.06
636.775	221.06
636.981	219.06
637.187	222.06
637.392	215.06
637.598	215.06
637.804	206.06
638.009	200.06
638.215	212.06
638.421	193.06
638.626	205.06
638.832	213.06
639.037	199.06
639.243	209.06
639.448	210.06
639.654	190.06
639.859	187.06
640.065	195.06
640.27	207.06
640.475	196.06
640.681	218.06
640.886	190.06
641.091	199.06
641.297	200.06
641.502	221.06
641.707	194.06
641.913	203.06
642.118	199.06
642.323	177.06
642.528	185.06
642.733	187.06
642.939	196.06
643.144	193.06
643.349	197.06
643.554	210.06
643.759	196.06
643.964	182.06
644.169	201.06
644.374	181.06
644.579	192.06
644.784	190.06
644.989	191.06
645.194	186.06
645.399	197.06
645.604	203.06
645.809	180.06
646.014	195.06
646.219	183.06
646.423	186.06
646.628	188.06
646.833	198.06
647.038	190.06
647.243	208.06
647.447	189.06
647.652	197.06
647.857	197.06
648.062	210.06
648.266	206.06
648.471	199.06
648.676	221.06
648.88	214.06
649.085	211.06
649.289	196.06
649.494	199.06
649.698	195.06
649.903	203.06
650.107	191.06
650.312	190.06
650.516	174.06
650.721	203.06
650.925	186.06
651.13	164.06
651.334	171.06
651.539	168.06
651.743	167.06
651.947	166.06
652.152	178.06
652.356	147.06
652.56	157.06
652.764	153.06
652.969	162.06
653.173	154.06
653.377	159.06
653.581	148.06
653.785	147.06
653.99	146.06
654.194	143.06
654.398	147.06
654.602	140.06
654.806	145.06
655.01	155.06
655.214	139.06
655.418	150.06
655.622	158.06
655.826	130.06
656.03	144.06
656.234	151.06
656.438	142.06
656.642	158.06
656.846	151.06
657.049	126.06
657.253	132.06
657.457	134.06
657.661	126.06
657.865	118.06
658.068	114.06
658.272	113.06
658.476	116.06
658.68	97.06
658.883	111.06
659.087	95.06
659.291	100.06
659.494	98.06
659.698	106.06
659.901	93.06
660.105	96.06
660.309	87.06
660.512	87.06
660.716	100.06
660.919	98.06
661.123	105.06
661.326	84.06
661.53	92.06
661.733	97.06
661.936	75.06
662.14	86.06
662.343	94.06
662.546	90.06
662.75	106.06
662.953	92.06
663.156	84.06
663.36	80.06
663.563	89.06
663.766	83.06
663.969	73.06
664.173	81.06
664.376	93.06
664.579	73.06
664.782	82.06
664.985	71.06
665.188	86.06
665.391	91.06
665.594	85.06
665.797	85.06
666	75.06
666.203	85.06
666.406	95.06
666.609	88.06
666.812	86.06
667.015	97.06
667.218	94.06
667.421	84.06
667.624	85.06
667.827	85.06
668.03	83.06
668.232	78.06
668.435	81.06
668.638	85.06
668.841	80.06
669.043	81.06
669.246	83.06
669.449	84.06
669.651	98.06
669.854	78.06
670.057	92.06
670.259	83.06
670.462	97.06
670.665	85.06
670.867	81.06
671.07	93.06
671.272	78.06
671.475	81.06
671.677	73.06
671.88	75.06
672.082	71.06
672.284	69.06
672.487	94.06
672.689	86.06
672.892	74.06
