Data from Ni(NO3)2@0.125M.TitratingCurve.Agarose3%dH2O.NegLispCup.LampEnergy10.LIBS07252019_HRD10591_18-09-17-567.txt Node
Date: Thu Jul 25 18:09:17 EDT 2019
User: cochatt
Spectrometer: HR+D1059
Trigger mode: 1
Integration Time (sec): 1.000000E-1
Scans to average: 1
Electric dark correction enabled: true
Nonlinearity correction enabled: false
Boxcar width: 0
XAxis mode: Wavelengths
Number of Pixels in Spectrum: 2048
>>>>>Begin Spectral Data<<<<<
223.165	-32.94
223.4	-32.94
223.635	-32.94
223.869	-33.94
224.104	-11.94
224.338	-9.94
224.573	-20.94
224.808	-11.94
225.042	-0.94
225.277	0.06
225.511	-5.94
225.746	19.06
225.98	4.06
226.215	6.06
226.449	24.06
226.683	13.06
226.918	28.06
227.152	34.06
227.387	43.06
227.621	48.06
227.856	39.06
228.09	41.06
228.324	45.06
228.559	68.06
228.793	60.06
229.027	107.06
229.262	109.06
229.496	119.06
229.73	119.06
229.964	122.06
230.199	119.06
230.433	139.06
230.667	123.06
230.901	118.06
231.136	134.06
231.37	152.06
231.604	122.06
231.838	147.06
232.072	139.06
232.306	144.06
232.541	160.06
232.775	130.06
233.009	134.06
233.243	155.06
233.477	148.06
233.711	134.06
233.945	155.06
234.179	152.06
234.413	147.06
234.647	152.06
234.881	150.06
235.115	163.06
235.349	164.06
235.583	143.06
235.817	143.06
236.051	153.06
236.285	159.06
236.519	148.06
236.753	154.06
236.987	160.06
237.221	163.06
237.455	144.06
237.689	152.06
237.922	164.06
238.156	152.06
238.39	163.06
238.624	159.06
238.858	166.06
239.091	165.06
239.325	189.06
239.559	165.06
239.793	175.06
240.027	172.06
240.26	152.06
240.494	191.06
240.728	166.06
240.961	186.06
241.195	192.06
241.429	187.06
241.662	169.06
241.896	187.06
242.13	192.06
242.363	178.06
242.597	180.06
242.83	185.06
243.064	172.06
243.298	196.06
243.531	208.06
243.765	186.06
243.998	205.06
244.232	196.06
244.465	184.06
244.699	208.06
244.932	207.06
245.166	203.06
245.399	209.06
245.633	206.06
245.866	204.06
246.099	211.06
246.333	216.06
246.566	220.06
246.8	241.06
247.033	232.06
247.266	233.06
247.5	227.06
247.733	224.06
247.966	222.06
248.2	231.06
248.433	232.06
248.666	226.06
248.899	225.06
249.133	233.06
249.366	233.06
249.599	237.06
249.832	241.06
250.066	229.06
250.299	240.06
250.532	257.06
250.765	247.06
250.998	251.06
251.231	251.06
251.465	255.06
251.698	248.06
251.931	255.06
252.164	276.06
252.397	266.06
252.63	262.06
252.863	282.06
253.096	258.06
253.329	272.06
253.562	264.06
253.795	273.06
254.028	285.06
254.261	290.06
254.494	280.06
254.727	270.06
254.96	268.06
255.193	287.06
255.426	288.06
255.659	264.06
255.892	295.06
256.124	299.06
256.357	276.06
256.59	289.06
256.823	296.06
257.056	278.06
257.289	292.06
257.521	300.06
257.754	299.06
257.987	293.06
258.22	293.06
258.452	297.06
258.685	306.06
258.918	293.06
259.151	295.06
259.383	303.06
259.616	316.06
259.849	316.06
260.081	321.06
260.314	337.06
260.547	313.06
260.779	308.06
261.012	329.06
261.244	315.06
261.477	320.06
261.71	315.06
261.942	307.06
262.175	315.06
262.407	331.06
262.64	326.06
262.872	308.06
263.105	342.06
263.337	316.06
263.57	335.06
263.802	321.06
264.035	328.06
264.267	338.06
264.499	336.06
264.732	336.06
264.964	347.06
265.197	340.06
265.429	339.06
265.661	335.06
265.894	333.06
266.126	347.06
266.358	347.06
266.591	345.06
266.823	342.06
267.055	333.06
267.287	352.06
267.52	355.06
267.752	373.06
267.984	352.06
268.216	382.06
268.448	370.06
268.681	365.06
268.913	366.06
269.145	375.06
269.377	350.06
269.609	370.06
269.841	364.06
270.073	366.06
270.306	378.06
270.538	388.06
270.77	366.06
271.002	372.06
271.234	362.06
271.466	382.06
271.698	374.06
271.93	383.06
272.162	384.06
272.394	378.06
272.626	352.06
272.858	377.06
273.09	372.06
273.322	382.06
273.553	383.06
273.785	391.06
274.017	398.06
274.249	394.06
274.481	382.06
274.713	382.06
274.945	406.06
275.176	402.06
275.408	408.06
275.64	382.06
275.872	395.06
276.104	398.06
276.335	394.06
276.567	405.06
276.799	428.06
277.031	406.06
277.262	392.06
277.494	385.06
277.726	417.06
277.957	419.06
278.189	427.06
278.421	422.06
278.652	420.06
278.884	426.06
279.115	423.06
279.347	451.06
279.579	434.06
279.81	424.06
280.042	439.06
280.273	440.06
280.505	465.06
280.736	433.06
280.968	437.06
281.199	460.06
281.431	461.06
281.662	440.06
281.894	446.06
282.125	474.06
282.356	456.06
282.588	454.06
282.819	447.06
283.051	477.06
283.282	456.06
283.513	468.06
283.745	452.06
283.976	472.06
284.207	462.06
284.439	459.06
284.67	470.06
284.901	458.06
285.132	483.06
285.364	490.06
285.595	478.06
285.826	492.06
286.057	470.06
286.288	490.06
286.52	494.06
286.751	494.06
286.982	518.06
287.213	460.06
287.444	494.06
287.675	490.06
287.906	498.06
288.138	486.06
288.369	485.06
288.6	500.06
288.831	526.06
289.062	502.06
289.293	499.06
289.524	502.06
289.755	511.06
289.986	502.06
290.217	508.06
290.448	509.06
290.679	500.06
290.91	489.06
291.141	500.06
291.371	494.06
291.602	522.06
291.833	507.06
292.064	527.06
292.295	518.06
292.526	536.06
292.757	494.06
292.987	502.06
293.218	487.06
293.449	528.06
293.68	521.06
293.91	524.06
294.141	538.06
294.372	528.06
294.603	508.06
294.833	501.06
295.064	497.06
295.295	532.06
295.525	525.06
295.756	532.06
295.987	546.06
296.217	542.06
296.448	542.06
296.679	537.06
296.909	538.06
297.14	533.06
297.37	549.06
297.601	536.06
297.831	556.06
298.062	557.06
298.292	562.06
298.523	560.06
298.753	575.06
298.984	538.06
299.214	570.06
299.445	546.06
299.675	549.06
299.905	555.06
300.136	525.06
300.366	564.06
300.597	584.06
300.827	598.06
301.057	585.06
301.288	603.06
301.518	576.06
301.748	576.06
301.979	603.06
302.209	597.06
302.439	592.06
302.669	572.06
302.9	567.06
303.13	587.06
303.36	570.06
303.59	575.06
303.82	579.06
304.051	583.06
304.281	573.06
304.511	585.06
304.741	568.06
304.971	592.06
305.201	588.06
305.431	589.06
305.661	598.06
305.891	570.06
306.121	545.06
306.352	580.06
306.582	559.06
306.812	569.06
307.042	582.06
307.272	555.06
307.502	547.06
307.731	578.06
307.961	556.06
308.191	571.06
308.421	576.06
308.651	588.06
308.881	565.06
309.111	562.06
309.341	556.06
309.571	554.06
309.8	568.06
310.03	546.06
310.26	546.06
310.49	551.06
310.72	576.06
310.949	588.06
311.179	592.06
311.409	580.06
311.639	578.06
311.868	568.06
312.098	601.06
312.328	578.06
312.557	595.06
312.787	584.06
313.017	610.06
313.246	610.06
313.476	593.06
313.706	632.06
313.935	609.06
314.165	624.06
314.394	613.06
314.624	613.06
314.853	604.06
315.083	598.06
315.312	602.06
315.542	615.06
315.771	612.06
316.001	582.06
316.23	611.06
316.46	576.06
316.689	579.06
316.919	597.06
317.148	608.06
317.377	581.06
317.607	598.06
317.836	583.06
318.065	580.06
318.295	597.06
318.524	603.06
318.753	602.06
318.983	617.06
319.212	592.06
319.441	588.06
319.67	595.06
319.9	596.06
320.129	583.06
320.358	600.06
320.587	607.06
320.816	640.06
321.046	620.06
321.275	618.06
321.504	590.06
321.733	594.06
321.962	594.06
322.191	623.06
322.42	609.06
322.649	614.06
322.878	613.06
323.108	616.06
323.337	632.06
323.566	626.06
323.795	628.06
324.024	637.06
324.253	609.06
324.482	616.06
324.71	627.06
324.939	607.06
325.168	633.06
325.397	610.06
325.626	648.06
325.855	663.06
326.084	652.06
326.313	672.06
326.542	665.06
326.77	678.06
326.999	664.06
327.228	673.06
327.457	636.06
327.686	668.06
327.914	672.06
328.143	671.06
328.372	663.06
328.6	685.06
328.829	676.06
329.058	673.06
329.287	658.06
329.515	662.06
329.744	661.06
329.972	685.06
330.201	681.06
330.43	666.06
330.658	702.06
330.887	700.06
331.115	710.06
331.344	727.06
331.572	680.06
331.801	719.06
332.03	759.06
332.258	744.06
332.486	782.06
332.715	792.06
332.943	834.06
333.172	896.06
333.4	892.06
333.629	927.06
333.857	949.06
334.085	921.06
334.314	900.06
334.542	887.06
334.771	867.06
334.999	828.06
335.227	867.06
335.455	828.06
335.684	828.06
335.912	864.06
336.14	830.06
336.369	812.06
336.597	799.06
336.825	802.06
337.053	827.06
337.281	788.06
337.51	804.06
337.738	759.06
337.966	761.06
338.194	754.06
338.422	730.06
338.65	733.06
338.878	748.06
339.106	738.06
339.334	739.06
339.562	732.06
339.79	699.06
340.018	723.06
340.246	721.06
340.474	742.06
340.702	691.06
340.93	711.06
341.158	709.06
341.386	690.06
341.614	718.06
341.842	694.06
342.07	703.06
342.298	699.06
342.526	704.06
342.754	698.06
342.981	703.06
343.209	704.06
343.437	756.06
343.665	763.06
343.893	900.06
344.12	908.06
344.348	849.06
344.576	809.06
344.804	775.06
345.031	756.06
345.259	727.06
345.487	712.06
345.714	725.06
345.942	700.06
346.17	706.06
346.397	676.06
346.625	674.06
346.853	669.06
347.08	679.06
347.308	674.06
347.535	707.06
347.763	698.06
347.99	700.06
348.218	690.06
348.445	708.06
348.673	662.06
348.9	699.06
349.128	668.06
349.355	672.06
349.583	670.06
349.81	688.06
350.037	682.06
350.265	667.06
350.492	649.06
350.72	647.06
350.947	647.06
351.174	647.06
351.402	657.06
351.629	665.06
351.856	667.06
352.083	675.06
352.311	641.06
352.538	647.06
352.765	663.06
352.992	654.06
353.22	640.06
353.447	645.06
353.674	640.06
353.901	663.06
354.128	663.06
354.355	633.06
354.583	652.06
354.81	666.06
355.037	634.06
355.264	675.06
355.491	660.06
355.718	669.06
355.945	680.06
356.172	671.06
356.399	654.06
356.626	672.06
356.853	645.06
357.08	649.06
357.307	647.06
357.534	657.06
357.761	677.06
357.988	671.06
358.215	640.06
358.441	653.06
358.668	645.06
358.895	646.06
359.122	663.06
359.349	655.06
359.576	678.06
359.802	672.06
360.029	662.06
360.256	661.06
360.483	664.06
360.709	660.06
360.936	672.06
361.163	645.06
361.39	626.06
361.616	686.06
361.843	645.06
362.07	660.06
362.296	649.06
362.523	664.06
362.749	629.06
362.976	670.06
363.203	647.06
363.429	660.06
363.656	650.06
363.882	660.06
364.109	637.06
364.335	656.06
364.562	648.06
364.788	655.06
365.015	670.06
365.241	641.06
365.468	675.06
365.694	666.06
365.92	650.06
366.147	634.06
366.373	652.06
366.599	653.06
366.826	638.06
367.052	656.06
367.278	652.06
367.505	654.06
367.731	651.06
367.957	648.06
368.184	664.06
368.41	679.06
368.636	648.06
368.862	673.06
369.089	698.06
369.315	656.06
369.541	659.06
369.767	672.06
369.993	680.06
370.219	678.06
370.445	709.06
370.672	715.06
370.898	702.06
371.124	682.06
371.35	721.06
371.576	711.06
371.802	717.06
372.028	726.06
372.254	717.06
372.48	720.06
372.706	727.06
372.932	717.06
373.158	744.06
373.384	711.06
373.61	712.06
373.835	706.06
374.061	716.06
374.287	717.06
374.513	717.06
374.739	806.06
374.965	805.06
375.191	789.06
375.416	784.06
375.642	758.06
375.868	751.06
376.094	750.06
376.319	731.06
376.545	737.06
376.771	731.06
376.997	708.06
377.222	716.06
377.448	703.06
377.674	693.06
377.899	712.06
378.125	688.06
378.35	711.06
378.576	714.06
378.802	706.06
379.027	714.06
379.253	707.06
379.478	710.06
379.704	696.06
379.929	714.06
380.155	680.06
380.38	703.06
380.606	683.06
380.831	713.06
381.057	690.06
381.282	701.06
381.507	716.06
381.733	717.06
381.958	706.06
382.184	717.06
382.409	760.06
382.634	756.06
382.86	755.06
383.085	762.06
383.31	750.06
383.535	766.06
383.761	805.06
383.986	803.06
384.211	834.06
384.436	835.06
384.662	835.06
384.887	859.06
385.112	856.06
385.337	880.06
385.562	857.06
385.787	890.06
386.013	858.06
386.238	893.06
386.463	847.06
386.688	887.06
386.913	865.06
387.138	854.06
387.363	828.06
387.588	822.06
387.813	825.06
388.038	858.06
388.263	861.06
388.488	846.06
388.713	830.06
388.938	796.06
389.163	838.06
389.387	834.06
389.612	830.06
389.837	828.06
390.062	831.06
390.287	808.06
390.512	804.06
390.736	830.06
390.961	836.06
391.186	860.06
391.411	891.06
391.636	910.06
391.86	918.06
392.085	988.06
392.31	951.06
392.534	932.06
392.759	895.06
392.984	902.06
393.208	893.06
393.433	906.06
393.658	894.06
393.882	885.06
394.107	896.06
394.331	917.06
394.556	910.06
394.78	892.06
395.005	919.06
395.229	946.06
395.454	914.06
395.678	965.06
395.903	976.06
396.127	939.06
396.352	911.06
396.576	896.06
396.801	875.06
397.025	914.06
397.249	927.06
397.474	957.06
397.698	961.06
397.922	935.06
398.147	959.06
398.371	965.06
398.595	990.06
398.82	1005.06
399.044	1111.06
399.268	1270.06
399.492	1482.06
399.717	1709.06
399.941	1679.06
400.165	1435.06
400.389	1264.06
400.613	1183.06
400.837	1117.06
401.062	1087.06
401.286	1075.06
401.51	1083.06
401.734	1094.06
401.958	1071.06
402.182	1066.06
402.406	1095.06
402.63	1139.06
402.854	1155.06
403.078	1184.06
403.302	1220.06
403.526	1245.06
403.75	1262.06
403.974	1307.06
404.198	1295.06
404.422	1284.06
404.645	1296.06
404.869	1238.06
405.093	1252.06
405.317	1200.06
405.541	1193.06
405.765	1188.06
405.988	1176.06
406.212	1190.06
406.436	1178.06
406.66	1211.06
406.883	1244.06
407.107	1302.06
407.331	1368.06
407.555	1445.06
407.778	1391.06
408.002	1390.06
408.226	1318.06
408.449	1269.06
408.673	1246.06
408.896	1238.06
409.12	1199.06
409.344	1235.06
409.567	1219.06
409.791	1239.06
410.014	1250.06
410.238	1214.06
410.461	1223.06
410.685	1196.06
410.908	1186.06
411.132	1165.06
411.355	1120.06
411.578	1142.06
411.802	1110.06
412.025	1111.06
412.249	1125.06
412.472	1134.06
412.695	1106.06
412.919	1096.06
413.142	1071.06
413.365	1070.06
413.589	1094.06
413.812	1080.06
414.035	1054.06
414.258	1079.06
414.482	1076.06
414.705	1104.06
414.928	1141.06
415.151	1116.06
415.374	1084.06
415.597	1096.06
415.821	1072.06
416.044	1049.06
416.267	1072.06
416.49	1058.06
416.713	1014.06
416.936	1035.06
417.159	1049.06
417.382	1051.06
417.605	1068.06
417.828	1051.06
418.051	1085.06
418.274	1078.06
418.497	1110.06
418.72	1087.06
418.943	1100.06
419.166	1190.06
419.389	1271.06
419.611	1227.06
419.834	1152.06
420.057	1107.06
420.28	1131.06
420.503	1042.06
420.726	1066.06
420.948	1083.06
421.171	1067.06
421.394	1082.06
421.617	1064.06
421.839	1066.06
422.062	1098.06
422.285	1073.06
422.507	1074.06
422.73	1089.06
422.953	1098.06
423.175	1140.06
423.398	1127.06
423.621	1167.06
423.843	1194.06
424.066	1190.06
424.288	1133.06
424.511	1101.06
424.733	1156.06
424.956	1094.06
425.178	1062.06
425.401	1108.06
425.623	1058.06
425.846	1031.06
426.068	1038.06
426.291	1040.06
426.513	1028.06
426.735	985.06
426.958	998.06
427.18	987.06
427.402	996.06
427.625	974.06
427.847	976.06
428.069	964.06
428.292	939.06
428.514	932.06
428.736	931.06
428.958	943.06
429.181	927.06
429.403	931.06
429.625	939.06
429.847	912.06
430.069	934.06
430.292	934.06
430.514	917.06
430.736	942.06
430.958	921.06
431.18	914.06
431.402	952.06
431.624	936.06
431.846	966.06
432.068	936.06
432.29	946.06
432.512	946.06
432.734	934.06
432.956	956.06
433.178	968.06
433.4	931.06
433.622	972.06
433.844	966.06
434.066	987.06
434.287	1002.06
434.509	1014.06
434.731	1047.06
434.953	1083.06
435.175	1111.06
435.397	1096.06
435.618	1022.06
435.84	973.06
436.062	955.06
436.284	959.06
436.505	915.06
436.727	936.06
436.949	965.06
437.17	956.06
437.392	959.06
437.614	935.06
437.835	920.06
438.057	906.06
438.278	898.06
438.5	931.06
438.721	914.06
438.943	938.06
439.165	952.06
439.386	930.06
439.608	957.06
439.829	951.06
440.05	962.06
440.272	964.06
440.493	990.06
440.715	963.06
440.936	1010.06
441.158	1011.06
441.379	1039.06
441.6	1109.06
441.822	1079.06
442.043	1099.06
442.264	1103.06
442.486	1030.06
442.707	1095.06
442.928	1033.06
443.149	1077.06
443.371	1062.06
443.592	1063.06
443.813	1092.06
444.034	1082.06
444.255	1097.06
444.476	1175.06
444.698	1275.06
444.919	1342.06
445.14	1407.06
445.361	1224.06
445.582	1129.06
445.803	1040.06
446.024	1030.06
446.245	1013.06
446.466	983.06
446.687	982.06
446.908	1008.06
447.129	953.06
447.35	957.06
447.571	955.06
447.792	901.06
448.013	904.06
448.234	903.06
448.455	892.06
448.675	893.06
448.896	913.06
449.117	888.06
449.338	866.06
449.559	869.06
449.779	877.06
450	868.06
450.221	866.06
450.442	912.06
450.662	878.06
450.883	912.06
451.104	918.06
451.324	919.06
451.545	915.06
451.766	909.06
451.986	888.06
452.207	858.06
452.428	888.06
452.648	882.06
452.869	875.06
453.089	878.06
453.31	892.06
453.53	839.06
453.751	861.06
453.971	856.06
454.192	853.06
454.412	860.06
454.633	848.06
454.853	838.06
455.073	832.06
455.294	828.06
455.514	813.06
455.734	823.06
455.955	794.06
456.175	808.06
456.395	813.06
456.616	807.06
456.836	832.06
457.056	814.06
457.276	798.06
457.497	822.06
457.717	813.06
457.937	840.06
458.157	857.06
458.377	818.06
458.598	848.06
458.818	902.06
459.038	882.06
459.258	899.06
459.478	927.06
459.698	968.06
459.918	1004.06
460.138	1039.06
460.358	1142.06
460.578	1134.06
460.798	1145.06
461.018	1148.06
461.238	1146.06
461.458	1117.06
461.678	1132.06
461.898	1149.06
462.118	1144.06
462.338	1230.06
462.558	1234.06
462.777	1308.06
462.997	1416.06
463.217	1562.06
463.437	1565.06
463.657	1393.06
463.876	1335.06
464.096	1321.06
464.316	1362.06
464.536	1391.06
464.755	1315.06
464.975	1252.06
465.195	1189.06
465.414	1096.06
465.634	1061.06
465.854	984.06
466.073	1012.06
466.293	978.06
466.512	922.06
466.732	941.06
466.951	950.06
467.171	891.06
467.391	940.06
467.61	948.06
467.829	940.06
468.049	899.06
468.268	901.06
468.488	883.06
468.707	868.06
468.927	869.06
469.146	887.06
469.365	886.06
469.585	909.06
469.804	931.06
470.023	932.06
470.243	939.06
470.462	962.06
470.681	953.06
470.901	976.06
471.12	943.06
471.339	932.06
471.558	924.06
471.777	917.06
471.997	875.06
472.216	872.06
472.435	892.06
472.654	856.06
472.873	855.06
473.092	857.06
473.311	846.06
473.53	844.06
473.749	844.06
473.968	872.06
474.187	831.06
474.406	829.06
474.625	830.06
474.844	841.06
475.063	863.06
475.282	851.06
475.501	859.06
475.72	863.06
475.939	862.06
476.158	877.06
476.377	895.06
476.596	894.06
476.814	875.06
477.033	900.06
477.252	904.06
477.471	930.06
477.69	954.06
477.908	986.06
478.127	1020.06
478.346	1021.06
478.564	1032.06
478.783	1047.06
479.002	1075.06
479.22	1091.06
479.439	1056.06
479.658	1048.06
479.876	1042.06
480.095	1100.06
480.313	1150.06
480.532	1202.06
480.751	1161.06
480.969	1099.06
481.188	1064.06
481.406	1035.06
481.624	1011.06
481.843	978.06
482.061	974.06
482.28	976.06
482.498	951.06
482.717	979.06
482.935	981.06
483.153	975.06
483.372	959.06
483.59	962.06
483.808	967.06
484.027	966.06
484.245	965.06
484.463	986.06
484.681	999.06
484.9	1024.06
485.118	1034.06
485.336	1012.06
485.554	996.06
485.772	1024.06
485.99	1053.06
486.209	1059.06
486.427	1035.06
486.645	1048.06
486.863	1046.06
487.081	1031.06
487.299	1013.06
487.517	1032.06
487.735	1030.06
487.953	1043.06
488.171	1026.06
488.389	1011.06
488.607	998.06
488.825	1018.06
489.043	1004.06
489.261	1016.06
489.479	1020.06
489.696	1009.06
489.914	1011.06
490.132	1022.06
490.35	1019.06
490.568	1043.06
490.786	1020.06
491.003	1044.06
491.221	1036.06
491.439	1043.06
491.657	1051.06
491.874	1050.06
492.092	1047.06
492.31	1076.06
492.527	1039.06
492.745	1059.06
492.963	1064.06
493.18	1089.06
493.398	1092.06
493.615	1081.06
493.833	1055.06
494.05	1068.06
494.268	1096.06
494.485	1069.06
494.703	1076.06
494.92	1074.06
495.138	1087.06
495.355	1106.06
495.573	1080.06
495.79	1096.06
496.008	1119.06
496.225	1127.06
496.442	1097.06
496.66	1118.06
496.877	1116.06
497.094	1168.06
497.312	1176.06
497.529	1224.06
497.746	1253.06
497.963	1261.06
498.181	1336.06
498.398	1373.06
498.615	1456.06
498.832	1576.06
499.049	1702.06
499.267	1819.06
499.484	2011.06
499.701	2236.06
499.918	2495.06
500.135	2870.06
500.352	3384.06
500.569	3532.06
500.786	3542.06
501.003	3202.06
501.22	2774.06
501.437	2453.06
501.654	2106.06
501.871	1930.06
502.088	1756.06
502.305	1653.06
502.522	1569.06
502.739	1506.06
502.956	1432.06
503.172	1379.06
503.389	1296.06
503.606	1255.06
503.823	1226.06
504.04	1254.06
504.256	1243.06
504.473	1278.06
504.69	1344.06
504.907	1295.06
505.123	1181.06
505.34	1144.06
505.557	1108.06
505.773	1057.06
505.99	1031.06
506.207	982.06
506.423	1003.06
506.64	980.06
506.856	978.06
507.073	977.06
507.289	970.06
507.506	934.06
507.722	934.06
507.939	947.06
508.155	918.06
508.372	926.06
508.588	918.06
508.805	927.06
509.021	899.06
509.238	889.06
509.454	892.06
509.67	900.06
509.887	882.06
510.103	857.06
510.319	896.06
510.536	882.06
510.752	885.06
510.968	871.06
511.184	875.06
511.401	870.06
511.617	871.06
511.833	846.06
512.049	853.06
512.265	867.06
512.481	888.06
512.698	866.06
512.914	886.06
513.13	891.06
513.346	871.06
513.562	873.06
513.778	861.06
513.994	866.06
514.21	878.06
514.426	886.06
514.642	900.06
514.858	891.06
515.074	925.06
515.29	906.06
515.506	915.06
515.721	940.06
515.937	962.06
516.153	962.06
516.369	999.06
516.585	1012.06
516.801	1037.06
517.016	1094.06
517.232	1140.06
517.448	1218.06
517.664	1255.06
517.879	1257.06
518.095	1276.06
518.311	1263.06
518.527	1202.06
518.742	1112.06
518.958	1081.06
519.173	1040.06
519.389	979.06
519.605	956.06
519.82	950.06
520.036	914.06
520.251	928.06
520.467	923.06
520.682	896.06
520.898	876.06
521.113	860.06
521.329	852.06
521.544	882.06
521.76	864.06
521.975	843.06
522.19	826.06
522.406	829.06
522.621	808.06
522.836	810.06
523.052	806.06
523.267	792.06
523.482	789.06
523.698	829.06
523.913	827.06
524.128	812.06
524.343	808.06
524.559	795.06
524.774	784.06
524.989	791.06
525.204	815.06
525.419	776.06
525.634	798.06
525.849	800.06
526.064	808.06
526.28	809.06
526.495	774.06
526.71	788.06
526.925	785.06
527.14	761.06
527.355	811.06
527.57	781.06
527.785	791.06
527.999	781.06
528.214	787.06
528.429	800.06
528.644	804.06
528.859	803.06
529.074	764.06
529.289	834.06
529.503	778.06
529.718	773.06
529.933	799.06
530.148	799.06
530.363	794.06
530.577	791.06
530.792	790.06
531.007	785.06
531.221	801.06
531.436	806.06
531.651	797.06
531.865	794.06
532.08	784.06
532.295	792.06
532.509	768.06
532.724	790.06
532.938	800.06
533.153	779.06
533.367	798.06
533.582	800.06
533.796	770.06
534.011	767.06
534.225	780.06
534.44	796.06
534.654	781.06
534.868	792.06
535.083	780.06
535.297	782.06
535.511	773.06
535.726	766.06
535.94	738.06
536.154	730.06
536.369	742.06
536.583	729.06
536.797	728.06
537.011	738.06
537.225	713.06
537.44	723.06
537.654	752.06
537.868	717.06
538.082	709.06
538.296	717.06
538.51	746.06
538.724	727.06
538.938	717.06
539.153	713.06
539.367	745.06
539.581	703.06
539.795	716.06
540.009	709.06
540.222	698.06
540.436	671.06
540.65	719.06
540.864	708.06
541.078	708.06
541.292	741.06
541.506	724.06
541.72	717.06
541.934	726.06
542.147	706.06
542.361	732.06
542.575	705.06
542.789	700.06
543.002	693.06
543.216	711.06
543.43	679.06
543.644	683.06
543.857	679.06
544.071	679.06
544.285	717.06
544.498	706.06
544.712	700.06
544.925	710.06
545.139	718.06
545.352	742.06
545.566	751.06
545.779	746.06
545.993	770.06
546.206	739.06
546.42	741.06
546.633	745.06
546.847	711.06
547.06	712.06
547.274	740.06
547.487	746.06
547.7	762.06
547.914	751.06
548.127	781.06
548.34	748.06
548.554	736.06
548.767	742.06
548.98	750.06
549.193	725.06
549.407	746.06
549.62	745.06
549.833	781.06
550.046	743.06
550.259	742.06
550.473	741.06
550.686	720.06
550.899	732.06
551.112	706.06
551.325	710.06
551.538	726.06
551.751	725.06
551.964	730.06
552.177	726.06
552.39	736.06
552.603	772.06
552.816	768.06
553.029	784.06
553.242	793.06
553.455	806.06
553.667	827.06
553.88	820.06
554.093	789.06
554.306	751.06
554.519	741.06
554.732	727.06
554.944	711.06
555.157	703.06
555.37	725.06
555.583	698.06
555.795	707.06
556.008	667.06
556.221	651.06
556.433	654.06
556.646	642.06
556.859	635.06
557.071	634.06
557.284	620.06
557.496	640.06
557.709	646.06
557.921	616.06
558.134	642.06
558.346	597.06
558.559	611.06
558.771	616.06
558.984	589.06
559.196	577.06
559.409	600.06
559.621	626.06
559.833	616.06
560.046	597.06
560.258	607.06
560.47	618.06
560.683	617.06
560.895	625.06
561.107	602.06
561.32	590.06
561.532	599.06
561.744	628.06
561.956	584.06
562.168	615.06
562.381	596.06
562.593	585.06
562.805	597.06
563.017	598.06
563.229	613.06
563.441	612.06
563.653	627.06
563.865	599.06
564.077	632.06
564.289	619.06
564.501	622.06
564.713	633.06
564.925	650.06
565.137	651.06
565.349	664.06
565.561	692.06
565.773	723.06
565.985	707.06
566.197	796.06
566.408	850.06
566.62	918.06
566.832	1023.06
567.044	1030.06
567.255	1010.06
567.467	1039.06
567.679	1115.06
567.891	1180.06
568.102	1240.06
568.314	1175.06
568.526	1015.06
568.737	925.06
568.949	855.06
569.161	796.06
569.372	726.06
569.584	674.06
569.795	651.06
570.007	653.06
570.218	614.06
570.43	620.06
570.641	634.06
570.853	636.06
571.064	633.06
571.276	637.06
571.487	630.06
571.698	598.06
571.91	569.06
572.121	551.06
572.333	546.06
572.544	516.06
572.755	525.06
572.966	513.06
573.178	521.06
573.389	515.06
573.6	491.06
573.811	512.06
574.023	494.06
574.234	505.06
574.445	482.06
574.656	500.06
574.867	480.06
575.078	494.06
575.289	496.06
575.501	489.06
575.712	480.06
575.923	476.06
576.134	487.06
576.345	469.06
576.556	486.06
576.767	464.06
576.978	502.06
577.188	469.06
577.399	470.06
577.61	455.06
577.821	459.06
578.032	459.06
578.243	443.06
578.454	449.06
578.665	435.06
578.875	443.06
579.086	445.06
579.297	435.06
579.508	421.06
579.718	436.06
579.929	451.06
580.14	426.06
580.35	419.06
580.561	450.06
580.772	426.06
580.982	418.06
581.193	408.06
581.403	434.06
581.614	426.06
581.825	404.06
582.035	446.06
582.246	414.06
582.456	406.06
582.667	411.06
582.877	432.06
583.087	405.06
583.298	415.06
583.508	411.06
583.719	409.06
583.929	404.06
584.139	411.06
584.35	418.06
584.56	426.06
584.77	404.06
584.981	397.06
585.191	391.06
585.401	412.06
585.611	391.06
585.821	394.06
586.032	407.06
586.242	399.06
586.452	398.06
586.662	387.06
586.872	412.06
587.082	383.06
587.292	398.06
587.502	383.06
587.713	393.06
587.923	402.06
588.133	394.06
588.343	381.06
588.553	386.06
588.762	404.06
588.972	404.06
589.182	412.06
589.392	392.06
589.602	420.06
589.812	397.06
590.022	405.06
590.232	387.06
590.441	400.06
590.651	404.06
590.861	413.06
591.071	400.06
591.281	402.06
591.49	412.06
591.7	410.06
591.91	430.06
592.119	453.06
592.329	436.06
592.539	464.06
592.748	473.06
592.958	482.06
593.167	499.06
593.377	504.06
593.587	514.06
593.796	522.06
594.006	520.06
594.215	527.06
594.424	553.06
594.634	518.06
594.843	484.06
595.053	444.06
595.262	455.06
595.472	423.06
595.681	423.06
595.89	427.06
596.1	400.06
596.309	394.06
596.518	394.06
596.727	370.06
596.937	364.06
597.146	368.06
597.355	374.06
597.564	368.06
597.774	363.06
597.983	355.06
598.192	363.06
598.401	357.06
598.61	344.06
598.819	350.06
599.028	339.06
599.237	347.06
599.446	331.06
599.655	353.06
599.864	340.06
600.073	349.06
600.282	351.06
600.491	324.06
600.7	330.06
600.909	346.06
601.118	324.06
601.327	348.06
601.536	325.06
601.745	335.06
601.953	317.06
602.162	322.06
602.371	342.06
602.58	343.06
602.789	349.06
602.997	321.06
603.206	313.06
603.415	310.06
603.623	334.06
603.832	340.06
604.041	319.06
604.249	314.06
604.458	307.06
604.666	312.06
604.875	324.06
605.084	314.06
605.292	289.06
605.501	314.06
605.709	314.06
605.918	323.06
606.126	317.06
606.334	320.06
606.543	304.06
606.751	332.06
606.96	304.06
607.168	315.06
607.376	313.06
607.585	308.06
607.793	297.06
608.001	286.06
608.21	318.06
608.418	306.06
608.626	296.06
608.834	305.06
609.043	308.06
609.251	301.06
609.459	294.06
609.667	296.06
609.875	281.06
610.083	301.06
610.291	306.06
610.499	287.06
610.707	302.06
610.916	310.06
611.124	297.06
611.332	290.06
611.54	303.06
611.748	298.06
611.955	312.06
612.163	278.06
612.371	288.06
612.579	307.06
612.787	294.06
612.995	287.06
613.203	285.06
613.411	279.06
613.618	310.06
613.826	306.06
614.034	290.06
614.242	287.06
614.449	286.06
614.657	293.06
614.865	261.06
615.072	297.06
615.28	307.06
615.488	294.06
615.695	302.06
615.903	277.06
616.111	289.06
616.318	296.06
616.526	312.06
616.733	291.06
616.941	295.06
617.148	287.06
617.356	300.06
617.563	287.06
617.771	280.06
617.978	303.06
618.185	263.06
618.393	300.06
618.6	298.06
618.807	291.06
619.015	287.06
619.222	306.06
619.429	309.06
619.637	285.06
619.844	282.06
620.051	279.06
620.258	290.06
620.466	292.06
620.673	276.06
620.88	276.06
621.087	285.06
621.294	272.06
621.501	277.06
621.708	256.06
621.915	264.06
622.122	264.06
622.329	280.06
622.536	277.06
622.743	243.06
622.95	269.06
623.157	262.06
623.364	264.06
623.571	266.06
623.778	249.06
623.985	247.06
624.192	264.06
624.399	238.06
624.606	252.06
624.812	244.06
625.019	260.06
625.226	270.06
625.433	252.06
625.639	246.06
625.846	250.06
626.053	265.06
626.259	265.06
626.466	249.06
626.673	248.06
626.879	247.06
627.086	259.06
627.293	243.06
627.499	251.06
627.706	226.06
627.912	224.06
628.119	259.06
628.325	240.06
628.532	249.06
628.738	235.06
628.945	256.06
629.151	233.06
629.357	226.06
629.564	229.06
629.77	246.06
629.976	222.06
630.183	244.06
630.389	232.06
630.595	226.06
630.802	216.06
631.008	227.06
631.214	219.06
631.42	223.06
631.627	245.06
631.833	194.06
632.039	220.06
632.245	211.06
632.451	214.06
632.657	228.06
632.863	231.06
633.069	229.06
633.275	199.06
633.481	208.06
633.688	224.06
633.893	213.06
634.099	226.06
634.305	206.06
634.511	218.06
634.717	218.06
634.923	220.06
635.129	200.06
635.335	199.06
635.541	208.06
635.747	214.06
635.952	216.06
636.158	212.06
636.364	190.06
636.57	206.06
636.775	203.06
636.981	215.06
637.187	216.06
637.392	207.06
637.598	214.06
637.804	199.06
638.009	215.06
638.215	203.06
638.421	217.06
638.626	192.06
638.832	204.06
639.037	210.06
639.243	208.06
639.448	203.06
639.654	206.06
639.859	192.06
640.065	200.06
640.27	206.06
640.475	188.06
640.681	194.06
640.886	188.06
641.091	194.06
641.297	187.06
641.502	218.06
641.707	186.06
641.913	205.06
642.118	203.06
642.323	200.06
642.528	195.06
642.733	204.06
642.939	194.06
643.144	199.06
643.349	201.06
643.554	207.06
643.759	195.06
643.964	202.06
644.169	194.06
644.374	202.06
644.579	183.06
644.784	194.06
644.989	184.06
645.194	184.06
645.399	173.06
645.604	167.06
645.809	206.06
646.014	198.06
646.219	199.06
646.423	189.06
646.628	206.06
646.833	189.06
647.038	192.06
647.243	187.06
647.447	203.06
647.652	202.06
647.857	178.06
648.062	200.06
648.266	196.06
648.471	211.06
648.676	188.06
648.88	214.06
649.085	189.06
649.289	193.06
649.494	199.06
649.698	198.06
649.903	187.06
650.107	185.06
650.312	173.06
650.516	178.06
650.721	166.06
650.925	184.06
651.13	178.06
651.334	160.06
651.539	182.06
651.743	172.06
651.947	176.06
652.152	167.06
652.356	161.06
652.56	168.06
652.764	162.06
652.969	137.06
653.173	152.06
653.377	159.06
653.581	148.06
653.785	142.06
653.99	150.06
654.194	128.06
654.398	158.06
654.602	140.06
654.806	150.06
655.01	148.06
655.214	155.06
655.418	141.06
655.622	150.06
655.826	140.06
656.03	141.06
656.234	148.06
656.438	136.06
656.642	137.06
656.846	130.06
657.049	123.06
657.253	127.06
657.457	117.06
657.661	120.06
657.865	102.06
658.068	126.06
658.272	125.06
658.476	108.06
658.68	98.06
658.883	100.06
659.087	100.06
659.291	106.06
659.494	116.06
659.698	95.06
659.901	126.06
660.105	95.06
660.309	102.06
660.512	100.06
660.716	93.06
660.919	97.06
661.123	99.06
661.326	91.06
661.53	90.06
661.733	84.06
661.936	95.06
662.14	87.06
662.343	89.06
662.546	84.06
662.75	77.06
662.953	89.06
663.156	94.06
663.36	94.06
663.563	85.06
663.766	97.06
663.969	78.06
664.173	99.06
664.376	82.06
664.579	83.06
664.782	68.06
664.985	94.06
665.188	73.06
665.391	87.06
665.594	75.06
665.797	85.06
666	82.06
666.203	89.06
666.406	84.06
666.609	77.06
666.812	102.06
667.015	94.06
667.218	91.06
667.421	84.06
667.624	78.06
667.827	77.06
668.03	74.06
668.232	78.06
668.435	76.06
668.638	89.06
668.841	96.06
669.043	86.06
669.246	86.06
669.449	59.06
669.651	71.06
669.854	92.06
670.057	84.06
670.259	85.06
670.462	93.06
670.665	74.06
670.867	79.06
671.07	95.06
671.272	103.06
671.475	88.06
671.677	89.06
671.88	90.06
672.082	86.06
672.284	87.06
672.487	94.06
672.689	68.06
672.892	81.06
