Data from Ni(NO3)2@0.125M.TitratingCurve.Agarose3%dH2O.NegLispCup.LampEnergy10.LIBS07252019_HRD10591_18-09-19-567.txt Node
Date: Thu Jul 25 18:09:19 EDT 2019
User: cochatt
Spectrometer: HR+D1059
Trigger mode: 1
Integration Time (sec): 1.000000E-1
Scans to average: 1
Electric dark correction enabled: true
Nonlinearity correction enabled: false
Boxcar width: 0
XAxis mode: Wavelengths
Number of Pixels in Spectrum: 2048
>>>>>Begin Spectral Data<<<<<
223.165	-20.06
223.4	-20.06
223.635	-20.06
223.869	-9.06
224.104	-11.06
224.338	-18.06
224.573	-14.06
224.808	-21.06
225.042	-10.06
225.277	-14.06
225.511	-10.06
225.746	11.94
225.98	2.94
226.215	14.94
226.449	27.94
226.683	19.94
226.918	19.94
227.152	29.94
227.387	39.94
227.621	50.94
227.856	41.94
228.09	38.94
228.324	58.94
228.559	69.94
228.793	73.94
229.027	87.94
229.262	93.94
229.496	111.94
229.73	117.94
229.964	120.94
230.199	119.94
230.433	124.94
230.667	134.94
230.901	137.94
231.136	113.94
231.37	139.94
231.604	141.94
231.838	132.94
232.072	126.94
232.306	131.94
232.541	143.94
232.775	127.94
233.009	147.94
233.243	139.94
233.477	151.94
233.711	153.94
233.945	135.94
234.179	134.94
234.413	152.94
234.647	163.94
234.881	148.94
235.115	143.94
235.349	147.94
235.583	149.94
235.817	147.94
236.051	151.94
236.285	162.94
236.519	164.94
236.753	157.94
236.987	145.94
237.221	152.94
237.455	151.94
237.689	158.94
237.922	169.94
238.156	158.94
238.39	159.94
238.624	158.94
238.858	175.94
239.091	157.94
239.325	162.94
239.559	165.94
239.793	169.94
240.027	163.94
240.26	161.94
240.494	170.94
240.728	182.94
240.961	178.94
241.195	177.94
241.429	195.94
241.662	191.94
241.896	180.94
242.13	182.94
242.363	188.94
242.597	177.94
242.83	183.94
243.064	182.94
243.298	187.94
243.531	189.94
243.765	195.94
243.998	201.94
244.232	200.94
244.465	208.94
244.699	204.94
244.932	218.94
245.166	189.94
245.399	205.94
245.633	206.94
245.866	204.94
246.099	218.94
246.333	208.94
246.566	213.94
246.8	203.94
247.033	214.94
247.266	213.94
247.5	201.94
247.733	214.94
247.966	222.94
248.2	222.94
248.433	232.94
248.666	214.94
248.899	225.94
249.133	222.94
249.366	223.94
249.599	242.94
249.832	218.94
250.066	242.94
250.299	247.94
250.532	230.94
250.765	234.94
250.998	260.94
251.231	250.94
251.465	247.94
251.698	260.94
251.931	243.94
252.164	259.94
252.397	257.94
252.63	277.94
252.863	281.94
253.096	273.94
253.329	242.94
253.562	255.94
253.795	266.94
254.028	285.94
254.261	265.94
254.494	277.94
254.727	257.94
254.96	261.94
255.193	265.94
255.426	257.94
255.659	262.94
255.892	265.94
256.124	264.94
256.357	272.94
256.59	281.94
256.823	268.94
257.056	280.94
257.289	282.94
257.521	277.94
257.754	269.94
257.987	274.94
258.22	292.94
258.452	294.94
258.685	293.94
258.918	298.94
259.151	287.94
259.383	287.94
259.616	296.94
259.849	312.94
260.081	289.94
260.314	289.94
260.547	283.94
260.779	292.94
261.012	307.94
261.244	306.94
261.477	319.94
261.71	308.94
261.942	307.94
262.175	315.94
262.407	299.94
262.64	306.94
262.872	321.94
263.105	313.94
263.337	313.94
263.57	314.94
263.802	330.94
264.035	328.94
264.267	327.94
264.499	310.94
264.732	315.94
264.964	325.94
265.197	338.94
265.429	337.94
265.661	325.94
265.894	341.94
266.126	342.94
266.358	328.94
266.591	348.94
266.823	335.94
267.055	338.94
267.287	358.94
267.52	328.94
267.752	338.94
267.984	350.94
268.216	348.94
268.448	333.94
268.681	354.94
268.913	350.94
269.145	370.94
269.377	350.94
269.609	353.94
269.841	361.94
270.073	343.94
270.306	334.94
270.538	362.94
270.77	338.94
271.002	342.94
271.234	349.94
271.466	362.94
271.698	361.94
271.93	361.94
272.162	373.94
272.394	386.94
272.626	374.94
272.858	382.94
273.09	364.94
273.322	373.94
273.553	371.94
273.785	375.94
274.017	385.94
274.249	400.94
274.481	369.94
274.713	371.94
274.945	404.94
275.176	381.94
275.408	374.94
275.64	393.94
275.872	401.94
276.104	373.94
276.335	410.94
276.567	402.94
276.799	392.94
277.031	407.94
277.262	393.94
277.494	375.94
277.726	388.94
277.957	400.94
278.189	405.94
278.421	400.94
278.652	403.94
278.884	433.94
279.115	406.94
279.347	420.94
279.579	419.94
279.81	411.94
280.042	421.94
280.273	407.94
280.505	414.94
280.736	431.94
280.968	434.94
281.199	419.94
281.431	441.94
281.662	427.94
281.894	437.94
282.125	429.94
282.356	426.94
282.588	446.94
282.819	448.94
283.051	413.94
283.282	444.94
283.513	441.94
283.745	454.94
283.976	437.94
284.207	453.94
284.439	445.94
284.67	467.94
284.901	463.94
285.132	447.94
285.364	473.94
285.595	499.94
285.826	466.94
286.057	468.94
286.288	453.94
286.52	470.94
286.751	464.94
286.982	486.94
287.213	452.94
287.444	462.94
287.675	480.94
287.906	482.94
288.138	497.94
288.369	500.94
288.6	485.94
288.831	494.94
289.062	481.94
289.293	481.94
289.524	477.94
289.755	493.94
289.986	516.94
290.217	488.94
290.448	489.94
290.679	491.94
290.91	475.94
291.141	483.94
291.371	479.94
291.602	472.94
291.833	508.94
292.064	504.94
292.295	477.94
292.526	500.94
292.757	472.94
292.987	481.94
293.218	515.94
293.449	505.94
293.68	499.94
293.91	472.94
294.141	489.94
294.372	475.94
294.603	498.94
294.833	517.94
295.064	507.94
295.295	522.94
295.525	509.94
295.756	525.94
295.987	502.94
296.217	493.94
296.448	492.94
296.679	539.94
296.909	502.94
297.14	527.94
297.37	548.94
297.601	543.94
297.831	519.94
298.062	535.94
298.292	543.94
298.523	562.94
298.753	526.94
298.984	557.94
299.214	557.94
299.445	550.94
299.675	555.94
299.905	554.94
300.136	533.94
300.366	529.94
300.597	540.94
300.827	562.94
301.057	583.94
301.288	568.94
301.518	581.94
301.748	569.94
301.979	579.94
302.209	582.94
302.439	564.94
302.669	560.94
302.9	558.94
303.13	567.94
303.36	533.94
303.59	562.94
303.82	543.94
304.051	562.94
304.281	566.94
304.511	565.94
304.741	555.94
304.971	579.94
305.201	555.94
305.431	572.94
305.661	571.94
305.891	563.94
306.121	545.94
306.352	539.94
306.582	538.94
306.812	542.94
307.042	536.94
307.272	536.94
307.502	547.94
307.731	552.94
307.961	561.94
308.191	555.94
308.421	542.94
308.651	558.94
308.881	551.94
309.111	528.94
309.341	544.94
309.571	544.94
309.8	550.94
310.03	535.94
310.26	544.94
310.49	547.94
310.72	533.94
310.949	543.94
311.179	552.94
311.409	577.94
311.639	581.94
311.868	574.94
312.098	551.94
312.328	561.94
312.557	589.94
312.787	578.94
313.017	572.94
313.246	583.94
313.476	584.94
313.706	601.94
313.935	614.94
314.165	602.94
314.394	598.94
314.624	596.94
314.853	612.94
315.083	589.94
315.312	569.94
315.542	591.94
315.771	591.94
316.001	581.94
316.23	618.94
316.46	571.94
316.689	583.94
316.919	578.94
317.148	580.94
317.377	598.94
317.607	588.94
317.836	558.94
318.065	570.94
318.295	585.94
318.524	590.94
318.753	578.94
318.983	568.94
319.212	590.94
319.441	565.94
319.67	573.94
319.9	592.94
320.129	597.94
320.358	591.94
320.587	583.94
320.816	591.94
321.046	596.94
321.275	607.94
321.504	595.94
321.733	574.94
321.962	588.94
322.191	588.94
322.42	622.94
322.649	591.94
322.878	586.94
323.108	593.94
323.337	579.94
323.566	595.94
323.795	590.94
324.024	617.94
324.253	585.94
324.482	601.94
324.71	617.94
324.939	592.94
325.168	631.94
325.397	627.94
325.626	620.94
325.855	642.94
326.084	653.94
326.313	643.94
326.542	667.94
326.77	683.94
326.999	669.94
327.228	663.94
327.457	654.94
327.686	616.94
327.914	659.94
328.143	655.94
328.372	637.94
328.6	654.94
328.829	660.94
329.058	639.94
329.287	665.94
329.515	643.94
329.744	674.94
329.972	654.94
330.201	670.94
330.43	663.94
330.658	675.94
330.887	673.94
331.115	689.94
331.344	685.94
331.572	685.94
331.801	726.94
332.03	742.94
332.258	711.94
332.486	754.94
332.715	785.94
332.943	844.94
333.172	860.94
333.4	912.94
333.629	896.94
333.857	932.94
334.085	898.94
334.314	898.94
334.542	841.94
334.771	831.94
334.999	829.94
335.227	858.94
335.455	813.94
335.684	809.94
335.912	791.94
336.14	809.94
336.369	767.94
336.597	795.94
336.825	820.94
337.053	781.94
337.281	769.94
337.51	761.94
337.738	766.94
337.966	736.94
338.194	719.94
338.422	725.94
338.65	723.94
338.878	737.94
339.106	735.94
339.334	727.94
339.562	708.94
339.79	689.94
340.018	681.94
340.246	691.94
340.474	663.94
340.702	678.94
340.93	698.94
341.158	700.94
341.386	695.94
341.614	683.94
341.842	681.94
342.07	668.94
342.298	668.94
342.526	663.94
342.754	675.94
342.981	677.94
343.209	704.94
343.437	720.94
343.665	776.94
343.893	853.94
344.12	848.94
344.348	806.94
344.576	748.94
344.804	750.94
345.031	715.94
345.259	721.94
345.487	677.94
345.714	689.94
345.942	677.94
346.17	668.94
346.397	667.94
346.625	662.94
346.853	665.94
347.08	668.94
347.308	689.94
347.535	695.94
347.763	684.94
347.99	669.94
348.218	677.94
348.445	659.94
348.673	644.94
348.9	666.94
349.128	651.94
349.355	681.94
349.583	668.94
349.81	646.94
350.037	635.94
350.265	665.94
350.492	659.94
350.72	639.94
350.947	647.94
351.174	646.94
351.402	652.94
351.629	642.94
351.856	621.94
352.083	645.94
352.311	633.94
352.538	632.94
352.765	652.94
352.992	622.94
353.22	653.94
353.447	644.94
353.674	656.94
353.901	667.94
354.128	614.94
354.355	635.94
354.583	627.94
354.81	638.94
355.037	640.94
355.264	632.94
355.491	682.94
355.718	669.94
355.945	662.94
356.172	663.94
356.399	659.94
356.626	659.94
356.853	632.94
357.08	662.94
357.307	627.94
357.534	643.94
357.761	639.94
357.988	657.94
358.215	626.94
358.441	630.94
358.668	630.94
358.895	641.94
359.122	629.94
359.349	645.94
359.576	660.94
359.802	651.94
360.029	619.94
360.256	642.94
360.483	638.94
360.709	616.94
360.936	614.94
361.163	649.94
361.39	633.94
361.616	650.94
361.843	645.94
362.07	653.94
362.296	667.94
362.523	633.94
362.749	635.94
362.976	642.94
363.203	631.94
363.429	613.94
363.656	645.94
363.882	642.94
364.109	630.94
364.335	643.94
364.562	640.94
364.788	637.94
365.015	637.94
365.241	620.94
365.468	631.94
365.694	627.94
365.92	654.94
366.147	645.94
366.373	645.94
366.599	633.94
366.826	631.94
367.052	659.94
367.278	638.94
367.505	644.94
367.731	655.94
367.957	653.94
368.184	640.94
368.41	611.94
368.636	651.94
368.862	658.94
369.089	659.94
369.315	634.94
369.541	662.94
369.767	668.94
369.993	658.94
370.219	669.94
370.445	677.94
370.672	685.94
370.898	674.94
371.124	673.94
371.35	723.94
371.576	693.94
371.802	715.94
372.028	687.94
372.254	686.94
372.48	725.94
372.706	732.94
372.932	720.94
373.158	739.94
373.384	706.94
373.61	695.94
373.835	697.94
374.061	695.94
374.287	708.94
374.513	739.94
374.739	731.94
374.965	784.94
375.191	779.94
375.416	758.94
375.642	725.94
375.868	749.94
376.094	702.94
376.319	709.94
376.545	698.94
376.771	695.94
376.997	699.94
377.222	711.94
377.448	711.94
377.674	703.94
377.899	692.94
378.125	681.94
378.35	689.94
378.576	660.94
378.802	689.94
379.027	693.94
379.253	682.94
379.478	689.94
379.704	681.94
379.929	670.94
380.155	670.94
380.38	693.94
380.606	697.94
380.831	693.94
381.057	718.94
381.282	701.94
381.507	679.94
381.733	706.94
381.958	694.94
382.184	695.94
382.409	722.94
382.634	730.94
382.86	737.94
383.085	748.94
383.31	745.94
383.535	738.94
383.761	773.94
383.986	795.94
384.211	796.94
384.436	798.94
384.662	828.94
384.887	838.94
385.112	841.94
385.337	841.94
385.562	820.94
385.787	859.94
386.013	855.94
386.238	845.94
386.463	823.94
386.688	830.94
386.913	833.94
387.138	842.94
387.363	801.94
387.588	839.94
387.813	817.94
388.038	817.94
388.263	809.94
388.488	845.94
388.713	819.94
388.938	822.94
389.163	814.94
389.387	808.94
389.612	797.94
389.837	810.94
390.062	805.94
390.287	846.94
390.512	811.94
390.736	801.94
390.961	849.94
391.186	859.94
391.411	866.94
391.636	907.94
391.86	937.94
392.085	935.94
392.31	955.94
392.534	917.94
392.759	895.94
392.984	909.94
393.208	869.94
393.433	874.94
393.658	893.94
393.882	911.94
394.107	907.94
394.331	883.94
394.556	874.94
394.78	897.94
395.005	907.94
395.229	877.94
395.454	920.94
395.678	947.94
395.903	949.94
396.127	949.94
396.352	926.94
396.576	860.94
396.801	861.94
397.025	886.94
397.249	898.94
397.474	929.94
397.698	937.94
397.922	947.94
398.147	943.94
398.371	965.94
398.595	991.94
398.82	1037.94
399.044	1093.94
399.268	1223.94
399.492	1435.94
399.717	1666.94
399.941	1629.94
400.165	1450.94
400.389	1245.94
400.613	1137.94
400.837	1099.94
401.062	1064.94
401.286	1065.94
401.51	1012.94
401.734	1043.94
401.958	1053.94
402.182	1098.94
402.406	1100.94
402.63	1083.94
402.854	1153.94
403.078	1167.94
403.302	1173.94
403.526	1182.94
403.75	1228.94
403.974	1247.94
404.198	1267.94
404.422	1260.94
404.645	1223.94
404.869	1206.94
405.093	1180.94
405.317	1197.94
405.541	1143.94
405.765	1153.94
405.988	1152.94
406.212	1149.94
406.436	1153.94
406.66	1168.94
406.883	1194.94
407.107	1273.94
407.331	1359.94
407.555	1381.94
407.778	1384.94
408.002	1377.94
408.226	1301.94
408.449	1269.94
408.673	1226.94
408.896	1195.94
409.12	1198.94
409.344	1192.94
409.567	1225.94
409.791	1212.94
410.014	1166.94
410.238	1161.94
410.461	1167.94
410.685	1166.94
410.908	1134.94
411.132	1108.94
411.355	1084.94
411.578	1103.94
411.802	1102.94
412.025	1120.94
412.249	1149.94
412.472	1099.94
412.695	1066.94
412.919	1035.94
413.142	1053.94
413.365	1030.94
413.589	1025.94
413.812	1082.94
414.035	1045.94
414.258	1073.94
414.482	1050.94
414.705	1045.94
414.928	1058.94
415.151	1045.94
415.374	1049.94
415.597	1064.94
415.821	1037.94
416.044	1016.94
416.267	1032.94
416.49	1040.94
416.713	1045.94
416.936	1058.94
417.159	1007.94
417.382	1067.94
417.605	1020.94
417.828	1039.94
418.051	1066.94
418.274	1061.94
418.497	1073.94
418.72	1097.94
418.943	1064.94
419.166	1124.94
419.389	1206.94
419.611	1167.94
419.834	1141.94
420.057	1102.94
420.28	1045.94
420.503	1032.94
420.726	1018.94
420.948	1045.94
421.171	1046.94
421.394	1067.94
421.617	1048.94
421.839	1081.94
422.062	1055.94
422.285	1049.94
422.507	1080.94
422.73	1093.94
422.953	1066.94
423.175	1097.94
423.398	1105.94
423.621	1112.94
423.843	1142.94
424.066	1153.94
424.288	1125.94
424.511	1127.94
424.733	1100.94
424.956	1089.94
425.178	1085.94
425.401	1042.94
425.623	1046.94
425.846	1023.94
426.068	1018.94
426.291	990.94
426.513	969.94
426.735	983.94
426.958	978.94
427.18	966.94
427.402	997.94
427.625	970.94
427.847	924.94
428.069	927.94
428.292	953.94
428.514	926.94
428.736	927.94
428.958	928.94
429.181	927.94
429.403	921.94
429.625	923.94
429.847	919.94
430.069	905.94
430.292	924.94
430.514	903.94
430.736	907.94
430.958	907.94
431.18	910.94
431.402	926.94
431.624	942.94
431.846	936.94
432.068	953.94
432.29	951.94
432.512	915.94
432.734	925.94
432.956	921.94
433.178	953.94
433.4	935.94
433.622	984.94
433.844	957.94
434.066	930.94
434.287	957.94
434.509	1011.94
434.731	1036.94
434.953	1031.94
435.175	1067.94
435.397	1056.94
435.618	991.94
435.84	993.94
436.062	957.94
436.284	907.94
436.505	960.94
436.727	953.94
436.949	955.94
437.17	923.94
437.392	920.94
437.614	898.94
437.835	892.94
438.057	925.94
438.278	892.94
438.5	909.94
438.721	903.94
438.943	914.94
439.165	905.94
439.386	909.94
439.608	950.94
439.829	934.94
440.05	950.94
440.272	970.94
440.493	951.94
440.715	969.94
440.936	975.94
441.158	993.94
441.379	1020.94
441.6	1060.94
441.822	1097.94
442.043	1097.94
442.264	1054.94
442.486	1039.94
442.707	1051.94
442.928	1044.94
443.149	1021.94
443.371	1044.94
443.592	1080.94
443.813	1077.94
444.034	1093.94
444.255	1128.94
444.476	1149.94
444.698	1232.94
444.919	1303.94
445.14	1379.94
445.361	1212.94
445.582	1101.94
445.803	1046.94
446.024	1012.94
446.245	1002.94
446.466	983.94
446.687	927.94
446.908	956.94
447.129	926.94
447.35	931.94
447.571	899.94
447.792	904.94
448.013	899.94
448.234	887.94
448.455	888.94
448.675	886.94
448.896	868.94
449.117	865.94
449.338	868.94
449.559	891.94
449.779	829.94
450	851.94
450.221	879.94
450.442	855.94
450.662	887.94
450.883	861.94
451.104	917.94
451.324	892.94
451.545	894.94
451.766	896.94
451.986	897.94
452.207	870.94
452.428	846.94
452.648	852.94
452.869	870.94
453.089	862.94
453.31	835.94
453.53	854.94
453.751	835.94
453.971	841.94
454.192	822.94
454.412	820.94
454.633	795.94
454.853	811.94
455.073	796.94
455.294	817.94
455.514	790.94
455.734	789.94
455.955	776.94
456.175	795.94
456.395	777.94
456.616	775.94
456.836	809.94
457.056	810.94
457.276	793.94
457.497	803.94
457.717	779.94
457.937	798.94
458.157	814.94
458.377	802.94
458.598	845.94
458.818	849.94
459.038	897.94
459.258	921.94
459.478	945.94
459.698	973.94
459.918	982.94
460.138	1036.94
460.358	1090.94
460.578	1151.94
460.798	1155.94
461.018	1133.94
461.238	1130.94
461.458	1096.94
461.678	1098.94
461.898	1105.94
462.118	1104.94
462.338	1153.94
462.558	1229.94
462.777	1234.94
462.997	1389.94
463.217	1550.94
463.437	1555.94
463.657	1403.94
463.876	1332.94
464.096	1315.94
464.316	1301.94
464.536	1311.94
464.755	1278.94
464.975	1248.94
465.195	1129.94
465.414	1077.94
465.634	1041.94
465.854	990.94
466.073	966.94
466.293	928.94
466.512	916.94
466.732	910.94
466.951	928.94
467.171	883.94
467.391	890.94
467.61	919.94
467.829	902.94
468.049	897.94
468.268	898.94
468.488	876.94
468.707	855.94
468.927	868.94
469.146	875.94
469.365	886.94
469.585	883.94
469.804	924.94
470.023	900.94
470.243	923.94
470.462	964.94
470.681	938.94
470.901	963.94
471.12	911.94
471.339	899.94
471.558	857.94
471.777	856.94
471.997	881.94
472.216	853.94
472.435	850.94
472.654	839.94
472.873	836.94
473.092	824.94
473.311	829.94
473.53	862.94
473.749	831.94
473.968	842.94
474.187	834.94
474.406	848.94
474.625	857.94
474.844	824.94
475.063	826.94
475.282	846.94
475.501	853.94
475.72	855.94
475.939	855.94
476.158	872.94
476.377	868.94
476.596	891.94
476.814	878.94
477.033	873.94
477.252	898.94
477.471	926.94
477.69	915.94
477.908	953.94
478.127	990.94
478.346	968.94
478.564	1032.94
478.783	1037.94
479.002	1044.94
479.22	1062.94
479.439	1081.94
479.658	1045.94
479.876	1047.94
480.095	1057.94
480.313	1104.94
480.532	1135.94
480.751	1127.94
480.969	1058.94
481.188	1033.94
481.406	1005.94
481.624	980.94
481.843	963.94
482.061	951.94
482.28	971.94
482.498	943.94
482.717	946.94
482.935	935.94
483.153	931.94
483.372	955.94
483.59	955.94
483.808	963.94
484.027	956.94
484.245	956.94
484.463	989.94
484.681	961.94
484.9	972.94
485.118	974.94
485.336	994.94
485.554	991.94
485.772	980.94
485.99	991.94
486.209	1016.94
486.427	989.94
486.645	994.94
486.863	1010.94
487.081	1019.94
487.299	999.94
487.517	1006.94
487.735	996.94
487.953	1004.94
488.171	991.94
488.389	1024.94
488.607	989.94
488.825	967.94
489.043	963.94
489.261	1008.94
489.479	975.94
489.696	988.94
489.914	984.94
490.132	979.94
490.35	984.94
490.568	982.94
490.786	988.94
491.003	1016.94
491.221	1004.94
491.439	1017.94
491.657	1019.94
491.874	1022.94
492.092	1028.94
492.31	976.94
492.527	1044.94
492.745	1028.94
492.963	1038.94
493.18	1022.94
493.398	1040.94
493.615	1069.94
493.833	1079.94
494.05	1070.94
494.268	1053.94
494.485	1053.94
494.703	1055.94
494.92	1047.94
495.138	1085.94
495.355	1074.94
495.573	1053.94
495.79	1039.94
496.008	1080.94
496.225	1058.94
496.442	1055.94
496.66	1087.94
496.877	1105.94
497.094	1149.94
497.312	1139.94
497.529	1171.94
497.746	1212.94
497.963	1248.94
498.181	1292.94
498.398	1393.94
498.615	1419.94
498.832	1498.94
499.049	1633.94
499.267	1777.94
499.484	1964.94
499.701	2229.94
499.918	2442.94
500.135	2806.94
500.352	3302.94
500.569	3420.94
500.786	3407.94
501.003	3075.94
501.22	2718.94
501.437	2403.94
501.654	2084.94
501.871	1862.94
502.088	1712.94
502.305	1614.94
502.522	1550.94
502.739	1455.94
502.956	1409.94
503.172	1329.94
503.389	1283.94
503.606	1238.94
503.823	1204.94
504.04	1226.94
504.256	1223.94
504.473	1274.94
504.69	1307.94
504.907	1247.94
505.123	1167.94
505.34	1112.94
505.557	1049.94
505.773	1044.94
505.99	1014.94
506.207	983.94
506.423	963.94
506.64	965.94
506.856	961.94
507.073	923.94
507.289	925.94
507.506	934.94
507.722	932.94
507.939	891.94
508.155	911.94
508.372	929.94
508.588	893.94
508.805	888.94
509.021	877.94
509.238	888.94
509.454	859.94
509.67	867.94
509.887	864.94
510.103	863.94
510.319	860.94
510.536	837.94
510.752	836.94
510.968	862.94
511.184	835.94
511.401	873.94
511.617	842.94
511.833	853.94
512.049	841.94
512.265	881.94
512.481	833.94
512.698	820.94
512.914	837.94
513.13	850.94
513.346	841.94
513.562	850.94
513.778	835.94
513.994	837.94
514.21	850.94
514.426	849.94
514.642	821.94
514.858	865.94
515.074	867.94
515.29	875.94
515.506	873.94
515.721	867.94
515.937	933.94
516.153	915.94
516.369	964.94
516.585	972.94
516.801	1013.94
517.016	1070.94
517.232	1117.94
517.448	1180.94
517.664	1189.94
517.879	1199.94
518.095	1231.94
518.311	1210.94
518.527	1137.94
518.742	1080.94
518.958	1057.94
519.173	987.94
519.389	975.94
519.605	927.94
519.82	923.94
520.036	907.94
520.251	879.94
520.467	860.94
520.682	860.94
520.898	857.94
521.113	837.94
521.329	833.94
521.544	823.94
521.76	822.94
521.975	823.94
522.19	811.94
522.406	809.94
522.621	797.94
522.836	819.94
523.052	781.94
523.267	783.94
523.482	799.94
523.698	773.94
523.913	777.94
524.128	775.94
524.343	789.94
524.559	803.94
524.774	772.94
524.989	759.94
525.204	782.94
525.419	789.94
525.634	767.94
525.849	773.94
526.064	777.94
526.28	776.94
526.495	771.94
526.71	782.94
526.925	775.94
527.14	762.94
527.355	778.94
527.57	784.94
527.785	778.94
527.999	781.94
528.214	780.94
528.429	762.94
528.644	778.94
528.859	765.94
529.074	751.94
529.289	747.94
529.503	800.94
529.718	787.94
529.933	778.94
530.148	756.94
530.363	762.94
530.577	760.94
530.792	754.94
531.007	756.94
531.221	766.94
531.436	758.94
531.651	770.94
531.865	778.94
532.08	746.94
532.295	791.94
532.509	749.94
532.724	735.94
532.938	739.94
533.153	767.94
533.367	763.94
533.582	789.94
533.796	776.94
534.011	744.94
534.225	757.94
534.44	732.94
534.654	728.94
534.868	761.94
535.083	762.94
535.297	731.94
535.511	735.94
535.726	713.94
535.94	727.94
536.154	741.94
536.369	728.94
536.583	712.94
536.797	702.94
537.011	712.94
537.225	723.94
537.44	712.94
537.654	701.94
537.868	716.94
538.082	706.94
538.296	671.94
538.51	693.94
538.724	711.94
538.938	669.94
539.153	683.94
539.367	686.94
539.581	700.94
539.795	689.94
540.009	698.94
540.222	679.94
540.436	678.94
540.65	675.94
540.864	667.94
541.078	691.94
541.292	692.94
541.506	688.94
541.72	685.94
541.934	699.94
542.147	686.94
542.361	677.94
542.575	662.94
542.789	680.94
543.002	664.94
543.216	668.94
543.43	673.94
543.644	701.94
543.857	670.94
544.071	713.94
544.285	694.94
544.498	698.94
544.712	664.94
544.925	666.94
545.139	683.94
545.352	712.94
545.566	723.94
545.779	698.94
545.993	690.94
546.206	702.94
546.42	714.94
546.633	714.94
546.847	706.94
547.06	717.94
547.274	711.94
547.487	721.94
547.7	691.94
547.914	709.94
548.127	732.94
548.34	731.94
548.554	700.94
548.767	689.94
548.98	721.94
549.193	717.94
549.407	709.94
549.62	734.94
549.833	739.94
550.046	741.94
550.259	718.94
550.473	695.94
550.686	697.94
550.899	695.94
551.112	703.94
551.325	690.94
551.538	706.94
551.751	666.94
551.964	696.94
552.177	686.94
552.39	702.94
552.603	725.94
552.816	721.94
553.029	727.94
553.242	780.94
553.455	774.94
553.667	778.94
553.88	784.94
554.093	745.94
554.306	757.94
554.519	707.94
554.732	701.94
554.944	682.94
555.157	669.94
555.37	663.94
555.583	686.94
555.795	673.94
556.008	637.94
556.221	602.94
556.433	622.94
556.646	619.94
556.859	628.94
557.071	597.94
557.284	579.94
557.496	612.94
557.709	597.94
557.921	597.94
558.134	586.94
558.346	580.94
558.559	569.94
558.771	574.94
558.984	590.94
559.196	578.94
559.409	583.94
559.621	557.94
559.833	559.94
560.046	581.94
560.258	580.94
560.47	589.94
560.683	574.94
560.895	568.94
561.107	588.94
561.32	572.94
561.532	574.94
561.744	582.94
561.956	568.94
562.168	575.94
562.381	581.94
562.593	591.94
562.805	572.94
563.017	566.94
563.229	572.94
563.441	582.94
563.653	580.94
563.865	598.94
564.077	604.94
564.289	611.94
564.501	616.94
564.713	591.94
564.925	615.94
565.137	635.94
565.349	650.94
565.561	667.94
565.773	707.94
565.985	740.94
566.197	782.94
566.408	824.94
566.62	908.94
566.832	954.94
567.044	977.94
567.255	974.94
567.467	1003.94
567.679	1065.94
567.891	1126.94
568.102	1187.94
568.314	1155.94
568.526	1002.94
568.737	900.94
568.949	813.94
569.161	748.94
569.372	687.94
569.584	647.94
569.795	604.94
570.007	586.94
570.218	594.94
570.43	591.94
570.641	582.94
570.853	595.94
571.064	602.94
571.276	604.94
571.487	613.94
571.698	562.94
571.91	559.94
572.121	542.94
572.333	515.94
572.544	532.94
572.755	513.94
572.966	506.94
573.178	485.94
573.389	490.94
573.6	477.94
573.811	497.94
574.023	474.94
574.234	473.94
574.445	493.94
574.656	484.94
574.867	477.94
575.078	467.94
575.289	481.94
575.501	453.94
575.712	461.94
575.923	456.94
576.134	460.94
576.345	431.94
576.556	457.94
576.767	430.94
576.978	451.94
577.188	438.94
577.399	459.94
577.61	440.94
577.821	445.94
578.032	411.94
578.243	434.94
578.454	446.94
578.665	424.94
578.875	441.94
579.086	428.94
579.297	406.94
579.508	413.94
579.718	441.94
579.929	439.94
580.14	407.94
580.35	433.94
580.561	396.94
580.772	411.94
580.982	415.94
581.193	406.94
581.403	381.94
581.614	401.94
581.825	396.94
582.035	402.94
582.246	417.94
582.456	409.94
582.667	408.94
582.877	399.94
583.087	406.94
583.298	404.94
583.508	380.94
583.719	398.94
583.929	410.94
584.139	389.94
584.35	369.94
584.56	396.94
584.77	385.94
584.981	395.94
585.191	387.94
585.401	405.94
585.611	395.94
585.821	399.94
586.032	389.94
586.242	406.94
586.452	393.94
586.662	379.94
586.872	379.94
587.082	398.94
587.292	377.94
587.502	408.94
587.713	386.94
587.923	389.94
588.133	391.94
588.343	385.94
588.553	377.94
588.762	378.94
588.972	390.94
589.182	380.94
589.392	378.94
589.602	375.94
589.812	375.94
590.022	382.94
590.232	377.94
590.441	385.94
590.651	388.94
590.861	383.94
591.071	400.94
591.281	393.94
591.49	388.94
591.7	384.94
591.91	414.94
592.119	411.94
592.329	434.94
592.539	436.94
592.748	436.94
592.958	450.94
593.167	462.94
593.377	477.94
593.587	492.94
593.796	498.94
594.006	513.94
594.215	526.94
594.424	526.94
594.634	479.94
594.843	471.94
595.053	442.94
595.262	428.94
595.472	424.94
595.681	402.94
595.89	396.94
596.1	379.94
596.309	383.94
596.518	374.94
596.727	371.94
596.937	379.94
597.146	359.94
597.355	356.94
597.564	327.94
597.774	354.94
597.983	344.94
598.192	339.94
598.401	330.94
598.61	341.94
598.819	339.94
599.028	315.94
599.237	328.94
599.446	328.94
599.655	326.94
599.864	338.94
600.073	310.94
600.282	315.94
600.491	346.94
600.7	322.94
600.909	319.94
601.118	331.94
601.327	306.94
601.536	311.94
601.745	326.94
601.953	325.94
602.162	310.94
602.371	318.94
602.58	327.94
602.789	327.94
602.997	322.94
603.206	317.94
603.415	324.94
603.623	311.94
603.832	302.94
604.041	299.94
604.249	286.94
604.458	294.94
604.666	290.94
604.875	291.94
605.084	313.94
605.292	303.94
605.501	299.94
605.709	306.94
605.918	299.94
606.126	295.94
606.334	300.94
606.543	315.94
606.751	306.94
606.96	311.94
607.168	299.94
607.376	287.94
607.585	314.94
607.793	298.94
608.001	300.94
608.21	301.94
608.418	285.94
608.626	304.94
608.834	298.94
609.043	295.94
609.251	297.94
609.459	297.94
609.667	296.94
609.875	298.94
610.083	289.94
610.291	297.94
610.499	317.94
610.707	282.94
610.916	294.94
611.124	278.94
611.332	291.94
611.54	291.94
611.748	283.94
611.955	289.94
612.163	281.94
612.371	296.94
612.579	282.94
612.787	283.94
612.995	284.94
613.203	298.94
613.411	279.94
613.618	272.94
613.826	270.94
614.034	312.94
614.242	300.94
614.449	287.94
614.657	284.94
614.865	297.94
615.072	297.94
615.28	270.94
615.488	261.94
615.695	291.94
615.903	285.94
616.111	286.94
616.318	286.94
616.526	284.94
616.733	289.94
616.941	294.94
617.148	287.94
617.356	289.94
617.563	278.94
617.771	305.94
617.978	295.94
618.185	270.94
618.393	286.94
618.6	279.94
618.807	275.94
619.015	277.94
619.222	281.94
619.429	277.94
619.637	266.94
619.844	283.94
620.051	263.94
620.258	273.94
620.466	264.94
620.673	259.94
620.88	253.94
621.087	259.94
621.294	246.94
621.501	273.94
621.708	252.94
621.915	275.94
622.122	257.94
622.329	244.94
622.536	259.94
622.743	257.94
622.95	241.94
623.157	246.94
623.364	252.94
623.571	253.94
623.778	241.94
623.985	258.94
624.192	260.94
624.399	227.94
624.606	253.94
624.812	232.94
625.019	255.94
625.226	236.94
625.433	252.94
625.639	237.94
625.846	239.94
626.053	258.94
626.259	221.94
626.466	233.94
626.673	228.94
626.879	234.94
627.086	243.94
627.293	245.94
627.499	224.94
627.706	229.94
627.912	233.94
628.119	213.94
628.325	237.94
628.532	227.94
628.738	236.94
628.945	225.94
629.151	219.94
629.357	229.94
629.564	229.94
629.77	228.94
629.976	239.94
630.183	217.94
630.389	223.94
630.595	216.94
630.802	223.94
631.008	215.94
631.214	230.94
631.42	240.94
631.627	227.94
631.833	201.94
632.039	209.94
632.245	211.94
632.451	211.94
632.657	210.94
632.863	222.94
633.069	209.94
633.275	201.94
633.481	211.94
633.688	195.94
633.893	210.94
634.099	221.94
634.305	209.94
634.511	206.94
634.717	195.94
634.923	190.94
635.129	199.94
635.335	211.94
635.541	191.94
635.747	217.94
635.952	206.94
636.158	200.94
636.364	201.94
636.57	208.94
636.775	197.94
636.981	214.94
637.187	215.94
637.392	204.94
637.598	201.94
637.804	220.94
638.009	203.94
638.215	197.94
638.421	197.94
638.626	186.94
638.832	194.94
639.037	210.94
639.243	203.94
639.448	202.94
639.654	195.94
639.859	191.94
640.065	189.94
640.27	190.94
640.475	184.94
640.681	206.94
640.886	212.94
641.091	196.94
641.297	189.94
641.502	191.94
641.707	188.94
641.913	203.94
642.118	194.94
642.323	193.94
642.528	190.94
642.733	187.94
642.939	199.94
643.144	189.94
643.349	192.94
643.554	194.94
643.759	201.94
643.964	190.94
644.169	187.94
644.374	184.94
644.579	191.94
644.784	203.94
644.989	195.94
645.194	177.94
645.399	178.94
645.604	183.94
645.809	161.94
646.014	202.94
646.219	164.94
646.423	197.94
646.628	176.94
646.833	177.94
647.038	198.94
647.243	195.94
647.447	202.94
647.652	169.94
647.857	179.94
648.062	190.94
648.266	196.94
648.471	225.94
648.676	199.94
648.88	192.94
649.085	197.94
649.289	194.94
649.494	180.94
649.698	195.94
649.903	172.94
650.107	182.94
650.312	167.94
650.516	164.94
650.721	181.94
650.925	166.94
651.13	150.94
651.334	169.94
651.539	161.94
651.743	171.94
651.947	169.94
652.152	149.94
652.356	156.94
652.56	172.94
652.764	169.94
652.969	158.94
653.173	156.94
653.377	149.94
653.581	151.94
653.785	156.94
653.99	125.94
654.194	141.94
654.398	153.94
654.602	135.94
654.806	147.94
655.01	132.94
655.214	137.94
655.418	149.94
655.622	132.94
655.826	146.94
656.03	140.94
656.234	145.94
656.438	135.94
656.642	132.94
656.846	119.94
657.049	135.94
657.253	141.94
657.457	125.94
657.661	116.94
657.865	121.94
658.068	124.94
658.272	101.94
658.476	123.94
658.68	111.94
658.883	122.94
659.087	109.94
659.291	108.94
659.494	118.94
659.698	96.94
659.901	93.94
660.105	96.94
660.309	92.94
660.512	100.94
660.716	99.94
660.919	87.94
661.123	113.94
661.326	111.94
661.53	85.94
661.733	76.94
661.936	98.94
662.14	75.94
662.343	85.94
662.546	101.94
662.75	100.94
662.953	85.94
663.156	90.94
663.36	91.94
663.563	80.94
663.766	67.94
663.969	79.94
664.173	89.94
664.376	97.94
664.579	90.94
664.782	88.94
664.985	92.94
665.188	89.94
665.391	75.94
665.594	79.94
665.797	79.94
666	73.94
666.203	76.94
666.406	83.94
666.609	94.94
666.812	71.94
667.015	85.94
667.218	86.94
667.421	83.94
667.624	69.94
667.827	96.94
668.03	86.94
668.232	85.94
668.435	81.94
668.638	94.94
668.841	77.94
669.043	86.94
669.246	84.94
669.449	78.94
669.651	87.94
669.854	77.94
670.057	79.94
670.259	88.94
670.462	75.94
670.665	82.94
670.867	82.94
671.07	98.94
671.272	82.94
671.475	89.94
671.677	84.94
671.88	77.94
672.082	92.94
672.284	89.94
672.487	83.94
672.689	88.94
672.892	103.94
