Data from Ni(NO3)2@0.125M.TitratingCurve.Agarose3%dH2O.NegLispCup.LampEnergy10.LIBS07252019_HRD10591_18-09-11-568.txt Node
Date: Thu Jul 25 18:09:11 EDT 2019
User: cochatt
Spectrometer: HR+D1059
Trigger mode: 1
Integration Time (sec): 1.000000E-1
Scans to average: 1
Electric dark correction enabled: true
Nonlinearity correction enabled: false
Boxcar width: 0
XAxis mode: Wavelengths
Number of Pixels in Spectrum: 2048
>>>>>Begin Spectral Data<<<<<
223.165	-14.06
223.4	-14.06
223.635	-14.06
223.869	-11.06
224.104	-29.06
224.338	-10.06
224.573	-21.06
224.808	-5.06
225.042	-13.06
225.277	-5.06
225.511	2.94
225.746	-4.06
225.98	8.94
226.215	18.94
226.449	6.94
226.683	23.94
226.918	24.94
227.152	25.94
227.387	35.94
227.621	33.94
227.856	42.94
228.09	43.94
228.324	43.94
228.559	45.94
228.793	53.94
229.027	106.94
229.262	95.94
229.496	114.94
229.73	101.94
229.964	112.94
230.199	124.94
230.433	115.94
230.667	120.94
230.901	117.94
231.136	113.94
231.37	117.94
231.604	131.94
231.838	130.94
232.072	134.94
232.306	136.94
232.541	126.94
232.775	143.94
233.009	122.94
233.243	123.94
233.477	131.94
233.711	133.94
233.945	142.94
234.179	139.94
234.413	127.94
234.647	120.94
234.881	130.94
235.115	126.94
235.349	139.94
235.583	140.94
235.817	141.94
236.051	128.94
236.285	118.94
236.519	135.94
236.753	138.94
236.987	145.94
237.221	130.94
237.455	147.94
237.689	142.94
237.922	145.94
238.156	142.94
238.39	150.94
238.624	142.94
238.858	150.94
239.091	141.94
239.325	140.94
239.559	150.94
239.793	150.94
240.027	157.94
240.26	150.94
240.494	140.94
240.728	147.94
240.961	152.94
241.195	154.94
241.429	156.94
241.662	165.94
241.896	180.94
242.13	164.94
242.363	155.94
242.597	159.94
242.83	152.94
243.064	150.94
243.298	160.94
243.531	169.94
243.765	179.94
243.998	161.94
244.232	159.94
244.465	167.94
244.699	180.94
244.932	174.94
245.166	184.94
245.399	189.94
245.633	182.94
245.866	184.94
246.099	179.94
246.333	180.94
246.566	189.94
246.8	165.94
247.033	193.94
247.266	189.94
247.5	170.94
247.733	182.94
247.966	184.94
248.2	191.94
248.433	203.94
248.666	202.94
248.899	197.94
249.133	197.94
249.366	204.94
249.599	210.94
249.832	206.94
250.066	204.94
250.299	211.94
250.532	211.94
250.765	213.94
250.998	201.94
251.231	220.94
251.465	228.94
251.698	204.94
251.931	235.94
252.164	230.94
252.397	232.94
252.63	214.94
252.863	219.94
253.096	207.94
253.329	224.94
253.562	210.94
253.795	231.94
254.028	221.94
254.261	225.94
254.494	232.94
254.727	229.94
254.96	225.94
255.193	216.94
255.426	222.94
255.659	210.94
255.892	217.94
256.124	237.94
256.357	245.94
256.59	243.94
256.823	229.94
257.056	245.94
257.289	241.94
257.521	237.94
257.754	229.94
257.987	243.94
258.22	256.94
258.452	256.94
258.685	258.94
258.918	229.94
259.151	244.94
259.383	257.94
259.616	249.94
259.849	249.94
260.081	255.94
260.314	263.94
260.547	262.94
260.779	247.94
261.012	260.94
261.244	258.94
261.477	289.94
261.71	257.94
261.942	271.94
262.175	248.94
262.407	269.94
262.64	271.94
262.872	251.94
263.105	264.94
263.337	278.94
263.57	274.94
263.802	259.94
264.035	268.94
264.267	297.94
264.499	260.94
264.732	291.94
264.964	275.94
265.197	281.94
265.429	277.94
265.661	293.94
265.894	289.94
266.126	264.94
266.358	296.94
266.591	279.94
266.823	282.94
267.055	299.94
267.287	284.94
267.52	270.94
267.752	295.94
267.984	297.94
268.216	293.94
268.448	280.94
268.681	307.94
268.913	301.94
269.145	280.94
269.377	286.94
269.609	296.94
269.841	320.94
270.073	309.94
270.306	323.94
270.538	312.94
270.77	280.94
271.002	282.94
271.234	293.94
271.466	328.94
271.698	314.94
271.93	299.94
272.162	326.94
272.394	296.94
272.626	304.94
272.858	305.94
273.09	325.94
273.322	324.94
273.553	314.94
273.785	328.94
274.017	329.94
274.249	341.94
274.481	329.94
274.713	329.94
274.945	326.94
275.176	326.94
275.408	339.94
275.64	335.94
275.872	351.94
276.104	349.94
276.335	342.94
276.567	334.94
276.799	332.94
277.031	337.94
277.262	341.94
277.494	360.94
277.726	329.94
277.957	352.94
278.189	349.94
278.421	344.94
278.652	339.94
278.884	342.94
279.115	344.94
279.347	344.94
279.579	353.94
279.81	344.94
280.042	362.94
280.273	373.94
280.505	356.94
280.736	356.94
280.968	357.94
281.199	358.94
281.431	362.94
281.662	360.94
281.894	365.94
282.125	368.94
282.356	345.94
282.588	371.94
282.819	373.94
283.051	364.94
283.282	376.94
283.513	384.94
283.745	391.94
283.976	384.94
284.207	375.94
284.439	365.94
284.67	388.94
284.901	382.94
285.132	385.94
285.364	376.94
285.595	384.94
285.826	376.94
286.057	365.94
286.288	404.94
286.52	396.94
286.751	391.94
286.982	404.94
287.213	406.94
287.444	396.94
287.675	397.94
287.906	395.94
288.138	395.94
288.369	403.94
288.6	388.94
288.831	393.94
289.062	411.94
289.293	401.94
289.524	402.94
289.755	427.94
289.986	394.94
290.217	408.94
290.448	428.94
290.679	399.94
290.91	434.94
291.141	416.94
291.371	434.94
291.602	423.94
291.833	406.94
292.064	438.94
292.295	420.94
292.526	402.94
292.757	429.94
292.987	419.94
293.218	416.94
293.449	436.94
293.68	419.94
293.91	413.94
294.141	406.94
294.372	418.94
294.603	429.94
294.833	422.94
295.064	439.94
295.295	440.94
295.525	413.94
295.756	429.94
295.987	419.94
296.217	451.94
296.448	426.94
296.679	436.94
296.909	452.94
297.14	468.94
297.37	460.94
297.601	464.94
297.831	465.94
298.062	467.94
298.292	441.94
298.523	472.94
298.753	457.94
298.984	469.94
299.214	463.94
299.445	452.94
299.675	456.94
299.905	477.94
300.136	487.94
300.366	468.94
300.597	484.94
300.827	476.94
301.057	457.94
301.288	473.94
301.518	471.94
301.748	494.94
301.979	480.94
302.209	483.94
302.439	489.94
302.669	465.94
302.9	470.94
303.13	454.94
303.36	494.94
303.59	486.94
303.82	454.94
304.051	473.94
304.281	468.94
304.511	484.94
304.741	482.94
304.971	481.94
305.201	487.94
305.431	485.94
305.661	462.94
305.891	463.94
306.121	468.94
306.352	455.94
306.582	472.94
306.812	446.94
307.042	468.94
307.272	470.94
307.502	450.94
307.731	452.94
307.961	457.94
308.191	461.94
308.421	461.94
308.651	457.94
308.881	447.94
309.111	454.94
309.341	472.94
309.571	450.94
309.8	462.94
310.03	482.94
310.26	461.94
310.49	458.94
310.72	458.94
310.949	450.94
311.179	454.94
311.409	464.94
311.639	464.94
311.868	462.94
312.098	467.94
312.328	475.94
312.557	491.94
312.787	480.94
313.017	491.94
313.246	490.94
313.476	488.94
313.706	490.94
313.935	491.94
314.165	512.94
314.394	508.94
314.624	502.94
314.853	492.94
315.083	481.94
315.312	480.94
315.542	514.94
315.771	491.94
316.001	508.94
316.23	490.94
316.46	487.94
316.689	507.94
316.919	498.94
317.148	502.94
317.377	485.94
317.607	498.94
317.836	473.94
318.065	486.94
318.295	481.94
318.524	491.94
318.753	485.94
318.983	481.94
319.212	500.94
319.441	497.94
319.67	487.94
319.9	473.94
320.129	498.94
320.358	485.94
320.587	501.94
320.816	474.94
321.046	507.94
321.275	512.94
321.504	514.94
321.733	503.94
321.962	517.94
322.191	491.94
322.42	481.94
322.649	523.94
322.878	532.94
323.108	496.94
323.337	512.94
323.566	490.94
323.795	521.94
324.024	527.94
324.253	488.94
324.482	505.94
324.71	512.94
324.939	520.94
325.168	516.94
325.397	536.94
325.626	534.94
325.855	526.94
326.084	539.94
326.313	545.94
326.542	531.94
326.77	580.94
326.999	541.94
327.228	557.94
327.457	557.94
327.686	526.94
327.914	548.94
328.143	560.94
328.372	550.94
328.6	539.94
328.829	531.94
329.058	549.94
329.287	550.94
329.515	579.94
329.744	556.94
329.972	557.94
330.201	574.94
330.43	578.94
330.658	566.94
330.887	569.94
331.115	583.94
331.344	571.94
331.572	592.94
331.801	591.94
332.03	595.94
332.258	620.94
332.486	648.94
332.715	658.94
332.943	695.94
333.172	711.94
333.4	760.94
333.629	744.94
333.857	740.94
334.085	757.94
334.314	741.94
334.542	730.94
334.771	697.94
334.999	686.94
335.227	697.94
335.455	710.94
335.684	681.94
335.912	675.94
336.14	690.94
336.369	687.94
336.597	696.94
336.825	698.94
337.053	648.94
337.281	672.94
337.51	651.94
337.738	656.94
337.966	631.94
338.194	660.94
338.422	644.94
338.65	637.94
338.878	590.94
339.106	593.94
339.334	614.94
339.562	611.94
339.79	586.94
340.018	597.94
340.246	576.94
340.474	591.94
340.702	590.94
340.93	578.94
341.158	593.94
341.386	578.94
341.614	622.94
341.842	575.94
342.07	585.94
342.298	573.94
342.526	595.94
342.754	566.94
342.981	565.94
343.209	590.94
343.437	640.94
343.665	680.94
343.893	709.94
344.12	712.94
344.348	693.94
344.576	644.94
344.804	626.94
345.031	618.94
345.259	596.94
345.487	593.94
345.714	594.94
345.942	598.94
346.17	581.94
346.397	615.94
346.625	569.94
346.853	592.94
347.08	563.94
347.308	582.94
347.535	580.94
347.763	574.94
347.99	574.94
348.218	596.94
348.445	588.94
348.673	582.94
348.9	560.94
349.128	578.94
349.355	584.94
349.583	602.94
349.81	572.94
350.037	553.94
350.265	553.94
350.492	575.94
350.72	554.94
350.947	550.94
351.174	565.94
351.402	547.94
351.629	572.94
351.856	544.94
352.083	546.94
352.311	545.94
352.538	561.94
352.765	541.94
352.992	538.94
353.22	540.94
353.447	547.94
353.674	547.94
353.901	534.94
354.128	537.94
354.355	544.94
354.583	549.94
354.81	562.94
355.037	540.94
355.264	549.94
355.491	546.94
355.718	561.94
355.945	561.94
356.172	552.94
356.399	570.94
356.626	558.94
356.853	562.94
357.08	536.94
357.307	539.94
357.534	531.94
357.761	557.94
357.988	555.94
358.215	555.94
358.441	550.94
358.668	549.94
358.895	538.94
359.122	534.94
359.349	532.94
359.576	544.94
359.802	555.94
360.029	538.94
360.256	546.94
360.483	566.94
360.709	521.94
360.936	555.94
361.163	544.94
361.39	553.94
361.616	550.94
361.843	541.94
362.07	566.94
362.296	552.94
362.523	522.94
362.749	533.94
362.976	524.94
363.203	542.94
363.429	533.94
363.656	541.94
363.882	534.94
364.109	547.94
364.335	508.94
364.562	540.94
364.788	531.94
365.015	556.94
365.241	544.94
365.468	529.94
365.694	539.94
365.92	537.94
366.147	526.94
366.373	540.94
366.599	550.94
366.826	549.94
367.052	521.94
367.278	536.94
367.505	554.94
367.731	571.94
367.957	555.94
368.184	568.94
368.41	537.94
368.636	562.94
368.862	552.94
369.089	554.94
369.315	569.94
369.541	557.94
369.767	582.94
369.993	564.94
370.219	570.94
370.445	578.94
370.672	576.94
370.898	585.94
371.124	604.94
371.35	590.94
371.576	589.94
371.802	578.94
372.028	602.94
372.254	600.94
372.48	603.94
372.706	615.94
372.932	627.94
373.158	607.94
373.384	616.94
373.61	583.94
373.835	601.94
374.061	590.94
374.287	604.94
374.513	608.94
374.739	626.94
374.965	653.94
375.191	658.94
375.416	662.94
375.642	625.94
375.868	620.94
376.094	606.94
376.319	598.94
376.545	599.94
376.771	614.94
376.997	569.94
377.222	597.94
377.448	616.94
377.674	585.94
377.899	594.94
378.125	596.94
378.35	594.94
378.576	589.94
378.802	598.94
379.027	569.94
379.253	575.94
379.478	585.94
379.704	569.94
379.929	577.94
380.155	571.94
380.38	581.94
380.606	583.94
380.831	594.94
381.057	596.94
381.282	581.94
381.507	582.94
381.733	602.94
381.958	599.94
382.184	596.94
382.409	624.94
382.634	608.94
382.86	612.94
383.085	604.94
383.31	646.94
383.535	632.94
383.761	640.94
383.986	638.94
384.211	685.94
384.436	676.94
384.662	694.94
384.887	711.94
385.112	713.94
385.337	704.94
385.562	718.94
385.787	724.94
386.013	722.94
386.238	714.94
386.463	714.94
386.688	714.94
386.913	698.94
387.138	693.94
387.363	690.94
387.588	685.94
387.813	678.94
388.038	676.94
388.263	692.94
388.488	698.94
388.713	681.94
388.938	700.94
389.163	666.94
389.387	654.94
389.612	655.94
389.837	692.94
390.062	678.94
390.287	692.94
390.512	685.94
390.736	670.94
390.961	708.94
391.186	745.94
391.411	741.94
391.636	781.94
391.86	790.94
392.085	780.94
392.31	783.94
392.534	760.94
392.759	749.94
392.984	744.94
393.208	715.94
393.433	736.94
393.658	728.94
393.882	752.94
394.107	746.94
394.331	740.94
394.556	759.94
394.78	747.94
395.005	765.94
395.229	750.94
395.454	780.94
395.678	813.94
395.903	804.94
396.127	776.94
396.352	742.94
396.576	727.94
396.801	724.94
397.025	733.94
397.249	749.94
397.474	777.94
397.698	753.94
397.922	750.94
398.147	798.94
398.371	796.94
398.595	822.94
398.82	877.94
399.044	925.94
399.268	1004.94
399.492	1189.94
399.717	1400.94
399.941	1346.94
400.165	1150.94
400.389	1035.94
400.613	952.94
400.837	922.94
401.062	872.94
401.286	893.94
401.51	875.94
401.734	867.94
401.958	890.94
402.182	892.94
402.406	909.94
402.63	925.94
402.854	925.94
403.078	959.94
403.302	994.94
403.526	998.94
403.75	980.94
403.974	1032.94
404.198	1010.94
404.422	1035.94
404.645	1020.94
404.869	996.94
405.093	1011.94
405.317	967.94
405.541	971.94
405.765	950.94
405.988	955.94
406.212	954.94
406.436	980.94
406.66	1010.94
406.883	993.94
407.107	1084.94
407.331	1146.94
407.555	1165.94
407.778	1165.94
408.002	1109.94
408.226	1070.94
408.449	1075.94
408.673	1008.94
408.896	1026.94
409.12	1012.94
409.344	1001.94
409.567	1013.94
409.791	1039.94
410.014	1045.94
410.238	1028.94
410.461	994.94
410.685	951.94
410.908	946.94
411.132	925.94
411.355	929.94
411.578	916.94
411.802	910.94
412.025	920.94
412.249	960.94
412.472	936.94
412.695	898.94
412.919	884.94
413.142	861.94
413.365	905.94
413.589	885.94
413.812	883.94
414.035	890.94
414.258	884.94
414.482	883.94
414.705	908.94
414.928	924.94
415.151	885.94
415.374	868.94
415.597	887.94
415.821	894.94
416.044	872.94
416.267	875.94
416.49	906.94
416.713	895.94
416.936	857.94
417.159	882.94
417.382	899.94
417.605	869.94
417.828	871.94
418.051	887.94
418.274	908.94
418.497	871.94
418.72	908.94
418.943	892.94
419.166	969.94
419.389	1011.94
419.611	986.94
419.834	944.94
420.057	903.94
420.28	901.94
420.503	865.94
420.726	887.94
420.948	833.94
421.171	860.94
421.394	902.94
421.617	890.94
421.839	889.94
422.062	896.94
422.285	876.94
422.507	904.94
422.73	918.94
422.953	921.94
423.175	939.94
423.398	963.94
423.621	970.94
423.843	961.94
424.066	985.94
424.288	985.94
424.511	944.94
424.733	937.94
424.956	909.94
425.178	923.94
425.401	926.94
425.623	895.94
425.846	845.94
426.068	859.94
426.291	838.94
426.513	844.94
426.735	823.94
426.958	844.94
427.18	805.94
427.402	802.94
427.625	806.94
427.847	807.94
428.069	808.94
428.292	809.94
428.514	769.94
428.736	792.94
428.958	781.94
429.181	792.94
429.403	782.94
429.625	748.94
429.847	773.94
430.069	770.94
430.292	766.94
430.514	774.94
430.736	790.94
430.958	782.94
431.18	771.94
431.402	789.94
431.624	782.94
431.846	810.94
432.068	826.94
432.29	830.94
432.512	781.94
432.734	792.94
432.956	780.94
433.178	775.94
433.4	825.94
433.622	841.94
433.844	829.94
434.066	798.94
434.287	832.94
434.509	851.94
434.731	887.94
434.953	900.94
435.175	922.94
435.397	888.94
435.618	843.94
435.84	833.94
436.062	792.94
436.284	813.94
436.505	790.94
436.727	807.94
436.949	808.94
437.17	782.94
437.392	819.94
437.614	817.94
437.835	774.94
438.057	782.94
438.278	773.94
438.5	778.94
438.721	766.94
438.943	774.94
439.165	765.94
439.386	791.94
439.608	782.94
439.829	777.94
440.05	811.94
440.272	795.94
440.493	804.94
440.715	825.94
440.936	836.94
441.158	849.94
441.379	856.94
441.6	924.94
441.822	944.94
442.043	924.94
442.264	891.94
442.486	866.94
442.707	892.94
442.928	872.94
443.149	877.94
443.371	915.94
443.592	933.94
443.813	924.94
444.034	938.94
444.255	942.94
444.476	993.94
444.698	1044.94
444.919	1108.94
445.14	1190.94
445.361	1038.94
445.582	951.94
445.803	885.94
446.024	848.94
446.245	850.94
446.466	856.94
446.687	814.94
446.908	805.94
447.129	801.94
447.35	796.94
447.571	796.94
447.792	783.94
448.013	799.94
448.234	776.94
448.455	732.94
448.675	758.94
448.896	771.94
449.117	714.94
449.338	714.94
449.559	762.94
449.779	756.94
450	752.94
450.221	743.94
450.442	756.94
450.662	772.94
450.883	749.94
451.104	765.94
451.324	798.94
451.545	779.94
451.766	786.94
451.986	745.94
452.207	745.94
452.428	752.94
452.648	744.94
452.869	724.94
453.089	744.94
453.31	733.94
453.53	738.94
453.751	704.94
453.971	717.94
454.192	722.94
454.412	698.94
454.633	699.94
454.853	699.94
455.073	692.94
455.294	700.94
455.514	698.94
455.734	715.94
455.955	704.94
456.175	683.94
456.395	702.94
456.616	674.94
456.836	702.94
457.056	696.94
457.276	657.94
457.497	674.94
457.717	699.94
457.937	697.94
458.157	714.94
458.377	721.94
458.598	732.94
458.818	730.94
459.038	743.94
459.258	793.94
459.478	829.94
459.698	820.94
459.918	844.94
460.138	884.94
460.358	944.94
460.578	936.94
460.798	961.94
461.018	963.94
461.238	933.94
461.458	954.94
461.678	921.94
461.898	933.94
462.118	932.94
462.338	1006.94
462.558	1035.94
462.777	1064.94
462.997	1177.94
463.217	1280.94
463.437	1320.94
463.657	1174.94
463.876	1117.94
464.096	1065.94
464.316	1119.94
464.536	1113.94
464.755	1066.94
464.975	1018.94
465.195	993.94
465.414	909.94
465.634	883.94
465.854	822.94
466.073	804.94
466.293	812.94
466.512	800.94
466.732	812.94
466.951	763.94
467.171	778.94
467.391	786.94
467.61	778.94
467.829	769.94
468.049	756.94
468.268	779.94
468.488	738.94
468.707	734.94
468.927	732.94
469.146	747.94
469.365	756.94
469.585	750.94
469.804	792.94
470.023	768.94
470.243	826.94
470.462	785.94
470.681	818.94
470.901	820.94
471.12	802.94
471.339	786.94
471.558	754.94
471.777	754.94
471.997	746.94
472.216	714.94
472.435	749.94
472.654	723.94
472.873	714.94
473.092	708.94
473.311	733.94
473.53	711.94
473.749	709.94
473.968	722.94
474.187	706.94
474.406	704.94
474.625	714.94
474.844	723.94
475.063	734.94
475.282	697.94
475.501	734.94
475.72	723.94
475.939	724.94
476.158	729.94
476.377	762.94
476.596	764.94
476.814	760.94
477.033	760.94
477.252	754.94
477.471	800.94
477.69	834.94
477.908	821.94
478.127	840.94
478.346	876.94
478.564	870.94
478.783	876.94
479.002	941.94
479.22	918.94
479.439	913.94
479.658	890.94
479.876	889.94
480.095	908.94
480.313	956.94
480.532	986.94
480.751	955.94
480.969	917.94
481.188	850.94
481.406	863.94
481.624	864.94
481.843	827.94
482.061	788.94
482.28	816.94
482.498	800.94
482.717	811.94
482.935	805.94
483.153	804.94
483.372	851.94
483.59	829.94
483.808	820.94
484.027	850.94
484.245	830.94
484.463	832.94
484.681	853.94
484.9	847.94
485.118	842.94
485.336	862.94
485.554	856.94
485.772	860.94
485.99	898.94
486.209	893.94
486.427	893.94
486.645	891.94
486.863	893.94
487.081	894.94
487.299	870.94
487.517	892.94
487.735	864.94
487.953	874.94
488.171	875.94
488.389	867.94
488.607	869.94
488.825	833.94
489.043	864.94
489.261	878.94
489.479	876.94
489.696	846.94
489.914	855.94
490.132	862.94
490.35	868.94
490.568	870.94
490.786	873.94
491.003	890.94
491.221	888.94
491.439	899.94
491.657	880.94
491.874	885.94
492.092	895.94
492.31	901.94
492.527	891.94
492.745	900.94
492.963	890.94
493.18	922.94
493.398	906.94
493.615	901.94
493.833	900.94
494.05	892.94
494.268	927.94
494.485	930.94
494.703	949.94
494.92	915.94
495.138	922.94
495.355	909.94
495.573	912.94
495.79	952.94
496.008	916.94
496.225	953.94
496.442	926.94
496.66	978.94
496.877	967.94
497.094	959.94
497.312	989.94
497.529	981.94
497.746	1037.94
497.963	1050.94
498.181	1092.94
498.398	1143.94
498.615	1184.94
498.832	1285.94
499.049	1408.94
499.267	1484.94
499.484	1654.94
499.701	1816.94
499.918	2037.94
500.135	2362.94
500.352	2724.94
500.569	2921.94
500.786	2869.94
501.003	2599.94
501.22	2262.94
501.437	1976.94
501.654	1767.94
501.871	1570.94
502.088	1460.94
502.305	1370.94
502.522	1298.94
502.739	1233.94
502.956	1172.94
503.172	1133.94
503.389	1074.94
503.606	1061.94
503.823	1036.94
504.04	1030.94
504.256	1027.94
504.473	1070.94
504.69	1121.94
504.907	1054.94
505.123	989.94
505.34	957.94
505.557	904.94
505.773	884.94
505.99	880.94
506.207	857.94
506.423	833.94
506.64	828.94
506.856	826.94
507.073	821.94
507.289	809.94
507.506	796.94
507.722	794.94
507.939	745.94
508.155	780.94
508.372	778.94
508.588	783.94
508.805	776.94
509.021	747.94
509.238	726.94
509.454	734.94
509.67	740.94
509.887	731.94
510.103	715.94
510.319	722.94
510.536	741.94
510.752	704.94
510.968	747.94
511.184	718.94
511.401	738.94
511.617	745.94
511.833	723.94
512.049	719.94
512.265	735.94
512.481	735.94
512.698	754.94
512.914	744.94
513.13	729.94
513.346	752.94
513.562	744.94
513.778	701.94
513.994	746.94
514.21	762.94
514.426	717.94
514.642	731.94
514.858	733.94
515.074	754.94
515.29	779.94
515.506	757.94
515.721	775.94
515.937	788.94
516.153	824.94
516.369	823.94
516.585	830.94
516.801	882.94
517.016	907.94
517.232	970.94
517.448	994.94
517.664	1034.94
517.879	1045.94
518.095	1053.94
518.311	1041.94
518.527	957.94
518.742	912.94
518.958	899.94
519.173	849.94
519.389	792.94
519.605	807.94
519.82	786.94
520.036	752.94
520.251	777.94
520.467	735.94
520.682	755.94
520.898	755.94
521.113	737.94
521.329	727.94
521.544	693.94
521.76	693.94
521.975	724.94
522.19	701.94
522.406	674.94
522.621	705.94
522.836	688.94
523.052	677.94
523.267	675.94
523.482	698.94
523.698	673.94
523.913	688.94
524.128	682.94
524.343	664.94
524.559	697.94
524.774	663.94
524.989	657.94
525.204	701.94
525.419	683.94
525.634	654.94
525.849	644.94
526.064	675.94
526.28	663.94
526.495	655.94
526.71	649.94
526.925	675.94
527.14	663.94
527.355	652.94
527.57	654.94
527.785	666.94
527.999	690.94
528.214	660.94
528.429	653.94
528.644	681.94
528.859	694.94
529.074	680.94
529.289	651.94
529.503	693.94
529.718	658.94
529.933	656.94
530.148	663.94
530.363	672.94
530.577	667.94
530.792	655.94
531.007	668.94
531.221	658.94
531.436	678.94
531.651	638.94
531.865	650.94
532.08	641.94
532.295	668.94
532.509	650.94
532.724	669.94
532.938	648.94
533.153	649.94
533.367	668.94
533.582	692.94
533.796	656.94
534.011	656.94
534.225	659.94
534.44	665.94
534.654	669.94
534.868	662.94
535.083	654.94
535.297	640.94
535.511	625.94
535.726	650.94
535.94	651.94
536.154	622.94
536.369	642.94
536.583	614.94
536.797	610.94
537.011	601.94
537.225	614.94
537.44	625.94
537.654	635.94
537.868	612.94
538.082	593.94
538.296	595.94
538.51	610.94
538.724	607.94
538.938	611.94
539.153	602.94
539.367	599.94
539.581	605.94
539.795	586.94
540.009	600.94
540.222	618.94
540.436	601.94
540.65	597.94
540.864	585.94
541.078	599.94
541.292	616.94
541.506	595.94
541.72	596.94
541.934	596.94
542.147	599.94
542.361	610.94
542.575	600.94
542.789	583.94
543.002	571.94
543.216	604.94
543.43	617.94
543.644	593.94
543.857	612.94
544.071	605.94
544.285	593.94
544.498	616.94
544.712	593.94
544.925	607.94
545.139	643.94
545.352	626.94
545.566	611.94
545.779	629.94
545.993	621.94
546.206	629.94
546.42	610.94
546.633	597.94
546.847	609.94
547.06	628.94
547.274	618.94
547.487	608.94
547.7	621.94
547.914	628.94
548.127	616.94
548.34	628.94
548.554	621.94
548.767	634.94
548.98	621.94
549.193	614.94
549.407	613.94
549.62	649.94
549.833	668.94
550.046	632.94
550.259	641.94
550.473	603.94
550.686	628.94
550.899	590.94
551.112	635.94
551.325	602.94
551.538	586.94
551.751	583.94
551.964	617.94
552.177	609.94
552.39	621.94
552.603	633.94
552.816	644.94
553.029	646.94
553.242	664.94
553.455	684.94
553.667	692.94
553.88	684.94
554.093	632.94
554.306	630.94
554.519	637.94
554.732	594.94
554.944	586.94
555.157	590.94
555.37	583.94
555.583	557.94
555.795	583.94
556.008	550.94
556.221	554.94
556.433	563.94
556.646	557.94
556.859	538.94
557.071	556.94
557.284	510.94
557.496	515.94
557.709	550.94
557.921	529.94
558.134	522.94
558.346	500.94
558.559	512.94
558.771	533.94
558.984	518.94
559.196	518.94
559.409	508.94
559.621	522.94
559.833	510.94
560.046	509.94
560.258	503.94
560.47	514.94
560.683	516.94
560.895	520.94
561.107	513.94
561.32	509.94
561.532	530.94
561.744	514.94
561.956	499.94
562.168	524.94
562.381	502.94
562.593	500.94
562.805	508.94
563.017	529.94
563.229	491.94
563.441	508.94
563.653	506.94
563.865	516.94
564.077	534.94
564.289	515.94
564.501	514.94
564.713	528.94
564.925	536.94
565.137	562.94
565.349	549.94
565.561	557.94
565.773	601.94
565.985	619.94
566.197	639.94
566.408	710.94
566.62	749.94
566.832	823.94
567.044	831.94
567.255	812.94
567.467	845.94
567.679	883.94
567.891	998.94
568.102	1006.94
568.314	971.94
568.526	864.94
568.737	756.94
568.949	674.94
569.161	619.94
569.372	580.94
569.584	595.94
569.795	527.94
570.007	530.94
570.218	510.94
570.43	491.94
570.641	504.94
570.853	501.94
571.064	536.94
571.276	527.94
571.487	501.94
571.698	489.94
571.91	467.94
572.121	463.94
572.333	466.94
572.544	444.94
572.755	432.94
572.966	436.94
573.178	416.94
573.389	437.94
573.6	438.94
573.811	409.94
574.023	412.94
574.234	413.94
574.445	434.94
574.656	408.94
574.867	410.94
575.078	418.94
575.289	417.94
575.501	412.94
575.712	420.94
575.923	417.94
576.134	399.94
576.345	394.94
576.556	408.94
576.767	409.94
576.978	387.94
577.188	378.94
577.399	377.94
577.61	376.94
577.821	378.94
578.032	370.94
578.243	379.94
578.454	365.94
578.665	386.94
578.875	372.94
579.086	353.94
579.297	376.94
579.508	380.94
579.718	359.94
579.929	364.94
580.14	377.94
580.35	365.94
580.561	358.94
580.772	353.94
580.982	357.94
581.193	385.94
581.403	378.94
581.614	360.94
581.825	373.94
582.035	373.94
582.246	365.94
582.456	356.94
582.667	369.94
582.877	357.94
583.087	342.94
583.298	349.94
583.508	378.94
583.719	340.94
583.929	360.94
584.139	341.94
584.35	349.94
584.56	362.94
584.77	344.94
584.981	352.94
585.191	374.94
585.401	326.94
585.611	350.94
585.821	349.94
586.032	337.94
586.242	350.94
586.452	333.94
586.662	323.94
586.872	341.94
587.082	304.94
587.292	334.94
587.502	321.94
587.713	340.94
587.923	334.94
588.133	339.94
588.343	345.94
588.553	323.94
588.762	345.94
588.972	355.94
589.182	325.94
589.392	340.94
589.602	347.94
589.812	344.94
590.022	357.94
590.232	330.94
590.441	323.94
590.651	331.94
590.861	345.94
591.071	347.94
591.281	344.94
591.49	348.94
591.7	356.94
591.91	365.94
592.119	378.94
592.329	362.94
592.539	382.94
592.748	392.94
592.958	408.94
593.167	407.94
593.377	420.94
593.587	437.94
593.796	446.94
594.006	446.94
594.215	449.94
594.424	446.94
594.634	425.94
594.843	402.94
595.053	397.94
595.262	380.94
595.472	378.94
595.681	359.94
595.89	355.94
596.1	353.94
596.309	350.94
596.518	339.94
596.727	343.94
596.937	313.94
597.146	313.94
597.355	321.94
597.564	304.94
597.774	301.94
597.983	316.94
598.192	307.94
598.401	297.94
598.61	300.94
598.819	294.94
599.028	284.94
599.237	277.94
599.446	306.94
599.655	302.94
599.864	290.94
600.073	297.94
600.282	295.94
600.491	292.94
600.7	285.94
600.909	291.94
601.118	294.94
601.327	285.94
601.536	268.94
601.745	304.94
601.953	275.94
602.162	293.94
602.371	276.94
602.58	288.94
602.789	278.94
602.997	276.94
603.206	300.94
603.415	265.94
603.623	278.94
603.832	259.94
604.041	277.94
604.249	271.94
604.458	251.94
604.666	257.94
604.875	288.94
605.084	265.94
605.292	268.94
605.501	263.94
605.709	288.94
605.918	288.94
606.126	277.94
606.334	261.94
606.543	238.94
606.751	276.94
606.96	256.94
607.168	280.94
607.376	247.94
607.585	253.94
607.793	277.94
608.001	273.94
608.21	268.94
608.418	259.94
608.626	247.94
608.834	257.94
609.043	268.94
609.251	264.94
609.459	276.94
609.667	291.94
609.875	268.94
610.083	265.94
610.291	256.94
610.499	260.94
610.707	262.94
610.916	254.94
611.124	255.94
611.332	262.94
611.54	270.94
611.748	253.94
611.955	254.94
612.163	244.94
612.371	257.94
612.579	245.94
612.787	243.94
612.995	253.94
613.203	259.94
613.411	240.94
613.618	257.94
613.826	247.94
614.034	250.94
614.242	257.94
614.449	253.94
614.657	258.94
614.865	270.94
615.072	256.94
615.28	253.94
615.488	270.94
615.695	240.94
615.903	252.94
616.111	258.94
616.318	273.94
616.526	256.94
616.733	262.94
616.941	253.94
617.148	269.94
617.356	262.94
617.563	259.94
617.771	253.94
617.978	269.94
618.185	247.94
618.393	267.94
618.6	251.94
618.807	247.94
619.015	244.94
619.222	250.94
619.429	249.94
619.637	260.94
619.844	253.94
620.051	237.94
620.258	252.94
620.466	243.94
620.673	244.94
620.88	232.94
621.087	240.94
621.294	237.94
621.501	240.94
621.708	239.94
621.915	219.94
622.122	225.94
622.329	234.94
622.536	238.94
622.743	250.94
622.95	240.94
623.157	211.94
623.364	221.94
623.571	227.94
623.778	221.94
623.985	230.94
624.192	234.94
624.399	221.94
624.606	221.94
624.812	228.94
625.019	212.94
625.226	239.94
625.433	220.94
625.639	199.94
625.846	219.94
626.053	218.94
626.259	220.94
626.466	221.94
626.673	245.94
626.879	211.94
627.086	210.94
627.293	205.94
627.499	204.94
627.706	219.94
627.912	220.94
628.119	227.94
628.325	219.94
628.532	233.94
628.738	218.94
628.945	207.94
629.151	213.94
629.357	202.94
629.564	194.94
629.77	209.94
629.976	201.94
630.183	189.94
630.389	219.94
630.595	192.94
630.802	194.94
631.008	221.94
631.214	215.94
631.42	198.94
631.627	188.94
631.833	189.94
632.039	180.94
632.245	198.94
632.451	186.94
632.657	174.94
632.863	195.94
633.069	192.94
633.275	206.94
633.481	182.94
633.688	183.94
633.893	190.94
634.099	202.94
634.305	209.94
634.511	212.94
634.717	202.94
634.923	188.94
635.129	189.94
635.335	184.94
635.541	187.94
635.747	196.94
635.952	195.94
636.158	185.94
636.364	195.94
636.57	186.94
636.775	192.94
636.981	182.94
637.187	197.94
637.392	186.94
637.598	201.94
637.804	180.94
638.009	192.94
638.215	196.94
638.421	182.94
638.626	189.94
638.832	192.94
639.037	185.94
639.243	163.94
639.448	173.94
639.654	180.94
639.859	178.94
640.065	171.94
640.27	180.94
640.475	173.94
640.681	176.94
640.886	168.94
641.091	180.94
641.297	184.94
641.502	194.94
641.707	161.94
641.913	155.94
642.118	184.94
642.323	165.94
642.528	174.94
642.733	161.94
642.939	181.94
643.144	164.94
643.349	187.94
643.554	180.94
643.759	169.94
643.964	166.94
644.169	163.94
644.374	183.94
644.579	190.94
644.784	191.94
644.989	177.94
645.194	165.94
645.399	173.94
645.604	168.94
645.809	160.94
646.014	161.94
646.219	180.94
646.423	173.94
646.628	167.94
646.833	172.94
647.038	184.94
647.243	185.94
647.447	171.94
647.652	150.94
647.857	181.94
648.062	183.94
648.266	168.94
648.471	199.94
648.676	196.94
648.88	203.94
649.085	180.94
649.289	170.94
649.494	180.94
649.698	182.94
649.903	171.94
650.107	160.94
650.312	168.94
650.516	165.94
650.721	162.94
650.925	163.94
651.13	160.94
651.334	157.94
651.539	151.94
651.743	137.94
651.947	156.94
652.152	152.94
652.356	165.94
652.56	152.94
652.764	156.94
652.969	149.94
653.173	137.94
653.377	146.94
653.581	161.94
653.785	144.94
653.99	142.94
654.194	144.94
654.398	136.94
654.602	136.94
654.806	148.94
655.01	141.94
655.214	148.94
655.418	142.94
655.622	141.94
655.826	154.94
656.03	134.94
656.234	139.94
656.438	134.94
656.642	129.94
656.846	131.94
657.049	140.94
657.253	124.94
657.457	131.94
657.661	125.94
657.865	116.94
658.068	118.94
658.272	114.94
658.476	120.94
658.68	97.94
658.883	97.94
659.087	97.94
659.291	121.94
659.494	103.94
659.698	103.94
659.901	98.94
660.105	88.94
660.309	92.94
660.512	118.94
660.716	105.94
660.919	103.94
661.123	92.94
661.326	102.94
661.53	87.94
661.733	95.94
661.936	93.94
662.14	83.94
662.343	89.94
662.546	96.94
662.75	78.94
662.953	75.94
663.156	87.94
663.36	88.94
663.563	85.94
663.766	86.94
663.969	82.94
664.173	82.94
664.376	87.94
664.579	79.94
664.782	80.94
664.985	85.94
665.188	93.94
665.391	65.94
665.594	88.94
665.797	72.94
666	75.94
666.203	82.94
666.406	76.94
666.609	56.94
666.812	80.94
667.015	80.94
667.218	80.94
667.421	82.94
667.624	80.94
667.827	81.94
668.03	89.94
668.232	74.94
668.435	70.94
668.638	88.94
668.841	97.94
669.043	74.94
669.246	70.94
669.449	68.94
669.651	90.94
669.854	84.94
670.057	82.94
670.259	86.94
670.462	84.94
670.665	82.94
670.867	80.94
671.07	83.94
671.272	96.94
671.475	80.94
671.677	83.94
671.88	86.94
672.082	82.94
672.284	100.94
672.487	84.94
672.689	84.94
672.892	91.94
