Data from Ni(NO3)2@0.5M.TitratingCurve.Agarose3%dH2O.NegLispCup.LampEnergy10.LIBS07252019_HRD10591_17-58-22-564.txt Node
Date: Thu Jul 25 17:58:22 EDT 2019
User: cochatt
Spectrometer: HR+D1059
Trigger mode: 1
Integration Time (sec): 1.000000E-1
Scans to average: 1
Electric dark correction enabled: true
Nonlinearity correction enabled: false
Boxcar width: 0
XAxis mode: Wavelengths
Number of Pixels in Spectrum: 2048
>>>>>Begin Spectral Data<<<<<
223.165	-4.5
223.4	-4.5
223.635	-4.5
223.869	-13.5
224.104	-36.5
224.338	-8.5
224.573	-7.5
224.808	-17.5
225.042	-16.5
225.277	-19.5
225.511	-0.5
225.746	9.5
225.98	14.5
226.215	6.5
226.449	14.5
226.683	14.5
226.918	30.5
227.152	34.5
227.387	26.5
227.621	36.5
227.856	31.5
228.09	47.5
228.324	60.5
228.559	65.5
228.793	95.5
229.027	124.5
229.262	145.5
229.496	132.5
229.73	157.5
229.964	185.5
230.199	233.5
230.433	223.5
230.667	216.5
230.901	188.5
231.136	166.5
231.37	194.5
231.604	200.5
231.838	229.5
232.072	249.5
232.306	223.5
232.541	219.5
232.775	199.5
233.009	181.5
233.243	187.5
233.477	170.5
233.711	186.5
233.945	198.5
234.179	194.5
234.413	208.5
234.647	203.5
234.881	197.5
235.115	207.5
235.349	184.5
235.583	176.5
235.817	184.5
236.051	164.5
236.285	177.5
236.519	181.5
236.753	178.5
236.987	197.5
237.221	187.5
237.455	185.5
237.689	186.5
237.922	200.5
238.156	206.5
238.39	194.5
238.624	181.5
238.858	201.5
239.091	206.5
239.325	222.5
239.559	230.5
239.793	267.5
240.027	246.5
240.26	204.5
240.494	208.5
240.728	195.5
240.961	212.5
241.195	221.5
241.429	211.5
241.662	235.5
241.896	270.5
242.13	272.5
242.363	251.5
242.597	212.5
242.83	228.5
243.064	241.5
243.298	225.5
243.531	225.5
243.765	251.5
243.998	250.5
244.232	268.5
244.465	260.5
244.699	259.5
244.932	250.5
245.166	241.5
245.399	230.5
245.633	237.5
245.866	258.5
246.099	269.5
246.333	245.5
246.566	245.5
246.8	266.5
247.033	259.5
247.266	261.5
247.5	262.5
247.733	263.5
247.966	286.5
248.2	279.5
248.433	271.5
248.666	281.5
248.899	285.5
249.133	282.5
249.366	306.5
249.599	299.5
249.832	295.5
250.066	295.5
250.299	301.5
250.532	304.5
250.765	325.5
250.998	325.5
251.231	323.5
251.465	342.5
251.698	334.5
251.931	318.5
252.164	317.5
252.397	317.5
252.63	326.5
252.863	329.5
253.096	341.5
253.329	335.5
253.562	339.5
253.795	327.5
254.028	341.5
254.261	337.5
254.494	343.5
254.727	331.5
254.96	341.5
255.193	359.5
255.426	358.5
255.659	376.5
255.892	379.5
256.124	381.5
256.357	360.5
256.59	346.5
256.823	375.5
257.056	362.5
257.289	368.5
257.521	359.5
257.754	377.5
257.987	362.5
258.22	367.5
258.452	386.5
258.685	393.5
258.918	400.5
259.151	399.5
259.383	405.5
259.616	395.5
259.849	381.5
260.081	399.5
260.314	389.5
260.547	420.5
260.779	423.5
261.012	398.5
261.244	405.5
261.477	421.5
261.71	419.5
261.942	431.5
262.175	419.5
262.407	409.5
262.64	403.5
262.872	433.5
263.105	443.5
263.337	431.5
263.57	417.5
263.802	439.5
264.035	409.5
264.267	443.5
264.499	422.5
264.732	441.5
264.964	423.5
265.197	447.5
265.429	445.5
265.661	458.5
265.894	444.5
266.126	453.5
266.358	461.5
266.591	469.5
266.823	485.5
267.055	466.5
267.287	472.5
267.52	478.5
267.752	456.5
267.984	479.5
268.216	475.5
268.448	479.5
268.681	455.5
268.913	469.5
269.145	481.5
269.377	516.5
269.609	506.5
269.841	497.5
270.073	483.5
270.306	494.5
270.538	502.5
270.77	466.5
271.002	502.5
271.234	503.5
271.466	520.5
271.698	505.5
271.93	507.5
272.162	489.5
272.394	513.5
272.626	500.5
272.858	475.5
273.09	488.5
273.322	518.5
273.553	516.5
273.785	527.5
274.017	526.5
274.249	524.5
274.481	523.5
274.713	527.5
274.945	531.5
275.176	540.5
275.408	519.5
275.64	545.5
275.872	534.5
276.104	522.5
276.335	554.5
276.567	526.5
276.799	553.5
277.031	565.5
277.262	575.5
277.494	571.5
277.726	578.5
277.957	562.5
278.189	597.5
278.421	586.5
278.652	552.5
278.884	586.5
279.115	598.5
279.347	555.5
279.579	575.5
279.81	572.5
280.042	588.5
280.273	579.5
280.505	593.5
280.736	589.5
280.968	576.5
281.199	593.5
281.431	583.5
281.662	589.5
281.894	582.5
282.125	595.5
282.356	619.5
282.588	590.5
282.819	611.5
283.051	603.5
283.282	597.5
283.513	612.5
283.745	611.5
283.976	612.5
284.207	588.5
284.439	598.5
284.67	612.5
284.901	609.5
285.132	642.5
285.364	644.5
285.595	620.5
285.826	633.5
286.057	632.5
286.288	646.5
286.52	659.5
286.751	619.5
286.982	641.5
287.213	631.5
287.444	627.5
287.675	651.5
287.906	639.5
288.138	638.5
288.369	635.5
288.6	647.5
288.831	625.5
289.062	626.5
289.293	618.5
289.524	646.5
289.755	639.5
289.986	675.5
290.217	665.5
290.448	659.5
290.679	654.5
290.91	673.5
291.141	641.5
291.371	673.5
291.602	669.5
291.833	677.5
292.064	668.5
292.295	673.5
292.526	649.5
292.757	637.5
292.987	657.5
293.218	650.5
293.449	681.5
293.68	659.5
293.91	679.5
294.141	652.5
294.372	647.5
294.603	656.5
294.833	670.5
295.064	701.5
295.295	683.5
295.525	702.5
295.756	686.5
295.987	660.5
296.217	677.5
296.448	692.5
296.679	667.5
296.909	689.5
297.14	692.5
297.37	709.5
297.601	708.5
297.831	686.5
298.062	710.5
298.292	707.5
298.523	742.5
298.753	730.5
298.984	704.5
299.214	742.5
299.445	737.5
299.675	734.5
299.905	722.5
300.136	750.5
300.366	775.5
300.597	807.5
300.827	772.5
301.057	793.5
301.288	792.5
301.518	783.5
301.748	795.5
301.979	758.5
302.209	766.5
302.439	774.5
302.669	763.5
302.9	788.5
303.13	741.5
303.36	758.5
303.59	788.5
303.82	790.5
304.051	799.5
304.281	765.5
304.511	775.5
304.741	792.5
304.971	792.5
305.201	817.5
305.431	846.5
305.661	816.5
305.891	794.5
306.121	799.5
306.352	777.5
306.582	799.5
306.812	766.5
307.042	743.5
307.272	779.5
307.502	761.5
307.731	771.5
307.961	789.5
308.191	797.5
308.421	797.5
308.651	781.5
308.881	778.5
309.111	768.5
309.341	786.5
309.571	792.5
309.8	814.5
310.03	868.5
310.26	886.5
310.49	859.5
310.72	822.5
310.949	804.5
311.179	812.5
311.409	829.5
311.639	801.5
311.868	807.5
312.098	838.5
312.328	827.5
312.557	831.5
312.787	830.5
313.017	855.5
313.246	853.5
313.476	870.5
313.706	891.5
313.935	851.5
314.165	847.5
314.394	851.5
314.624	859.5
314.853	848.5
315.083	828.5
315.312	858.5
315.542	869.5
315.771	891.5
316.001	888.5
316.23	866.5
316.46	878.5
316.689	885.5
316.919	862.5
317.148	871.5
317.377	895.5
317.607	887.5
317.836	873.5
318.065	897.5
318.295	893.5
318.524	892.5
318.753	888.5
318.983	909.5
319.212	879.5
319.441	901.5
319.67	901.5
319.9	891.5
320.129	902.5
320.358	907.5
320.587	903.5
320.816	917.5
321.046	922.5
321.275	914.5
321.504	932.5
321.733	925.5
321.962	914.5
322.191	936.5
322.42	930.5
322.649	937.5
322.878	945.5
323.108	934.5
323.337	939.5
323.566	967.5
323.795	974.5
324.024	969.5
324.253	916.5
324.482	953.5
324.71	952.5
324.939	970.5
325.168	979.5
325.397	961.5
325.626	935.5
325.855	966.5
326.084	983.5
326.313	980.5
326.542	970.5
326.77	1003.5
326.999	978.5
327.228	989.5
327.457	997.5
327.686	1003.5
327.914	1003.5
328.143	997.5
328.372	985.5
328.6	979.5
328.829	993.5
329.058	1035.5
329.287	1011.5
329.515	1013.5
329.744	1047.5
329.972	1038.5
330.201	1062.5
330.43	1052.5
330.658	1033.5
330.887	1039.5
331.115	1069.5
331.344	1084.5
331.572	1049.5
331.801	1108.5
332.03	1063.5
332.258	1056.5
332.486	1075.5
332.715	1095.5
332.943	1090.5
333.172	1092.5
333.4	1123.5
333.629	1130.5
333.857	1145.5
334.085	1146.5
334.314	1148.5
334.542	1177.5
334.771	1162.5
334.999	1153.5
335.227	1151.5
335.455	1155.5
335.684	1157.5
335.912	1153.5
336.14	1169.5
336.369	1192.5
336.597	1208.5
336.825	1218.5
337.053	1205.5
337.281	1213.5
337.51	1189.5
337.738	1176.5
337.966	1143.5
338.194	1174.5
338.422	1181.5
338.65	1165.5
338.878	1151.5
339.106	1128.5
339.334	1161.5
339.562	1179.5
339.79	1109.5
340.018	1107.5
340.246	1085.5
340.474	1112.5
340.702	1083.5
340.93	1130.5
341.158	1153.5
341.386	1205.5
341.614	1221.5
341.842	1217.5
342.07	1147.5
342.298	1109.5
342.526	1149.5
342.754	1128.5
342.981	1116.5
343.209	1133.5
343.437	1187.5
343.665	1170.5
343.893	1176.5
344.12	1180.5
344.348	1182.5
344.576	1205.5
344.804	1245.5
345.031	1199.5
345.259	1131.5
345.487	1128.5
345.714	1155.5
345.942	1212.5
346.17	1245.5
346.397	1177.5
346.625	1122.5
346.853	1085.5
347.08	1095.5
347.308	1120.5
347.535	1120.5
347.763	1108.5
347.99	1082.5
348.218	1067.5
348.445	1073.5
348.673	1086.5
348.9	1054.5
349.128	1096.5
349.355	1137.5
349.583	1116.5
349.81	1096.5
350.037	1093.5
350.265	1073.5
350.492	1054.5
350.72	1083.5
350.947	1071.5
351.174	1112.5
351.402	1163.5
351.629	1166.5
351.856	1129.5
352.083	1125.5
352.311	1135.5
352.538	1190.5
352.765	1168.5
352.992	1085.5
353.22	1057.5
353.447	1062.5
353.674	1038.5
353.901	1056.5
354.128	1060.5
354.355	1053.5
354.583	1035.5
354.81	1067.5
355.037	1044.5
355.264	1058.5
355.491	1046.5
355.718	1036.5
355.945	1034.5
356.172	1055.5
356.399	1039.5
356.626	1139.5
356.853	1145.5
357.08	1114.5
357.307	1058.5
357.534	1049.5
357.761	1017.5
357.988	1069.5
358.215	1046.5
358.441	1027.5
358.668	1043.5
358.895	1018.5
359.122	1030.5
359.349	1051.5
359.576	1043.5
359.802	1086.5
360.029	1057.5
360.256	1032.5
360.483	1054.5
360.709	1031.5
360.936	1088.5
361.163	1084.5
361.39	1092.5
361.616	1115.5
361.843	1145.5
362.07	1187.5
362.296	1172.5
362.523	1092.5
362.749	1089.5
362.976	1052.5
363.203	1025.5
363.429	1059.5
363.656	1043.5
363.882	1066.5
364.109	1037.5
364.335	1012.5
364.562	1053.5
364.788	1059.5
365.015	1033.5
365.241	1048.5
365.468	1067.5
365.694	1031.5
365.92	1055.5
366.147	1060.5
366.373	1086.5
366.599	1061.5
366.826	1022.5
367.052	1059.5
367.278	1061.5
367.505	1052.5
367.731	1071.5
367.957	1035.5
368.184	1069.5
368.41	1086.5
368.636	1053.5
368.862	1103.5
369.089	1088.5
369.315	1108.5
369.541	1083.5
369.767	1096.5
369.993	1076.5
370.219	1093.5
370.445	1098.5
370.672	1116.5
370.898	1102.5
371.124	1119.5
371.35	1101.5
371.576	1125.5
371.802	1116.5
372.028	1125.5
372.254	1100.5
372.48	1100.5
372.706	1111.5
372.932	1105.5
373.158	1100.5
373.384	1108.5
373.61	1146.5
373.835	1102.5
374.061	1093.5
374.287	1140.5
374.513	1144.5
374.739	1155.5
374.965	1140.5
375.191	1149.5
375.416	1169.5
375.642	1129.5
375.868	1115.5
376.094	1097.5
376.319	1126.5
376.545	1089.5
376.771	1115.5
376.997	1100.5
377.222	1144.5
377.448	1113.5
377.674	1130.5
377.899	1109.5
378.125	1121.5
378.35	1095.5
378.576	1111.5
378.802	1091.5
379.027	1089.5
379.253	1122.5
379.478	1079.5
379.704	1097.5
379.929	1129.5
380.155	1078.5
380.38	1105.5
380.606	1139.5
380.831	1119.5
381.057	1113.5
381.282	1071.5
381.507	1103.5
381.733	1082.5
381.958	1124.5
382.184	1122.5
382.409	1139.5
382.634	1150.5
382.86	1142.5
383.085	1148.5
383.31	1157.5
383.535	1179.5
383.761	1147.5
383.986	1153.5
384.211	1159.5
384.436	1150.5
384.662	1213.5
384.887	1195.5
385.112	1207.5
385.337	1193.5
385.562	1212.5
385.787	1254.5
386.013	1279.5
386.238	1244.5
386.463	1233.5
386.688	1268.5
386.913	1219.5
387.138	1244.5
387.363	1232.5
387.588	1210.5
387.813	1219.5
388.038	1250.5
388.263	1224.5
388.488	1237.5
388.713	1218.5
388.938	1235.5
389.163	1252.5
389.387	1280.5
389.612	1251.5
389.837	1271.5
390.062	1259.5
390.287	1259.5
390.512	1192.5
390.736	1267.5
390.961	1261.5
391.186	1273.5
391.411	1284.5
391.636	1284.5
391.86	1274.5
392.085	1297.5
392.31	1308.5
392.534	1291.5
392.759	1305.5
392.984	1304.5
393.208	1299.5
393.433	1295.5
393.658	1299.5
393.882	1284.5
394.107	1301.5
394.331	1290.5
394.556	1290.5
394.78	1276.5
395.005	1309.5
395.229	1309.5
395.454	1298.5
395.678	1327.5
395.903	1322.5
396.127	1324.5
396.352	1337.5
396.576	1351.5
396.801	1359.5
397.025	1356.5
397.249	1359.5
397.474	1401.5
397.698	1413.5
397.922	1405.5
398.147	1405.5
398.371	1408.5
398.595	1406.5
398.82	1412.5
399.044	1483.5
399.268	1554.5
399.492	1620.5
399.717	1676.5
399.941	1657.5
400.165	1662.5
400.389	1625.5
400.613	1559.5
400.837	1531.5
401.062	1501.5
401.286	1480.5
401.51	1486.5
401.734	1430.5
401.958	1443.5
402.182	1493.5
402.406	1492.5
402.63	1437.5
402.854	1478.5
403.078	1478.5
403.302	1476.5
403.526	1498.5
403.75	1470.5
403.974	1470.5
404.198	1446.5
404.422	1483.5
404.645	1464.5
404.869	1457.5
405.093	1541.5
405.317	1471.5
405.541	1509.5
405.765	1500.5
405.988	1484.5
406.212	1516.5
406.436	1532.5
406.66	1555.5
406.883	1622.5
407.107	1563.5
407.331	1605.5
407.555	1674.5
407.778	1634.5
408.002	1644.5
408.226	1617.5
408.449	1596.5
408.673	1620.5
408.896	1586.5
409.12	1572.5
409.344	1558.5
409.567	1566.5
409.791	1557.5
410.014	1535.5
410.238	1501.5
410.461	1547.5
410.685	1546.5
410.908	1509.5
411.132	1519.5
411.355	1504.5
411.578	1497.5
411.802	1494.5
412.025	1514.5
412.249	1509.5
412.472	1487.5
412.695	1491.5
412.919	1508.5
413.142	1450.5
413.365	1509.5
413.589	1483.5
413.812	1462.5
414.035	1509.5
414.258	1480.5
414.482	1447.5
414.705	1449.5
414.928	1493.5
415.151	1460.5
415.374	1457.5
415.597	1426.5
415.821	1452.5
416.044	1430.5
416.267	1422.5
416.49	1441.5
416.713	1417.5
416.936	1404.5
417.159	1397.5
417.382	1358.5
417.605	1409.5
417.828	1405.5
418.051	1393.5
418.274	1402.5
418.497	1383.5
418.72	1401.5
418.943	1381.5
419.166	1472.5
419.389	1558.5
419.611	1513.5
419.834	1479.5
420.057	1449.5
420.28	1435.5
420.503	1349.5
420.726	1386.5
420.948	1373.5
421.171	1374.5
421.394	1380.5
421.617	1379.5
421.839	1408.5
422.062	1419.5
422.285	1389.5
422.507	1393.5
422.73	1421.5
422.953	1406.5
423.175	1449.5
423.398	1412.5
423.621	1381.5
423.843	1419.5
424.066	1417.5
424.288	1380.5
424.511	1415.5
424.733	1423.5
424.956	1410.5
425.178	1418.5
425.401	1397.5
425.623	1363.5
425.846	1393.5
426.068	1399.5
426.291	1362.5
426.513	1376.5
426.735	1378.5
426.958	1389.5
427.18	1358.5
427.402	1370.5
427.625	1357.5
427.847	1363.5
428.069	1401.5
428.292	1358.5
428.514	1377.5
428.736	1354.5
428.958	1358.5
429.181	1315.5
429.403	1345.5
429.625	1350.5
429.847	1331.5
430.069	1373.5
430.292	1345.5
430.514	1322.5
430.736	1327.5
430.958	1381.5
431.18	1331.5
431.402	1348.5
431.624	1345.5
431.846	1335.5
432.068	1352.5
432.29	1357.5
432.512	1343.5
432.734	1410.5
432.956	1349.5
433.178	1390.5
433.4	1400.5
433.622	1401.5
433.844	1408.5
434.066	1405.5
434.287	1409.5
434.509	1414.5
434.731	1404.5
434.953	1423.5
435.175	1458.5
435.397	1464.5
435.618	1417.5
435.84	1382.5
436.062	1393.5
436.284	1403.5
436.505	1353.5
436.727	1374.5
436.949	1360.5
437.17	1366.5
437.392	1375.5
437.614	1374.5
437.835	1308.5
438.057	1343.5
438.278	1289.5
438.5	1317.5
438.721	1318.5
438.943	1330.5
439.165	1310.5
439.386	1309.5
439.608	1353.5
439.829	1345.5
440.05	1351.5
440.272	1342.5
440.493	1383.5
440.715	1383.5
440.936	1385.5
441.158	1386.5
441.379	1405.5
441.6	1421.5
441.822	1422.5
442.043	1431.5
442.264	1393.5
442.486	1403.5
442.707	1432.5
442.928	1421.5
443.149	1438.5
443.371	1461.5
443.592	1539.5
443.813	1507.5
444.034	1441.5
444.255	1466.5
444.476	1501.5
444.698	1492.5
444.919	1507.5
445.14	1604.5
445.361	1573.5
445.582	1464.5
445.803	1431.5
446.024	1403.5
446.245	1384.5
446.466	1381.5
446.687	1361.5
446.908	1358.5
447.129	1339.5
447.35	1342.5
447.571	1335.5
447.792	1303.5
448.013	1329.5
448.234	1293.5
448.455	1272.5
448.675	1251.5
448.896	1296.5
449.117	1234.5
449.338	1233.5
449.559	1285.5
449.779	1243.5
450	1218.5
450.221	1246.5
450.442	1230.5
450.662	1250.5
450.883	1263.5
451.104	1326.5
451.324	1243.5
451.545	1247.5
451.766	1240.5
451.986	1246.5
452.207	1230.5
452.428	1226.5
452.648	1212.5
452.869	1211.5
453.089	1227.5
453.31	1281.5
453.53	1229.5
453.751	1239.5
453.971	1210.5
454.192	1255.5
454.412	1251.5
454.633	1218.5
454.853	1220.5
455.073	1205.5
455.294	1203.5
455.514	1293.5
455.734	1246.5
455.955	1260.5
456.175	1248.5
456.395	1182.5
456.616	1183.5
456.836	1183.5
457.056	1229.5
457.276	1186.5
457.497	1262.5
457.717	1279.5
457.937	1281.5
458.157	1238.5
458.377	1235.5
458.598	1250.5
458.818	1262.5
459.038	1299.5
459.258	1360.5
459.478	1402.5
459.698	1495.5
459.918	1498.5
460.138	1457.5
460.358	1461.5
460.578	1476.5
460.798	1519.5
461.018	1491.5
461.238	1483.5
461.458	1467.5
461.678	1458.5
461.898	1443.5
462.118	1445.5
462.338	1522.5
462.558	1545.5
462.777	1603.5
462.997	1633.5
463.217	1653.5
463.437	1730.5
463.657	1661.5
463.876	1647.5
464.096	1588.5
464.316	1564.5
464.536	1563.5
464.755	1507.5
464.975	1470.5
465.195	1473.5
465.414	1479.5
465.634	1445.5
465.854	1384.5
466.073	1370.5
466.293	1348.5
466.512	1324.5
466.732	1305.5
466.951	1337.5
467.171	1354.5
467.391	1346.5
467.61	1288.5
467.829	1297.5
468.049	1302.5
468.268	1313.5
468.488	1293.5
468.707	1294.5
468.927	1291.5
469.146	1344.5
469.365	1331.5
469.585	1331.5
469.804	1313.5
470.023	1324.5
470.243	1300.5
470.462	1347.5
470.681	1331.5
470.901	1371.5
471.12	1298.5
471.339	1271.5
471.558	1310.5
471.777	1301.5
471.997	1288.5
472.216	1257.5
472.435	1281.5
472.654	1278.5
472.873	1293.5
473.092	1280.5
473.311	1290.5
473.53	1309.5
473.749	1286.5
473.968	1299.5
474.187	1293.5
474.406	1260.5
474.625	1308.5
474.844	1317.5
475.063	1338.5
475.282	1356.5
475.501	1341.5
475.72	1349.5
475.939	1372.5
476.158	1385.5
476.377	1381.5
476.596	1370.5
476.814	1365.5
477.033	1400.5
477.252	1404.5
477.471	1438.5
477.69	1440.5
477.908	1461.5
478.127	1463.5
478.346	1473.5
478.564	1461.5
478.783	1476.5
479.002	1580.5
479.22	1612.5
479.439	1580.5
479.658	1577.5
479.876	1566.5
480.095	1570.5
480.313	1548.5
480.532	1551.5
480.751	1527.5
480.969	1559.5
481.188	1523.5
481.406	1517.5
481.624	1537.5
481.843	1482.5
482.061	1475.5
482.28	1541.5
482.498	1500.5
482.717	1497.5
482.935	1542.5
483.153	1554.5
483.372	1594.5
483.59	1620.5
483.808	1619.5
484.027	1584.5
484.245	1531.5
484.463	1543.5
484.681	1549.5
484.9	1532.5
485.118	1551.5
485.336	1555.5
485.554	1570.5
485.772	1553.5
485.99	1557.5
486.209	1573.5
486.427	1559.5
486.645	1576.5
486.863	1614.5
487.081	1572.5
487.299	1563.5
487.517	1583.5
487.735	1590.5
487.953	1642.5
488.171	1615.5
488.389	1602.5
488.607	1567.5
488.825	1561.5
489.043	1602.5
489.261	1581.5
489.479	1571.5
489.696	1561.5
489.914	1575.5
490.132	1576.5
490.35	1584.5
490.568	1600.5
490.786	1618.5
491.003	1599.5
491.221	1636.5
491.439	1643.5
491.657	1596.5
491.874	1630.5
492.092	1690.5
492.31	1625.5
492.527	1629.5
492.745	1596.5
492.963	1631.5
493.18	1657.5
493.398	1637.5
493.615	1625.5
493.833	1651.5
494.05	1673.5
494.268	1649.5
494.485	1669.5
494.703	1700.5
494.92	1705.5
495.138	1691.5
495.355	1673.5
495.573	1702.5
495.79	1716.5
496.008	1706.5
496.225	1737.5
496.442	1707.5
496.66	1764.5
496.877	1771.5
497.094	1785.5
497.312	1813.5
497.529	1832.5
497.746	1860.5
497.963	1899.5
498.181	1969.5
498.398	2004.5
498.615	2050.5
498.832	2042.5
499.049	2141.5
499.267	2217.5
499.484	2320.5
499.701	2384.5
499.918	2491.5
500.135	2597.5
500.352	2637.5
500.569	2699.5
500.786	2635.5
501.003	2654.5
501.22	2502.5
501.437	2445.5
501.654	2353.5
501.871	2246.5
502.088	2229.5
502.305	2153.5
502.522	2099.5
502.739	2018.5
502.956	1965.5
503.172	1908.5
503.389	1846.5
503.606	1890.5
503.823	1869.5
504.04	1817.5
504.256	1757.5
504.473	1784.5
504.69	1758.5
504.907	1721.5
505.123	1676.5
505.34	1687.5
505.557	1622.5
505.773	1585.5
505.99	1605.5
506.207	1550.5
506.423	1533.5
506.64	1527.5
506.856	1524.5
507.073	1547.5
507.289	1506.5
507.506	1451.5
507.722	1474.5
507.939	1446.5
508.155	1483.5
508.372	1475.5
508.588	1447.5
508.805	1441.5
509.021	1404.5
509.238	1377.5
509.454	1393.5
509.67	1385.5
509.887	1405.5
510.103	1429.5
510.319	1388.5
510.536	1397.5
510.752	1337.5
510.968	1338.5
511.184	1318.5
511.401	1359.5
511.617	1361.5
511.833	1331.5
512.049	1333.5
512.265	1355.5
512.481	1377.5
512.698	1327.5
512.914	1378.5
513.13	1349.5
513.346	1379.5
513.562	1353.5
513.778	1342.5
513.994	1375.5
514.21	1354.5
514.426	1390.5
514.642	1362.5
514.858	1377.5
515.074	1348.5
515.29	1382.5
515.506	1368.5
515.721	1427.5
515.937	1405.5
516.153	1418.5
516.369	1413.5
516.585	1440.5
516.801	1450.5
517.016	1466.5
517.232	1457.5
517.448	1457.5
517.664	1493.5
517.879	1484.5
518.095	1450.5
518.311	1471.5
518.527	1446.5
518.742	1439.5
518.958	1436.5
519.173	1407.5
519.389	1406.5
519.605	1396.5
519.82	1373.5
520.036	1351.5
520.251	1314.5
520.467	1343.5
520.682	1307.5
520.898	1310.5
521.113	1312.5
521.329	1292.5
521.544	1270.5
521.76	1297.5
521.975	1267.5
522.19	1263.5
522.406	1286.5
522.621	1272.5
522.836	1238.5
523.052	1211.5
523.267	1282.5
523.482	1253.5
523.698	1203.5
523.913	1222.5
524.128	1241.5
524.343	1228.5
524.559	1215.5
524.774	1217.5
524.989	1201.5
525.204	1185.5
525.419	1226.5
525.634	1190.5
525.849	1211.5
526.064	1196.5
526.28	1209.5
526.495	1214.5
526.71	1165.5
526.925	1160.5
527.14	1159.5
527.355	1155.5
527.57	1198.5
527.785	1182.5
527.999	1175.5
528.214	1155.5
528.429	1177.5
528.644	1179.5
528.859	1193.5
529.074	1172.5
529.289	1177.5
529.503	1159.5
529.718	1178.5
529.933	1179.5
530.148	1155.5
530.363	1163.5
530.577	1170.5
530.792	1168.5
531.007	1134.5
531.221	1159.5
531.436	1123.5
531.651	1128.5
531.865	1148.5
532.08	1143.5
532.295	1149.5
532.509	1135.5
532.724	1155.5
532.938	1141.5
533.153	1143.5
533.367	1137.5
533.582	1150.5
533.796	1104.5
534.011	1146.5
534.225	1131.5
534.44	1130.5
534.654	1157.5
534.868	1139.5
535.083	1138.5
535.297	1106.5
535.511	1116.5
535.726	1099.5
535.94	1118.5
536.154	1140.5
536.369	1078.5
536.583	1060.5
536.797	1084.5
537.011	1054.5
537.225	1088.5
537.44	1089.5
537.654	1079.5
537.868	1074.5
538.082	1089.5
538.296	1067.5
538.51	1065.5
538.724	1079.5
538.938	1050.5
539.153	1050.5
539.367	1074.5
539.581	1039.5
539.795	1035.5
540.009	1019.5
540.222	1032.5
540.436	1039.5
540.65	1031.5
540.864	1057.5
541.078	1049.5
541.292	1069.5
541.506	1075.5
541.72	1041.5
541.934	1050.5
542.147	1065.5
542.361	1027.5
542.575	1055.5
542.789	1037.5
543.002	1030.5
543.216	1048.5
543.43	1029.5
543.644	1033.5
543.857	1073.5
544.071	1015.5
544.285	1037.5
544.498	1045.5
544.712	1005.5
544.925	1038.5
545.139	1031.5
545.352	1033.5
545.566	1040.5
545.779	1047.5
545.993	1033.5
546.206	1045.5
546.42	1034.5
546.633	1036.5
546.847	1045.5
547.06	1050.5
547.274	1049.5
547.487	1032.5
547.7	1021.5
547.914	1075.5
548.127	1061.5
548.34	1007.5
548.554	1027.5
548.767	1009.5
548.98	1041.5
549.193	1048.5
549.407	1026.5
549.62	1029.5
549.833	1032.5
550.046	1021.5
550.259	1012.5
550.473	984.5
550.686	1013.5
550.899	1033.5
551.112	1007.5
551.325	996.5
551.538	1011.5
551.751	1016.5
551.964	991.5
552.177	1006.5
552.39	1029.5
552.603	1067.5
552.816	1021.5
553.029	1045.5
553.242	1032.5
553.455	1046.5
553.667	1015.5
553.88	1022.5
554.093	997.5
554.306	990.5
554.519	956.5
554.732	991.5
554.944	981.5
555.157	943.5
555.37	961.5
555.583	963.5
555.795	934.5
556.008	938.5
556.221	928.5
556.433	924.5
556.646	937.5
556.859	897.5
557.071	894.5
557.284	868.5
557.496	901.5
557.709	887.5
557.921	887.5
558.134	906.5
558.346	892.5
558.559	906.5
558.771	880.5
558.984	884.5
559.196	869.5
559.409	847.5
559.621	896.5
559.833	873.5
560.046	861.5
560.258	878.5
560.47	873.5
560.683	868.5
560.895	883.5
561.107	837.5
561.32	843.5
561.532	877.5
561.744	865.5
561.956	850.5
562.168	853.5
562.381	884.5
562.593	828.5
562.805	859.5
563.017	876.5
563.229	876.5
563.441	859.5
563.653	850.5
563.865	864.5
564.077	866.5
564.289	877.5
564.501	919.5
564.713	921.5
564.925	909.5
565.137	888.5
565.349	901.5
565.561	926.5
565.773	960.5
565.985	965.5
566.197	1014.5
566.408	969.5
566.62	1022.5
566.832	1019.5
567.044	1003.5
567.255	1015.5
567.467	1068.5
567.679	1059.5
567.891	1082.5
568.102	1049.5
568.314	1000.5
568.526	990.5
568.737	945.5
568.949	949.5
569.161	913.5
569.372	883.5
569.584	852.5
569.795	868.5
570.007	871.5
570.218	819.5
570.43	860.5
570.641	836.5
570.853	819.5
571.064	793.5
571.276	797.5
571.487	787.5
571.698	783.5
571.91	771.5
572.121	755.5
572.333	743.5
572.544	742.5
572.755	766.5
572.966	733.5
573.178	731.5
573.389	734.5
573.6	720.5
573.811	680.5
574.023	699.5
574.234	717.5
574.445	707.5
574.656	684.5
574.867	663.5
575.078	669.5
575.289	675.5
575.501	665.5
575.712	683.5
575.923	667.5
576.134	661.5
576.345	669.5
576.556	653.5
576.767	639.5
576.978	629.5
577.188	619.5
577.399	635.5
577.61	630.5
577.821	637.5
578.032	631.5
578.243	645.5
578.454	637.5
578.665	633.5
578.875	645.5
579.086	618.5
579.297	637.5
579.508	616.5
579.718	605.5
579.929	609.5
580.14	615.5
580.35	610.5
580.561	603.5
580.772	630.5
580.982	619.5
581.193	604.5
581.403	585.5
581.614	601.5
581.825	561.5
582.035	580.5
582.246	587.5
582.456	591.5
582.667	594.5
582.877	575.5
583.087	577.5
583.298	571.5
583.508	582.5
583.719	579.5
583.929	581.5
584.139	572.5
584.35	585.5
584.56	577.5
584.77	592.5
584.981	584.5
585.191	583.5
585.401	555.5
585.611	559.5
585.821	558.5
586.032	563.5
586.242	563.5
586.452	575.5
586.662	550.5
586.872	563.5
587.082	538.5
587.292	547.5
587.502	540.5
587.713	561.5
587.923	540.5
588.133	550.5
588.343	551.5
588.553	543.5
588.762	553.5
588.972	541.5
589.182	714.5
589.392	668.5
589.602	586.5
589.812	675.5
590.022	612.5
590.232	533.5
590.441	567.5
590.651	541.5
590.861	546.5
591.071	541.5
591.281	551.5
591.49	549.5
591.7	555.5
591.91	566.5
592.119	571.5
592.329	585.5
592.539	566.5
592.748	570.5
592.958	572.5
593.167	557.5
593.377	568.5
593.587	571.5
593.796	570.5
594.006	561.5
594.215	580.5
594.424	576.5
594.634	564.5
594.843	550.5
595.053	559.5
595.262	540.5
595.472	531.5
595.681	539.5
595.89	545.5
596.1	524.5
596.309	506.5
596.518	523.5
596.727	508.5
596.937	523.5
597.146	504.5
597.355	513.5
597.564	497.5
597.774	504.5
597.983	495.5
598.192	497.5
598.401	481.5
598.61	478.5
598.819	467.5
599.028	488.5
599.237	483.5
599.446	473.5
599.655	459.5
599.864	456.5
600.073	489.5
600.282	487.5
600.491	455.5
600.7	462.5
600.909	451.5
601.118	449.5
601.327	441.5
601.536	449.5
601.745	462.5
601.953	460.5
602.162	448.5
602.371	453.5
602.58	459.5
602.789	442.5
602.997	435.5
603.206	421.5
603.415	427.5
603.623	431.5
603.832	441.5
604.041	416.5
604.249	437.5
604.458	421.5
604.666	419.5
604.875	422.5
605.084	429.5
605.292	434.5
605.501	425.5
605.709	449.5
605.918	430.5
606.126	418.5
606.334	400.5
606.543	420.5
606.751	428.5
606.96	416.5
607.168	407.5
607.376	415.5
607.585	408.5
607.793	413.5
608.001	375.5
608.21	386.5
608.418	409.5
608.626	402.5
608.834	419.5
609.043	414.5
609.251	421.5
609.459	407.5
609.667	419.5
609.875	378.5
610.083	390.5
610.291	401.5
610.499	418.5
610.707	413.5
610.916	387.5
611.124	403.5
611.332	389.5
611.54	399.5
611.748	391.5
611.955	393.5
612.163	399.5
612.371	381.5
612.579	392.5
612.787	389.5
612.995	404.5
613.203	389.5
613.411	366.5
613.618	365.5
613.826	391.5
614.034	371.5
614.242	384.5
614.449	389.5
614.657	391.5
614.865	385.5
615.072	369.5
615.28	391.5
615.488	393.5
615.695	381.5
615.903	395.5
616.111	383.5
616.318	389.5
616.526	371.5
616.733	368.5
616.941	379.5
617.148	371.5
617.356	359.5
617.563	369.5
617.771	381.5
617.978	377.5
618.185	373.5
618.393	381.5
618.6	381.5
618.807	366.5
619.015	366.5
619.222	379.5
619.429	376.5
619.637	385.5
619.844	341.5
620.051	344.5
620.258	369.5
620.466	366.5
620.673	358.5
620.88	342.5
621.087	353.5
621.294	365.5
621.501	354.5
621.708	356.5
621.915	349.5
622.122	343.5
622.329	356.5
622.536	343.5
622.743	364.5
622.95	350.5
623.157	356.5
623.364	339.5
623.571	357.5
623.778	347.5
623.985	354.5
624.192	335.5
624.399	345.5
624.606	337.5
624.812	351.5
625.019	332.5
625.226	339.5
625.433	334.5
625.639	345.5
625.846	337.5
626.053	330.5
626.259	336.5
626.466	327.5
626.673	300.5
626.879	329.5
627.086	328.5
627.293	315.5
627.499	338.5
627.706	328.5
627.912	299.5
628.119	319.5
628.325	336.5
628.532	317.5
628.738	321.5
628.945	326.5
629.151	329.5
629.357	324.5
629.564	333.5
629.77	319.5
629.976	323.5
630.183	307.5
630.389	307.5
630.595	323.5
630.802	313.5
631.008	312.5
631.214	293.5
631.42	323.5
631.627	302.5
631.833	305.5
632.039	324.5
632.245	289.5
632.451	303.5
632.657	313.5
632.863	303.5
633.069	311.5
633.275	290.5
633.481	288.5
633.688	298.5
633.893	302.5
634.099	286.5
634.305	278.5
634.511	289.5
634.717	299.5
634.923	299.5
635.129	287.5
635.335	300.5
635.541	302.5
635.747	295.5
635.952	295.5
636.158	273.5
636.364	275.5
636.57	293.5
636.775	299.5
636.981	283.5
637.187	290.5
637.392	298.5
637.598	258.5
637.804	281.5
638.009	289.5
638.215	267.5
638.421	271.5
638.626	262.5
638.832	281.5
639.037	281.5
639.243	270.5
639.448	257.5
639.654	283.5
639.859	293.5
640.065	273.5
640.27	262.5
640.475	258.5
640.681	258.5
640.886	288.5
641.091	276.5
641.297	264.5
641.502	291.5
641.707	254.5
641.913	264.5
642.118	269.5
642.323	267.5
642.528	256.5
642.733	266.5
642.939	266.5
643.144	272.5
643.349	256.5
643.554	259.5
643.759	280.5
643.964	269.5
644.169	276.5
644.374	263.5
644.579	274.5
644.784	267.5
644.989	260.5
645.194	287.5
645.399	290.5
645.604	265.5
645.809	271.5
646.014	273.5
646.219	274.5
646.423	262.5
646.628	273.5
646.833	268.5
647.038	257.5
647.243	268.5
647.447	271.5
647.652	271.5
647.857	283.5
648.062	273.5
648.266	267.5
648.471	270.5
648.676	270.5
648.88	250.5
649.085	258.5
649.289	271.5
649.494	254.5
649.698	271.5
649.903	273.5
650.107	245.5
650.312	265.5
650.516	269.5
650.721	256.5
650.925	241.5
651.13	244.5
651.334	247.5
651.539	254.5
651.743	249.5
651.947	242.5
652.152	257.5
652.356	238.5
652.56	246.5
652.764	235.5
652.969	259.5
653.173	259.5
653.377	246.5
653.581	232.5
653.785	238.5
653.99	238.5
654.194	235.5
654.398	222.5
654.602	233.5
654.806	245.5
655.01	231.5
655.214	241.5
655.418	214.5
655.622	227.5
655.826	245.5
656.03	233.5
656.234	224.5
656.438	250.5
656.642	241.5
656.846	214.5
657.049	229.5
657.253	204.5
657.457	209.5
657.661	198.5
657.865	185.5
658.068	172.5
658.272	183.5
658.476	163.5
658.68	172.5
658.883	139.5
659.087	156.5
659.291	158.5
659.494	143.5
659.698	119.5
659.901	129.5
660.105	117.5
660.309	127.5
660.512	123.5
660.716	127.5
660.919	111.5
661.123	113.5
661.326	105.5
661.53	107.5
661.733	99.5
661.936	114.5
662.14	85.5
662.343	102.5
662.546	90.5
662.75	91.5
662.953	103.5
663.156	97.5
663.36	103.5
663.563	88.5
663.766	87.5
663.969	92.5
664.173	86.5
664.376	87.5
664.579	90.5
664.782	87.5
664.985	84.5
665.188	89.5
665.391	85.5
665.594	93.5
665.797	74.5
666	72.5
666.203	85.5
666.406	78.5
666.609	92.5
666.812	86.5
667.015	79.5
667.218	83.5
667.421	79.5
667.624	85.5
667.827	73.5
668.03	87.5
668.232	81.5
668.435	75.5
668.638	83.5
668.841	88.5
669.043	73.5
669.246	77.5
669.449	86.5
669.651	92.5
669.854	72.5
670.057	76.5
670.259	89.5
670.462	84.5
670.665	76.5
670.867	76.5
671.07	77.5
671.272	88.5
671.475	78.5
671.677	88.5
671.88	79.5
672.082	78.5
672.284	90.5
672.487	91.5
672.689	79.5
672.892	88.5
