Data from Ni(NO3)2Standard.Agarose3%.GreenCap.LampEnergy5.5.E.O_HRD10591_14-41-57-188.txt Node
Date: Mon Jul 22 14:41:57 EDT 2019
User: cochatt
Spectrometer: HR+D1059
Trigger mode: 1
Integration Time (sec): 1.000000E-1
Scans to average: 1
Electric dark correction enabled: true
Nonlinearity correction enabled: false
Boxcar width: 0
XAxis mode: Wavelengths
Number of Pixels in Spectrum: 2048
>>>>>Begin Spectral Data<<<<<
223.165	-16.25
223.4	-16.25
223.635	-16.25
223.869	-4.25
224.104	-22.25
224.338	-10.25
224.573	-6.25
224.808	-25.25
225.042	-10.25
225.277	-17.25
225.511	5.75
225.746	3.75
225.98	5.75
226.215	17.75
226.449	11.75
226.683	7.75
226.918	41.75
227.152	17.75
227.387	36.75
227.621	27.75
227.856	41.75
228.09	51.75
228.324	43.75
228.559	53.75
228.793	49.75
229.027	55.75
229.262	67.75
229.496	73.75
229.73	82.75
229.964	77.75
230.199	78.75
230.433	71.75
230.667	74.75
230.901	86.75
231.136	88.75
231.37	93.75
231.604	93.75
231.838	70.75
232.072	75.75
232.306	88.75
232.541	94.75
232.775	78.75
233.009	86.75
233.243	80.75
233.477	74.75
233.711	90.75
233.945	81.75
234.179	68.75
234.413	94.75
234.647	82.75
234.881	79.75
235.115	67.75
235.349	72.75
235.583	86.75
235.817	95.75
236.051	85.75
236.285	90.75
236.519	75.75
236.753	85.75
236.987	86.75
237.221	83.75
237.455	82.75
237.689	81.75
237.922	83.75
238.156	75.75
238.39	74.75
238.624	78.75
238.858	80.75
239.091	90.75
239.325	57.75
239.559	84.75
239.793	89.75
240.027	67.75
240.26	65.75
240.494	78.75
240.728	69.75
240.961	73.75
241.195	69.75
241.429	91.75
241.662	69.75
241.896	88.75
242.13	82.75
242.363	73.75
242.597	67.75
242.83	86.75
243.064	78.75
243.298	67.75
243.531	78.75
243.765	78.75
243.998	72.75
244.232	83.75
244.465	80.75
244.699	71.75
244.932	101.75
245.166	67.75
245.399	86.75
245.633	75.75
245.866	81.75
246.099	90.75
246.333	82.75
246.566	82.75
246.8	82.75
247.033	66.75
247.266	90.75
247.5	85.75
247.733	76.75
247.966	96.75
248.2	79.75
248.433	70.75
248.666	85.75
248.899	80.75
249.133	82.75
249.366	91.75
249.599	76.75
249.832	77.75
250.066	88.75
250.299	67.75
250.532	87.75
250.765	93.75
250.998	71.75
251.231	78.75
251.465	87.75
251.698	78.75
251.931	89.75
252.164	90.75
252.397	86.75
252.63	85.75
252.863	80.75
253.096	83.75
253.329	78.75
253.562	94.75
253.795	82.75
254.028	76.75
254.261	93.75
254.494	81.75
254.727	71.75
254.96	79.75
255.193	86.75
255.426	77.75
255.659	80.75
255.892	71.75
256.124	82.75
256.357	80.75
256.59	88.75
256.823	71.75
257.056	80.75
257.289	73.75
257.521	68.75
257.754	80.75
257.987	87.75
258.22	74.75
258.452	85.75
258.685	94.75
258.918	87.75
259.151	94.75
259.383	88.75
259.616	88.75
259.849	85.75
260.081	88.75
260.314	89.75
260.547	86.75
260.779	88.75
261.012	81.75
261.244	95.75
261.477	93.75
261.71	75.75
261.942	80.75
262.175	83.75
262.407	79.75
262.64	96.75
262.872	98.75
263.105	95.75
263.337	95.75
263.57	79.75
263.802	82.75
264.035	83.75
264.267	73.75
264.499	85.75
264.732	87.75
264.964	79.75
265.197	80.75
265.429	90.75
265.661	87.75
265.894	80.75
266.126	92.75
266.358	91.75
266.591	94.75
266.823	94.75
267.055	93.75
267.287	89.75
267.52	70.75
267.752	93.75
267.984	87.75
268.216	83.75
268.448	94.75
268.681	82.75
268.913	90.75
269.145	81.75
269.377	96.75
269.609	81.75
269.841	85.75
270.073	78.75
270.306	91.75
270.538	76.75
270.77	86.75
271.002	101.75
271.234	76.75
271.466	88.75
271.698	91.75
271.93	91.75
272.162	96.75
272.394	88.75
272.626	90.75
272.858	93.75
273.09	82.75
273.322	94.75
273.553	84.75
273.785	91.75
274.017	89.75
274.249	84.75
274.481	76.75
274.713	79.75
274.945	73.75
275.176	82.75
275.408	102.75
275.64	85.75
275.872	81.75
276.104	89.75
276.335	88.75
276.567	83.75
276.799	83.75
277.031	88.75
277.262	94.75
277.494	102.75
277.726	88.75
277.957	94.75
278.189	92.75
278.421	97.75
278.652	79.75
278.884	91.75
279.115	79.75
279.347	84.75
279.579	90.75
279.81	73.75
280.042	103.75
280.273	87.75
280.505	90.75
280.736	96.75
280.968	116.75
281.199	76.75
281.431	84.75
281.662	101.75
281.894	88.75
282.125	82.75
282.356	99.75
282.588	83.75
282.819	95.75
283.051	85.75
283.282	88.75
283.513	84.75
283.745	85.75
283.976	92.75
284.207	91.75
284.439	97.75
284.67	92.75
284.901	93.75
285.132	90.75
285.364	92.75
285.595	85.75
285.826	88.75
286.057	78.75
286.288	77.75
286.52	84.75
286.751	71.75
286.982	75.75
287.213	85.75
287.444	95.75
287.675	80.75
287.906	91.75
288.138	83.75
288.369	100.75
288.6	83.75
288.831	88.75
289.062	92.75
289.293	103.75
289.524	94.75
289.755	96.75
289.986	92.75
290.217	89.75
290.448	80.75
290.679	88.75
290.91	94.75
291.141	86.75
291.371	92.75
291.602	87.75
291.833	89.75
292.064	96.75
292.295	87.75
292.526	69.75
292.757	83.75
292.987	97.75
293.218	97.75
293.449	96.75
293.68	100.75
293.91	97.75
294.141	88.75
294.372	88.75
294.603	93.75
294.833	92.75
295.064	87.75
295.295	81.75
295.525	93.75
295.756	87.75
295.987	76.75
296.217	85.75
296.448	84.75
296.679	93.75
296.909	80.75
297.14	80.75
297.37	101.75
297.601	90.75
297.831	89.75
298.062	91.75
298.292	85.75
298.523	82.75
298.753	71.75
298.984	79.75
299.214	84.75
299.445	83.75
299.675	102.75
299.905	88.75
300.136	75.75
300.366	87.75
300.597	95.75
300.827	90.75
301.057	93.75
301.288	88.75
301.518	88.75
301.748	90.75
301.979	85.75
302.209	103.75
302.439	102.75
302.669	90.75
302.9	74.75
303.13	98.75
303.36	84.75
303.59	87.75
303.82	102.75
304.051	91.75
304.281	80.75
304.511	95.75
304.741	98.75
304.971	87.75
305.201	91.75
305.431	110.75
305.661	83.75
305.891	106.75
306.121	87.75
306.352	84.75
306.582	100.75
306.812	88.75
307.042	72.75
307.272	73.75
307.502	90.75
307.731	96.75
307.961	99.75
308.191	90.75
308.421	78.75
308.651	89.75
308.881	90.75
309.111	96.75
309.341	103.75
309.571	97.75
309.8	79.75
310.03	90.75
310.26	97.75
310.49	95.75
310.72	85.75
310.949	85.75
311.179	93.75
311.409	92.75
311.639	95.75
311.868	88.75
312.098	89.75
312.328	90.75
312.557	77.75
312.787	100.75
313.017	89.75
313.246	93.75
313.476	83.75
313.706	85.75
313.935	84.75
314.165	88.75
314.394	88.75
314.624	103.75
314.853	84.75
315.083	88.75
315.312	91.75
315.542	94.75
315.771	87.75
316.001	102.75
316.23	95.75
316.46	105.75
316.689	81.75
316.919	81.75
317.148	106.75
317.377	95.75
317.607	99.75
317.836	90.75
318.065	80.75
318.295	80.75
318.524	77.75
318.753	86.75
318.983	81.75
319.212	85.75
319.441	87.75
319.67	90.75
319.9	82.75
320.129	86.75
320.358	91.75
320.587	100.75
320.816	90.75
321.046	88.75
321.275	97.75
321.504	82.75
321.733	79.75
321.962	86.75
322.191	91.75
322.42	85.75
322.649	78.75
322.878	101.75
323.108	98.75
323.337	85.75
323.566	85.75
323.795	90.75
324.024	94.75
324.253	69.75
324.482	88.75
324.71	101.75
324.939	100.75
325.168	92.75
325.397	96.75
325.626	89.75
325.855	83.75
326.084	91.75
326.313	97.75
326.542	88.75
326.77	99.75
326.999	88.75
327.228	87.75
327.457	87.75
327.686	101.75
327.914	81.75
328.143	103.75
328.372	99.75
328.6	84.75
328.829	96.75
329.058	88.75
329.287	67.75
329.515	95.75
329.744	81.75
329.972	87.75
330.201	92.75
330.43	81.75
330.658	88.75
330.887	95.75
331.115	80.75
331.344	93.75
331.572	90.75
331.801	91.75
332.03	87.75
332.258	84.75
332.486	86.75
332.715	88.75
332.943	91.75
333.172	108.75
333.4	95.75
333.629	91.75
333.857	89.75
334.085	96.75
334.314	96.75
334.542	93.75
334.771	91.75
334.999	101.75
335.227	99.75
335.455	89.75
335.684	84.75
335.912	99.75
336.14	83.75
336.369	87.75
336.597	94.75
336.825	91.75
337.053	80.75
337.281	92.75
337.51	97.75
337.738	84.75
337.966	103.75
338.194	78.75
338.422	95.75
338.65	92.75
338.878	89.75
339.106	76.75
339.334	101.75
339.562	101.75
339.79	103.75
340.018	81.75
340.246	79.75
340.474	85.75
340.702	93.75
340.93	92.75
341.158	99.75
341.386	93.75
341.614	80.75
341.842	93.75
342.07	81.75
342.298	69.75
342.526	88.75
342.754	98.75
342.981	81.75
343.209	87.75
343.437	91.75
343.665	82.75
343.893	93.75
344.12	90.75
344.348	80.75
344.576	102.75
344.804	86.75
345.031	85.75
345.259	84.75
345.487	86.75
345.714	76.75
345.942	85.75
346.17	76.75
346.397	97.75
346.625	88.75
346.853	85.75
347.08	77.75
347.308	92.75
347.535	81.75
347.763	91.75
347.99	99.75
348.218	89.75
348.445	92.75
348.673	96.75
348.9	96.75
349.128	91.75
349.355	101.75
349.583	93.75
349.81	81.75
350.037	96.75
350.265	79.75
350.492	86.75
350.72	90.75
350.947	98.75
351.174	86.75
351.402	93.75
351.629	86.75
351.856	71.75
352.083	82.75
352.311	87.75
352.538	94.75
352.765	85.75
352.992	87.75
353.22	95.75
353.447	91.75
353.674	88.75
353.901	79.75
354.128	100.75
354.355	73.75
354.583	91.75
354.81	87.75
355.037	96.75
355.264	97.75
355.491	102.75
355.718	83.75
355.945	87.75
356.172	92.75
356.399	91.75
356.626	77.75
356.853	81.75
357.08	75.75
357.307	79.75
357.534	80.75
357.761	96.75
357.988	79.75
358.215	75.75
358.441	85.75
358.668	93.75
358.895	79.75
359.122	88.75
359.349	85.75
359.576	87.75
359.802	92.75
360.029	87.75
360.256	87.75
360.483	96.75
360.709	94.75
360.936	85.75
361.163	85.75
361.39	85.75
361.616	86.75
361.843	73.75
362.07	82.75
362.296	85.75
362.523	71.75
362.749	78.75
362.976	77.75
363.203	88.75
363.429	93.75
363.656	85.75
363.882	86.75
364.109	100.75
364.335	80.75
364.562	77.75
364.788	71.75
365.015	95.75
365.241	90.75
365.468	93.75
365.694	81.75
365.92	93.75
366.147	102.75
366.373	86.75
366.599	76.75
366.826	86.75
367.052	85.75
367.278	85.75
367.505	89.75
367.731	90.75
367.957	85.75
368.184	96.75
368.41	93.75
368.636	76.75
368.862	83.75
369.089	86.75
369.315	87.75
369.541	91.75
369.767	85.75
369.993	88.75
370.219	84.75
370.445	89.75
370.672	81.75
370.898	94.75
371.124	94.75
371.35	96.75
371.576	88.75
371.802	84.75
372.028	91.75
372.254	83.75
372.48	91.75
372.706	89.75
372.932	89.75
373.158	89.75
373.384	87.75
373.61	93.75
373.835	92.75
374.061	81.75
374.287	90.75
374.513	77.75
374.739	81.75
374.965	91.75
375.191	93.75
375.416	87.75
375.642	70.75
375.868	91.75
376.094	82.75
376.319	74.75
376.545	80.75
376.771	78.75
376.997	87.75
377.222	73.75
377.448	101.75
377.674	80.75
377.899	85.75
378.125	93.75
378.35	85.75
378.576	102.75
378.802	84.75
379.027	70.75
379.253	90.75
379.478	93.75
379.704	75.75
379.929	95.75
380.155	98.75
380.38	88.75
380.606	92.75
380.831	73.75
381.057	96.75
381.282	80.75
381.507	86.75
381.733	92.75
381.958	86.75
382.184	73.75
382.409	90.75
382.634	87.75
382.86	99.75
383.085	86.75
383.31	89.75
383.535	101.75
383.761	81.75
383.986	83.75
384.211	90.75
384.436	92.75
384.662	75.75
384.887	81.75
385.112	89.75
385.337	95.75
385.562	81.75
385.787	82.75
386.013	94.75
386.238	82.75
386.463	77.75
386.688	85.75
386.913	90.75
387.138	93.75
387.363	89.75
387.588	77.75
387.813	83.75
388.038	76.75
388.263	72.75
388.488	92.75
388.713	83.75
388.938	87.75
389.163	84.75
389.387	73.75
389.612	93.75
389.837	96.75
390.062	87.75
390.287	78.75
390.512	99.75
390.736	79.75
390.961	77.75
391.186	83.75
391.411	65.75
391.636	70.75
391.86	90.75
392.085	80.75
392.31	90.75
392.534	88.75
392.759	97.75
392.984	92.75
393.208	85.75
393.433	81.75
393.658	102.75
393.882	81.75
394.107	88.75
394.331	84.75
394.556	75.75
394.78	102.75
395.005	89.75
395.229	84.75
395.454	78.75
395.678	80.75
395.903	81.75
396.127	92.75
396.352	92.75
396.576	86.75
396.801	91.75
397.025	90.75
397.249	96.75
397.474	86.75
397.698	86.75
397.922	85.75
398.147	79.75
398.371	79.75
398.595	94.75
398.82	92.75
399.044	76.75
399.268	80.75
399.492	98.75
399.717	76.75
399.941	97.75
400.165	80.75
400.389	84.75
400.613	74.75
400.837	87.75
401.062	87.75
401.286	98.75
401.51	92.75
401.734	83.75
401.958	85.75
402.182	84.75
402.406	86.75
402.63	86.75
402.854	87.75
403.078	79.75
403.302	79.75
403.526	84.75
403.75	84.75
403.974	72.75
404.198	85.75
404.422	87.75
404.645	87.75
404.869	80.75
405.093	71.75
405.317	94.75
405.541	89.75
405.765	81.75
405.988	81.75
406.212	82.75
406.436	88.75
406.66	70.75
406.883	84.75
407.107	86.75
407.331	89.75
407.555	97.75
407.778	80.75
408.002	81.75
408.226	99.75
408.449	82.75
408.673	83.75
408.896	91.75
409.12	87.75
409.344	84.75
409.567	80.75
409.791	93.75
410.014	97.75
410.238	95.75
410.461	85.75
410.685	77.75
410.908	78.75
411.132	100.75
411.355	88.75
411.578	103.75
411.802	93.75
412.025	77.75
412.249	83.75
412.472	85.75
412.695	85.75
412.919	81.75
413.142	86.75
413.365	93.75
413.589	92.75
413.812	78.75
414.035	76.75
414.258	82.75
414.482	93.75
414.705	81.75
414.928	90.75
415.151	86.75
415.374	91.75
415.597	88.75
415.821	80.75
416.044	77.75
416.267	81.75
416.49	75.75
416.713	83.75
416.936	86.75
417.159	82.75
417.382	100.75
417.605	84.75
417.828	95.75
418.051	79.75
418.274	79.75
418.497	78.75
418.72	94.75
418.943	99.75
419.166	89.75
419.389	82.75
419.611	84.75
419.834	87.75
420.057	93.75
420.28	81.75
420.503	76.75
420.726	82.75
420.948	88.75
421.171	89.75
421.394	84.75
421.617	87.75
421.839	93.75
422.062	93.75
422.285	85.75
422.507	95.75
422.73	79.75
422.953	98.75
423.175	91.75
423.398	92.75
423.621	83.75
423.843	81.75
424.066	87.75
424.288	82.75
424.511	87.75
424.733	94.75
424.956	83.75
425.178	94.75
425.401	92.75
425.623	76.75
425.846	96.75
426.068	90.75
426.291	88.75
426.513	89.75
426.735	85.75
426.958	73.75
427.18	79.75
427.402	105.75
427.625	76.75
427.847	81.75
428.069	80.75
428.292	94.75
428.514	87.75
428.736	83.75
428.958	81.75
429.181	107.75
429.403	76.75
429.625	86.75
429.847	94.75
430.069	87.75
430.292	98.75
430.514	87.75
430.736	80.75
430.958	81.75
431.18	87.75
431.402	77.75
431.624	78.75
431.846	81.75
432.068	88.75
432.29	94.75
432.512	81.75
432.734	90.75
432.956	87.75
433.178	96.75
433.4	87.75
433.622	85.75
433.844	101.75
434.066	97.75
434.287	83.75
434.509	90.75
434.731	89.75
434.953	85.75
435.175	88.75
435.397	96.75
435.618	91.75
435.84	86.75
436.062	100.75
436.284	88.75
436.505	83.75
436.727	106.75
436.949	87.75
437.17	90.75
437.392	78.75
437.614	82.75
437.835	90.75
438.057	81.75
438.278	80.75
438.5	101.75
438.721	88.75
438.943	94.75
439.165	85.75
439.386	100.75
439.608	88.75
439.829	80.75
440.05	74.75
440.272	88.75
440.493	83.75
440.715	78.75
440.936	88.75
441.158	87.75
441.379	95.75
441.6	86.75
441.822	85.75
442.043	78.75
442.264	82.75
442.486	76.75
442.707	90.75
442.928	97.75
443.149	91.75
443.371	79.75
443.592	95.75
443.813	96.75
444.034	91.75
444.255	84.75
444.476	89.75
444.698	76.75
444.919	84.75
445.14	214.75
445.361	144.75
445.582	92.75
445.803	86.75
446.024	75.75
446.245	105.75
446.466	108.75
446.687	83.75
446.908	89.75
447.129	81.75
447.35	71.75
447.571	89.75
447.792	97.75
448.013	81.75
448.234	91.75
448.455	94.75
448.675	91.75
448.896	86.75
449.117	94.75
449.338	85.75
449.559	83.75
449.779	73.75
450	84.75
450.221	91.75
450.442	89.75
450.662	96.75
450.883	99.75
451.104	84.75
451.324	72.75
451.545	82.75
451.766	75.75
451.986	91.75
452.207	94.75
452.428	87.75
452.648	77.75
452.869	75.75
453.089	84.75
453.31	89.75
453.53	85.75
453.751	83.75
453.971	99.75
454.192	95.75
454.412	97.75
454.633	90.75
454.853	78.75
455.073	96.75
455.294	97.75
455.514	87.75
455.734	77.75
455.955	70.75
456.175	94.75
456.395	75.75
456.616	88.75
456.836	84.75
457.056	85.75
457.276	70.75
457.497	69.75
457.717	96.75
457.937	87.75
458.157	99.75
458.377	94.75
458.598	73.75
458.818	71.75
459.038	72.75
459.258	82.75
459.478	86.75
459.698	73.75
459.918	83.75
460.138	77.75
460.358	81.75
460.578	86.75
460.798	86.75
461.018	81.75
461.238	85.75
461.458	91.75
461.678	91.75
461.898	96.75
462.118	85.75
462.338	91.75
462.558	91.75
462.777	86.75
462.997	114.75
463.217	85.75
463.437	91.75
463.657	89.75
463.876	84.75
464.096	99.75
464.316	83.75
464.536	99.75
464.755	97.75
464.975	84.75
465.195	77.75
465.414	87.75
465.634	102.75
465.854	90.75
466.073	78.75
466.293	82.75
466.512	85.75
466.732	76.75
466.951	76.75
467.171	93.75
467.391	86.75
467.61	85.75
467.829	88.75
468.049	97.75
468.268	82.75
468.488	85.75
468.707	99.75
468.927	95.75
469.146	78.75
469.365	84.75
469.585	87.75
469.804	101.75
470.023	79.75
470.243	81.75
470.462	84.75
470.681	77.75
470.901	87.75
471.12	89.75
471.339	101.75
471.558	84.75
471.777	77.75
471.997	96.75
472.216	85.75
472.435	109.75
472.654	83.75
472.873	87.75
473.092	92.75
473.311	92.75
473.53	89.75
473.749	74.75
473.968	85.75
474.187	87.75
474.406	98.75
474.625	90.75
474.844	98.75
475.063	100.75
475.282	89.75
475.501	87.75
475.72	93.75
475.939	85.75
476.158	87.75
476.377	91.75
476.596	94.75
476.814	80.75
477.033	97.75
477.252	83.75
477.471	99.75
477.69	86.75
477.908	88.75
478.127	83.75
478.346	87.75
478.564	97.75
478.783	81.75
479.002	88.75
479.22	79.75
479.439	79.75
479.658	80.75
479.876	84.75
480.095	98.75
480.313	92.75
480.532	92.75
480.751	103.75
480.969	85.75
481.188	95.75
481.406	93.75
481.624	94.75
481.843	88.75
482.061	95.75
482.28	84.75
482.498	80.75
482.717	85.75
482.935	87.75
483.153	77.75
483.372	108.75
483.59	87.75
483.808	91.75
484.027	95.75
484.245	98.75
484.463	95.75
484.681	90.75
484.9	76.75
485.118	97.75
485.336	92.75
485.554	78.75
485.772	94.75
485.99	87.75
486.209	95.75
486.427	90.75
486.645	88.75
486.863	88.75
487.081	90.75
487.299	88.75
487.517	97.75
487.735	97.75
487.953	115.75
488.171	101.75
488.389	98.75
488.607	97.75
488.825	92.75
489.043	90.75
489.261	101.75
489.479	78.75
489.696	91.75
489.914	89.75
490.132	77.75
490.35	104.75
490.568	84.75
490.786	95.75
491.003	101.75
491.221	104.75
491.439	117.75
491.657	102.75
491.874	86.75
492.092	87.75
492.31	103.75
492.527	93.75
492.745	105.75
492.963	93.75
493.18	101.75
493.398	102.75
493.615	99.75
493.833	79.75
494.05	73.75
494.268	108.75
494.485	87.75
494.703	103.75
494.92	84.75
495.138	105.75
495.355	112.75
495.573	93.75
495.79	115.75
496.008	87.75
496.225	93.75
496.442	96.75
496.66	109.75
496.877	98.75
497.094	101.75
497.312	93.75
497.529	86.75
497.746	100.75
497.963	98.75
498.181	87.75
498.398	101.75
498.615	85.75
498.832	106.75
499.049	103.75
499.267	94.75
499.484	90.75
499.701	103.75
499.918	117.75
500.135	119.75
500.352	121.75
500.569	107.75
500.786	127.75
501.003	118.75
501.22	109.75
501.437	104.75
501.654	99.75
501.871	106.75
502.088	109.75
502.305	103.75
502.522	99.75
502.739	99.75
502.956	90.75
503.172	99.75
503.389	88.75
503.606	104.75
503.823	104.75
504.04	95.75
504.256	109.75
504.473	92.75
504.69	104.75
504.907	99.75
505.123	104.75
505.34	80.75
505.557	91.75
505.773	104.75
505.99	95.75
506.207	86.75
506.423	99.75
506.64	97.75
506.856	100.75
507.073	81.75
507.289	89.75
507.506	103.75
507.722	92.75
507.939	91.75
508.155	102.75
508.372	91.75
508.588	86.75
508.805	88.75
509.021	92.75
509.238	96.75
509.454	77.75
509.67	90.75
509.887	76.75
510.103	87.75
510.319	97.75
510.536	95.75
510.752	99.75
510.968	89.75
511.184	89.75
511.401	95.75
511.617	98.75
511.833	98.75
512.049	76.75
512.265	88.75
512.481	86.75
512.698	97.75
512.914	99.75
513.13	101.75
513.346	84.75
513.562	110.75
513.778	80.75
513.994	91.75
514.21	79.75
514.426	90.75
514.642	94.75
514.858	82.75
515.074	78.75
515.29	84.75
515.506	103.75
515.721	88.75
515.937	90.75
516.153	101.75
516.369	103.75
516.585	106.75
516.801	79.75
517.016	101.75
517.232	81.75
517.448	105.75
517.664	99.75
517.879	97.75
518.095	96.75
518.311	90.75
518.527	101.75
518.742	98.75
518.958	95.75
519.173	95.75
519.389	92.75
519.605	88.75
519.82	91.75
520.036	84.75
520.251	90.75
520.467	87.75
520.682	79.75
520.898	99.75
521.113	85.75
521.329	99.75
521.544	82.75
521.76	104.75
521.975	103.75
522.19	91.75
522.406	92.75
522.621	95.75
522.836	91.75
523.052	85.75
523.267	95.75
523.482	101.75
523.698	100.75
523.913	107.75
524.128	105.75
524.343	84.75
524.559	99.75
524.774	88.75
524.989	108.75
525.204	100.75
525.419	89.75
525.634	92.75
525.849	94.75
526.064	98.75
526.28	90.75
526.495	79.75
526.71	94.75
526.925	77.75
527.14	90.75
527.355	97.75
527.57	96.75
527.785	97.75
527.999	98.75
528.214	103.75
528.429	86.75
528.644	89.75
528.859	89.75
529.074	98.75
529.289	95.75
529.503	105.75
529.718	95.75
529.933	108.75
530.148	94.75
530.363	88.75
530.577	101.75
530.792	106.75
531.007	107.75
531.221	99.75
531.436	89.75
531.651	99.75
531.865	107.75
532.08	97.75
532.295	93.75
532.509	96.75
532.724	85.75
532.938	95.75
533.153	85.75
533.367	86.75
533.582	94.75
533.796	87.75
534.011	84.75
534.225	83.75
534.44	87.75
534.654	91.75
534.868	95.75
535.083	91.75
535.297	95.75
535.511	100.75
535.726	93.75
535.94	91.75
536.154	87.75
536.369	90.75
536.583	87.75
536.797	89.75
537.011	96.75
537.225	96.75
537.44	97.75
537.654	94.75
537.868	99.75
538.082	98.75
538.296	92.75
538.51	81.75
538.724	85.75
538.938	97.75
539.153	100.75
539.367	83.75
539.581	90.75
539.795	97.75
540.009	86.75
540.222	110.75
540.436	97.75
540.65	111.75
540.864	91.75
541.078	92.75
541.292	100.75
541.506	96.75
541.72	89.75
541.934	97.75
542.147	105.75
542.361	106.75
542.575	104.75
542.789	101.75
543.002	90.75
543.216	92.75
543.43	97.75
543.644	88.75
543.857	90.75
544.071	101.75
544.285	93.75
544.498	81.75
544.712	96.75
544.925	95.75
545.139	99.75
545.352	98.75
545.566	94.75
545.779	91.75
545.993	99.75
546.206	101.75
546.42	94.75
546.633	109.75
546.847	103.75
547.06	100.75
547.274	87.75
547.487	109.75
547.7	100.75
547.914	98.75
548.127	94.75
548.34	89.75
548.554	102.75
548.767	84.75
548.98	86.75
549.193	93.75
549.407	112.75
549.62	85.75
549.833	83.75
550.046	85.75
550.259	88.75
550.473	85.75
550.686	109.75
550.899	91.75
551.112	85.75
551.325	93.75
551.538	87.75
551.751	92.75
551.964	98.75
552.177	103.75
552.39	91.75
552.603	102.75
552.816	97.75
553.029	92.75
553.242	91.75
553.455	97.75
553.667	100.75
553.88	93.75
554.093	94.75
554.306	94.75
554.519	83.75
554.732	82.75
554.944	98.75
555.157	83.75
555.37	85.75
555.583	92.75
555.795	91.75
556.008	82.75
556.221	88.75
556.433	86.75
556.646	81.75
556.859	99.75
557.071	102.75
557.284	80.75
557.496	99.75
557.709	93.75
557.921	97.75
558.134	103.75
558.346	102.75
558.559	91.75
558.771	93.75
558.984	91.75
559.196	82.75
559.409	87.75
559.621	95.75
559.833	82.75
560.046	89.75
560.258	93.75
560.47	94.75
560.683	86.75
560.895	98.75
561.107	97.75
561.32	83.75
561.532	99.75
561.744	93.75
561.956	96.75
562.168	101.75
562.381	98.75
562.593	105.75
562.805	86.75
563.017	99.75
563.229	93.75
563.441	101.75
563.653	91.75
563.865	97.75
564.077	93.75
564.289	103.75
564.501	94.75
564.713	91.75
564.925	83.75
565.137	82.75
565.349	93.75
565.561	97.75
565.773	98.75
565.985	84.75
566.197	84.75
566.408	96.75
566.62	107.75
566.832	110.75
567.044	85.75
567.255	90.75
567.467	84.75
567.679	96.75
567.891	99.75
568.102	106.75
568.314	91.75
568.526	95.75
568.737	92.75
568.949	95.75
569.161	92.75
569.372	90.75
569.584	97.75
569.795	89.75
570.007	95.75
570.218	83.75
570.43	88.75
570.641	90.75
570.853	98.75
571.064	89.75
571.276	88.75
571.487	92.75
571.698	97.75
571.91	97.75
572.121	93.75
572.333	104.75
572.544	90.75
572.755	101.75
572.966	94.75
573.178	85.75
573.389	96.75
573.6	89.75
573.811	76.75
574.023	90.75
574.234	105.75
574.445	89.75
574.656	89.75
574.867	86.75
575.078	77.75
575.289	88.75
575.501	107.75
575.712	104.75
575.923	88.75
576.134	90.75
576.345	91.75
576.556	94.75
576.767	111.75
576.978	98.75
577.188	77.75
577.399	91.75
577.61	86.75
577.821	101.75
578.032	87.75
578.243	85.75
578.454	104.75
578.665	85.75
578.875	94.75
579.086	86.75
579.297	83.75
579.508	99.75
579.718	90.75
579.929	87.75
580.14	92.75
580.35	113.75
580.561	98.75
580.772	93.75
580.982	92.75
581.193	94.75
581.403	81.75
581.614	82.75
581.825	91.75
582.035	81.75
582.246	92.75
582.456	94.75
582.667	96.75
582.877	95.75
583.087	100.75
583.298	101.75
583.508	80.75
583.719	86.75
583.929	81.75
584.139	91.75
584.35	83.75
584.56	89.75
584.77	86.75
584.981	85.75
585.191	96.75
585.401	104.75
585.611	88.75
585.821	95.75
586.032	85.75
586.242	90.75
586.452	90.75
586.662	96.75
586.872	84.75
587.082	100.75
587.292	100.75
587.502	76.75
587.713	87.75
587.923	96.75
588.133	108.75
588.343	90.75
588.553	89.75
588.762	97.75
588.972	85.75
589.182	85.75
589.392	81.75
589.602	84.75
589.812	93.75
590.022	102.75
590.232	90.75
590.441	92.75
590.651	81.75
590.861	88.75
591.071	85.75
591.281	82.75
591.49	88.75
591.7	85.75
591.91	99.75
592.119	94.75
592.329	89.75
592.539	96.75
592.748	86.75
592.958	83.75
593.167	81.75
593.377	99.75
593.587	89.75
593.796	91.75
594.006	89.75
594.215	82.75
594.424	89.75
594.634	94.75
594.843	94.75
595.053	102.75
595.262	80.75
595.472	87.75
595.681	88.75
595.89	91.75
596.1	99.75
596.309	112.75
596.518	81.75
596.727	85.75
596.937	86.75
597.146	85.75
597.355	91.75
597.564	86.75
597.774	101.75
597.983	99.75
598.192	108.75
598.401	100.75
598.61	92.75
598.819	87.75
599.028	90.75
599.237	91.75
599.446	85.75
599.655	105.75
599.864	93.75
600.073	77.75
600.282	87.75
600.491	83.75
600.7	84.75
600.909	84.75
601.118	100.75
601.327	87.75
601.536	92.75
601.745	91.75
601.953	104.75
602.162	103.75
602.371	102.75
602.58	86.75
602.789	81.75
602.997	81.75
603.206	76.75
603.415	95.75
603.623	85.75
603.832	97.75
604.041	82.75
604.249	88.75
604.458	107.75
604.666	91.75
604.875	71.75
605.084	76.75
605.292	85.75
605.501	79.75
605.709	87.75
605.918	88.75
606.126	81.75
606.334	90.75
606.543	95.75
606.751	83.75
606.96	93.75
607.168	92.75
607.376	91.75
607.585	91.75
607.793	76.75
608.001	79.75
608.21	95.75
608.418	90.75
608.626	91.75
608.834	95.75
609.043	90.75
609.251	92.75
609.459	90.75
609.667	97.75
609.875	91.75
610.083	91.75
610.291	75.75
610.499	76.75
610.707	92.75
610.916	87.75
611.124	95.75
611.332	98.75
611.54	103.75
611.748	94.75
611.955	89.75
612.163	92.75
612.371	87.75
612.579	92.75
612.787	93.75
612.995	84.75
613.203	76.75
613.411	84.75
613.618	72.75
613.826	87.75
614.034	90.75
614.242	102.75
614.449	89.75
614.657	89.75
614.865	88.75
615.072	92.75
615.28	90.75
615.488	83.75
615.695	100.75
615.903	93.75
616.111	87.75
616.318	102.75
616.526	89.75
616.733	92.75
616.941	76.75
617.148	84.75
617.356	76.75
617.563	84.75
617.771	87.75
617.978	76.75
618.185	95.75
618.393	89.75
618.6	101.75
618.807	82.75
619.015	95.75
619.222	79.75
619.429	85.75
619.637	87.75
619.844	86.75
620.051	93.75
620.258	90.75
620.466	95.75
620.673	96.75
620.88	84.75
621.087	80.75
621.294	93.75
621.501	87.75
621.708	89.75
621.915	88.75
622.122	91.75
622.329	89.75
622.536	74.75
622.743	81.75
622.95	89.75
623.157	81.75
623.364	100.75
623.571	89.75
623.778	93.75
623.985	93.75
624.192	93.75
624.399	73.75
624.606	109.75
624.812	80.75
625.019	103.75
625.226	94.75
625.433	92.75
625.639	90.75
625.846	89.75
626.053	94.75
626.259	91.75
626.466	84.75
626.673	79.75
626.879	80.75
627.086	86.75
627.293	82.75
627.499	85.75
627.706	92.75
627.912	97.75
628.119	76.75
628.325	87.75
628.532	88.75
628.738	83.75
628.945	95.75
629.151	83.75
629.357	69.75
629.564	92.75
629.77	96.75
629.976	89.75
630.183	89.75
630.389	82.75
630.595	102.75
630.802	76.75
631.008	91.75
631.214	90.75
631.42	91.75
631.627	99.75
631.833	77.75
632.039	95.75
632.245	88.75
632.451	88.75
632.657	94.75
632.863	96.75
633.069	76.75
633.275	99.75
633.481	86.75
633.688	73.75
633.893	81.75
634.099	86.75
634.305	81.75
634.511	91.75
634.717	83.75
634.923	91.75
635.129	81.75
635.335	76.75
635.541	84.75
635.747	81.75
635.952	86.75
636.158	69.75
636.364	83.75
636.57	103.75
636.775	95.75
636.981	84.75
637.187	90.75
637.392	81.75
637.598	82.75
637.804	90.75
638.009	86.75
638.215	78.75
638.421	95.75
638.626	74.75
638.832	92.75
639.037	71.75
639.243	75.75
639.448	91.75
639.654	95.75
639.859	93.75
640.065	74.75
640.27	94.75
640.475	85.75
640.681	94.75
640.886	76.75
641.091	79.75
641.297	97.75
641.502	107.75
641.707	87.75
641.913	87.75
642.118	85.75
642.323	96.75
642.528	92.75
642.733	87.75
642.939	107.75
643.144	94.75
643.349	99.75
643.554	96.75
643.759	85.75
643.964	82.75
644.169	101.75
644.374	84.75
644.579	96.75
644.784	86.75
644.989	100.75
645.194	89.75
645.399	86.75
645.604	84.75
645.809	78.75
646.014	81.75
646.219	106.75
646.423	88.75
646.628	83.75
646.833	84.75
647.038	81.75
647.243	95.75
647.447	90.75
647.652	92.75
647.857	81.75
648.062	76.75
648.266	81.75
648.471	92.75
648.676	82.75
648.88	93.75
649.085	79.75
649.289	81.75
649.494	76.75
649.698	91.75
649.903	86.75
650.107	87.75
650.312	83.75
650.516	81.75
650.721	87.75
650.925	80.75
651.13	84.75
651.334	98.75
651.539	95.75
651.743	85.75
651.947	90.75
652.152	86.75
652.356	88.75
652.56	79.75
652.764	90.75
652.969	81.75
653.173	84.75
653.377	83.75
653.581	79.75
653.785	75.75
653.99	96.75
654.194	79.75
654.398	81.75
654.602	87.75
654.806	81.75
655.01	87.75
655.214	83.75
655.418	79.75
655.622	87.75
655.826	86.75
656.03	95.75
656.234	88.75
656.438	86.75
656.642	93.75
656.846	87.75
657.049	83.75
657.253	74.75
657.457	92.75
657.661	88.75
657.865	76.75
658.068	91.75
658.272	80.75
658.476	96.75
658.68	84.75
658.883	84.75
659.087	89.75
659.291	71.75
659.494	83.75
659.698	82.75
659.901	95.75
660.105	93.75
660.309	71.75
660.512	93.75
660.716	80.75
660.919	89.75
661.123	105.75
661.326	103.75
661.53	87.75
661.733	81.75
661.936	85.75
662.14	85.75
662.343	85.75
662.546	91.75
662.75	64.75
662.953	90.75
663.156	92.75
663.36	89.75
663.563	80.75
663.766	110.75
663.969	81.75
664.173	80.75
664.376	103.75
664.579	90.75
664.782	76.75
664.985	81.75
665.188	84.75
665.391	84.75
665.594	91.75
665.797	95.75
666	82.75
666.203	87.75
666.406	71.75
666.609	92.75
666.812	82.75
667.015	88.75
667.218	95.75
667.421	103.75
667.624	85.75
667.827	80.75
668.03	82.75
668.232	79.75
668.435	79.75
668.638	75.75
668.841	75.75
669.043	87.75
669.246	73.75
669.449	96.75
669.651	88.75
669.854	78.75
670.057	87.75
670.259	82.75
670.462	84.75
670.665	89.75
670.867	91.75
671.07	80.75
671.272	84.75
671.475	88.75
671.677	98.75
671.88	84.75
672.082	78.75
672.284	79.75
672.487	89.75
672.689	83.75
672.892	97.75
