Data from Ni(NO3)2@0.25M.TitratingCurve.Agarose3%dH2O.NegLispCup.LampEnergy10.LIBS07252019_HRD10591_18-05-18-566.txt Node
Date: Thu Jul 25 18:05:18 EDT 2019
User: cochatt
Spectrometer: HR+D1059
Trigger mode: 1
Integration Time (sec): 1.000000E-1
Scans to average: 1
Electric dark correction enabled: true
Nonlinearity correction enabled: false
Boxcar width: 0
XAxis mode: Wavelengths
Number of Pixels in Spectrum: 2048
>>>>>Begin Spectral Data<<<<<
223.165	-12.31
223.4	-12.31
223.635	-12.31
223.869	-18.31
224.104	-24.31
224.338	-6.31
224.573	-7.31
224.808	-8.31
225.042	-4.31
225.277	-6.31
225.511	-7.31
225.746	8.69
225.98	1.69
226.215	6.69
226.449	9.69
226.683	14.69
226.918	28.69
227.152	24.69
227.387	32.69
227.621	34.69
227.856	51.69
228.09	46.69
228.324	37.69
228.559	57.69
228.793	70.69
229.027	94.69
229.262	111.69
229.496	115.69
229.73	111.69
229.964	102.69
230.199	126.69
230.433	117.69
230.667	130.69
230.901	130.69
231.136	117.69
231.37	124.69
231.604	138.69
231.838	126.69
232.072	121.69
232.306	123.69
232.541	132.69
232.775	143.69
233.009	129.69
233.243	135.69
233.477	145.69
233.711	133.69
233.945	135.69
234.179	131.69
234.413	131.69
234.647	145.69
234.881	147.69
235.115	147.69
235.349	142.69
235.583	138.69
235.817	151.69
236.051	146.69
236.285	157.69
236.519	143.69
236.753	122.69
236.987	144.69
237.221	138.69
237.455	145.69
237.689	145.69
237.922	124.69
238.156	146.69
238.39	160.69
238.624	155.69
238.858	153.69
239.091	149.69
239.325	153.69
239.559	146.69
239.793	139.69
240.027	160.69
240.26	161.69
240.494	182.69
240.728	175.69
240.961	153.69
241.195	174.69
241.429	184.69
241.662	163.69
241.896	186.69
242.13	174.69
242.363	173.69
242.597	176.69
242.83	183.69
243.064	170.69
243.298	194.69
243.531	174.69
243.765	178.69
243.998	179.69
244.232	191.69
244.465	190.69
244.699	174.69
244.932	210.69
245.166	201.69
245.399	185.69
245.633	197.69
245.866	185.69
246.099	197.69
246.333	202.69
246.566	191.69
246.8	194.69
247.033	196.69
247.266	214.69
247.5	198.69
247.733	192.69
247.966	198.69
248.2	206.69
248.433	207.69
248.666	210.69
248.899	215.69
249.133	213.69
249.366	229.69
249.599	217.69
249.832	217.69
250.066	225.69
250.299	219.69
250.532	215.69
250.765	236.69
250.998	225.69
251.231	250.69
251.465	245.69
251.698	243.69
251.931	230.69
252.164	252.69
252.397	247.69
252.63	262.69
252.863	254.69
253.096	252.69
253.329	267.69
253.562	258.69
253.795	264.69
254.028	248.69
254.261	272.69
254.494	263.69
254.727	273.69
254.96	263.69
255.193	269.69
255.426	266.69
255.659	261.69
255.892	269.69
256.124	277.69
256.357	266.69
256.59	290.69
256.823	271.69
257.056	275.69
257.289	298.69
257.521	271.69
257.754	292.69
257.987	287.69
258.22	281.69
258.452	293.69
258.685	281.69
258.918	285.69
259.151	294.69
259.383	304.69
259.616	313.69
259.849	305.69
260.081	318.69
260.314	314.69
260.547	299.69
260.779	305.69
261.012	313.69
261.244	328.69
261.477	328.69
261.71	306.69
261.942	300.69
262.175	326.69
262.407	317.69
262.64	309.69
262.872	325.69
263.105	327.69
263.337	332.69
263.57	343.69
263.802	337.69
264.035	334.69
264.267	311.69
264.499	343.69
264.732	343.69
264.964	335.69
265.197	345.69
265.429	344.69
265.661	347.69
265.894	318.69
266.126	348.69
266.358	339.69
266.591	332.69
266.823	348.69
267.055	348.69
267.287	347.69
267.52	343.69
267.752	334.69
267.984	336.69
268.216	365.69
268.448	355.69
268.681	355.69
268.913	337.69
269.145	363.69
269.377	362.69
269.609	379.69
269.841	389.69
270.073	378.69
270.306	365.69
270.538	365.69
270.77	379.69
271.002	377.69
271.234	363.69
271.466	379.69
271.698	357.69
271.93	377.69
272.162	382.69
272.394	378.69
272.626	369.69
272.858	366.69
273.09	387.69
273.322	385.69
273.553	368.69
273.785	382.69
274.017	381.69
274.249	383.69
274.481	391.69
274.713	388.69
274.945	398.69
275.176	385.69
275.408	393.69
275.64	396.69
275.872	410.69
276.104	384.69
276.335	383.69
276.567	395.69
276.799	390.69
277.031	377.69
277.262	414.69
277.494	424.69
277.726	409.69
277.957	401.69
278.189	407.69
278.421	408.69
278.652	421.69
278.884	405.69
279.115	419.69
279.347	423.69
279.579	430.69
279.81	406.69
280.042	424.69
280.273	415.69
280.505	437.69
280.736	425.69
280.968	433.69
281.199	437.69
281.431	436.69
281.662	435.69
281.894	439.69
282.125	423.69
282.356	428.69
282.588	405.69
282.819	433.69
283.051	425.69
283.282	441.69
283.513	430.69
283.745	446.69
283.976	462.69
284.207	452.69
284.439	459.69
284.67	449.69
284.901	449.69
285.132	444.69
285.364	460.69
285.595	454.69
285.826	431.69
286.057	458.69
286.288	463.69
286.52	471.69
286.751	443.69
286.982	458.69
287.213	462.69
287.444	471.69
287.675	471.69
287.906	471.69
288.138	479.69
288.369	466.69
288.6	470.69
288.831	488.69
289.062	508.69
289.293	463.69
289.524	471.69
289.755	460.69
289.986	451.69
290.217	483.69
290.448	471.69
290.679	478.69
290.91	477.69
291.141	489.69
291.371	480.69
291.602	494.69
291.833	481.69
292.064	493.69
292.295	474.69
292.526	500.69
292.757	491.69
292.987	484.69
293.218	477.69
293.449	472.69
293.68	455.69
293.91	483.69
294.141	476.69
294.372	476.69
294.603	492.69
294.833	485.69
295.064	487.69
295.295	506.69
295.525	509.69
295.756	482.69
295.987	465.69
296.217	483.69
296.448	505.69
296.679	494.69
296.909	501.69
297.14	517.69
297.37	516.69
297.601	518.69
297.831	510.69
298.062	519.69
298.292	530.69
298.523	523.69
298.753	500.69
298.984	511.69
299.214	526.69
299.445	516.69
299.675	534.69
299.905	497.69
300.136	509.69
300.366	523.69
300.597	530.69
300.827	551.69
301.057	542.69
301.288	535.69
301.518	555.69
301.748	543.69
301.979	577.69
302.209	549.69
302.439	559.69
302.669	539.69
302.9	534.69
303.13	559.69
303.36	530.69
303.59	544.69
303.82	541.69
304.051	553.69
304.281	567.69
304.511	521.69
304.741	558.69
304.971	546.69
305.201	549.69
305.431	556.69
305.661	567.69
305.891	557.69
306.121	551.69
306.352	558.69
306.582	530.69
306.812	540.69
307.042	530.69
307.272	538.69
307.502	528.69
307.731	555.69
307.961	541.69
308.191	565.69
308.421	546.69
308.651	569.69
308.881	544.69
309.111	553.69
309.341	530.69
309.571	549.69
309.8	541.69
310.03	553.69
310.26	572.69
310.49	554.69
310.72	542.69
310.949	551.69
311.179	532.69
311.409	552.69
311.639	564.69
311.868	582.69
312.098	572.69
312.328	560.69
312.557	569.69
312.787	562.69
313.017	579.69
313.246	577.69
313.476	587.69
313.706	609.69
313.935	596.69
314.165	605.69
314.394	583.69
314.624	594.69
314.853	583.69
315.083	606.69
315.312	587.69
315.542	589.69
315.771	611.69
316.001	604.69
316.23	591.69
316.46	588.69
316.689	599.69
316.919	605.69
317.148	593.69
317.377	599.69
317.607	596.69
317.836	583.69
318.065	591.69
318.295	615.69
318.524	595.69
318.753	597.69
318.983	590.69
319.212	584.69
319.441	606.69
319.67	613.69
319.9	620.69
320.129	615.69
320.358	606.69
320.587	610.69
320.816	624.69
321.046	622.69
321.275	614.69
321.504	613.69
321.733	643.69
321.962	614.69
322.191	615.69
322.42	630.69
322.649	627.69
322.878	642.69
323.108	650.69
323.337	654.69
323.566	647.69
323.795	653.69
324.024	641.69
324.253	667.69
324.482	663.69
324.71	668.69
324.939	671.69
325.168	662.69
325.397	663.69
325.626	669.69
325.855	665.69
326.084	699.69
326.313	706.69
326.542	715.69
326.77	718.69
326.999	677.69
327.228	693.69
327.457	699.69
327.686	711.69
327.914	697.69
328.143	695.69
328.372	696.69
328.6	680.69
328.829	670.69
329.058	712.69
329.287	708.69
329.515	731.69
329.744	725.69
329.972	729.69
330.201	708.69
330.43	726.69
330.658	766.69
330.887	748.69
331.115	755.69
331.344	769.69
331.572	749.69
331.801	781.69
332.03	798.69
332.258	773.69
332.486	805.69
332.715	817.69
332.943	868.69
333.172	884.69
333.4	907.69
333.629	923.69
333.857	963.69
334.085	948.69
334.314	913.69
334.542	919.69
334.771	907.69
334.999	938.69
335.227	933.69
335.455	933.69
335.684	911.69
335.912	898.69
336.14	883.69
336.369	878.69
336.597	897.69
336.825	879.69
337.053	866.69
337.281	858.69
337.51	843.69
337.738	854.69
337.966	830.69
338.194	838.69
338.422	802.69
338.65	795.69
338.878	794.69
339.106	782.69
339.334	821.69
339.562	813.69
339.79	766.69
340.018	799.69
340.246	759.69
340.474	780.69
340.702	769.69
340.93	767.69
341.158	798.69
341.386	782.69
341.614	763.69
341.842	765.69
342.07	740.69
342.298	763.69
342.526	756.69
342.754	774.69
342.981	758.69
343.209	778.69
343.437	798.69
343.665	859.69
343.893	912.69
344.12	909.69
344.348	905.69
344.576	883.69
344.804	856.69
345.031	810.69
345.259	815.69
345.487	787.69
345.714	793.69
345.942	780.69
346.17	791.69
346.397	777.69
346.625	725.69
346.853	745.69
347.08	741.69
347.308	763.69
347.535	749.69
347.763	757.69
347.99	752.69
348.218	724.69
348.445	747.69
348.673	739.69
348.9	718.69
349.128	742.69
349.355	724.69
349.583	749.69
349.81	740.69
350.037	724.69
350.265	725.69
350.492	710.69
350.72	702.69
350.947	732.69
351.174	722.69
351.402	755.69
351.629	744.69
351.856	722.69
352.083	738.69
352.311	717.69
352.538	743.69
352.765	742.69
352.992	710.69
353.22	716.69
353.447	704.69
353.674	711.69
353.901	699.69
354.128	713.69
354.355	696.69
354.583	686.69
354.81	684.69
355.037	699.69
355.264	713.69
355.491	710.69
355.718	716.69
355.945	700.69
356.172	726.69
356.399	729.69
356.626	707.69
356.853	756.69
357.08	736.69
357.307	718.69
357.534	720.69
357.761	707.69
357.988	711.69
358.215	715.69
358.441	709.69
358.668	713.69
358.895	695.69
359.122	698.69
359.349	715.69
359.576	695.69
359.802	722.69
360.029	707.69
360.256	711.69
360.483	715.69
360.709	702.69
360.936	718.69
361.163	732.69
361.39	712.69
361.616	725.69
361.843	732.69
362.07	734.69
362.296	730.69
362.523	722.69
362.749	723.69
362.976	707.69
363.203	705.69
363.429	715.69
363.656	697.69
363.882	703.69
364.109	657.69
364.335	705.69
364.562	709.69
364.788	706.69
365.015	705.69
365.241	707.69
365.468	681.69
365.694	711.69
365.92	733.69
366.147	703.69
366.373	706.69
366.599	704.69
366.826	700.69
367.052	702.69
367.278	698.69
367.505	724.69
367.731	712.69
367.957	707.69
368.184	723.69
368.41	741.69
368.636	708.69
368.862	727.69
369.089	717.69
369.315	719.69
369.541	723.69
369.767	775.69
369.993	740.69
370.219	709.69
370.445	731.69
370.672	723.69
370.898	747.69
371.124	764.69
371.35	761.69
371.576	740.69
371.802	756.69
372.028	747.69
372.254	762.69
372.48	757.69
372.706	753.69
372.932	794.69
373.158	781.69
373.384	793.69
373.61	738.69
373.835	775.69
374.061	762.69
374.287	767.69
374.513	769.69
374.739	774.69
374.965	838.69
375.191	846.69
375.416	848.69
375.642	801.69
375.868	794.69
376.094	777.69
376.319	763.69
376.545	765.69
376.771	763.69
376.997	775.69
377.222	782.69
377.448	747.69
377.674	729.69
377.899	776.69
378.125	738.69
378.35	763.69
378.576	762.69
378.802	777.69
379.027	728.69
379.253	744.69
379.478	706.69
379.704	725.69
379.929	739.69
380.155	731.69
380.38	765.69
380.606	750.69
380.831	749.69
381.057	757.69
381.282	758.69
381.507	759.69
381.733	748.69
381.958	742.69
382.184	756.69
382.409	771.69
382.634	781.69
382.86	779.69
383.085	805.69
383.31	791.69
383.535	805.69
383.761	799.69
383.986	824.69
384.211	854.69
384.436	814.69
384.662	851.69
384.887	869.69
385.112	871.69
385.337	871.69
385.562	885.69
385.787	858.69
386.013	899.69
386.238	886.69
386.463	895.69
386.688	907.69
386.913	885.69
387.138	875.69
387.363	888.69
387.588	868.69
387.813	895.69
388.038	887.69
388.263	874.69
388.488	921.69
388.713	891.69
388.938	876.69
389.163	869.69
389.387	902.69
389.612	883.69
389.837	887.69
390.062	864.69
390.287	867.69
390.512	873.69
390.736	877.69
390.961	932.69
391.186	933.69
391.411	931.69
391.636	961.69
391.86	975.69
392.085	1000.69
392.31	983.69
392.534	979.69
392.759	978.69
392.984	969.69
393.208	939.69
393.433	941.69
393.658	950.69
393.882	928.69
394.107	963.69
394.331	924.69
394.556	955.69
394.78	979.69
395.005	978.69
395.229	980.69
395.454	988.69
395.678	1024.69
395.903	979.69
396.127	986.69
396.352	968.69
396.576	980.69
396.801	995.69
397.025	958.69
397.249	973.69
397.474	1004.69
397.698	1033.69
397.922	1019.69
398.147	1002.69
398.371	1076.69
398.595	1099.69
398.82	1133.69
399.044	1198.69
399.268	1293.69
399.492	1429.69
399.717	1551.69
399.941	1580.69
400.165	1490.69
400.389	1358.69
400.613	1295.69
400.837	1227.69
401.062	1179.69
401.286	1151.69
401.51	1149.69
401.734	1155.69
401.958	1157.69
402.182	1172.69
402.406	1149.69
402.63	1176.69
402.854	1167.69
403.078	1166.69
403.302	1197.69
403.526	1244.69
403.75	1203.69
403.974	1264.69
404.198	1223.69
404.422	1244.69
404.645	1254.69
404.869	1217.69
405.093	1237.69
405.317	1213.69
405.541	1262.69
405.765	1233.69
405.988	1238.69
406.212	1237.69
406.436	1253.69
406.66	1263.69
406.883	1273.69
407.107	1335.69
407.331	1450.69
407.555	1434.69
407.778	1415.69
408.002	1396.69
408.226	1372.69
408.449	1342.69
408.673	1293.69
408.896	1274.69
409.12	1305.69
409.344	1288.69
409.567	1286.69
409.791	1286.69
410.014	1273.69
410.238	1250.69
410.461	1265.69
410.685	1201.69
410.908	1208.69
411.132	1185.69
411.355	1163.69
411.578	1181.69
411.802	1185.69
412.025	1187.69
412.249	1207.69
412.472	1214.69
412.695	1141.69
412.919	1135.69
413.142	1167.69
413.365	1147.69
413.589	1175.69
413.812	1142.69
414.035	1124.69
414.258	1153.69
414.482	1150.69
414.705	1173.69
414.928	1191.69
415.151	1139.69
415.374	1159.69
415.597	1133.69
415.821	1095.69
416.044	1077.69
416.267	1134.69
416.49	1112.69
416.713	1117.69
416.936	1098.69
417.159	1085.69
417.382	1141.69
417.605	1146.69
417.828	1110.69
418.051	1121.69
418.274	1116.69
418.497	1108.69
418.72	1183.69
418.943	1146.69
419.166	1230.69
419.389	1285.69
419.611	1272.69
419.834	1224.69
420.057	1241.69
420.28	1161.69
420.503	1124.69
420.726	1153.69
420.948	1149.69
421.171	1126.69
421.394	1145.69
421.617	1146.69
421.839	1146.69
422.062	1153.69
422.285	1151.69
422.507	1155.69
422.73	1149.69
422.953	1130.69
423.175	1157.69
423.398	1141.69
423.621	1163.69
423.843	1178.69
424.066	1200.69
424.288	1171.69
424.511	1177.69
424.733	1147.69
424.956	1145.69
425.178	1182.69
425.401	1161.69
425.623	1142.69
425.846	1124.69
426.068	1126.69
426.291	1114.69
426.513	1113.69
426.735	1082.69
426.958	1059.69
427.18	1051.69
427.402	1078.69
427.625	1073.69
427.847	1070.69
428.069	1037.69
428.292	1054.69
428.514	1041.69
428.736	1023.69
428.958	1057.69
429.181	1017.69
429.403	977.69
429.625	991.69
429.847	1009.69
430.069	1006.69
430.292	1032.69
430.514	996.69
430.736	1039.69
430.958	1000.69
431.18	991.69
431.402	1039.69
431.624	1012.69
431.846	1027.69
432.068	1034.69
432.29	1051.69
432.512	1048.69
432.734	1024.69
432.956	1026.69
433.178	1038.69
433.4	1039.69
433.622	1048.69
433.844	1039.69
434.066	1062.69
434.287	1063.69
434.509	1134.69
434.731	1109.69
434.953	1146.69
435.175	1161.69
435.397	1160.69
435.618	1080.69
435.84	1091.69
436.062	1050.69
436.284	1046.69
436.505	1048.69
436.727	1043.69
436.949	1024.69
437.17	1067.69
437.392	1054.69
437.614	1016.69
437.835	988.69
438.057	1010.69
438.278	972.69
438.5	1025.69
438.721	1009.69
438.943	994.69
439.165	1009.69
439.386	1024.69
439.608	1041.69
439.829	1037.69
440.05	1033.69
440.272	1046.69
440.493	1044.69
440.715	1062.69
440.936	1106.69
441.158	1134.69
441.379	1150.69
441.6	1196.69
441.822	1184.69
442.043	1173.69
442.264	1139.69
442.486	1140.69
442.707	1143.69
442.928	1119.69
443.149	1151.69
443.371	1143.69
443.592	1161.69
443.813	1169.69
444.034	1172.69
444.255	1219.69
444.476	1262.69
444.698	1316.69
444.919	1311.69
445.14	1387.69
445.361	1324.69
445.582	1253.69
445.803	1164.69
446.024	1124.69
446.245	1124.69
446.466	1082.69
446.687	1072.69
446.908	1097.69
447.129	1033.69
447.35	1030.69
447.571	1010.69
447.792	994.69
448.013	981.69
448.234	981.69
448.455	976.69
448.675	994.69
448.896	978.69
449.117	955.69
449.338	965.69
449.559	942.69
449.779	986.69
450	957.69
450.221	953.69
450.442	999.69
450.662	975.69
450.883	961.69
451.104	985.69
451.324	971.69
451.545	970.69
451.766	961.69
451.986	960.69
452.207	939.69
452.428	946.69
452.648	974.69
452.869	922.69
453.089	916.69
453.31	949.69
453.53	947.69
453.751	901.69
453.971	925.69
454.192	920.69
454.412	886.69
454.633	923.69
454.853	914.69
455.073	905.69
455.294	929.69
455.514	871.69
455.734	887.69
455.955	909.69
456.175	895.69
456.395	884.69
456.616	902.69
456.836	935.69
457.056	897.69
457.276	877.69
457.497	885.69
457.717	895.69
457.937	894.69
458.157	908.69
458.377	908.69
458.598	938.69
458.818	941.69
459.038	971.69
459.258	1028.69
459.478	1033.69
459.698	1084.69
459.918	1121.69
460.138	1123.69
460.358	1159.69
460.578	1193.69
460.798	1225.69
461.018	1190.69
461.238	1220.69
461.458	1209.69
461.678	1229.69
461.898	1236.69
462.118	1272.69
462.338	1303.69
462.558	1342.69
462.777	1401.69
462.997	1471.69
463.217	1550.69
463.437	1555.69
463.657	1496.69
463.876	1468.69
464.096	1421.69
464.316	1370.69
464.536	1389.69
464.755	1374.69
464.975	1339.69
465.195	1239.69
465.414	1237.69
465.634	1125.69
465.854	1095.69
466.073	1082.69
466.293	1043.69
466.512	1046.69
466.732	982.69
466.951	1017.69
467.171	999.69
467.391	992.69
467.61	1006.69
467.829	1006.69
468.049	971.69
468.268	947.69
468.488	958.69
468.707	969.69
468.927	972.69
469.146	975.69
469.365	997.69
469.585	1007.69
469.804	1003.69
470.023	1015.69
470.243	1021.69
470.462	1030.69
470.681	1037.69
470.901	1052.69
471.12	1007.69
471.339	1025.69
471.558	994.69
471.777	1005.69
471.997	975.69
472.216	967.69
472.435	931.69
472.654	938.69
472.873	961.69
473.092	962.69
473.311	925.69
473.53	945.69
473.749	937.69
473.968	914.69
474.187	934.69
474.406	935.69
474.625	953.69
474.844	939.69
475.063	941.69
475.282	978.69
475.501	938.69
475.72	974.69
475.939	953.69
476.158	979.69
476.377	993.69
476.596	975.69
476.814	997.69
477.033	955.69
477.252	994.69
477.471	1040.69
477.69	1081.69
477.908	1064.69
478.127	1113.69
478.346	1118.69
478.564	1165.69
478.783	1136.69
479.002	1192.69
479.22	1209.69
479.439	1144.69
479.658	1155.69
479.876	1147.69
480.095	1182.69
480.313	1219.69
480.532	1230.69
480.751	1188.69
480.969	1170.69
481.188	1186.69
481.406	1139.69
481.624	1105.69
481.843	1093.69
482.061	1079.69
482.28	1076.69
482.498	1068.69
482.717	1068.69
482.935	1075.69
483.153	1053.69
483.372	1071.69
483.59	1061.69
483.808	1082.69
484.027	1067.69
484.245	1071.69
484.463	1069.69
484.681	1121.69
484.9	1095.69
485.118	1101.69
485.336	1096.69
485.554	1110.69
485.772	1102.69
485.99	1085.69
486.209	1098.69
486.427	1145.69
486.645	1123.69
486.863	1119.69
487.081	1105.69
487.299	1128.69
487.517	1111.69
487.735	1126.69
487.953	1146.69
488.171	1112.69
488.389	1104.69
488.607	1100.69
488.825	1091.69
489.043	1114.69
489.261	1097.69
489.479	1086.69
489.696	1102.69
489.914	1091.69
490.132	1106.69
490.35	1154.69
490.568	1118.69
490.786	1127.69
491.003	1143.69
491.221	1148.69
491.439	1129.69
491.657	1173.69
491.874	1176.69
492.092	1169.69
492.31	1217.69
492.527	1206.69
492.745	1149.69
492.963	1182.69
493.18	1157.69
493.398	1149.69
493.615	1187.69
493.833	1178.69
494.05	1208.69
494.268	1168.69
494.485	1206.69
494.703	1201.69
494.92	1223.69
495.138	1206.69
495.355	1229.69
495.573	1217.69
495.79	1237.69
496.008	1268.69
496.225	1249.69
496.442	1261.69
496.66	1285.69
496.877	1284.69
497.094	1326.69
497.312	1343.69
497.529	1365.69
497.746	1429.69
497.963	1491.69
498.181	1486.69
498.398	1615.69
498.615	1685.69
498.832	1794.69
499.049	1873.69
499.267	2031.69
499.484	2211.69
499.701	2420.69
499.918	2658.69
500.135	2948.69
500.352	3134.69
500.569	3277.69
500.786	3255.69
501.003	3114.69
501.22	2884.69
501.437	2592.69
501.654	2330.69
501.871	2214.69
502.088	2015.69
502.305	1901.69
502.522	1825.69
502.739	1703.69
502.956	1614.69
503.172	1571.69
503.389	1552.69
503.606	1422.69
503.823	1438.69
504.04	1402.69
504.256	1410.69
504.473	1425.69
504.69	1399.69
504.907	1368.69
505.123	1341.69
505.34	1288.69
505.557	1215.69
505.773	1207.69
505.99	1183.69
506.207	1129.69
506.423	1099.69
506.64	1078.69
506.856	1103.69
507.073	1101.69
507.289	1089.69
507.506	1086.69
507.722	1063.69
507.939	1065.69
508.155	1061.69
508.372	1027.69
508.588	1035.69
508.805	1040.69
509.021	1007.69
509.238	1008.69
509.454	1009.69
509.67	974.69
509.887	1005.69
510.103	983.69
510.319	990.69
510.536	963.69
510.752	958.69
510.968	975.69
511.184	964.69
511.401	961.69
511.617	959.69
511.833	971.69
512.049	966.69
512.265	971.69
512.481	968.69
512.698	968.69
512.914	960.69
513.13	952.69
513.346	970.69
513.562	953.69
513.778	974.69
513.994	949.69
514.21	969.69
514.426	982.69
514.642	969.69
514.858	1001.69
515.074	1013.69
515.29	1008.69
515.506	1035.69
515.721	1049.69
515.937	1070.69
516.153	1056.69
516.369	1111.69
516.585	1127.69
516.801	1144.69
517.016	1178.69
517.232	1219.69
517.448	1249.69
517.664	1334.69
517.879	1319.69
518.095	1318.69
518.311	1301.69
518.527	1240.69
518.742	1226.69
518.958	1162.69
519.173	1124.69
519.389	1109.69
519.605	1053.69
519.82	1052.69
520.036	1047.69
520.251	1002.69
520.467	1026.69
520.682	1009.69
520.898	977.69
521.113	959.69
521.329	967.69
521.544	947.69
521.76	945.69
521.975	920.69
522.19	934.69
522.406	967.69
522.621	927.69
522.836	937.69
523.052	917.69
523.267	909.69
523.482	894.69
523.698	910.69
523.913	913.69
524.128	891.69
524.343	890.69
524.559	879.69
524.774	902.69
524.989	909.69
525.204	905.69
525.419	889.69
525.634	882.69
525.849	891.69
526.064	881.69
526.28	857.69
526.495	881.69
526.71	885.69
526.925	857.69
527.14	856.69
527.355	849.69
527.57	875.69
527.785	890.69
527.999	891.69
528.214	859.69
528.429	858.69
528.644	873.69
528.859	894.69
529.074	893.69
529.289	894.69
529.503	886.69
529.718	886.69
529.933	850.69
530.148	845.69
530.363	853.69
530.577	846.69
530.792	859.69
531.007	863.69
531.221	881.69
531.436	885.69
531.651	891.69
531.865	882.69
532.08	874.69
532.295	882.69
532.509	841.69
532.724	861.69
532.938	847.69
533.153	845.69
533.367	855.69
533.582	849.69
533.796	853.69
534.011	884.69
534.225	853.69
534.44	868.69
534.654	874.69
534.868	851.69
535.083	857.69
535.297	873.69
535.511	848.69
535.726	853.69
535.94	841.69
536.154	821.69
536.369	820.69
536.583	819.69
536.797	802.69
537.011	805.69
537.225	827.69
537.44	783.69
537.654	823.69
537.868	823.69
538.082	799.69
538.296	794.69
538.51	772.69
538.724	809.69
538.938	794.69
539.153	805.69
539.367	801.69
539.581	790.69
539.795	775.69
540.009	758.69
540.222	783.69
540.436	779.69
540.65	780.69
540.864	760.69
541.078	773.69
541.292	802.69
541.506	793.69
541.72	822.69
541.934	815.69
542.147	809.69
542.361	775.69
542.575	783.69
542.789	778.69
543.002	766.69
543.216	777.69
543.43	785.69
543.644	784.69
543.857	757.69
544.071	790.69
544.285	802.69
544.498	791.69
544.712	794.69
544.925	805.69
545.139	787.69
545.352	827.69
545.566	799.69
545.779	795.69
545.993	818.69
546.206	830.69
546.42	805.69
546.633	803.69
546.847	809.69
547.06	799.69
547.274	846.69
547.487	780.69
547.7	813.69
547.914	814.69
548.127	827.69
548.34	825.69
548.554	806.69
548.767	816.69
548.98	821.69
549.193	825.69
549.407	811.69
549.62	813.69
549.833	849.69
550.046	822.69
550.259	809.69
550.473	814.69
550.686	841.69
550.899	809.69
551.112	818.69
551.325	805.69
551.538	797.69
551.751	796.69
551.964	784.69
552.177	814.69
552.39	809.69
552.603	845.69
552.816	843.69
553.029	861.69
553.242	845.69
553.455	903.69
553.667	863.69
553.88	886.69
554.093	853.69
554.306	835.69
554.519	825.69
554.732	812.69
554.944	802.69
555.157	754.69
555.37	757.69
555.583	753.69
555.795	744.69
556.008	723.69
556.221	719.69
556.433	731.69
556.646	738.69
556.859	717.69
557.071	700.69
557.284	726.69
557.496	686.69
557.709	685.69
557.921	686.69
558.134	676.69
558.346	667.69
558.559	678.69
558.771	690.69
558.984	691.69
559.196	671.69
559.409	654.69
559.621	661.69
559.833	658.69
560.046	641.69
560.258	672.69
560.47	667.69
560.683	663.69
560.895	659.69
561.107	646.69
561.32	649.69
561.532	673.69
561.744	655.69
561.956	673.69
562.168	660.69
562.381	665.69
562.593	686.69
562.805	660.69
563.017	666.69
563.229	683.69
563.441	670.69
563.653	678.69
563.865	691.69
564.077	705.69
564.289	697.69
564.501	675.69
564.713	708.69
564.925	731.69
565.137	717.69
565.349	736.69
565.561	781.69
565.773	802.69
565.985	829.69
566.197	868.69
566.408	937.69
566.62	961.69
566.832	1017.69
567.044	1043.69
567.255	1017.69
567.467	1098.69
567.679	1143.69
567.891	1157.69
568.102	1151.69
568.314	1117.69
568.526	1031.69
568.737	948.69
568.949	897.69
569.161	838.69
569.372	805.69
569.584	783.69
569.795	745.69
570.007	705.69
570.218	680.69
570.43	709.69
570.641	685.69
570.853	703.69
571.064	652.69
571.276	672.69
571.487	661.69
571.698	639.69
571.91	637.69
572.121	619.69
572.333	595.69
572.544	578.69
572.755	602.69
572.966	565.69
573.178	577.69
573.389	582.69
573.6	560.69
573.811	565.69
574.023	566.69
574.234	564.69
574.445	546.69
574.656	541.69
574.867	559.69
575.078	535.69
575.289	563.69
575.501	550.69
575.712	545.69
575.923	533.69
576.134	515.69
576.345	497.69
576.556	525.69
576.767	515.69
576.978	513.69
577.188	503.69
577.399	511.69
577.61	503.69
577.821	499.69
578.032	491.69
578.243	492.69
578.454	500.69
578.665	513.69
578.875	483.69
579.086	485.69
579.297	484.69
579.508	473.69
579.718	482.69
579.929	502.69
580.14	459.69
580.35	489.69
580.561	473.69
580.772	481.69
580.982	493.69
581.193	449.69
581.403	476.69
581.614	457.69
581.825	463.69
582.035	438.69
582.246	452.69
582.456	459.69
582.667	435.69
582.877	448.69
583.087	448.69
583.298	461.69
583.508	440.69
583.719	446.69
583.929	445.69
584.139	455.69
584.35	462.69
584.56	456.69
584.77	467.69
584.981	430.69
585.191	450.69
585.401	470.69
585.611	423.69
585.821	438.69
586.032	435.69
586.242	431.69
586.452	445.69
586.662	422.69
586.872	445.69
587.082	429.69
587.292	441.69
587.502	445.69
587.713	449.69
587.923	422.69
588.133	436.69
588.343	442.69
588.553	435.69
588.762	437.69
588.972	434.69
589.182	451.69
589.392	429.69
589.602	462.69
589.812	457.69
590.022	449.69
590.232	428.69
590.441	444.69
590.651	422.69
590.861	437.69
591.071	455.69
591.281	468.69
591.49	453.69
591.7	463.69
591.91	462.69
592.119	475.69
592.329	478.69
592.539	490.69
592.748	513.69
592.958	513.69
593.167	501.69
593.377	532.69
593.587	547.69
593.796	544.69
594.006	551.69
594.215	534.69
594.424	542.69
594.634	536.69
594.843	507.69
595.053	493.69
595.262	477.69
595.472	461.69
595.681	472.69
595.89	458.69
596.1	450.69
596.309	429.69
596.518	411.69
596.727	416.69
596.937	421.69
597.146	409.69
597.355	416.69
597.564	398.69
597.774	398.69
597.983	394.69
598.192	397.69
598.401	378.69
598.61	377.69
598.819	388.69
599.028	373.69
599.237	366.69
599.446	369.69
599.655	367.69
599.864	361.69
600.073	362.69
600.282	366.69
600.491	379.69
600.7	349.69
600.909	355.69
601.118	358.69
601.327	349.69
601.536	339.69
601.745	378.69
601.953	356.69
602.162	351.69
602.371	356.69
602.58	356.69
602.789	354.69
602.997	339.69
603.206	344.69
603.415	350.69
603.623	351.69
603.832	353.69
604.041	345.69
604.249	338.69
604.458	338.69
604.666	346.69
604.875	334.69
605.084	342.69
605.292	343.69
605.501	315.69
605.709	342.69
605.918	355.69
606.126	321.69
606.334	330.69
606.543	342.69
606.751	342.69
606.96	340.69
607.168	337.69
607.376	315.69
607.585	321.69
607.793	343.69
608.001	340.69
608.21	352.69
608.418	331.69
608.626	338.69
608.834	345.69
609.043	340.69
609.251	335.69
609.459	308.69
609.667	313.69
609.875	323.69
610.083	336.69
610.291	330.69
610.499	322.69
610.707	327.69
610.916	327.69
611.124	328.69
611.332	327.69
611.54	331.69
611.748	323.69
611.955	318.69
612.163	323.69
612.371	344.69
612.579	324.69
612.787	325.69
612.995	314.69
613.203	330.69
613.411	305.69
613.618	310.69
613.826	317.69
614.034	323.69
614.242	311.69
614.449	324.69
614.657	311.69
614.865	321.69
615.072	330.69
615.28	301.69
615.488	307.69
615.695	309.69
615.903	321.69
616.111	313.69
616.318	318.69
616.526	305.69
616.733	317.69
616.941	323.69
617.148	309.69
617.356	317.69
617.563	308.69
617.771	285.69
617.978	312.69
618.185	291.69
618.393	315.69
618.6	314.69
618.807	298.69
619.015	315.69
619.222	283.69
619.429	289.69
619.637	294.69
619.844	302.69
620.051	307.69
620.258	302.69
620.466	292.69
620.673	283.69
620.88	285.69
621.087	294.69
621.294	303.69
621.501	293.69
621.708	290.69
621.915	285.69
622.122	275.69
622.329	290.69
622.536	279.69
622.743	279.69
622.95	269.69
623.157	288.69
623.364	273.69
623.571	294.69
623.778	267.69
623.985	285.69
624.192	279.69
624.399	282.69
624.606	270.69
624.812	274.69
625.019	278.69
625.226	283.69
625.433	269.69
625.639	290.69
625.846	260.69
626.053	268.69
626.259	251.69
626.466	288.69
626.673	265.69
626.879	272.69
627.086	276.69
627.293	265.69
627.499	259.69
627.706	271.69
627.912	266.69
628.119	249.69
628.325	249.69
628.532	258.69
628.738	257.69
628.945	252.69
629.151	264.69
629.357	262.69
629.564	256.69
629.77	260.69
629.976	245.69
630.183	244.69
630.389	258.69
630.595	242.69
630.802	237.69
631.008	257.69
631.214	251.69
631.42	260.69
631.627	237.69
631.833	243.69
632.039	219.69
632.245	229.69
632.451	228.69
632.657	246.69
632.863	236.69
633.069	222.69
633.275	236.69
633.481	225.69
633.688	212.69
633.893	247.69
634.099	229.69
634.305	218.69
634.511	242.69
634.717	231.69
634.923	234.69
635.129	224.69
635.335	232.69
635.541	218.69
635.747	234.69
635.952	234.69
636.158	232.69
636.364	216.69
636.57	226.69
636.775	232.69
636.981	236.69
637.187	219.69
637.392	227.69
637.598	210.69
637.804	244.69
638.009	215.69
638.215	233.69
638.421	219.69
638.626	237.69
638.832	213.69
639.037	211.69
639.243	231.69
639.448	205.69
639.654	219.69
639.859	212.69
640.065	217.69
640.27	225.69
640.475	199.69
640.681	214.69
640.886	219.69
641.091	226.69
641.297	205.69
641.502	205.69
641.707	196.69
641.913	216.69
642.118	214.69
642.323	211.69
642.528	210.69
642.733	203.69
642.939	215.69
643.144	211.69
643.349	201.69
643.554	205.69
643.759	188.69
643.964	205.69
644.169	199.69
644.374	198.69
644.579	207.69
644.784	194.69
644.989	203.69
645.194	211.69
645.399	212.69
645.604	201.69
645.809	191.69
646.014	197.69
646.219	190.69
646.423	206.69
646.628	198.69
646.833	207.69
647.038	197.69
647.243	190.69
647.447	201.69
647.652	204.69
647.857	190.69
648.062	213.69
648.266	205.69
648.471	193.69
648.676	209.69
648.88	189.69
649.085	231.69
649.289	203.69
649.494	199.69
649.698	201.69
649.903	203.69
650.107	187.69
650.312	204.69
650.516	189.69
650.721	168.69
650.925	183.69
651.13	183.69
651.334	161.69
651.539	167.69
651.743	170.69
651.947	164.69
652.152	177.69
652.356	169.69
652.56	161.69
652.764	161.69
652.969	157.69
653.173	158.69
653.377	158.69
653.581	157.69
653.785	173.69
653.99	156.69
654.194	147.69
654.398	158.69
654.602	151.69
654.806	142.69
655.01	153.69
655.214	145.69
655.418	145.69
655.622	137.69
655.826	143.69
656.03	138.69
656.234	142.69
656.438	143.69
656.642	129.69
656.846	147.69
657.049	127.69
657.253	122.69
657.457	117.69
657.661	129.69
657.865	121.69
658.068	134.69
658.272	124.69
658.476	120.69
658.68	120.69
658.883	110.69
659.087	102.69
659.291	110.69
659.494	115.69
659.698	111.69
659.901	104.69
660.105	116.69
660.309	118.69
660.512	98.69
660.716	91.69
660.919	101.69
661.123	90.69
661.326	99.69
661.53	88.69
661.733	100.69
661.936	102.69
662.14	89.69
662.343	99.69
662.546	83.69
662.75	97.69
662.953	85.69
663.156	77.69
663.36	96.69
663.563	94.69
663.766	87.69
663.969	88.69
664.173	79.69
664.376	75.69
664.579	80.69
664.782	94.69
664.985	88.69
665.188	85.69
665.391	77.69
665.594	81.69
665.797	92.69
666	84.69
666.203	89.69
666.406	93.69
666.609	78.69
666.812	82.69
667.015	82.69
667.218	83.69
667.421	78.69
667.624	81.69
667.827	99.69
668.03	85.69
668.232	82.69
668.435	87.69
668.638	82.69
668.841	78.69
669.043	83.69
669.246	96.69
669.449	84.69
669.651	79.69
669.854	83.69
670.057	82.69
670.259	77.69
670.462	90.69
670.665	80.69
670.867	86.69
671.07	82.69
671.272	89.69
671.475	82.69
671.677	94.69
671.88	86.69
672.082	85.69
672.284	83.69
672.487	82.69
672.689	91.69
672.892	77.69
