Data from Ni(NO3)2@0.125M.TitratingCurve.Agarose3%dH2O.NegLispCup.LampEnergy10.LIBS07252019_HRD10591_18-11-36-569.txt Node
Date: Thu Jul 25 18:11:36 EDT 2019
User: cochatt
Spectrometer: HR+D1059
Trigger mode: 1
Integration Time (sec): 1.000000E-1
Scans to average: 1
Electric dark correction enabled: true
Nonlinearity correction enabled: false
Boxcar width: 0
XAxis mode: Wavelengths
Number of Pixels in Spectrum: 2048
>>>>>Begin Spectral Data<<<<<
223.165	-16.38
223.4	-16.38
223.635	-16.38
223.869	-15.38
224.104	-31.38
224.338	-17.38
224.573	-10.38
224.808	-24.38
225.042	-8.38
225.277	-7.38
225.511	4.62
225.746	-1.38
225.98	14.62
226.215	15.62
226.449	23.62
226.683	19.62
226.918	26.62
227.152	27.62
227.387	32.62
227.621	45.62
227.856	46.62
228.09	60.62
228.324	54.62
228.559	63.62
228.793	64.62
229.027	108.62
229.262	122.62
229.496	126.62
229.73	126.62
229.964	114.62
230.199	134.62
230.433	137.62
230.667	131.62
230.901	143.62
231.136	147.62
231.37	135.62
231.604	141.62
231.838	145.62
232.072	146.62
232.306	164.62
232.541	172.62
232.775	144.62
233.009	178.62
233.243	152.62
233.477	154.62
233.711	154.62
233.945	156.62
234.179	159.62
234.413	158.62
234.647	164.62
234.881	162.62
235.115	165.62
235.349	156.62
235.583	168.62
235.817	163.62
236.051	163.62
236.285	156.62
236.519	160.62
236.753	168.62
236.987	165.62
237.221	156.62
237.455	181.62
237.689	171.62
237.922	174.62
238.156	185.62
238.39	160.62
238.624	168.62
238.858	190.62
239.091	164.62
239.325	182.62
239.559	173.62
239.793	179.62
240.027	180.62
240.26	187.62
240.494	186.62
240.728	203.62
240.961	193.62
241.195	191.62
241.429	202.62
241.662	221.62
241.896	210.62
242.13	194.62
242.363	200.62
242.597	201.62
242.83	207.62
243.064	204.62
243.298	219.62
243.531	207.62
243.765	205.62
243.998	226.62
244.232	236.62
244.465	221.62
244.699	227.62
244.932	224.62
245.166	226.62
245.399	223.62
245.633	221.62
245.866	226.62
246.099	216.62
246.333	233.62
246.566	223.62
246.8	221.62
247.033	231.62
247.266	229.62
247.5	228.62
247.733	258.62
247.966	252.62
248.2	242.62
248.433	249.62
248.666	254.62
248.899	255.62
249.133	243.62
249.366	260.62
249.599	263.62
249.832	276.62
250.066	257.62
250.299	270.62
250.532	278.62
250.765	266.62
250.998	256.62
251.231	283.62
251.465	280.62
251.698	280.62
251.931	278.62
252.164	296.62
252.397	290.62
252.63	266.62
252.863	293.62
253.096	270.62
253.329	287.62
253.562	280.62
253.795	283.62
254.028	301.62
254.261	286.62
254.494	271.62
254.727	293.62
254.96	294.62
255.193	297.62
255.426	290.62
255.659	303.62
255.892	318.62
256.124	317.62
256.357	309.62
256.59	319.62
256.823	297.62
257.056	318.62
257.289	325.62
257.521	319.62
257.754	311.62
257.987	303.62
258.22	306.62
258.452	309.62
258.685	312.62
258.918	327.62
259.151	327.62
259.383	305.62
259.616	320.62
259.849	316.62
260.081	340.62
260.314	329.62
260.547	337.62
260.779	345.62
261.012	343.62
261.244	334.62
261.477	336.62
261.71	344.62
261.942	351.62
262.175	343.62
262.407	352.62
262.64	367.62
262.872	346.62
263.105	356.62
263.337	349.62
263.57	360.62
263.802	366.62
264.035	366.62
264.267	364.62
264.499	379.62
264.732	378.62
264.964	374.62
265.197	370.62
265.429	362.62
265.661	368.62
265.894	354.62
266.126	378.62
266.358	368.62
266.591	358.62
266.823	396.62
267.055	382.62
267.287	383.62
267.52	393.62
267.752	385.62
267.984	376.62
268.216	393.62
268.448	386.62
268.681	389.62
268.913	398.62
269.145	405.62
269.377	392.62
269.609	403.62
269.841	403.62
270.073	391.62
270.306	393.62
270.538	394.62
270.77	389.62
271.002	390.62
271.234	386.62
271.466	424.62
271.698	398.62
271.93	412.62
272.162	411.62
272.394	390.62
272.626	418.62
272.858	409.62
273.09	404.62
273.322	427.62
273.553	418.62
273.785	413.62
274.017	410.62
274.249	428.62
274.481	432.62
274.713	438.62
274.945	438.62
275.176	442.62
275.408	437.62
275.64	447.62
275.872	425.62
276.104	458.62
276.335	424.62
276.567	427.62
276.799	445.62
277.031	468.62
277.262	454.62
277.494	438.62
277.726	447.62
277.957	447.62
278.189	461.62
278.421	467.62
278.652	471.62
278.884	458.62
279.115	473.62
279.347	467.62
279.579	476.62
279.81	478.62
280.042	463.62
280.273	484.62
280.505	470.62
280.736	470.62
280.968	498.62
281.199	490.62
281.431	498.62
281.662	499.62
281.894	494.62
282.125	494.62
282.356	492.62
282.588	485.62
282.819	511.62
283.051	494.62
283.282	496.62
283.513	503.62
283.745	503.62
283.976	519.62
284.207	506.62
284.439	489.62
284.67	511.62
284.901	514.62
285.132	525.62
285.364	526.62
285.595	531.62
285.826	531.62
286.057	538.62
286.288	513.62
286.52	522.62
286.751	516.62
286.982	551.62
287.213	531.62
287.444	556.62
287.675	544.62
287.906	527.62
288.138	548.62
288.369	539.62
288.6	546.62
288.831	532.62
289.062	550.62
289.293	556.62
289.524	558.62
289.755	544.62
289.986	575.62
290.217	548.62
290.448	560.62
290.679	558.62
290.91	562.62
291.141	555.62
291.371	538.62
291.602	571.62
291.833	556.62
292.064	547.62
292.295	561.62
292.526	557.62
292.757	540.62
292.987	563.62
293.218	537.62
293.449	550.62
293.68	562.62
293.91	537.62
294.141	544.62
294.372	568.62
294.603	572.62
294.833	556.62
295.064	594.62
295.295	567.62
295.525	584.62
295.756	570.62
295.987	564.62
296.217	574.62
296.448	593.62
296.679	573.62
296.909	576.62
297.14	557.62
297.37	600.62
297.601	615.62
297.831	616.62
298.062	599.62
298.292	620.62
298.523	620.62
298.753	645.62
298.984	622.62
299.214	602.62
299.445	613.62
299.675	620.62
299.905	595.62
300.136	607.62
300.366	619.62
300.597	626.62
300.827	629.62
301.057	628.62
301.288	643.62
301.518	643.62
301.748	620.62
301.979	648.62
302.209	643.62
302.439	628.62
302.669	665.62
302.9	649.62
303.13	648.62
303.36	632.62
303.59	614.62
303.82	639.62
304.051	623.62
304.281	624.62
304.511	629.62
304.741	636.62
304.971	628.62
305.201	644.62
305.431	618.62
305.661	628.62
305.891	604.62
306.121	614.62
306.352	636.62
306.582	634.62
306.812	599.62
307.042	621.62
307.272	622.62
307.502	620.62
307.731	629.62
307.961	622.62
308.191	611.62
308.421	620.62
308.651	628.62
308.881	636.62
309.111	619.62
309.341	602.62
309.571	640.62
309.8	638.62
310.03	614.62
310.26	640.62
310.49	630.62
310.72	618.62
310.949	606.62
311.179	636.62
311.409	656.62
311.639	642.62
311.868	630.62
312.098	650.62
312.328	668.62
312.557	654.62
312.787	645.62
313.017	642.62
313.246	644.62
313.476	657.62
313.706	660.62
313.935	674.62
314.165	664.62
314.394	671.62
314.624	672.62
314.853	679.62
315.083	675.62
315.312	674.62
315.542	650.62
315.771	654.62
316.001	657.62
316.23	637.62
316.46	672.62
316.689	644.62
316.919	646.62
317.148	676.62
317.377	656.62
317.607	658.62
317.836	650.62
318.065	664.62
318.295	642.62
318.524	652.62
318.753	639.62
318.983	668.62
319.212	640.62
319.441	640.62
319.67	629.62
319.9	636.62
320.129	636.62
320.358	639.62
320.587	657.62
320.816	668.62
321.046	639.62
321.275	640.62
321.504	654.62
321.733	647.62
321.962	654.62
322.191	694.62
322.42	656.62
322.649	670.62
322.878	673.62
323.108	660.62
323.337	670.62
323.566	680.62
323.795	693.62
324.024	709.62
324.253	675.62
324.482	697.62
324.71	696.62
324.939	699.62
325.168	685.62
325.397	688.62
325.626	692.62
325.855	696.62
326.084	739.62
326.313	727.62
326.542	739.62
326.77	754.62
326.999	723.62
327.228	694.62
327.457	701.62
327.686	718.62
327.914	728.62
328.143	727.62
328.372	712.62
328.6	708.62
328.829	697.62
329.058	690.62
329.287	736.62
329.515	721.62
329.744	719.62
329.972	733.62
330.201	738.62
330.43	769.62
330.658	764.62
330.887	731.62
331.115	721.62
331.344	762.62
331.572	791.62
331.801	777.62
332.03	792.62
332.258	787.62
332.486	842.62
332.715	888.62
332.943	911.62
333.172	940.62
333.4	952.62
333.629	994.62
333.857	982.62
334.085	951.62
334.314	951.62
334.542	964.62
334.771	938.62
334.999	956.62
335.227	936.62
335.455	904.62
335.684	909.62
335.912	921.62
336.14	898.62
336.369	891.62
336.597	874.62
336.825	890.62
337.053	872.62
337.281	864.62
337.51	848.62
337.738	840.62
337.966	823.62
338.194	807.62
338.422	818.62
338.65	803.62
338.878	810.62
339.106	811.62
339.334	780.62
339.562	781.62
339.79	760.62
340.018	779.62
340.246	758.62
340.474	747.62
340.702	752.62
340.93	807.62
341.158	787.62
341.386	774.62
341.614	786.62
341.842	780.62
342.07	748.62
342.298	785.62
342.526	755.62
342.754	754.62
342.981	740.62
343.209	765.62
343.437	834.62
343.665	884.62
343.893	934.62
344.12	963.62
344.348	871.62
344.576	849.62
344.804	855.62
345.031	803.62
345.259	775.62
345.487	755.62
345.714	770.62
345.942	788.62
346.17	770.62
346.397	741.62
346.625	778.62
346.853	736.62
347.08	712.62
347.308	722.62
347.535	730.62
347.763	750.62
347.99	766.62
348.218	796.62
348.445	758.62
348.673	738.62
348.9	749.62
349.128	745.62
349.355	718.62
349.583	713.62
349.81	716.62
350.037	722.62
350.265	711.62
350.492	695.62
350.72	706.62
350.947	708.62
351.174	708.62
351.402	736.62
351.629	724.62
351.856	708.62
352.083	687.62
352.311	726.62
352.538	700.62
352.765	735.62
352.992	714.62
353.22	706.62
353.447	700.62
353.674	701.62
353.901	717.62
354.128	698.62
354.355	696.62
354.583	715.62
354.81	706.62
355.037	717.62
355.264	722.62
355.491	697.62
355.718	712.62
355.945	712.62
356.172	718.62
356.399	740.62
356.626	726.62
356.853	741.62
357.08	723.62
357.307	726.62
357.534	706.62
357.761	727.62
357.988	729.62
358.215	710.62
358.441	694.62
358.668	715.62
358.895	710.62
359.122	698.62
359.349	702.62
359.576	703.62
359.802	711.62
360.029	744.62
360.256	735.62
360.483	714.62
360.709	709.62
360.936	711.62
361.163	708.62
361.39	716.62
361.616	723.62
361.843	725.62
362.07	711.62
362.296	726.62
362.523	712.62
362.749	711.62
362.976	724.62
363.203	718.62
363.429	667.62
363.656	701.62
363.882	705.62
364.109	716.62
364.335	716.62
364.562	714.62
364.788	718.62
365.015	716.62
365.241	728.62
365.468	688.62
365.694	706.62
365.92	693.62
366.147	708.62
366.373	725.62
366.599	727.62
366.826	733.62
367.052	713.62
367.278	719.62
367.505	707.62
367.731	715.62
367.957	708.62
368.184	723.62
368.41	738.62
368.636	734.62
368.862	734.62
369.089	714.62
369.315	740.62
369.541	738.62
369.767	746.62
369.993	719.62
370.219	734.62
370.445	755.62
370.672	772.62
370.898	750.62
371.124	766.62
371.35	769.62
371.576	778.62
371.802	771.62
372.028	772.62
372.254	758.62
372.48	796.62
372.706	791.62
372.932	816.62
373.158	784.62
373.384	780.62
373.61	766.62
373.835	818.62
374.061	788.62
374.287	789.62
374.513	803.62
374.739	821.62
374.965	879.62
375.191	848.62
375.416	839.62
375.642	818.62
375.868	841.62
376.094	810.62
376.319	803.62
376.545	800.62
376.771	762.62
376.997	788.62
377.222	790.62
377.448	809.62
377.674	766.62
377.899	776.62
378.125	761.62
378.35	760.62
378.576	771.62
378.802	757.62
379.027	779.62
379.253	776.62
379.478	756.62
379.704	765.62
379.929	755.62
380.155	757.62
380.38	760.62
380.606	783.62
380.831	792.62
381.057	768.62
381.282	792.62
381.507	779.62
381.733	778.62
381.958	790.62
382.184	804.62
382.409	823.62
382.634	809.62
382.86	832.62
383.085	841.62
383.31	851.62
383.535	833.62
383.761	841.62
383.986	882.62
384.211	911.62
384.436	885.62
384.662	911.62
384.887	980.62
385.112	948.62
385.337	931.62
385.562	926.62
385.787	931.62
386.013	972.62
386.238	911.62
386.463	923.62
386.688	920.62
386.913	916.62
387.138	920.62
387.363	925.62
387.588	929.62
387.813	920.62
388.038	919.62
388.263	903.62
388.488	914.62
388.713	924.62
388.938	895.62
389.163	924.62
389.387	926.62
389.612	909.62
389.837	898.62
390.062	904.62
390.287	900.62
390.512	923.62
390.736	925.62
390.961	916.62
391.186	942.62
391.411	966.62
391.636	995.62
391.86	1034.62
392.085	1066.62
392.31	1038.62
392.534	1006.62
392.759	986.62
392.984	989.62
393.208	970.62
393.433	970.62
393.658	975.62
393.882	986.62
394.107	964.62
394.331	958.62
394.556	996.62
394.78	980.62
395.005	1018.62
395.229	998.62
395.454	1026.62
395.678	1045.62
395.903	1060.62
396.127	1019.62
396.352	999.62
396.576	950.62
396.801	972.62
397.025	987.62
397.249	1013.62
397.474	1037.62
397.698	1019.62
397.922	1049.62
398.147	1039.62
398.371	1060.62
398.595	1074.62
398.82	1141.62
399.044	1226.62
399.268	1348.62
399.492	1566.62
399.717	1800.62
399.941	1749.62
400.165	1539.62
400.389	1401.62
400.613	1299.62
400.837	1215.62
401.062	1191.62
401.286	1175.62
401.51	1162.62
401.734	1166.62
401.958	1159.62
402.182	1184.62
402.406	1183.62
402.63	1215.62
402.854	1284.62
403.078	1270.62
403.302	1311.62
403.526	1310.62
403.75	1312.62
403.974	1354.62
404.198	1394.62
404.422	1371.62
404.645	1330.62
404.869	1340.62
405.093	1327.62
405.317	1308.62
405.541	1303.62
405.765	1271.62
405.988	1269.62
406.212	1274.62
406.436	1278.62
406.66	1302.62
406.883	1290.62
407.107	1408.62
407.331	1508.62
407.555	1482.62
407.778	1501.62
408.002	1468.62
408.226	1425.62
408.449	1394.62
408.673	1325.62
408.896	1352.62
409.12	1328.62
409.344	1334.62
409.567	1332.62
409.791	1310.62
410.014	1330.62
410.238	1311.62
410.461	1298.62
410.685	1269.62
410.908	1276.62
411.132	1284.62
411.355	1220.62
411.578	1191.62
411.802	1197.62
412.025	1199.62
412.249	1241.62
412.472	1232.62
412.695	1194.62
412.919	1141.62
413.142	1167.62
413.365	1155.62
413.589	1158.62
413.812	1168.62
414.035	1134.62
414.258	1145.62
414.482	1159.62
414.705	1208.62
414.928	1191.62
415.151	1135.62
415.374	1176.62
415.597	1176.62
415.821	1141.62
416.044	1128.62
416.267	1150.62
416.49	1133.62
416.713	1148.62
416.936	1158.62
417.159	1143.62
417.382	1144.62
417.605	1142.62
417.828	1148.62
418.051	1162.62
418.274	1151.62
418.497	1171.62
418.72	1191.62
418.943	1160.62
419.166	1236.62
419.389	1326.62
419.611	1285.62
419.834	1261.62
420.057	1208.62
420.28	1188.62
420.503	1166.62
420.726	1137.62
420.948	1143.62
421.171	1110.62
421.394	1132.62
421.617	1142.62
421.839	1123.62
422.062	1162.62
422.285	1156.62
422.507	1192.62
422.73	1186.62
422.953	1192.62
423.175	1217.62
423.398	1234.62
423.621	1212.62
423.843	1223.62
424.066	1239.62
424.288	1224.62
424.511	1187.62
424.733	1202.62
424.956	1168.62
425.178	1183.62
425.401	1145.62
425.623	1164.62
425.846	1120.62
426.068	1103.62
426.291	1087.62
426.513	1093.62
426.735	1084.62
426.958	1083.62
427.18	1046.62
427.402	1048.62
427.625	1060.62
427.847	1000.62
428.069	1026.62
428.292	1020.62
428.514	999.62
428.736	998.62
428.958	1023.62
429.181	1006.62
429.403	996.62
429.625	1015.62
429.847	992.62
430.069	990.62
430.292	1038.62
430.514	994.62
430.736	1017.62
430.958	988.62
431.18	970.62
431.402	1022.62
431.624	1004.62
431.846	1023.62
432.068	1024.62
432.29	1059.62
432.512	1048.62
432.734	1008.62
432.956	1034.62
433.178	1048.62
433.4	1032.62
433.622	1018.62
433.844	1059.62
434.066	1052.62
434.287	1048.62
434.509	1112.62
434.731	1137.62
434.953	1173.62
435.175	1146.62
435.397	1166.62
435.618	1065.62
435.84	1080.62
436.062	1052.62
436.284	1018.62
436.505	1006.62
436.727	1053.62
436.949	1060.62
437.17	1014.62
437.392	990.62
437.614	997.62
437.835	975.62
438.057	982.62
438.278	972.62
438.5	980.62
438.721	991.62
438.943	986.62
439.165	983.62
439.386	974.62
439.608	989.62
439.829	1040.62
440.05	1010.62
440.272	1048.62
440.493	1068.62
440.715	1042.62
440.936	1038.62
441.158	1083.62
441.379	1107.62
441.6	1144.62
441.822	1189.62
442.043	1168.62
442.264	1139.62
442.486	1118.62
442.707	1126.62
442.928	1123.62
443.149	1113.62
443.371	1162.62
443.592	1145.62
443.813	1135.62
444.034	1154.62
444.255	1216.62
444.476	1250.62
444.698	1316.62
444.919	1424.62
445.14	1437.62
445.361	1277.62
445.582	1202.62
445.803	1128.62
446.024	1074.62
446.245	1077.62
446.466	1042.62
446.687	1042.62
446.908	1015.62
447.129	999.62
447.35	1000.62
447.571	1006.62
447.792	930.62
448.013	942.62
448.234	943.62
448.455	965.62
448.675	912.62
448.896	942.62
449.117	907.62
449.338	944.62
449.559	954.62
449.779	914.62
450	918.62
450.221	938.62
450.442	952.62
450.662	967.62
450.883	957.62
451.104	970.62
451.324	956.62
451.545	964.62
451.766	941.62
451.986	934.62
452.207	927.62
452.428	931.62
452.648	946.62
452.869	916.62
453.089	927.62
453.31	926.62
453.53	899.62
453.751	923.62
453.971	894.62
454.192	923.62
454.412	905.62
454.633	879.62
454.853	874.62
455.073	884.62
455.294	878.62
455.514	863.62
455.734	877.62
455.955	882.62
456.175	853.62
456.395	845.62
456.616	862.62
456.836	867.62
457.056	877.62
457.276	868.62
457.497	886.62
457.717	859.62
457.937	868.62
458.157	891.62
458.377	898.62
458.598	918.62
458.818	933.62
459.038	944.62
459.258	1003.62
459.478	1032.62
459.698	1074.62
459.918	1101.62
460.138	1119.62
460.358	1185.62
460.578	1197.62
460.798	1202.62
461.018	1260.62
461.238	1203.62
461.458	1190.62
461.678	1194.62
461.898	1206.62
462.118	1211.62
462.338	1275.62
462.558	1326.62
462.777	1387.62
462.997	1492.62
463.217	1622.62
463.437	1654.62
463.657	1526.62
463.876	1428.62
464.096	1428.62
464.316	1423.62
464.536	1396.62
464.755	1401.62
464.975	1301.62
465.195	1249.62
465.414	1183.62
465.634	1096.62
465.854	1106.62
466.073	1051.62
466.293	1017.62
466.512	1004.62
466.732	996.62
466.951	989.62
467.171	978.62
467.391	980.62
467.61	989.62
467.829	974.62
468.049	986.62
468.268	927.62
468.488	921.62
468.707	933.62
468.927	922.62
469.146	943.62
469.365	962.62
469.585	971.62
469.804	983.62
470.023	997.62
470.243	1004.62
470.462	1005.62
470.681	1017.62
470.901	991.62
471.12	977.62
471.339	964.62
471.558	965.62
471.777	950.62
471.997	962.62
472.216	927.62
472.435	938.62
472.654	917.62
472.873	874.62
473.092	916.62
473.311	898.62
473.53	900.62
473.749	886.62
473.968	902.62
474.187	897.62
474.406	913.62
474.625	898.62
474.844	904.62
475.063	907.62
475.282	952.62
475.501	919.62
475.72	946.62
475.939	944.62
476.158	935.62
476.377	925.62
476.596	943.62
476.814	940.62
477.033	953.62
477.252	990.62
477.471	996.62
477.69	1013.62
477.908	1050.62
478.127	1083.62
478.346	1086.62
478.564	1081.62
478.783	1107.62
479.002	1119.62
479.22	1143.62
479.439	1168.62
479.658	1134.62
479.876	1177.62
480.095	1152.62
480.313	1207.62
480.532	1233.62
480.751	1205.62
480.969	1203.62
481.188	1153.62
481.406	1129.62
481.624	1101.62
481.843	1063.62
482.061	1067.62
482.28	1048.62
482.498	1062.62
482.717	1056.62
482.935	1046.62
483.153	1056.62
483.372	1039.62
483.59	1095.62
483.808	1054.62
484.027	1062.62
484.245	1067.62
484.463	1094.62
484.681	1110.62
484.9	1090.62
485.118	1104.62
485.336	1118.62
485.554	1148.62
485.772	1136.62
485.99	1154.62
486.209	1159.62
486.427	1140.62
486.645	1130.62
486.863	1146.62
487.081	1102.62
487.299	1138.62
487.517	1145.62
487.735	1111.62
487.953	1110.62
488.171	1127.62
488.389	1108.62
488.607	1103.62
488.825	1082.62
489.043	1108.62
489.261	1103.62
489.479	1134.62
489.696	1066.62
489.914	1120.62
490.132	1106.62
490.35	1093.62
490.568	1103.62
490.786	1107.62
491.003	1095.62
491.221	1104.62
491.439	1119.62
491.657	1115.62
491.874	1127.62
492.092	1143.62
492.31	1124.62
492.527	1126.62
492.745	1128.62
492.963	1154.62
493.18	1153.62
493.398	1126.62
493.615	1156.62
493.833	1172.62
494.05	1128.62
494.268	1147.62
494.485	1182.62
494.703	1165.62
494.92	1168.62
495.138	1165.62
495.355	1152.62
495.573	1138.62
495.79	1152.62
496.008	1156.62
496.225	1193.62
496.442	1186.62
496.66	1191.62
496.877	1191.62
497.094	1208.62
497.312	1221.62
497.529	1296.62
497.746	1277.62
497.963	1341.62
498.181	1415.62
498.398	1428.62
498.615	1565.62
498.832	1652.62
499.049	1761.62
499.267	1922.62
499.484	2098.62
499.701	2329.62
499.918	2552.62
500.135	2933.62
500.352	3454.62
500.569	3684.62
500.786	3602.62
501.003	3321.62
501.22	2900.62
501.437	2533.62
501.654	2230.62
501.871	2009.62
502.088	1853.62
502.305	1719.62
502.522	1713.62
502.739	1589.62
502.956	1508.62
503.172	1436.62
503.389	1368.62
503.606	1343.62
503.823	1333.62
504.04	1342.62
504.256	1341.62
504.473	1348.62
504.69	1407.62
504.907	1358.62
505.123	1268.62
505.34	1214.62
505.557	1145.62
505.773	1096.62
505.99	1100.62
506.207	1067.62
506.423	1044.62
506.64	1047.62
506.856	1034.62
507.073	1030.62
507.289	1003.62
507.506	1002.62
507.722	1005.62
507.939	995.62
508.155	986.62
508.372	989.62
508.588	1005.62
508.805	967.62
509.021	991.62
509.238	970.62
509.454	936.62
509.67	930.62
509.887	977.62
510.103	967.62
510.319	940.62
510.536	926.62
510.752	922.62
510.968	910.62
511.184	924.62
511.401	924.62
511.617	902.62
511.833	920.62
512.049	915.62
512.265	916.62
512.481	907.62
512.698	927.62
512.914	914.62
513.13	911.62
513.346	895.62
513.562	946.62
513.778	942.62
513.994	924.62
514.21	950.62
514.426	962.62
514.642	911.62
514.858	947.62
515.074	965.62
515.29	982.62
515.506	951.62
515.721	968.62
515.937	1029.62
516.153	1001.62
516.369	1047.62
516.585	1070.62
516.801	1108.62
517.016	1144.62
517.232	1185.62
517.448	1270.62
517.664	1336.62
517.879	1349.62
518.095	1310.62
518.311	1304.62
518.527	1206.62
518.742	1190.62
518.958	1136.62
519.173	1054.62
519.389	1060.62
519.605	1010.62
519.82	1000.62
520.036	980.62
520.251	953.62
520.467	972.62
520.682	948.62
520.898	928.62
521.113	908.62
521.329	902.62
521.544	908.62
521.76	916.62
521.975	885.62
522.19	900.62
522.406	884.62
522.621	882.62
522.836	862.62
523.052	858.62
523.267	843.62
523.482	870.62
523.698	861.62
523.913	829.62
524.128	867.62
524.343	864.62
524.559	846.62
524.774	844.62
524.989	853.62
525.204	861.62
525.419	845.62
525.634	830.62
525.849	832.62
526.064	860.62
526.28	821.62
526.495	834.62
526.71	845.62
526.925	815.62
527.14	813.62
527.355	841.62
527.57	814.62
527.785	861.62
527.999	824.62
528.214	816.62
528.429	826.62
528.644	844.62
528.859	861.62
529.074	858.62
529.289	844.62
529.503	828.62
529.718	814.62
529.933	835.62
530.148	817.62
530.363	837.62
530.577	828.62
530.792	852.62
531.007	826.62
531.221	832.62
531.436	836.62
531.651	841.62
531.865	826.62
532.08	815.62
532.295	825.62
532.509	830.62
532.724	855.62
532.938	864.62
533.153	832.62
533.367	859.62
533.582	823.62
533.796	818.62
534.011	843.62
534.225	829.62
534.44	816.62
534.654	814.62
534.868	788.62
535.083	796.62
535.297	805.62
535.511	820.62
535.726	812.62
535.94	811.62
536.154	802.62
536.369	788.62
536.583	754.62
536.797	803.62
537.011	768.62
537.225	781.62
537.44	743.62
537.654	742.62
537.868	742.62
538.082	716.62
538.296	767.62
538.51	772.62
538.724	772.62
538.938	738.62
539.153	750.62
539.367	754.62
539.581	736.62
539.795	749.62
540.009	754.62
540.222	752.62
540.436	747.62
540.65	729.62
540.864	759.62
541.078	722.62
541.292	769.62
541.506	786.62
541.72	757.62
541.934	724.62
542.147	744.62
542.361	738.62
542.575	735.62
542.789	720.62
543.002	728.62
543.216	740.62
543.43	735.62
543.644	711.62
543.857	723.62
544.071	722.62
544.285	733.62
544.498	755.62
544.712	732.62
544.925	740.62
545.139	743.62
545.352	758.62
545.566	752.62
545.779	784.62
545.993	729.62
546.206	772.62
546.42	745.62
546.633	772.62
546.847	739.62
547.06	749.62
547.274	757.62
547.487	747.62
547.7	746.62
547.914	778.62
548.127	770.62
548.34	776.62
548.554	772.62
548.767	766.62
548.98	754.62
549.193	755.62
549.407	782.62
549.62	770.62
549.833	789.62
550.046	797.62
550.259	775.62
550.473	755.62
550.686	762.62
550.899	740.62
551.112	747.62
551.325	722.62
551.538	728.62
551.751	730.62
551.964	746.62
552.177	755.62
552.39	738.62
552.603	796.62
552.816	804.62
553.029	814.62
553.242	838.62
553.455	846.62
553.667	837.62
553.88	832.62
554.093	784.62
554.306	779.62
554.519	805.62
554.732	775.62
554.944	755.62
555.157	732.62
555.37	734.62
555.583	704.62
555.795	719.62
556.008	692.62
556.221	678.62
556.433	693.62
556.646	688.62
556.859	656.62
557.071	674.62
557.284	658.62
557.496	633.62
557.709	650.62
557.921	634.62
558.134	641.62
558.346	629.62
558.559	664.62
558.771	632.62
558.984	642.62
559.196	638.62
559.409	648.62
559.621	640.62
559.833	627.62
560.046	635.62
560.258	632.62
560.47	627.62
560.683	607.62
560.895	605.62
561.107	620.62
561.32	634.62
561.532	617.62
561.744	614.62
561.956	613.62
562.168	635.62
562.381	622.62
562.593	634.62
562.805	639.62
563.017	634.62
563.229	624.62
563.441	633.62
563.653	626.62
563.865	667.62
564.077	652.62
564.289	643.62
564.501	655.62
564.713	663.62
564.925	684.62
565.137	664.62
565.349	696.62
565.561	711.62
565.773	754.62
565.985	772.62
566.197	795.62
566.408	892.62
566.62	939.62
566.832	1046.62
567.044	1024.62
567.255	1019.62
567.467	1066.62
567.679	1112.62
567.891	1231.62
568.102	1260.62
568.314	1213.62
568.526	1083.62
568.737	978.62
568.949	879.62
569.161	788.62
569.372	756.62
569.584	732.62
569.795	674.62
570.007	666.62
570.218	638.62
570.43	630.62
570.641	640.62
570.853	648.62
571.064	674.62
571.276	648.62
571.487	598.62
571.698	612.62
571.91	586.62
572.121	586.62
572.333	587.62
572.544	562.62
572.755	552.62
572.966	534.62
573.178	518.62
573.389	549.62
573.6	536.62
573.811	530.62
574.023	536.62
574.234	536.62
574.445	519.62
574.656	527.62
574.867	546.62
575.078	539.62
575.289	509.62
575.501	506.62
575.712	490.62
575.923	491.62
576.134	490.62
576.345	473.62
576.556	481.62
576.767	489.62
576.978	500.62
577.188	468.62
577.399	487.62
577.61	486.62
577.821	468.62
578.032	498.62
578.243	457.62
578.454	485.62
578.665	475.62
578.875	437.62
579.086	464.62
579.297	456.62
579.508	455.62
579.718	449.62
579.929	445.62
580.14	454.62
580.35	447.62
580.561	446.62
580.772	445.62
580.982	449.62
581.193	451.62
581.403	430.62
581.614	447.62
581.825	463.62
582.035	447.62
582.246	428.62
582.456	436.62
582.667	429.62
582.877	468.62
583.087	448.62
583.298	427.62
583.508	442.62
583.719	421.62
583.929	440.62
584.139	431.62
584.35	412.62
584.56	440.62
584.77	457.62
584.981	417.62
585.191	411.62
585.401	413.62
585.611	422.62
585.821	419.62
586.032	436.62
586.242	412.62
586.452	431.62
586.662	442.62
586.872	416.62
587.082	416.62
587.292	428.62
587.502	421.62
587.713	412.62
587.923	408.62
588.133	417.62
588.343	402.62
588.553	411.62
588.762	418.62
588.972	403.62
589.182	411.62
589.392	437.62
589.602	401.62
589.812	405.62
590.022	406.62
590.232	413.62
590.441	428.62
590.651	405.62
590.861	447.62
591.071	429.62
591.281	425.62
591.49	429.62
591.7	430.62
591.91	442.62
592.119	445.62
592.329	441.62
592.539	476.62
592.748	501.62
592.958	523.62
593.167	502.62
593.377	516.62
593.587	530.62
593.796	538.62
594.006	542.62
594.215	559.62
594.424	565.62
594.634	536.62
594.843	504.62
595.053	466.62
595.262	478.62
595.472	456.62
595.681	425.62
595.89	440.62
596.1	435.62
596.309	410.62
596.518	393.62
596.727	404.62
596.937	388.62
597.146	417.62
597.355	388.62
597.564	381.62
597.774	402.62
597.983	364.62
598.192	359.62
598.401	375.62
598.61	359.62
598.819	354.62
599.028	354.62
599.237	350.62
599.446	375.62
599.655	358.62
599.864	357.62
600.073	343.62
600.282	344.62
600.491	348.62
600.7	351.62
600.909	366.62
601.118	363.62
601.327	341.62
601.536	347.62
601.745	334.62
601.953	338.62
602.162	350.62
602.371	354.62
602.58	341.62
602.789	329.62
602.997	310.62
603.206	318.62
603.415	341.62
603.623	304.62
603.832	322.62
604.041	338.62
604.249	321.62
604.458	326.62
604.666	336.62
604.875	331.62
605.084	309.62
605.292	325.62
605.501	316.62
605.709	316.62
605.918	318.62
606.126	348.62
606.334	319.62
606.543	319.62
606.751	316.62
606.96	318.62
607.168	319.62
607.376	316.62
607.585	315.62
607.793	308.62
608.001	306.62
608.21	304.62
608.418	314.62
608.626	315.62
608.834	331.62
609.043	301.62
609.251	310.62
609.459	315.62
609.667	295.62
609.875	300.62
610.083	301.62
610.291	319.62
610.499	303.62
610.707	301.62
610.916	302.62
611.124	315.62
611.332	307.62
611.54	317.62
611.748	297.62
611.955	310.62
612.163	290.62
612.371	314.62
612.579	290.62
612.787	306.62
612.995	294.62
613.203	294.62
613.411	291.62
613.618	288.62
613.826	302.62
614.034	306.62
614.242	298.62
614.449	306.62
614.657	306.62
614.865	314.62
615.072	287.62
615.28	320.62
615.488	288.62
615.695	315.62
615.903	290.62
616.111	285.62
616.318	322.62
616.526	308.62
616.733	322.62
616.941	299.62
617.148	311.62
617.356	290.62
617.563	313.62
617.771	317.62
617.978	303.62
618.185	296.62
618.393	317.62
618.6	331.62
618.807	307.62
619.015	306.62
619.222	302.62
619.429	287.62
619.637	286.62
619.844	299.62
620.051	300.62
620.258	281.62
620.466	275.62
620.673	286.62
620.88	288.62
621.087	274.62
621.294	277.62
621.501	279.62
621.708	297.62
621.915	249.62
622.122	286.62
622.329	289.62
622.536	263.62
622.743	287.62
622.95	269.62
623.157	272.62
623.364	288.62
623.571	276.62
623.778	264.62
623.985	270.62
624.192	272.62
624.399	253.62
624.606	260.62
624.812	254.62
625.019	262.62
625.226	275.62
625.433	274.62
625.639	249.62
625.846	265.62
626.053	248.62
626.259	254.62
626.466	257.62
626.673	254.62
626.879	248.62
627.086	255.62
627.293	254.62
627.499	252.62
627.706	228.62
627.912	251.62
628.119	236.62
628.325	244.62
628.532	264.62
628.738	245.62
628.945	245.62
629.151	238.62
629.357	231.62
629.564	199.62
629.77	235.62
629.976	231.62
630.183	243.62
630.389	234.62
630.595	251.62
630.802	226.62
631.008	209.62
631.214	228.62
631.42	234.62
631.627	247.62
631.833	226.62
632.039	229.62
632.245	231.62
632.451	223.62
632.657	227.62
632.863	225.62
633.069	224.62
633.275	222.62
633.481	208.62
633.688	215.62
633.893	223.62
634.099	227.62
634.305	233.62
634.511	228.62
634.717	217.62
634.923	226.62
635.129	212.62
635.335	228.62
635.541	217.62
635.747	216.62
635.952	217.62
636.158	215.62
636.364	216.62
636.57	214.62
636.775	219.62
636.981	215.62
637.187	206.62
637.392	200.62
637.598	205.62
637.804	222.62
638.009	223.62
638.215	226.62
638.421	227.62
638.626	221.62
638.832	215.62
639.037	220.62
639.243	203.62
639.448	216.62
639.654	214.62
639.859	200.62
640.065	198.62
640.27	202.62
640.475	214.62
640.681	188.62
640.886	214.62
641.091	210.62
641.297	212.62
641.502	194.62
641.707	191.62
641.913	202.62
642.118	215.62
642.323	202.62
642.528	214.62
642.733	197.62
642.939	204.62
643.144	197.62
643.349	204.62
643.554	217.62
643.759	194.62
643.964	191.62
644.169	188.62
644.374	188.62
644.579	188.62
644.784	183.62
644.989	204.62
645.194	190.62
645.399	213.62
645.604	195.62
645.809	192.62
646.014	183.62
646.219	205.62
646.423	206.62
646.628	205.62
646.833	190.62
647.038	214.62
647.243	194.62
647.447	207.62
647.652	222.62
647.857	208.62
648.062	195.62
648.266	232.62
648.471	211.62
648.676	230.62
648.88	214.62
649.085	229.62
649.289	218.62
649.494	203.62
649.698	221.62
649.903	199.62
650.107	215.62
650.312	203.62
650.516	183.62
650.721	196.62
650.925	196.62
651.13	182.62
651.334	186.62
651.539	175.62
651.743	182.62
651.947	171.62
652.152	183.62
652.356	182.62
652.56	175.62
652.764	175.62
652.969	160.62
653.173	152.62
653.377	169.62
653.581	168.62
653.785	168.62
653.99	155.62
654.194	158.62
654.398	169.62
654.602	164.62
654.806	172.62
655.01	162.62
655.214	171.62
655.418	180.62
655.622	173.62
655.826	182.62
656.03	191.62
656.234	175.62
656.438	184.62
656.642	188.62
656.846	168.62
657.049	172.62
657.253	176.62
657.457	154.62
657.661	131.62
657.865	138.62
658.068	130.62
658.272	128.62
658.476	128.62
658.68	113.62
658.883	112.62
659.087	119.62
659.291	119.62
659.494	121.62
659.698	98.62
659.901	123.62
660.105	102.62
660.309	104.62
660.512	101.62
660.716	88.62
660.919	91.62
661.123	118.62
661.326	112.62
661.53	83.62
661.733	97.62
661.936	100.62
662.14	95.62
662.343	92.62
662.546	84.62
662.75	91.62
662.953	90.62
663.156	94.62
663.36	81.62
663.563	88.62
663.766	91.62
663.969	91.62
664.173	81.62
664.376	92.62
664.579	83.62
664.782	84.62
664.985	78.62
665.188	92.62
665.391	83.62
665.594	95.62
665.797	78.62
666	85.62
666.203	78.62
666.406	75.62
666.609	69.62
666.812	95.62
667.015	85.62
667.218	90.62
667.421	72.62
667.624	87.62
667.827	76.62
668.03	73.62
668.232	75.62
668.435	90.62
668.638	80.62
668.841	76.62
669.043	81.62
669.246	87.62
669.449	83.62
669.651	87.62
669.854	91.62
670.057	73.62
670.259	85.62
670.462	76.62
670.665	77.62
670.867	78.62
671.07	85.62
671.272	90.62
671.475	92.62
671.677	95.62
671.88	83.62
672.082	87.62
672.284	90.62
672.487	71.62
672.689	74.62
672.892	98.62
