Data from Ni(NO3)2@0.25M.TitratingCurve.Agarose3%dH2O.NegLispCup.LampEnergy10.LIBS07252019_HRD10591_18-04-22-565.txt Node
Date: Thu Jul 25 18:04:22 EDT 2019
User: cochatt
Spectrometer: HR+D1059
Trigger mode: 1
Integration Time (sec): 1.000000E-1
Scans to average: 1
Electric dark correction enabled: true
Nonlinearity correction enabled: false
Boxcar width: 0
XAxis mode: Wavelengths
Number of Pixels in Spectrum: 2048
>>>>>Begin Spectral Data<<<<<
223.165	-5.75
223.4	-5.75
223.635	-5.75
223.869	-16.75
224.104	-21.75
224.338	-24.75
224.573	-8.75
224.808	-0.75
225.042	-7.75
225.277	-15.75
225.511	-8.75
225.746	-16.75
225.98	-2.75
226.215	14.25
226.449	24.25
226.683	23.25
226.918	27.25
227.152	41.25
227.387	46.25
227.621	48.25
227.856	50.25
228.09	35.25
228.324	51.25
228.559	63.25
228.793	79.25
229.027	113.25
229.262	129.25
229.496	137.25
229.73	145.25
229.964	160.25
230.199	171.25
230.433	174.25
230.667	177.25
230.901	180.25
231.136	159.25
231.37	159.25
231.604	169.25
231.838	168.25
232.072	191.25
232.306	162.25
232.541	176.25
232.775	176.25
233.009	170.25
233.243	184.25
233.477	168.25
233.711	183.25
233.945	195.25
234.179	187.25
234.413	189.25
234.647	197.25
234.881	196.25
235.115	190.25
235.349	192.25
235.583	179.25
235.817	188.25
236.051	195.25
236.285	203.25
236.519	206.25
236.753	191.25
236.987	193.25
237.221	181.25
237.455	204.25
237.689	208.25
237.922	194.25
238.156	204.25
238.39	209.25
238.624	197.25
238.858	209.25
239.091	196.25
239.325	198.25
239.559	225.25
239.793	215.25
240.027	228.25
240.26	223.25
240.494	209.25
240.728	232.25
240.961	239.25
241.195	229.25
241.429	231.25
241.662	247.25
241.896	239.25
242.13	257.25
242.363	236.25
242.597	253.25
242.83	237.25
243.064	243.25
243.298	254.25
243.531	260.25
243.765	256.25
243.998	259.25
244.232	263.25
244.465	279.25
244.699	262.25
244.932	283.25
245.166	285.25
245.399	279.25
245.633	279.25
245.866	274.25
246.099	282.25
246.333	279.25
246.566	288.25
246.8	289.25
247.033	292.25
247.266	295.25
247.5	305.25
247.733	307.25
247.966	299.25
248.2	286.25
248.433	294.25
248.666	296.25
248.899	298.25
249.133	317.25
249.366	313.25
249.599	334.25
249.832	322.25
250.066	321.25
250.299	334.25
250.532	332.25
250.765	344.25
250.998	349.25
251.231	351.25
251.465	356.25
251.698	358.25
251.931	367.25
252.164	351.25
252.397	372.25
252.63	379.25
252.863	394.25
253.096	378.25
253.329	387.25
253.562	363.25
253.795	379.25
254.028	386.25
254.261	408.25
254.494	400.25
254.727	421.25
254.96	422.25
255.193	422.25
255.426	385.25
255.659	396.25
255.892	410.25
256.124	407.25
256.357	424.25
256.59	426.25
256.823	411.25
257.056	436.25
257.289	433.25
257.521	430.25
257.754	422.25
257.987	427.25
258.22	437.25
258.452	455.25
258.685	446.25
258.918	432.25
259.151	474.25
259.383	451.25
259.616	468.25
259.849	450.25
260.081	477.25
260.314	477.25
260.547	460.25
260.779	478.25
261.012	474.25
261.244	476.25
261.477	484.25
261.71	492.25
261.942	495.25
262.175	508.25
262.407	483.25
262.64	493.25
262.872	520.25
263.105	501.25
263.337	489.25
263.57	522.25
263.802	535.25
264.035	524.25
264.267	545.25
264.499	525.25
264.732	543.25
264.964	520.25
265.197	532.25
265.429	500.25
265.661	534.25
265.894	527.25
266.126	530.25
266.358	546.25
266.591	537.25
266.823	546.25
267.055	551.25
267.287	539.25
267.52	532.25
267.752	539.25
267.984	552.25
268.216	545.25
268.448	547.25
268.681	564.25
268.913	553.25
269.145	565.25
269.377	556.25
269.609	554.25
269.841	558.25
270.073	577.25
270.306	563.25
270.538	575.25
270.77	573.25
271.002	590.25
271.234	614.25
271.466	587.25
271.698	588.25
271.93	583.25
272.162	589.25
272.394	590.25
272.626	594.25
272.858	565.25
273.09	595.25
273.322	616.25
273.553	614.25
273.785	602.25
274.017	611.25
274.249	593.25
274.481	620.25
274.713	615.25
274.945	597.25
275.176	632.25
275.408	635.25
275.64	613.25
275.872	595.25
276.104	640.25
276.335	627.25
276.567	596.25
276.799	625.25
277.031	645.25
277.262	652.25
277.494	628.25
277.726	648.25
277.957	641.25
278.189	643.25
278.421	679.25
278.652	653.25
278.884	645.25
279.115	668.25
279.347	657.25
279.579	659.25
279.81	654.25
280.042	683.25
280.273	636.25
280.505	648.25
280.736	670.25
280.968	679.25
281.199	655.25
281.431	665.25
281.662	674.25
281.894	686.25
282.125	700.25
282.356	695.25
282.588	695.25
282.819	691.25
283.051	705.25
283.282	702.25
283.513	724.25
283.745	711.25
283.976	697.25
284.207	699.25
284.439	700.25
284.67	729.25
284.901	737.25
285.132	699.25
285.364	698.25
285.595	717.25
285.826	735.25
286.057	719.25
286.288	712.25
286.52	728.25
286.751	720.25
286.982	731.25
287.213	740.25
287.444	739.25
287.675	731.25
287.906	750.25
288.138	734.25
288.369	731.25
288.6	738.25
288.831	738.25
289.062	765.25
289.293	761.25
289.524	761.25
289.755	753.25
289.986	762.25
290.217	740.25
290.448	727.25
290.679	749.25
290.91	728.25
291.141	739.25
291.371	775.25
291.602	774.25
291.833	760.25
292.064	740.25
292.295	759.25
292.526	743.25
292.757	752.25
292.987	769.25
293.218	744.25
293.449	767.25
293.68	765.25
293.91	757.25
294.141	755.25
294.372	748.25
294.603	772.25
294.833	771.25
295.064	789.25
295.295	787.25
295.525	790.25
295.756	749.25
295.987	773.25
296.217	805.25
296.448	814.25
296.679	780.25
296.909	784.25
297.14	790.25
297.37	797.25
297.601	819.25
297.831	785.25
298.062	825.25
298.292	826.25
298.523	846.25
298.753	821.25
298.984	823.25
299.214	825.25
299.445	849.25
299.675	819.25
299.905	830.25
300.136	815.25
300.366	827.25
300.597	866.25
300.827	868.25
301.057	873.25
301.288	871.25
301.518	887.25
301.748	878.25
301.979	876.25
302.209	888.25
302.439	879.25
302.669	879.25
302.9	854.25
303.13	872.25
303.36	864.25
303.59	885.25
303.82	875.25
304.051	894.25
304.281	889.25
304.511	887.25
304.741	873.25
304.971	909.25
305.201	901.25
305.431	894.25
305.661	897.25
305.891	877.25
306.121	873.25
306.352	875.25
306.582	864.25
306.812	865.25
307.042	866.25
307.272	867.25
307.502	856.25
307.731	861.25
307.961	839.25
308.191	857.25
308.421	847.25
308.651	851.25
308.881	857.25
309.111	876.25
309.341	856.25
309.571	887.25
309.8	902.25
310.03	887.25
310.26	898.25
310.49	897.25
310.72	913.25
310.949	874.25
311.179	870.25
311.409	905.25
311.639	909.25
311.868	907.25
312.098	922.25
312.328	913.25
312.557	909.25
312.787	903.25
313.017	923.25
313.246	981.25
313.476	934.25
313.706	965.25
313.935	959.25
314.165	947.25
314.394	935.25
314.624	968.25
314.853	963.25
315.083	971.25
315.312	972.25
315.542	955.25
315.771	972.25
316.001	946.25
316.23	969.25
316.46	974.25
316.689	972.25
316.919	980.25
317.148	975.25
317.377	985.25
317.607	963.25
317.836	981.25
318.065	969.25
318.295	1010.25
318.524	977.25
318.753	972.25
318.983	1000.25
319.212	997.25
319.441	994.25
319.67	1004.25
319.9	981.25
320.129	1008.25
320.358	1022.25
320.587	1029.25
320.816	1043.25
321.046	1018.25
321.275	1004.25
321.504	1023.25
321.733	1019.25
321.962	1049.25
322.191	1026.25
322.42	1033.25
322.649	1055.25
322.878	1066.25
323.108	1047.25
323.337	1051.25
323.566	1045.25
323.795	1080.25
324.024	1055.25
324.253	1070.25
324.482	1065.25
324.71	1095.25
324.939	1103.25
325.168	1081.25
325.397	1091.25
325.626	1071.25
325.855	1101.25
326.084	1101.25
326.313	1143.25
326.542	1132.25
326.77	1158.25
326.999	1170.25
327.228	1132.25
327.457	1149.25
327.686	1128.25
327.914	1130.25
328.143	1157.25
328.372	1141.25
328.6	1153.25
328.829	1144.25
329.058	1155.25
329.287	1161.25
329.515	1174.25
329.744	1201.25
329.972	1193.25
330.201	1211.25
330.43	1187.25
330.658	1196.25
330.887	1193.25
331.115	1216.25
331.344	1191.25
331.572	1233.25
331.801	1293.25
332.03	1300.25
332.258	1269.25
332.486	1344.25
332.715	1311.25
332.943	1382.25
333.172	1373.25
333.4	1367.25
333.629	1443.25
333.857	1474.25
334.085	1494.25
334.314	1492.25
334.542	1489.25
334.771	1486.25
334.999	1495.25
335.227	1499.25
335.455	1493.25
335.684	1496.25
335.912	1453.25
336.14	1463.25
336.369	1488.25
336.597	1483.25
336.825	1457.25
337.053	1473.25
337.281	1464.25
337.51	1417.25
337.738	1403.25
337.966	1418.25
338.194	1383.25
338.422	1361.25
338.65	1353.25
338.878	1352.25
339.106	1361.25
339.334	1376.25
339.562	1348.25
339.79	1301.25
340.018	1298.25
340.246	1342.25
340.474	1307.25
340.702	1291.25
340.93	1298.25
341.158	1304.25
341.386	1320.25
341.614	1369.25
341.842	1323.25
342.07	1261.25
342.298	1286.25
342.526	1285.25
342.754	1301.25
342.981	1290.25
343.209	1310.25
343.437	1391.25
343.665	1408.25
343.893	1469.25
344.12	1509.25
344.348	1448.25
344.576	1455.25
344.804	1417.25
345.031	1400.25
345.259	1333.25
345.487	1295.25
345.714	1301.25
345.942	1319.25
346.17	1312.25
346.397	1300.25
346.625	1267.25
346.853	1244.25
347.08	1245.25
347.308	1253.25
347.535	1261.25
347.763	1255.25
347.99	1221.25
348.218	1247.25
348.445	1221.25
348.673	1248.25
348.9	1237.25
349.128	1269.25
349.355	1265.25
349.583	1267.25
349.81	1191.25
350.037	1207.25
350.265	1186.25
350.492	1177.25
350.72	1217.25
350.947	1210.25
351.174	1207.25
351.402	1199.25
351.629	1269.25
351.856	1249.25
352.083	1209.25
352.311	1211.25
352.538	1199.25
352.765	1253.25
352.992	1176.25
353.22	1183.25
353.447	1172.25
353.674	1192.25
353.901	1180.25
354.128	1222.25
354.355	1153.25
354.583	1167.25
354.81	1177.25
355.037	1184.25
355.264	1177.25
355.491	1174.25
355.718	1157.25
355.945	1169.25
356.172	1205.25
356.399	1216.25
356.626	1200.25
356.853	1254.25
357.08	1200.25
357.307	1199.25
357.534	1201.25
357.761	1184.25
357.988	1183.25
358.215	1191.25
358.441	1153.25
358.668	1155.25
358.895	1206.25
359.122	1175.25
359.349	1210.25
359.576	1212.25
359.802	1224.25
360.029	1183.25
360.256	1194.25
360.483	1230.25
360.709	1176.25
360.936	1203.25
361.163	1165.25
361.39	1227.25
361.616	1199.25
361.843	1203.25
362.07	1274.25
362.296	1241.25
362.523	1226.25
362.749	1185.25
362.976	1191.25
363.203	1183.25
363.429	1189.25
363.656	1195.25
363.882	1161.25
364.109	1169.25
364.335	1173.25
364.562	1208.25
364.788	1184.25
365.015	1181.25
365.241	1157.25
365.468	1156.25
365.694	1183.25
365.92	1189.25
366.147	1177.25
366.373	1197.25
366.599	1174.25
366.826	1165.25
367.052	1186.25
367.278	1187.25
367.505	1200.25
367.731	1178.25
367.957	1175.25
368.184	1233.25
368.41	1191.25
368.636	1188.25
368.862	1219.25
369.089	1183.25
369.315	1223.25
369.541	1236.25
369.767	1219.25
369.993	1213.25
370.219	1205.25
370.445	1216.25
370.672	1224.25
370.898	1245.25
371.124	1256.25
371.35	1263.25
371.576	1261.25
371.802	1271.25
372.028	1239.25
372.254	1275.25
372.48	1261.25
372.706	1284.25
372.932	1259.25
373.158	1283.25
373.384	1271.25
373.61	1268.25
373.835	1303.25
374.061	1261.25
374.287	1262.25
374.513	1277.25
374.739	1322.25
374.965	1338.25
375.191	1363.25
375.416	1343.25
375.642	1328.25
375.868	1307.25
376.094	1303.25
376.319	1276.25
376.545	1291.25
376.771	1249.25
376.997	1264.25
377.222	1262.25
377.448	1232.25
377.674	1228.25
377.899	1246.25
378.125	1213.25
378.35	1217.25
378.576	1222.25
378.802	1225.25
379.027	1218.25
379.253	1229.25
379.478	1219.25
379.704	1215.25
379.929	1255.25
380.155	1221.25
380.38	1211.25
380.606	1228.25
380.831	1247.25
381.057	1241.25
381.282	1201.25
381.507	1237.25
381.733	1249.25
381.958	1272.25
382.184	1260.25
382.409	1279.25
382.634	1298.25
382.86	1269.25
383.085	1325.25
383.31	1315.25
383.535	1305.25
383.761	1320.25
383.986	1315.25
384.211	1362.25
384.436	1367.25
384.662	1393.25
384.887	1395.25
385.112	1393.25
385.337	1386.25
385.562	1418.25
385.787	1425.25
386.013	1463.25
386.238	1413.25
386.463	1440.25
386.688	1459.25
386.913	1441.25
387.138	1434.25
387.363	1439.25
387.588	1493.25
387.813	1466.25
388.038	1478.25
388.263	1460.25
388.488	1473.25
388.713	1436.25
388.938	1463.25
389.163	1452.25
389.387	1449.25
389.612	1458.25
389.837	1462.25
390.062	1446.25
390.287	1396.25
390.512	1463.25
390.736	1478.25
390.961	1501.25
391.186	1497.25
391.411	1522.25
391.636	1570.25
391.86	1593.25
392.085	1647.25
392.31	1593.25
392.534	1635.25
392.759	1576.25
392.984	1567.25
393.208	1547.25
393.433	1558.25
393.658	1557.25
393.882	1526.25
394.107	1534.25
394.331	1555.25
394.556	1517.25
394.78	1568.25
395.005	1559.25
395.229	1570.25
395.454	1608.25
395.678	1617.25
395.903	1613.25
396.127	1635.25
396.352	1638.25
396.576	1608.25
396.801	1552.25
397.025	1635.25
397.249	1645.25
397.474	1674.25
397.698	1676.25
397.922	1724.25
398.147	1672.25
398.371	1726.25
398.595	1783.25
398.82	1835.25
399.044	1911.25
399.268	2031.25
399.492	2191.25
399.717	2291.25
399.941	2374.25
400.165	2273.25
400.389	2159.25
400.613	2046.25
400.837	1979.25
401.062	1917.25
401.286	1896.25
401.51	1844.25
401.734	1836.25
401.958	1849.25
402.182	1909.25
402.406	1847.25
402.63	1853.25
402.854	1865.25
403.078	1880.25
403.302	1897.25
403.526	1915.25
403.75	1900.25
403.974	1898.25
404.198	1914.25
404.422	1896.25
404.645	1923.25
404.869	1939.25
405.093	1943.25
405.317	1923.25
405.541	1950.25
405.765	1960.25
405.988	1930.25
406.212	1987.25
406.436	1975.25
406.66	2025.25
406.883	2035.25
407.107	2078.25
407.331	2119.25
407.555	2171.25
407.778	2205.25
408.002	2155.25
408.226	2179.25
408.449	2123.25
408.673	2083.25
408.896	2091.25
409.12	2006.25
409.344	2095.25
409.567	2027.25
409.791	2043.25
410.014	1979.25
410.238	2001.25
410.461	1980.25
410.685	1940.25
410.908	1936.25
411.132	1972.25
411.355	1939.25
411.578	1958.25
411.802	1905.25
412.025	1945.25
412.249	1930.25
412.472	1946.25
412.695	1900.25
412.919	1884.25
413.142	1905.25
413.365	1880.25
413.589	1914.25
413.812	1897.25
414.035	1859.25
414.258	1834.25
414.482	1879.25
414.705	1871.25
414.928	1859.25
415.151	1840.25
415.374	1873.25
415.597	1827.25
415.821	1809.25
416.044	1817.25
416.267	1801.25
416.49	1811.25
416.713	1803.25
416.936	1828.25
417.159	1790.25
417.382	1780.25
417.605	1766.25
417.828	1764.25
418.051	1766.25
418.274	1823.25
418.497	1786.25
418.72	1793.25
418.943	1847.25
419.166	1956.25
419.389	2063.25
419.611	2000.25
419.834	1956.25
420.057	1890.25
420.28	1817.25
420.503	1799.25
420.726	1791.25
420.948	1757.25
421.171	1813.25
421.394	1807.25
421.617	1796.25
421.839	1784.25
422.062	1793.25
422.285	1807.25
422.507	1828.25
422.73	1753.25
422.953	1824.25
423.175	1846.25
423.398	1816.25
423.621	1815.25
423.843	1850.25
424.066	1835.25
424.288	1853.25
424.511	1810.25
424.733	1841.25
424.956	1799.25
425.178	1827.25
425.401	1808.25
425.623	1827.25
425.846	1793.25
426.068	1735.25
426.291	1744.25
426.513	1779.25
426.735	1779.25
426.958	1762.25
427.18	1728.25
427.402	1780.25
427.625	1767.25
427.847	1662.25
428.069	1738.25
428.292	1739.25
428.514	1681.25
428.736	1696.25
428.958	1695.25
429.181	1685.25
429.403	1687.25
429.625	1664.25
429.847	1669.25
430.069	1703.25
430.292	1689.25
430.514	1696.25
430.736	1695.25
430.958	1682.25
431.18	1673.25
431.402	1683.25
431.624	1700.25
431.846	1685.25
432.068	1695.25
432.29	1705.25
432.512	1699.25
432.734	1687.25
432.956	1727.25
433.178	1735.25
433.4	1733.25
433.622	1748.25
433.844	1750.25
434.066	1696.25
434.287	1710.25
434.509	1731.25
434.731	1828.25
434.953	1835.25
435.175	1848.25
435.397	1805.25
435.618	1795.25
435.84	1772.25
436.062	1722.25
436.284	1774.25
436.505	1712.25
436.727	1678.25
436.949	1705.25
437.17	1714.25
437.392	1711.25
437.614	1679.25
437.835	1633.25
438.057	1648.25
438.278	1609.25
438.5	1636.25
438.721	1657.25
438.943	1659.25
439.165	1639.25
439.386	1677.25
439.608	1691.25
439.829	1708.25
440.05	1715.25
440.272	1702.25
440.493	1707.25
440.715	1715.25
440.936	1745.25
441.158	1741.25
441.379	1777.25
441.6	1809.25
441.822	1828.25
442.043	1811.25
442.264	1816.25
442.486	1803.25
442.707	1835.25
442.928	1809.25
443.149	1823.25
443.371	1772.25
443.592	1805.25
443.813	1829.25
444.034	1881.25
444.255	1862.25
444.476	1922.25
444.698	1991.25
444.919	2058.25
445.14	2084.25
445.361	1959.25
445.582	1942.25
445.803	1849.25
446.024	1771.25
446.245	1797.25
446.466	1799.25
446.687	1718.25
446.908	1734.25
447.129	1677.25
447.35	1650.25
447.571	1631.25
447.792	1629.25
448.013	1597.25
448.234	1604.25
448.455	1608.25
448.675	1605.25
448.896	1587.25
449.117	1556.25
449.338	1577.25
449.559	1557.25
449.779	1573.25
450	1528.25
450.221	1565.25
450.442	1573.25
450.662	1561.25
450.883	1580.25
451.104	1579.25
451.324	1542.25
451.545	1550.25
451.766	1572.25
451.986	1545.25
452.207	1517.25
452.428	1555.25
452.648	1552.25
452.869	1493.25
453.089	1498.25
453.31	1548.25
453.53	1490.25
453.751	1488.25
453.971	1485.25
454.192	1465.25
454.412	1475.25
454.633	1448.25
454.853	1484.25
455.073	1484.25
455.294	1454.25
455.514	1456.25
455.734	1426.25
455.955	1437.25
456.175	1432.25
456.395	1433.25
456.616	1471.25
456.836	1444.25
457.056	1477.25
457.276	1435.25
457.497	1483.25
457.717	1482.25
457.937	1503.25
458.157	1489.25
458.377	1524.25
458.598	1563.25
458.818	1579.25
459.038	1624.25
459.258	1640.25
459.478	1677.25
459.698	1737.25
459.918	1770.25
460.138	1795.25
460.358	1856.25
460.578	1868.25
460.798	1932.25
461.018	1979.25
461.238	1898.25
461.458	1951.25
461.678	1919.25
461.898	1995.25
462.118	1957.25
462.338	2061.25
462.558	2086.25
462.777	2184.25
462.997	2219.25
463.217	2289.25
463.437	2319.25
463.657	2270.25
463.876	2189.25
464.096	2180.25
464.316	2171.25
464.536	2152.25
464.755	2139.25
464.975	2052.25
465.195	1957.25
465.414	1915.25
465.634	1821.25
465.854	1796.25
466.073	1759.25
466.293	1738.25
466.512	1689.25
466.732	1638.25
466.951	1646.25
467.171	1611.25
467.391	1664.25
467.61	1624.25
467.829	1622.25
468.049	1618.25
468.268	1627.25
468.488	1601.25
468.707	1602.25
468.927	1555.25
469.146	1591.25
469.365	1616.25
469.585	1627.25
469.804	1620.25
470.023	1655.25
470.243	1612.25
470.462	1651.25
470.681	1683.25
470.901	1639.25
471.12	1663.25
471.339	1619.25
471.558	1601.25
471.777	1613.25
471.997	1604.25
472.216	1600.25
472.435	1581.25
472.654	1537.25
472.873	1564.25
473.092	1596.25
473.311	1588.25
473.53	1565.25
473.749	1537.25
473.968	1561.25
474.187	1565.25
474.406	1559.25
474.625	1544.25
474.844	1559.25
475.063	1588.25
475.282	1599.25
475.501	1575.25
475.72	1593.25
475.939	1599.25
476.158	1661.25
476.377	1629.25
476.596	1661.25
476.814	1684.25
477.033	1681.25
477.252	1709.25
477.471	1697.25
477.69	1765.25
477.908	1766.25
478.127	1795.25
478.346	1819.25
478.564	1869.25
478.783	1853.25
479.002	1903.25
479.22	1927.25
479.439	1917.25
479.658	1941.25
479.876	1910.25
480.095	1937.25
480.313	1965.25
480.532	1943.25
480.751	1971.25
480.969	1924.25
481.188	1936.25
481.406	1879.25
481.624	1842.25
481.843	1791.25
482.061	1825.25
482.28	1837.25
482.498	1817.25
482.717	1785.25
482.935	1823.25
483.153	1838.25
483.372	1856.25
483.59	1854.25
483.808	1834.25
484.027	1836.25
484.245	1839.25
484.463	1853.25
484.681	1847.25
484.9	1843.25
485.118	1838.25
485.336	1878.25
485.554	1870.25
485.772	1917.25
485.99	1867.25
486.209	1867.25
486.427	1881.25
486.645	1916.25
486.863	1889.25
487.081	1891.25
487.299	1912.25
487.517	1877.25
487.735	1887.25
487.953	1937.25
488.171	1935.25
488.389	1896.25
488.607	1866.25
488.825	1839.25
489.043	1851.25
489.261	1857.25
489.479	1865.25
489.696	1868.25
489.914	1853.25
490.132	1912.25
490.35	1930.25
490.568	1891.25
490.786	1918.25
491.003	1957.25
491.221	1927.25
491.439	1927.25
491.657	1885.25
491.874	1967.25
492.092	2002.25
492.31	1918.25
492.527	1968.25
492.745	1982.25
492.963	1921.25
493.18	1998.25
493.398	1977.25
493.615	1997.25
493.833	1974.25
494.05	2049.25
494.268	2002.25
494.485	2017.25
494.703	2000.25
494.92	2079.25
495.138	2045.25
495.355	2072.25
495.573	2109.25
495.79	2068.25
496.008	2140.25
496.225	2129.25
496.442	2141.25
496.66	2190.25
496.877	2242.25
497.094	2273.25
497.312	2309.25
497.529	2352.25
497.746	2426.25
497.963	2446.25
498.181	2554.25
498.398	2654.25
498.615	2782.25
498.832	2914.25
499.049	3009.25
499.267	3162.25
499.484	3371.25
499.701	3654.25
499.918	3852.25
500.135	4102.25
500.352	4327.25
500.569	4417.25
500.786	4424.25
501.003	4229.25
501.22	4040.25
501.437	3825.25
501.654	3533.25
501.871	3353.25
502.088	3201.25
502.305	3051.25
502.522	2921.25
502.739	2799.25
502.956	2722.25
503.172	2636.25
503.389	2571.25
503.606	2435.25
503.823	2377.25
504.04	2420.25
504.256	2361.25
504.473	2361.25
504.69	2317.25
504.907	2309.25
505.123	2173.25
505.34	2129.25
505.557	2080.25
505.773	2017.25
505.99	2016.25
506.207	1912.25
506.423	1899.25
506.64	1909.25
506.856	1851.25
507.073	1875.25
507.289	1866.25
507.506	1819.25
507.722	1860.25
507.939	1813.25
508.155	1781.25
508.372	1776.25
508.588	1743.25
508.805	1754.25
509.021	1735.25
509.238	1709.25
509.454	1665.25
509.67	1641.25
509.887	1652.25
510.103	1623.25
510.319	1651.25
510.536	1654.25
510.752	1632.25
510.968	1648.25
511.184	1629.25
511.401	1648.25
511.617	1634.25
511.833	1641.25
512.049	1620.25
512.265	1628.25
512.481	1625.25
512.698	1647.25
512.914	1633.25
513.13	1607.25
513.346	1624.25
513.562	1608.25
513.778	1662.25
513.994	1644.25
514.21	1697.25
514.426	1661.25
514.642	1656.25
514.858	1666.25
515.074	1705.25
515.29	1699.25
515.506	1681.25
515.721	1722.25
515.937	1763.25
516.153	1789.25
516.369	1789.25
516.585	1864.25
516.801	1904.25
517.016	1903.25
517.232	1971.25
517.448	1991.25
517.664	2009.25
517.879	2028.25
518.095	2012.25
518.311	1985.25
518.527	1972.25
518.742	1912.25
518.958	1875.25
519.173	1875.25
519.389	1797.25
519.605	1753.25
519.82	1711.25
520.036	1719.25
520.251	1687.25
520.467	1673.25
520.682	1661.25
520.898	1652.25
521.113	1577.25
521.329	1580.25
521.544	1567.25
521.76	1566.25
521.975	1579.25
522.19	1511.25
522.406	1506.25
522.621	1541.25
522.836	1487.25
523.052	1533.25
523.267	1543.25
523.482	1521.25
523.698	1493.25
523.913	1492.25
524.128	1472.25
524.343	1505.25
524.559	1465.25
524.774	1487.25
524.989	1471.25
525.204	1484.25
525.419	1469.25
525.634	1459.25
525.849	1483.25
526.064	1465.25
526.28	1418.25
526.495	1431.25
526.71	1440.25
526.925	1411.25
527.14	1435.25
527.355	1423.25
527.57	1453.25
527.785	1438.25
527.999	1442.25
528.214	1409.25
528.429	1424.25
528.644	1389.25
528.859	1470.25
529.074	1395.25
529.289	1443.25
529.503	1427.25
529.718	1401.25
529.933	1415.25
530.148	1438.25
530.363	1418.25
530.577	1424.25
530.792	1441.25
531.007	1399.25
531.221	1412.25
531.436	1421.25
531.651	1437.25
531.865	1425.25
532.08	1444.25
532.295	1423.25
532.509	1423.25
532.724	1408.25
532.938	1388.25
533.153	1421.25
533.367	1422.25
533.582	1432.25
533.796	1428.25
534.011	1385.25
534.225	1411.25
534.44	1385.25
534.654	1389.25
534.868	1355.25
535.083	1371.25
535.297	1384.25
535.511	1373.25
535.726	1387.25
535.94	1367.25
536.154	1332.25
536.369	1348.25
536.583	1314.25
536.797	1341.25
537.011	1332.25
537.225	1327.25
537.44	1350.25
537.654	1324.25
537.868	1321.25
538.082	1303.25
538.296	1314.25
538.51	1275.25
538.724	1285.25
538.938	1316.25
539.153	1321.25
539.367	1322.25
539.581	1283.25
539.795	1302.25
540.009	1283.25
540.222	1309.25
540.436	1287.25
540.65	1262.25
540.864	1271.25
541.078	1265.25
541.292	1276.25
541.506	1343.25
541.72	1301.25
541.934	1282.25
542.147	1303.25
542.361	1278.25
542.575	1298.25
542.789	1285.25
543.002	1257.25
543.216	1280.25
543.43	1272.25
543.644	1245.25
543.857	1259.25
544.071	1283.25
544.285	1265.25
544.498	1259.25
544.712	1257.25
544.925	1288.25
545.139	1334.25
545.352	1259.25
545.566	1272.25
545.779	1281.25
545.993	1315.25
546.206	1342.25
546.42	1318.25
546.633	1315.25
546.847	1330.25
547.06	1324.25
547.274	1291.25
547.487	1305.25
547.7	1251.25
547.914	1339.25
548.127	1303.25
548.34	1277.25
548.554	1267.25
548.767	1322.25
548.98	1315.25
549.193	1314.25
549.407	1294.25
549.62	1305.25
549.833	1292.25
550.046	1289.25
550.259	1271.25
550.473	1278.25
550.686	1292.25
550.899	1295.25
551.112	1299.25
551.325	1288.25
551.538	1305.25
551.751	1289.25
551.964	1251.25
552.177	1319.25
552.39	1321.25
552.603	1309.25
552.816	1350.25
553.029	1367.25
553.242	1351.25
553.455	1336.25
553.667	1350.25
553.88	1329.25
554.093	1286.25
554.306	1301.25
554.519	1278.25
554.732	1261.25
554.944	1251.25
555.157	1232.25
555.37	1217.25
555.583	1221.25
555.795	1195.25
556.008	1175.25
556.221	1136.25
556.433	1140.25
556.646	1141.25
556.859	1157.25
557.071	1143.25
557.284	1093.25
557.496	1120.25
557.709	1095.25
557.921	1082.25
558.134	1121.25
558.346	1093.25
558.559	1083.25
558.771	1082.25
558.984	1117.25
559.196	1092.25
559.409	1069.25
559.621	1107.25
559.833	1091.25
560.046	1079.25
560.258	1065.25
560.47	1053.25
560.683	1064.25
560.895	1075.25
561.107	1041.25
561.32	1059.25
561.532	1076.25
561.744	1056.25
561.956	1040.25
562.168	1077.25
562.381	1113.25
562.593	1072.25
562.805	1093.25
563.017	1064.25
563.229	1085.25
563.441	1082.25
563.653	1090.25
563.865	1112.25
564.077	1134.25
564.289	1112.25
564.501	1158.25
564.713	1197.25
564.925	1179.25
565.137	1193.25
565.349	1198.25
565.561	1243.25
565.773	1269.25
565.985	1326.25
566.197	1335.25
566.408	1399.25
566.62	1447.25
566.832	1471.25
567.044	1553.25
567.255	1536.25
567.467	1565.25
567.679	1591.25
567.891	1638.25
568.102	1603.25
568.314	1526.25
568.526	1480.25
568.737	1410.25
568.949	1338.25
569.161	1315.25
569.372	1234.25
569.584	1211.25
569.795	1163.25
570.007	1130.25
570.218	1112.25
570.43	1119.25
570.641	1090.25
570.853	1046.25
571.064	1039.25
571.276	1012.25
571.487	1012.25
571.698	989.25
571.91	986.25
572.121	977.25
572.333	970.25
572.544	952.25
572.755	920.25
572.966	907.25
573.178	916.25
573.389	901.25
573.6	857.25
573.811	895.25
574.023	910.25
574.234	880.25
574.445	861.25
574.656	820.25
574.867	849.25
575.078	870.25
575.289	846.25
575.501	834.25
575.712	801.25
575.923	811.25
576.134	832.25
576.345	822.25
576.556	816.25
576.767	805.25
576.978	807.25
577.188	800.25
577.399	808.25
577.61	795.25
577.821	800.25
578.032	785.25
578.243	776.25
578.454	783.25
578.665	759.25
578.875	780.25
579.086	759.25
579.297	745.25
579.508	746.25
579.718	764.25
579.929	749.25
580.14	745.25
580.35	749.25
580.561	752.25
580.772	736.25
580.982	746.25
581.193	722.25
581.403	726.25
581.614	753.25
581.825	735.25
582.035	705.25
582.246	729.25
582.456	715.25
582.667	718.25
582.877	704.25
583.087	707.25
583.298	716.25
583.508	717.25
583.719	689.25
583.929	695.25
584.139	707.25
584.35	684.25
584.56	714.25
584.77	711.25
584.981	714.25
585.191	716.25
585.401	706.25
585.611	688.25
585.821	704.25
586.032	682.25
586.242	671.25
586.452	676.25
586.662	689.25
586.872	648.25
587.082	660.25
587.292	680.25
587.502	670.25
587.713	672.25
587.923	696.25
588.133	687.25
588.343	675.25
588.553	668.25
588.762	679.25
588.972	691.25
589.182	716.25
589.392	717.25
589.602	686.25
589.812	726.25
590.022	697.25
590.232	712.25
590.441	695.25
590.651	678.25
590.861	686.25
591.071	676.25
591.281	704.25
591.49	677.25
591.7	703.25
591.91	711.25
592.119	725.25
592.329	722.25
592.539	740.25
592.748	741.25
592.958	747.25
593.167	738.25
593.377	736.25
593.587	799.25
593.796	733.25
594.006	771.25
594.215	771.25
594.424	749.25
594.634	757.25
594.843	728.25
595.053	731.25
595.262	725.25
595.472	691.25
595.681	683.25
595.89	658.25
596.1	647.25
596.309	671.25
596.518	649.25
596.727	629.25
596.937	632.25
597.146	639.25
597.355	615.25
597.564	599.25
597.774	614.25
597.983	597.25
598.192	607.25
598.401	593.25
598.61	576.25
598.819	589.25
599.028	593.25
599.237	573.25
599.446	579.25
599.655	577.25
599.864	554.25
600.073	566.25
600.282	553.25
600.491	545.25
600.7	551.25
600.909	540.25
601.118	561.25
601.327	554.25
601.536	551.25
601.745	539.25
601.953	549.25
602.162	544.25
602.371	525.25
602.58	531.25
602.789	530.25
602.997	543.25
603.206	532.25
603.415	503.25
603.623	513.25
603.832	488.25
604.041	517.25
604.249	519.25
604.458	521.25
604.666	503.25
604.875	509.25
605.084	525.25
605.292	496.25
605.501	515.25
605.709	521.25
605.918	501.25
606.126	505.25
606.334	511.25
606.543	517.25
606.751	511.25
606.96	526.25
607.168	484.25
607.376	488.25
607.585	520.25
607.793	508.25
608.001	507.25
608.21	478.25
608.418	487.25
608.626	511.25
608.834	492.25
609.043	494.25
609.251	480.25
609.459	484.25
609.667	460.25
609.875	475.25
610.083	475.25
610.291	472.25
610.499	485.25
610.707	476.25
610.916	463.25
611.124	476.25
611.332	488.25
611.54	484.25
611.748	473.25
611.955	484.25
612.163	468.25
612.371	467.25
612.579	467.25
612.787	456.25
612.995	454.25
613.203	454.25
613.411	468.25
613.618	469.25
613.826	472.25
614.034	477.25
614.242	451.25
614.449	472.25
614.657	445.25
614.865	447.25
615.072	443.25
615.28	457.25
615.488	459.25
615.695	456.25
615.903	437.25
616.111	442.25
616.318	447.25
616.526	460.25
616.733	457.25
616.941	442.25
617.148	440.25
617.356	441.25
617.563	442.25
617.771	450.25
617.978	447.25
618.185	425.25
618.393	449.25
618.6	458.25
618.807	444.25
619.015	441.25
619.222	425.25
619.429	425.25
619.637	439.25
619.844	435.25
620.051	435.25
620.258	412.25
620.466	416.25
620.673	398.25
620.88	407.25
621.087	404.25
621.294	421.25
621.501	431.25
621.708	407.25
621.915	415.25
622.122	423.25
622.329	427.25
622.536	425.25
622.743	395.25
622.95	414.25
623.157	406.25
623.364	419.25
623.571	400.25
623.778	407.25
623.985	424.25
624.192	403.25
624.399	387.25
624.606	401.25
624.812	391.25
625.019	384.25
625.226	395.25
625.433	386.25
625.639	395.25
625.846	392.25
626.053	366.25
626.259	391.25
626.466	381.25
626.673	376.25
626.879	382.25
627.086	372.25
627.293	374.25
627.499	389.25
627.706	362.25
627.912	364.25
628.119	374.25
628.325	398.25
628.532	363.25
628.738	377.25
628.945	371.25
629.151	358.25
629.357	375.25
629.564	359.25
629.77	343.25
629.976	362.25
630.183	358.25
630.389	363.25
630.595	374.25
630.802	355.25
631.008	364.25
631.214	357.25
631.42	346.25
631.627	357.25
631.833	350.25
632.039	337.25
632.245	349.25
632.451	332.25
632.657	335.25
632.863	342.25
633.069	351.25
633.275	358.25
633.481	327.25
633.688	339.25
633.893	344.25
634.099	330.25
634.305	333.25
634.511	329.25
634.717	341.25
634.923	324.25
635.129	326.25
635.335	323.25
635.541	325.25
635.747	310.25
635.952	331.25
636.158	323.25
636.364	320.25
636.57	336.25
636.775	318.25
636.981	321.25
637.187	306.25
637.392	316.25
637.598	295.25
637.804	313.25
638.009	311.25
638.215	328.25
638.421	320.25
638.626	305.25
638.832	313.25
639.037	302.25
639.243	332.25
639.448	318.25
639.654	318.25
639.859	302.25
640.065	304.25
640.27	324.25
640.475	312.25
640.681	300.25
640.886	306.25
641.091	294.25
641.297	301.25
641.502	300.25
641.707	288.25
641.913	299.25
642.118	289.25
642.323	292.25
642.528	289.25
642.733	311.25
642.939	291.25
643.144	302.25
643.349	282.25
643.554	283.25
643.759	296.25
643.964	282.25
644.169	287.25
644.374	272.25
644.579	304.25
644.784	295.25
644.989	273.25
645.194	285.25
645.399	287.25
645.604	291.25
645.809	301.25
646.014	291.25
646.219	288.25
646.423	288.25
646.628	280.25
646.833	277.25
647.038	271.25
647.243	293.25
647.447	280.25
647.652	300.25
647.857	297.25
648.062	297.25
648.266	291.25
648.471	291.25
648.676	281.25
648.88	276.25
649.085	295.25
649.289	275.25
649.494	287.25
649.698	300.25
649.903	273.25
650.107	264.25
650.312	268.25
650.516	277.25
650.721	245.25
650.925	272.25
651.13	263.25
651.334	256.25
651.539	240.25
651.743	241.25
651.947	245.25
652.152	243.25
652.356	240.25
652.56	243.25
652.764	222.25
652.969	234.25
653.173	245.25
653.377	220.25
653.581	243.25
653.785	226.25
653.99	230.25
654.194	220.25
654.398	209.25
654.602	204.25
654.806	225.25
655.01	223.25
655.214	216.25
655.418	215.25
655.622	203.25
655.826	203.25
656.03	200.25
656.234	205.25
656.438	203.25
656.642	200.25
656.846	190.25
657.049	187.25
657.253	179.25
657.457	169.25
657.661	169.25
657.865	174.25
658.068	158.25
658.272	161.25
658.476	133.25
658.68	140.25
658.883	137.25
659.087	119.25
659.291	135.25
659.494	139.25
659.698	120.25
659.901	127.25
660.105	126.25
660.309	130.25
660.512	99.25
660.716	111.25
660.919	120.25
661.123	120.25
661.326	100.25
661.53	108.25
661.733	107.25
661.936	106.25
662.14	112.25
662.343	101.25
662.546	85.25
662.75	98.25
662.953	86.25
663.156	101.25
663.36	86.25
663.563	102.25
663.766	94.25
663.969	91.25
664.173	90.25
664.376	86.25
664.579	89.25
664.782	88.25
664.985	74.25
665.188	79.25
665.391	91.25
665.594	80.25
665.797	89.25
666	89.25
666.203	93.25
666.406	87.25
666.609	85.25
666.812	79.25
667.015	85.25
667.218	85.25
667.421	94.25
667.624	83.25
667.827	82.25
668.03	63.25
668.232	77.25
668.435	79.25
668.638	75.25
668.841	79.25
669.043	87.25
669.246	90.25
669.449	77.25
669.651	81.25
669.854	85.25
670.057	77.25
670.259	84.25
670.462	84.25
670.665	92.25
670.867	95.25
671.07	94.25
671.272	89.25
671.475	74.25
671.677	76.25
671.88	85.25
672.082	83.25
672.284	80.25
672.487	88.25
672.689	84.25
672.892	80.25
