Data from Ni(NO3)2Standard.Agarose3%.GreenCap.LampEnergy5.5.E.O_HRD10591_14-40-22-188.txt Node
Date: Mon Jul 22 14:40:22 EDT 2019
User: cochatt
Spectrometer: HR+D1059
Trigger mode: 1
Integration Time (sec): 1.000000E-1
Scans to average: 1
Electric dark correction enabled: true
Nonlinearity correction enabled: false
Boxcar width: 0
XAxis mode: Wavelengths
Number of Pixels in Spectrum: 2048
>>>>>Begin Spectral Data<<<<<
223.165	-14.12
223.4	-14.12
223.635	-14.12
223.869	-29.12
224.104	-23.12
224.338	-23.12
224.573	-18.12
224.808	-13.12
225.042	-6.12
225.277	-10.12
225.511	-10.12
225.746	12.88
225.98	7.88
226.215	22.88
226.449	2.88
226.683	26.88
226.918	40.88
227.152	32.88
227.387	41.88
227.621	47.88
227.856	39.88
228.09	42.88
228.324	55.88
228.559	53.88
228.793	52.88
229.027	61.88
229.262	66.88
229.496	57.88
229.73	69.88
229.964	68.88
230.199	70.88
230.433	77.88
230.667	71.88
230.901	91.88
231.136	74.88
231.37	64.88
231.604	73.88
231.838	84.88
232.072	82.88
232.306	61.88
232.541	88.88
232.775	78.88
233.009	73.88
233.243	80.88
233.477	79.88
233.711	83.88
233.945	85.88
234.179	76.88
234.413	82.88
234.647	89.88
234.881	83.88
235.115	81.88
235.349	76.88
235.583	81.88
235.817	71.88
236.051	80.88
236.285	81.88
236.519	84.88
236.753	67.88
236.987	72.88
237.221	86.88
237.455	82.88
237.689	92.88
237.922	74.88
238.156	82.88
238.39	71.88
238.624	79.88
238.858	82.88
239.091	85.88
239.325	75.88
239.559	79.88
239.793	89.88
240.027	81.88
240.26	59.88
240.494	69.88
240.728	75.88
240.961	81.88
241.195	83.88
241.429	77.88
241.662	72.88
241.896	76.88
242.13	80.88
242.363	83.88
242.597	72.88
242.83	76.88
243.064	80.88
243.298	76.88
243.531	81.88
243.765	86.88
243.998	85.88
244.232	72.88
244.465	70.88
244.699	77.88
244.932	75.88
245.166	82.88
245.399	86.88
245.633	80.88
245.866	73.88
246.099	82.88
246.333	85.88
246.566	76.88
246.8	82.88
247.033	94.88
247.266	85.88
247.5	91.88
247.733	97.88
247.966	83.88
248.2	79.88
248.433	78.88
248.666	84.88
248.899	80.88
249.133	82.88
249.366	84.88
249.599	100.88
249.832	75.88
250.066	88.88
250.299	81.88
250.532	81.88
250.765	71.88
250.998	88.88
251.231	61.88
251.465	81.88
251.698	79.88
251.931	88.88
252.164	85.88
252.397	63.88
252.63	64.88
252.863	73.88
253.096	75.88
253.329	89.88
253.562	94.88
253.795	75.88
254.028	82.88
254.261	74.88
254.494	90.88
254.727	84.88
254.96	81.88
255.193	75.88
255.426	69.88
255.659	69.88
255.892	77.88
256.124	78.88
256.357	81.88
256.59	72.88
256.823	79.88
257.056	98.88
257.289	87.88
257.521	88.88
257.754	88.88
257.987	79.88
258.22	82.88
258.452	63.88
258.685	82.88
258.918	93.88
259.151	74.88
259.383	80.88
259.616	70.88
259.849	80.88
260.081	88.88
260.314	70.88
260.547	74.88
260.779	83.88
261.012	79.88
261.244	75.88
261.477	80.88
261.71	81.88
261.942	92.88
262.175	91.88
262.407	84.88
262.64	85.88
262.872	83.88
263.105	80.88
263.337	95.88
263.57	88.88
263.802	76.88
264.035	87.88
264.267	73.88
264.499	97.88
264.732	85.88
264.964	84.88
265.197	82.88
265.429	83.88
265.661	78.88
265.894	70.88
266.126	84.88
266.358	80.88
266.591	77.88
266.823	91.88
267.055	67.88
267.287	83.88
267.52	91.88
267.752	67.88
267.984	74.88
268.216	91.88
268.448	78.88
268.681	92.88
268.913	84.88
269.145	93.88
269.377	86.88
269.609	66.88
269.841	74.88
270.073	83.88
270.306	83.88
270.538	80.88
270.77	72.88
271.002	81.88
271.234	84.88
271.466	74.88
271.698	72.88
271.93	72.88
272.162	82.88
272.394	90.88
272.626	81.88
272.858	100.88
273.09	73.88
273.322	77.88
273.553	89.88
273.785	78.88
274.017	90.88
274.249	86.88
274.481	82.88
274.713	85.88
274.945	72.88
275.176	82.88
275.408	76.88
275.64	93.88
275.872	95.88
276.104	71.88
276.335	71.88
276.567	87.88
276.799	73.88
277.031	81.88
277.262	83.88
277.494	100.88
277.726	86.88
277.957	77.88
278.189	80.88
278.421	100.88
278.652	78.88
278.884	67.88
279.115	82.88
279.347	87.88
279.579	73.88
279.81	87.88
280.042	85.88
280.273	87.88
280.505	85.88
280.736	83.88
280.968	83.88
281.199	74.88
281.431	80.88
281.662	77.88
281.894	92.88
282.125	81.88
282.356	84.88
282.588	87.88
282.819	90.88
283.051	81.88
283.282	92.88
283.513	85.88
283.745	82.88
283.976	80.88
284.207	81.88
284.439	88.88
284.67	88.88
284.901	84.88
285.132	87.88
285.364	85.88
285.595	90.88
285.826	90.88
286.057	77.88
286.288	74.88
286.52	87.88
286.751	84.88
286.982	86.88
287.213	84.88
287.444	78.88
287.675	87.88
287.906	80.88
288.138	77.88
288.369	85.88
288.6	87.88
288.831	84.88
289.062	95.88
289.293	84.88
289.524	93.88
289.755	88.88
289.986	78.88
290.217	83.88
290.448	72.88
290.679	89.88
290.91	83.88
291.141	84.88
291.371	83.88
291.602	81.88
291.833	84.88
292.064	84.88
292.295	84.88
292.526	81.88
292.757	75.88
292.987	91.88
293.218	104.88
293.449	81.88
293.68	93.88
293.91	98.88
294.141	105.88
294.372	99.88
294.603	91.88
294.833	77.88
295.064	92.88
295.295	102.88
295.525	86.88
295.756	94.88
295.987	90.88
296.217	94.88
296.448	73.88
296.679	81.88
296.909	82.88
297.14	85.88
297.37	78.88
297.601	90.88
297.831	82.88
298.062	79.88
298.292	82.88
298.523	93.88
298.753	69.88
298.984	74.88
299.214	83.88
299.445	77.88
299.675	85.88
299.905	83.88
300.136	81.88
300.366	86.88
300.597	78.88
300.827	90.88
301.057	83.88
301.288	93.88
301.518	87.88
301.748	88.88
301.979	81.88
302.209	85.88
302.439	86.88
302.669	85.88
302.9	78.88
303.13	85.88
303.36	86.88
303.59	82.88
303.82	88.88
304.051	93.88
304.281	82.88
304.511	85.88
304.741	89.88
304.971	75.88
305.201	86.88
305.431	87.88
305.661	87.88
305.891	87.88
306.121	82.88
306.352	86.88
306.582	84.88
306.812	83.88
307.042	80.88
307.272	82.88
307.502	74.88
307.731	66.88
307.961	86.88
308.191	99.88
308.421	99.88
308.651	83.88
308.881	93.88
309.111	84.88
309.341	72.88
309.571	82.88
309.8	95.88
310.03	80.88
310.26	85.88
310.49	85.88
310.72	101.88
310.949	88.88
311.179	91.88
311.409	95.88
311.639	99.88
311.868	74.88
312.098	85.88
312.328	93.88
312.557	91.88
312.787	77.88
313.017	83.88
313.246	90.88
313.476	83.88
313.706	91.88
313.935	73.88
314.165	90.88
314.394	84.88
314.624	86.88
314.853	90.88
315.083	80.88
315.312	77.88
315.542	83.88
315.771	81.88
316.001	71.88
316.23	85.88
316.46	89.88
316.689	77.88
316.919	88.88
317.148	95.88
317.377	98.88
317.607	90.88
317.836	78.88
318.065	77.88
318.295	80.88
318.524	79.88
318.753	106.88
318.983	83.88
319.212	82.88
319.441	93.88
319.67	97.88
319.9	94.88
320.129	78.88
320.358	86.88
320.587	81.88
320.816	76.88
321.046	87.88
321.275	85.88
321.504	93.88
321.733	88.88
321.962	75.88
322.191	84.88
322.42	74.88
322.649	82.88
322.878	81.88
323.108	85.88
323.337	79.88
323.566	86.88
323.795	83.88
324.024	95.88
324.253	91.88
324.482	99.88
324.71	84.88
324.939	102.88
325.168	79.88
325.397	96.88
325.626	94.88
325.855	83.88
326.084	99.88
326.313	82.88
326.542	87.88
326.77	86.88
326.999	105.88
327.228	81.88
327.457	84.88
327.686	99.88
327.914	93.88
328.143	82.88
328.372	83.88
328.6	100.88
328.829	87.88
329.058	89.88
329.287	84.88
329.515	95.88
329.744	86.88
329.972	99.88
330.201	97.88
330.43	98.88
330.658	85.88
330.887	81.88
331.115	87.88
331.344	83.88
331.572	83.88
331.801	96.88
332.03	80.88
332.258	92.88
332.486	78.88
332.715	76.88
332.943	74.88
333.172	96.88
333.4	73.88
333.629	83.88
333.857	88.88
334.085	78.88
334.314	100.88
334.542	87.88
334.771	91.88
334.999	84.88
335.227	79.88
335.455	81.88
335.684	98.88
335.912	84.88
336.14	89.88
336.369	82.88
336.597	85.88
336.825	94.88
337.053	88.88
337.281	80.88
337.51	77.88
337.738	85.88
337.966	72.88
338.194	90.88
338.422	89.88
338.65	93.88
338.878	91.88
339.106	80.88
339.334	80.88
339.562	69.88
339.79	90.88
340.018	95.88
340.246	81.88
340.474	85.88
340.702	82.88
340.93	84.88
341.158	85.88
341.386	97.88
341.614	87.88
341.842	109.88
342.07	82.88
342.298	79.88
342.526	92.88
342.754	82.88
342.981	88.88
343.209	86.88
343.437	98.88
343.665	86.88
343.893	91.88
344.12	89.88
344.348	74.88
344.576	77.88
344.804	92.88
345.031	84.88
345.259	81.88
345.487	86.88
345.714	85.88
345.942	74.88
346.17	82.88
346.397	89.88
346.625	77.88
346.853	94.88
347.08	81.88
347.308	89.88
347.535	84.88
347.763	73.88
347.99	93.88
348.218	82.88
348.445	80.88
348.673	83.88
348.9	87.88
349.128	87.88
349.355	71.88
349.583	83.88
349.81	91.88
350.037	85.88
350.265	89.88
350.492	92.88
350.72	96.88
350.947	85.88
351.174	78.88
351.402	76.88
351.629	92.88
351.856	87.88
352.083	92.88
352.311	90.88
352.538	82.88
352.765	84.88
352.992	81.88
353.22	89.88
353.447	85.88
353.674	95.88
353.901	74.88
354.128	86.88
354.355	79.88
354.583	76.88
354.81	83.88
355.037	95.88
355.264	88.88
355.491	97.88
355.718	86.88
355.945	90.88
356.172	87.88
356.399	88.88
356.626	82.88
356.853	83.88
357.08	96.88
357.307	86.88
357.534	72.88
357.761	84.88
357.988	78.88
358.215	81.88
358.441	92.88
358.668	78.88
358.895	76.88
359.122	89.88
359.349	81.88
359.576	81.88
359.802	77.88
360.029	89.88
360.256	95.88
360.483	91.88
360.709	81.88
360.936	85.88
361.163	91.88
361.39	73.88
361.616	73.88
361.843	96.88
362.07	79.88
362.296	86.88
362.523	99.88
362.749	90.88
362.976	91.88
363.203	85.88
363.429	97.88
363.656	66.88
363.882	83.88
364.109	101.88
364.335	84.88
364.562	82.88
364.788	92.88
365.015	81.88
365.241	85.88
365.468	91.88
365.694	82.88
365.92	94.88
366.147	73.88
366.373	77.88
366.599	83.88
366.826	96.88
367.052	95.88
367.278	82.88
367.505	93.88
367.731	69.88
367.957	93.88
368.184	84.88
368.41	76.88
368.636	88.88
368.862	100.88
369.089	92.88
369.315	86.88
369.541	86.88
369.767	97.88
369.993	82.88
370.219	90.88
370.445	86.88
370.672	97.88
370.898	95.88
371.124	93.88
371.35	93.88
371.576	81.88
371.802	78.88
372.028	80.88
372.254	81.88
372.48	83.88
372.706	93.88
372.932	92.88
373.158	85.88
373.384	86.88
373.61	84.88
373.835	81.88
374.061	87.88
374.287	87.88
374.513	88.88
374.739	77.88
374.965	87.88
375.191	87.88
375.416	93.88
375.642	76.88
375.868	89.88
376.094	90.88
376.319	81.88
376.545	80.88
376.771	81.88
376.997	82.88
377.222	96.88
377.448	86.88
377.674	75.88
377.899	86.88
378.125	90.88
378.35	87.88
378.576	101.88
378.802	76.88
379.027	84.88
379.253	85.88
379.478	75.88
379.704	73.88
379.929	83.88
380.155	79.88
380.38	84.88
380.606	90.88
380.831	77.88
381.057	84.88
381.282	88.88
381.507	93.88
381.733	88.88
381.958	83.88
382.184	87.88
382.409	84.88
382.634	97.88
382.86	85.88
383.085	86.88
383.31	85.88
383.535	82.88
383.761	82.88
383.986	80.88
384.211	96.88
384.436	73.88
384.662	82.88
384.887	85.88
385.112	73.88
385.337	61.88
385.562	75.88
385.787	77.88
386.013	77.88
386.238	86.88
386.463	77.88
386.688	83.88
386.913	74.88
387.138	85.88
387.363	92.88
387.588	91.88
387.813	77.88
388.038	79.88
388.263	77.88
388.488	81.88
388.713	73.88
388.938	85.88
389.163	86.88
389.387	97.88
389.612	82.88
389.837	82.88
390.062	83.88
390.287	78.88
390.512	99.88
390.736	82.88
390.961	89.88
391.186	79.88
391.411	101.88
391.636	84.88
391.86	84.88
392.085	79.88
392.31	76.88
392.534	83.88
392.759	83.88
392.984	88.88
393.208	81.88
393.433	89.88
393.658	89.88
393.882	79.88
394.107	79.88
394.331	88.88
394.556	101.88
394.78	67.88
395.005	83.88
395.229	84.88
395.454	83.88
395.678	84.88
395.903	86.88
396.127	76.88
396.352	91.88
396.576	93.88
396.801	86.88
397.025	84.88
397.249	90.88
397.474	97.88
397.698	95.88
397.922	88.88
398.147	93.88
398.371	99.88
398.595	91.88
398.82	87.88
399.044	80.88
399.268	83.88
399.492	92.88
399.717	106.88
399.941	89.88
400.165	102.88
400.389	87.88
400.613	88.88
400.837	101.88
401.062	92.88
401.286	87.88
401.51	89.88
401.734	84.88
401.958	89.88
402.182	87.88
402.406	93.88
402.63	90.88
402.854	81.88
403.078	86.88
403.302	97.88
403.526	87.88
403.75	89.88
403.974	94.88
404.198	92.88
404.422	88.88
404.645	90.88
404.869	93.88
405.093	97.88
405.317	76.88
405.541	90.88
405.765	78.88
405.988	89.88
406.212	83.88
406.436	87.88
406.66	82.88
406.883	103.88
407.107	85.88
407.331	88.88
407.555	77.88
407.778	79.88
408.002	81.88
408.226	96.88
408.449	87.88
408.673	89.88
408.896	83.88
409.12	103.88
409.344	88.88
409.567	87.88
409.791	75.88
410.014	90.88
410.238	80.88
410.461	97.88
410.685	91.88
410.908	77.88
411.132	91.88
411.355	84.88
411.578	99.88
411.802	71.88
412.025	89.88
412.249	75.88
412.472	87.88
412.695	87.88
412.919	84.88
413.142	85.88
413.365	84.88
413.589	86.88
413.812	90.88
414.035	87.88
414.258	101.88
414.482	81.88
414.705	85.88
414.928	107.88
415.151	94.88
415.374	79.88
415.597	81.88
415.821	85.88
416.044	76.88
416.267	92.88
416.49	91.88
416.713	84.88
416.936	73.88
417.159	97.88
417.382	85.88
417.605	79.88
417.828	88.88
418.051	89.88
418.274	84.88
418.497	84.88
418.72	82.88
418.943	84.88
419.166	78.88
419.389	80.88
419.611	82.88
419.834	80.88
420.057	81.88
420.28	91.88
420.503	79.88
420.726	90.88
420.948	79.88
421.171	87.88
421.394	95.88
421.617	88.88
421.839	86.88
422.062	86.88
422.285	67.88
422.507	83.88
422.73	72.88
422.953	89.88
423.175	76.88
423.398	98.88
423.621	90.88
423.843	80.88
424.066	89.88
424.288	68.88
424.511	88.88
424.733	90.88
424.956	95.88
425.178	81.88
425.401	85.88
425.623	89.88
425.846	88.88
426.068	77.88
426.291	83.88
426.513	83.88
426.735	98.88
426.958	82.88
427.18	64.88
427.402	89.88
427.625	82.88
427.847	76.88
428.069	88.88
428.292	86.88
428.514	84.88
428.736	84.88
428.958	90.88
429.181	88.88
429.403	70.88
429.625	95.88
429.847	85.88
430.069	78.88
430.292	66.88
430.514	70.88
430.736	80.88
430.958	87.88
431.18	89.88
431.402	81.88
431.624	84.88
431.846	84.88
432.068	85.88
432.29	82.88
432.512	100.88
432.734	89.88
432.956	87.88
433.178	94.88
433.4	99.88
433.622	80.88
433.844	80.88
434.066	84.88
434.287	92.88
434.509	80.88
434.731	71.88
434.953	90.88
435.175	87.88
435.397	91.88
435.618	83.88
435.84	69.88
436.062	73.88
436.284	86.88
436.505	86.88
436.727	86.88
436.949	80.88
437.17	91.88
437.392	84.88
437.614	100.88
437.835	85.88
438.057	100.88
438.278	91.88
438.5	80.88
438.721	89.88
438.943	85.88
439.165	79.88
439.386	75.88
439.608	88.88
439.829	91.88
440.05	76.88
440.272	102.88
440.493	94.88
440.715	57.88
440.936	94.88
441.158	92.88
441.379	76.88
441.6	71.88
441.822	91.88
442.043	79.88
442.264	99.88
442.486	96.88
442.707	84.88
442.928	75.88
443.149	90.88
443.371	81.88
443.592	97.88
443.813	90.88
444.034	96.88
444.255	91.88
444.476	88.88
444.698	98.88
444.919	90.88
445.14	205.88
445.361	127.88
445.582	93.88
445.803	83.88
446.024	96.88
446.245	102.88
446.466	65.88
446.687	94.88
446.908	72.88
447.129	81.88
447.35	80.88
447.571	68.88
447.792	87.88
448.013	94.88
448.234	90.88
448.455	97.88
448.675	91.88
448.896	84.88
449.117	101.88
449.338	89.88
449.559	82.88
449.779	74.88
450	92.88
450.221	92.88
450.442	68.88
450.662	87.88
450.883	90.88
451.104	70.88
451.324	91.88
451.545	74.88
451.766	91.88
451.986	75.88
452.207	81.88
452.428	85.88
452.648	84.88
452.869	87.88
453.089	93.88
453.31	84.88
453.53	84.88
453.751	102.88
453.971	85.88
454.192	95.88
454.412	91.88
454.633	82.88
454.853	80.88
455.073	92.88
455.294	84.88
455.514	76.88
455.734	84.88
455.955	87.88
456.175	71.88
456.395	83.88
456.616	72.88
456.836	90.88
457.056	80.88
457.276	86.88
457.497	82.88
457.717	91.88
457.937	89.88
458.157	91.88
458.377	88.88
458.598	95.88
458.818	95.88
459.038	95.88
459.258	89.88
459.478	81.88
459.698	91.88
459.918	83.88
460.138	87.88
460.358	93.88
460.578	69.88
460.798	78.88
461.018	83.88
461.238	82.88
461.458	77.88
461.678	96.88
461.898	87.88
462.118	90.88
462.338	89.88
462.558	100.88
462.777	91.88
462.997	97.88
463.217	91.88
463.437	76.88
463.657	87.88
463.876	101.88
464.096	84.88
464.316	86.88
464.536	96.88
464.755	80.88
464.975	84.88
465.195	79.88
465.414	95.88
465.634	88.88
465.854	88.88
466.073	85.88
466.293	99.88
466.512	103.88
466.732	93.88
466.951	91.88
467.171	91.88
467.391	81.88
467.61	79.88
467.829	88.88
468.049	98.88
468.268	97.88
468.488	88.88
468.707	76.88
468.927	77.88
469.146	85.88
469.365	98.88
469.585	96.88
469.804	93.88
470.023	92.88
470.243	90.88
470.462	86.88
470.681	87.88
470.901	85.88
471.12	90.88
471.339	93.88
471.558	95.88
471.777	93.88
471.997	81.88
472.216	91.88
472.435	82.88
472.654	97.88
472.873	90.88
473.092	87.88
473.311	81.88
473.53	72.88
473.749	89.88
473.968	91.88
474.187	90.88
474.406	79.88
474.625	87.88
474.844	90.88
475.063	85.88
475.282	88.88
475.501	97.88
475.72	90.88
475.939	83.88
476.158	94.88
476.377	78.88
476.596	80.88
476.814	87.88
477.033	81.88
477.252	81.88
477.471	85.88
477.69	92.88
477.908	98.88
478.127	87.88
478.346	80.88
478.564	99.88
478.783	104.88
479.002	107.88
479.22	93.88
479.439	104.88
479.658	77.88
479.876	79.88
480.095	102.88
480.313	99.88
480.532	81.88
480.751	85.88
480.969	96.88
481.188	79.88
481.406	87.88
481.624	92.88
481.843	101.88
482.061	91.88
482.28	86.88
482.498	87.88
482.717	80.88
482.935	92.88
483.153	93.88
483.372	99.88
483.59	93.88
483.808	90.88
484.027	97.88
484.245	87.88
484.463	73.88
484.681	98.88
484.9	85.88
485.118	103.88
485.336	71.88
485.554	97.88
485.772	96.88
485.99	85.88
486.209	95.88
486.427	91.88
486.645	97.88
486.863	87.88
487.081	79.88
487.299	91.88
487.517	92.88
487.735	93.88
487.953	91.88
488.171	100.88
488.389	91.88
488.607	111.88
488.825	85.88
489.043	108.88
489.261	104.88
489.479	95.88
489.696	97.88
489.914	84.88
490.132	80.88
490.35	94.88
490.568	94.88
490.786	91.88
491.003	104.88
491.221	104.88
491.439	98.88
491.657	93.88
491.874	92.88
492.092	99.88
492.31	93.88
492.527	100.88
492.745	101.88
492.963	97.88
493.18	92.88
493.398	100.88
493.615	101.88
493.833	97.88
494.05	94.88
494.268	88.88
494.485	93.88
494.703	108.88
494.92	96.88
495.138	92.88
495.355	102.88
495.573	98.88
495.79	94.88
496.008	105.88
496.225	99.88
496.442	97.88
496.66	99.88
496.877	109.88
497.094	91.88
497.312	97.88
497.529	96.88
497.746	99.88
497.963	103.88
498.181	101.88
498.398	86.88
498.615	95.88
498.832	97.88
499.049	86.88
499.267	103.88
499.484	97.88
499.701	112.88
499.918	111.88
500.135	114.88
500.352	104.88
500.569	106.88
500.786	118.88
501.003	121.88
501.22	106.88
501.437	103.88
501.654	92.88
501.871	95.88
502.088	115.88
502.305	107.88
502.522	91.88
502.739	111.88
502.956	101.88
503.172	91.88
503.389	89.88
503.606	97.88
503.823	95.88
504.04	103.88
504.256	97.88
504.473	97.88
504.69	95.88
504.907	100.88
505.123	96.88
505.34	97.88
505.557	81.88
505.773	98.88
505.99	96.88
506.207	97.88
506.423	104.88
506.64	91.88
506.856	90.88
507.073	97.88
507.289	89.88
507.506	100.88
507.722	108.88
507.939	102.88
508.155	93.88
508.372	104.88
508.588	88.88
508.805	88.88
509.021	120.88
509.238	115.88
509.454	84.88
509.67	91.88
509.887	84.88
510.103	92.88
510.319	90.88
510.536	77.88
510.752	91.88
510.968	100.88
511.184	99.88
511.401	95.88
511.617	91.88
511.833	89.88
512.049	94.88
512.265	88.88
512.481	89.88
512.698	105.88
512.914	71.88
513.13	81.88
513.346	85.88
513.562	82.88
513.778	102.88
513.994	90.88
514.21	105.88
514.426	99.88
514.642	99.88
514.858	98.88
515.074	96.88
515.29	93.88
515.506	112.88
515.721	97.88
515.937	99.88
516.153	86.88
516.369	82.88
516.585	102.88
516.801	87.88
517.016	93.88
517.232	89.88
517.448	109.88
517.664	97.88
517.879	97.88
518.095	91.88
518.311	100.88
518.527	82.88
518.742	97.88
518.958	102.88
519.173	103.88
519.389	108.88
519.605	104.88
519.82	96.88
520.036	98.88
520.251	101.88
520.467	90.88
520.682	100.88
520.898	102.88
521.113	103.88
521.329	101.88
521.544	93.88
521.76	87.88
521.975	106.88
522.19	111.88
522.406	90.88
522.621	91.88
522.836	103.88
523.052	95.88
523.267	88.88
523.482	96.88
523.698	89.88
523.913	90.88
524.128	87.88
524.343	95.88
524.559	88.88
524.774	88.88
524.989	97.88
525.204	104.88
525.419	82.88
525.634	105.88
525.849	97.88
526.064	85.88
526.28	109.88
526.495	75.88
526.71	86.88
526.925	96.88
527.14	101.88
527.355	78.88
527.57	92.88
527.785	79.88
527.999	83.88
528.214	98.88
528.429	81.88
528.644	90.88
528.859	92.88
529.074	96.88
529.289	95.88
529.503	105.88
529.718	100.88
529.933	105.88
530.148	83.88
530.363	91.88
530.577	79.88
530.792	84.88
531.007	87.88
531.221	87.88
531.436	98.88
531.651	82.88
531.865	88.88
532.08	95.88
532.295	89.88
532.509	99.88
532.724	81.88
532.938	96.88
533.153	100.88
533.367	88.88
533.582	88.88
533.796	93.88
534.011	82.88
534.225	83.88
534.44	96.88
534.654	96.88
534.868	101.88
535.083	97.88
535.297	98.88
535.511	89.88
535.726	101.88
535.94	109.88
536.154	100.88
536.369	93.88
536.583	92.88
536.797	99.88
537.011	88.88
537.225	85.88
537.44	96.88
537.654	93.88
537.868	83.88
538.082	83.88
538.296	87.88
538.51	81.88
538.724	87.88
538.938	99.88
539.153	92.88
539.367	97.88
539.581	89.88
539.795	87.88
540.009	96.88
540.222	94.88
540.436	97.88
540.65	91.88
540.864	95.88
541.078	86.88
541.292	95.88
541.506	102.88
541.72	94.88
541.934	84.88
542.147	95.88
542.361	87.88
542.575	97.88
542.789	95.88
543.002	88.88
543.216	86.88
543.43	90.88
543.644	88.88
543.857	87.88
544.071	96.88
544.285	92.88
544.498	95.88
544.712	105.88
544.925	106.88
545.139	89.88
545.352	94.88
545.566	103.88
545.779	81.88
545.993	94.88
546.206	92.88
546.42	77.88
546.633	101.88
546.847	104.88
547.06	90.88
547.274	107.88
547.487	91.88
547.7	91.88
547.914	98.88
548.127	89.88
548.34	83.88
548.554	97.88
548.767	104.88
548.98	100.88
549.193	86.88
549.407	79.88
549.62	92.88
549.833	80.88
550.046	95.88
550.259	105.88
550.473	101.88
550.686	98.88
550.899	96.88
551.112	100.88
551.325	91.88
551.538	83.88
551.751	84.88
551.964	81.88
552.177	86.88
552.39	97.88
552.603	109.88
552.816	82.88
553.029	83.88
553.242	99.88
553.455	97.88
553.667	99.88
553.88	103.88
554.093	95.88
554.306	93.88
554.519	103.88
554.732	101.88
554.944	87.88
555.157	84.88
555.37	98.88
555.583	98.88
555.795	79.88
556.008	92.88
556.221	85.88
556.433	91.88
556.646	78.88
556.859	83.88
557.071	93.88
557.284	98.88
557.496	90.88
557.709	93.88
557.921	82.88
558.134	89.88
558.346	83.88
558.559	95.88
558.771	83.88
558.984	92.88
559.196	107.88
559.409	99.88
559.621	94.88
559.833	102.88
560.046	84.88
560.258	101.88
560.47	85.88
560.683	91.88
560.895	92.88
561.107	102.88
561.32	94.88
561.532	95.88
561.744	94.88
561.956	94.88
562.168	101.88
562.381	93.88
562.593	81.88
562.805	98.88
563.017	93.88
563.229	80.88
563.441	95.88
563.653	89.88
563.865	98.88
564.077	94.88
564.289	93.88
564.501	84.88
564.713	94.88
564.925	89.88
565.137	89.88
565.349	89.88
565.561	83.88
565.773	96.88
565.985	89.88
566.197	89.88
566.408	98.88
566.62	97.88
566.832	94.88
567.044	100.88
567.255	100.88
567.467	103.88
567.679	105.88
567.891	99.88
568.102	96.88
568.314	85.88
568.526	94.88
568.737	89.88
568.949	92.88
569.161	91.88
569.372	82.88
569.584	83.88
569.795	77.88
570.007	90.88
570.218	96.88
570.43	100.88
570.641	80.88
570.853	85.88
571.064	83.88
571.276	81.88
571.487	89.88
571.698	92.88
571.91	92.88
572.121	83.88
572.333	89.88
572.544	87.88
572.755	80.88
572.966	97.88
573.178	108.88
573.389	80.88
573.6	81.88
573.811	80.88
574.023	91.88
574.234	82.88
574.445	92.88
574.656	100.88
574.867	88.88
575.078	81.88
575.289	96.88
575.501	87.88
575.712	81.88
575.923	89.88
576.134	96.88
576.345	85.88
576.556	96.88
576.767	96.88
576.978	94.88
577.188	88.88
577.399	83.88
577.61	80.88
577.821	86.88
578.032	78.88
578.243	93.88
578.454	96.88
578.665	77.88
578.875	93.88
579.086	74.88
579.297	79.88
579.508	103.88
579.718	91.88
579.929	91.88
580.14	99.88
580.35	97.88
580.561	92.88
580.772	98.88
580.982	92.88
581.193	83.88
581.403	87.88
581.614	85.88
581.825	83.88
582.035	87.88
582.246	86.88
582.456	84.88
582.667	101.88
582.877	92.88
583.087	86.88
583.298	90.88
583.508	90.88
583.719	78.88
583.929	103.88
584.139	83.88
584.35	92.88
584.56	82.88
584.77	92.88
584.981	96.88
585.191	87.88
585.401	77.88
585.611	88.88
585.821	99.88
586.032	85.88
586.242	97.88
586.452	89.88
586.662	89.88
586.872	70.88
587.082	73.88
587.292	90.88
587.502	103.88
587.713	76.88
587.923	95.88
588.133	100.88
588.343	92.88
588.553	83.88
588.762	84.88
588.972	88.88
589.182	82.88
589.392	95.88
589.602	98.88
589.812	93.88
590.022	89.88
590.232	91.88
590.441	89.88
590.651	83.88
590.861	92.88
591.071	98.88
591.281	87.88
591.49	77.88
591.7	86.88
591.91	90.88
592.119	98.88
592.329	98.88
592.539	85.88
592.748	84.88
592.958	81.88
593.167	92.88
593.377	81.88
593.587	89.88
593.796	97.88
594.006	85.88
594.215	76.88
594.424	93.88
594.634	93.88
594.843	80.88
595.053	81.88
595.262	93.88
595.472	93.88
595.681	89.88
595.89	101.88
596.1	100.88
596.309	96.88
596.518	74.88
596.727	92.88
596.937	85.88
597.146	84.88
597.355	91.88
597.564	100.88
597.774	77.88
597.983	83.88
598.192	87.88
598.401	78.88
598.61	83.88
598.819	94.88
599.028	84.88
599.237	75.88
599.446	89.88
599.655	97.88
599.864	82.88
600.073	81.88
600.282	77.88
600.491	91.88
600.7	80.88
600.909	86.88
601.118	101.88
601.327	91.88
601.536	82.88
601.745	93.88
601.953	83.88
602.162	84.88
602.371	79.88
602.58	81.88
602.789	77.88
602.997	94.88
603.206	83.88
603.415	88.88
603.623	81.88
603.832	82.88
604.041	81.88
604.249	84.88
604.458	101.88
604.666	91.88
604.875	95.88
605.084	88.88
605.292	87.88
605.501	82.88
605.709	91.88
605.918	72.88
606.126	79.88
606.334	84.88
606.543	72.88
606.751	82.88
606.96	67.88
607.168	78.88
607.376	85.88
607.585	89.88
607.793	98.88
608.001	91.88
608.21	91.88
608.418	94.88
608.626	91.88
608.834	79.88
609.043	81.88
609.251	74.88
609.459	69.88
609.667	99.88
609.875	93.88
610.083	79.88
610.291	83.88
610.499	86.88
610.707	91.88
610.916	83.88
611.124	81.88
611.332	87.88
611.54	86.88
611.748	91.88
611.955	80.88
612.163	89.88
612.371	92.88
612.579	74.88
612.787	92.88
612.995	104.88
613.203	81.88
613.411	101.88
613.618	98.88
613.826	84.88
614.034	73.88
614.242	86.88
614.449	73.88
614.657	85.88
614.865	99.88
615.072	87.88
615.28	89.88
615.488	87.88
615.695	75.88
615.903	75.88
616.111	83.88
616.318	70.88
616.526	84.88
616.733	94.88
616.941	76.88
617.148	82.88
617.356	71.88
617.563	72.88
617.771	76.88
617.978	96.88
618.185	68.88
618.393	76.88
618.6	89.88
618.807	79.88
619.015	93.88
619.222	96.88
619.429	75.88
619.637	81.88
619.844	107.88
620.051	79.88
620.258	82.88
620.466	92.88
620.673	86.88
620.88	85.88
621.087	86.88
621.294	81.88
621.501	90.88
621.708	102.88
621.915	86.88
622.122	85.88
622.329	87.88
622.536	92.88
622.743	97.88
622.95	83.88
623.157	88.88
623.364	74.88
623.571	81.88
623.778	81.88
623.985	88.88
624.192	95.88
624.399	89.88
624.606	87.88
624.812	83.88
625.019	86.88
625.226	87.88
625.433	86.88
625.639	79.88
625.846	72.88
626.053	86.88
626.259	90.88
626.466	89.88
626.673	84.88
626.879	74.88
627.086	94.88
627.293	77.88
627.499	81.88
627.706	76.88
627.912	71.88
628.119	83.88
628.325	84.88
628.532	90.88
628.738	90.88
628.945	80.88
629.151	81.88
629.357	98.88
629.564	83.88
629.77	88.88
629.976	81.88
630.183	66.88
630.389	68.88
630.595	92.88
630.802	71.88
631.008	78.88
631.214	82.88
631.42	77.88
631.627	99.88
631.833	84.88
632.039	91.88
632.245	84.88
632.451	83.88
632.657	88.88
632.863	90.88
633.069	83.88
633.275	79.88
633.481	83.88
633.688	77.88
633.893	95.88
634.099	72.88
634.305	87.88
634.511	83.88
634.717	85.88
634.923	81.88
635.129	92.88
635.335	82.88
635.541	67.88
635.747	77.88
635.952	89.88
636.158	86.88
636.364	81.88
636.57	95.88
636.775	78.88
636.981	81.88
637.187	83.88
637.392	87.88
637.598	92.88
637.804	87.88
638.009	74.88
638.215	89.88
638.421	84.88
638.626	92.88
638.832	96.88
639.037	95.88
639.243	91.88
639.448	86.88
639.654	92.88
639.859	88.88
640.065	88.88
640.27	85.88
640.475	78.88
640.681	81.88
640.886	84.88
641.091	81.88
641.297	88.88
641.502	77.88
641.707	82.88
641.913	92.88
642.118	92.88
642.323	69.88
642.528	80.88
642.733	87.88
642.939	99.88
643.144	87.88
643.349	90.88
643.554	82.88
643.759	99.88
643.964	89.88
644.169	84.88
644.374	85.88
644.579	87.88
644.784	83.88
644.989	88.88
645.194	74.88
645.399	90.88
645.604	79.88
645.809	84.88
646.014	82.88
646.219	77.88
646.423	89.88
646.628	74.88
646.833	88.88
647.038	88.88
647.243	82.88
647.447	86.88
647.652	67.88
647.857	70.88
648.062	74.88
648.266	81.88
648.471	77.88
648.676	88.88
648.88	78.88
649.085	81.88
649.289	79.88
649.494	71.88
649.698	69.88
649.903	90.88
650.107	79.88
650.312	79.88
650.516	87.88
650.721	82.88
650.925	62.88
651.13	82.88
651.334	82.88
651.539	73.88
651.743	80.88
651.947	98.88
652.152	75.88
652.356	87.88
652.56	69.88
652.764	82.88
652.969	90.88
653.173	77.88
653.377	88.88
653.581	91.88
653.785	77.88
653.99	89.88
654.194	81.88
654.398	88.88
654.602	85.88
654.806	80.88
655.01	89.88
655.214	81.88
655.418	71.88
655.622	80.88
655.826	103.88
656.03	83.88
656.234	79.88
656.438	77.88
656.642	92.88
656.846	68.88
657.049	90.88
657.253	83.88
657.457	87.88
657.661	77.88
657.865	78.88
658.068	78.88
658.272	79.88
658.476	81.88
658.68	77.88
658.883	93.88
659.087	72.88
659.291	68.88
659.494	92.88
659.698	83.88
659.901	83.88
660.105	86.88
660.309	88.88
660.512	75.88
660.716	85.88
660.919	68.88
661.123	88.88
661.326	79.88
661.53	74.88
661.733	88.88
661.936	77.88
662.14	77.88
662.343	82.88
662.546	79.88
662.75	81.88
662.953	89.88
663.156	81.88
663.36	89.88
663.563	77.88
663.766	85.88
663.969	86.88
664.173	71.88
664.376	89.88
664.579	76.88
664.782	78.88
664.985	78.88
665.188	79.88
665.391	73.88
665.594	80.88
665.797	80.88
666	70.88
666.203	68.88
666.406	78.88
666.609	93.88
666.812	84.88
667.015	95.88
667.218	91.88
667.421	83.88
667.624	68.88
667.827	71.88
668.03	85.88
668.232	83.88
668.435	87.88
668.638	99.88
668.841	77.88
669.043	76.88
669.246	91.88
669.449	75.88
669.651	82.88
669.854	77.88
670.057	77.88
670.259	71.88
670.462	78.88
670.665	93.88
670.867	73.88
671.07	96.88
671.272	88.88
671.475	84.88
671.677	84.88
671.88	78.88
672.082	75.88
672.284	81.88
672.487	75.88
672.689	81.88
672.892	88.88
