Data from Ni(NO3)2@0.5M.TitratingCurve.Agarose3%dH2O.NegLispCup.LampEnergy10.LIBS07252019_HRD10591_18-01-32-565.txt Node
Date: Thu Jul 25 18:01:32 EDT 2019
User: cochatt
Spectrometer: HR+D1059
Trigger mode: 1
Integration Time (sec): 1.000000E-1
Scans to average: 1
Electric dark correction enabled: true
Nonlinearity correction enabled: false
Boxcar width: 0
XAxis mode: Wavelengths
Number of Pixels in Spectrum: 2048
>>>>>Begin Spectral Data<<<<<
223.165	2.69
223.4	2.69
223.635	2.69
223.869	-35.31
224.104	-28.31
224.338	-20.31
224.573	-16.31
224.808	0.69
225.042	-9.31
225.277	-15.31
225.511	-15.31
225.746	5.69
225.98	12.69
226.215	15.69
226.449	22.69
226.683	25.69
226.918	27.69
227.152	26.69
227.387	44.69
227.621	33.69
227.856	50.69
228.09	48.69
228.324	54.69
228.559	58.69
228.793	48.69
229.027	71.69
229.262	74.69
229.496	62.69
229.73	74.69
229.964	88.69
230.199	75.69
230.433	87.69
230.667	73.69
230.901	84.69
231.136	75.69
231.37	98.69
231.604	79.69
231.838	78.69
232.072	59.69
232.306	74.69
232.541	98.69
232.775	98.69
233.009	98.69
233.243	60.69
233.477	81.69
233.711	98.69
233.945	90.69
234.179	87.69
234.413	88.69
234.647	75.69
234.881	90.69
235.115	87.69
235.349	71.69
235.583	90.69
235.817	79.69
236.051	88.69
236.285	72.69
236.519	81.69
236.753	71.69
236.987	76.69
237.221	70.69
237.455	75.69
237.689	82.69
237.922	74.69
238.156	75.69
238.39	80.69
238.624	80.69
238.858	80.69
239.091	81.69
239.325	83.69
239.559	84.69
239.793	79.69
240.027	90.69
240.26	80.69
240.494	80.69
240.728	78.69
240.961	84.69
241.195	59.69
241.429	80.69
241.662	81.69
241.896	84.69
242.13	70.69
242.363	74.69
242.597	75.69
242.83	87.69
243.064	89.69
243.298	81.69
243.531	71.69
243.765	83.69
243.998	100.69
244.232	77.69
244.465	77.69
244.699	81.69
244.932	76.69
245.166	83.69
245.399	90.69
245.633	77.69
245.866	82.69
246.099	94.69
246.333	81.69
246.566	84.69
246.8	87.69
247.033	89.69
247.266	82.69
247.5	92.69
247.733	72.69
247.966	85.69
248.2	85.69
248.433	79.69
248.666	85.69
248.899	96.69
249.133	85.69
249.366	92.69
249.599	99.69
249.832	81.69
250.066	88.69
250.299	75.69
250.532	74.69
250.765	86.69
250.998	87.69
251.231	95.69
251.465	81.69
251.698	86.69
251.931	92.69
252.164	85.69
252.397	90.69
252.63	72.69
252.863	76.69
253.096	82.69
253.329	89.69
253.562	66.69
253.795	96.69
254.028	84.69
254.261	85.69
254.494	81.69
254.727	80.69
254.96	74.69
255.193	68.69
255.426	78.69
255.659	94.69
255.892	85.69
256.124	83.69
256.357	83.69
256.59	78.69
256.823	85.69
257.056	86.69
257.289	87.69
257.521	76.69
257.754	83.69
257.987	84.69
258.22	105.69
258.452	94.69
258.685	96.69
258.918	85.69
259.151	82.69
259.383	89.69
259.616	89.69
259.849	75.69
260.081	86.69
260.314	90.69
260.547	76.69
260.779	82.69
261.012	91.69
261.244	78.69
261.477	72.69
261.71	91.69
261.942	87.69
262.175	96.69
262.407	90.69
262.64	90.69
262.872	84.69
263.105	102.69
263.337	94.69
263.57	87.69
263.802	91.69
264.035	96.69
264.267	82.69
264.499	76.69
264.732	87.69
264.964	74.69
265.197	79.69
265.429	71.69
265.661	78.69
265.894	86.69
266.126	85.69
266.358	79.69
266.591	83.69
266.823	83.69
267.055	95.69
267.287	98.69
267.52	86.69
267.752	79.69
267.984	92.69
268.216	78.69
268.448	92.69
268.681	90.69
268.913	89.69
269.145	99.69
269.377	87.69
269.609	94.69
269.841	87.69
270.073	90.69
270.306	84.69
270.538	75.69
270.77	98.69
271.002	86.69
271.234	83.69
271.466	88.69
271.698	84.69
271.93	84.69
272.162	90.69
272.394	97.69
272.626	94.69
272.858	83.69
273.09	88.69
273.322	95.69
273.553	86.69
273.785	84.69
274.017	97.69
274.249	104.69
274.481	86.69
274.713	86.69
274.945	94.69
275.176	90.69
275.408	83.69
275.64	96.69
275.872	90.69
276.104	77.69
276.335	99.69
276.567	75.69
276.799	78.69
277.031	97.69
277.262	90.69
277.494	87.69
277.726	87.69
277.957	81.69
278.189	84.69
278.421	97.69
278.652	100.69
278.884	85.69
279.115	97.69
279.347	80.69
279.579	92.69
279.81	83.69
280.042	80.69
280.273	94.69
280.505	77.69
280.736	76.69
280.968	81.69
281.199	81.69
281.431	85.69
281.662	83.69
281.894	75.69
282.125	79.69
282.356	93.69
282.588	101.69
282.819	91.69
283.051	80.69
283.282	79.69
283.513	84.69
283.745	83.69
283.976	81.69
284.207	87.69
284.439	75.69
284.67	98.69
284.901	93.69
285.132	89.69
285.364	91.69
285.595	87.69
285.826	86.69
286.057	106.69
286.288	92.69
286.52	90.69
286.751	88.69
286.982	89.69
287.213	100.69
287.444	90.69
287.675	104.69
287.906	84.69
288.138	87.69
288.369	90.69
288.6	90.69
288.831	98.69
289.062	91.69
289.293	97.69
289.524	85.69
289.755	81.69
289.986	90.69
290.217	95.69
290.448	89.69
290.679	82.69
290.91	84.69
291.141	88.69
291.371	67.69
291.602	93.69
291.833	88.69
292.064	87.69
292.295	76.69
292.526	92.69
292.757	78.69
292.987	96.69
293.218	87.69
293.449	97.69
293.68	105.69
293.91	75.69
294.141	87.69
294.372	100.69
294.603	83.69
294.833	78.69
295.064	83.69
295.295	91.69
295.525	80.69
295.756	93.69
295.987	91.69
296.217	83.69
296.448	98.69
296.679	99.69
296.909	95.69
297.14	78.69
297.37	99.69
297.601	82.69
297.831	84.69
298.062	99.69
298.292	94.69
298.523	84.69
298.753	97.69
298.984	93.69
299.214	91.69
299.445	92.69
299.675	97.69
299.905	87.69
300.136	84.69
300.366	78.69
300.597	78.69
300.827	79.69
301.057	75.69
301.288	86.69
301.518	81.69
301.748	84.69
301.979	84.69
302.209	97.69
302.439	81.69
302.669	90.69
302.9	84.69
303.13	87.69
303.36	79.69
303.59	98.69
303.82	77.69
304.051	81.69
304.281	92.69
304.511	91.69
304.741	91.69
304.971	88.69
305.201	82.69
305.431	82.69
305.661	108.69
305.891	90.69
306.121	89.69
306.352	96.69
306.582	104.69
306.812	90.69
307.042	89.69
307.272	89.69
307.502	100.69
307.731	82.69
307.961	95.69
308.191	74.69
308.421	98.69
308.651	88.69
308.881	89.69
309.111	90.69
309.341	108.69
309.571	94.69
309.8	78.69
310.03	101.69
310.26	101.69
310.49	86.69
310.72	74.69
310.949	98.69
311.179	108.69
311.409	81.69
311.639	98.69
311.868	92.69
312.098	100.69
312.328	92.69
312.557	83.69
312.787	80.69
313.017	93.69
313.246	82.69
313.476	87.69
313.706	90.69
313.935	98.69
314.165	79.69
314.394	85.69
314.624	98.69
314.853	90.69
315.083	78.69
315.312	96.69
315.542	81.69
315.771	99.69
316.001	82.69
316.23	92.69
316.46	92.69
316.689	99.69
316.919	97.69
317.148	95.69
317.377	95.69
317.607	84.69
317.836	83.69
318.065	82.69
318.295	76.69
318.524	88.69
318.753	82.69
318.983	92.69
319.212	74.69
319.441	79.69
319.67	91.69
319.9	88.69
320.129	82.69
320.358	90.69
320.587	82.69
320.816	85.69
321.046	102.69
321.275	78.69
321.504	89.69
321.733	93.69
321.962	91.69
322.191	77.69
322.42	94.69
322.649	82.69
322.878	84.69
323.108	90.69
323.337	90.69
323.566	93.69
323.795	100.69
324.024	73.69
324.253	101.69
324.482	84.69
324.71	82.69
324.939	100.69
325.168	99.69
325.397	92.69
325.626	93.69
325.855	89.69
326.084	80.69
326.313	88.69
326.542	95.69
326.77	92.69
326.999	85.69
327.228	97.69
327.457	88.69
327.686	102.69
327.914	80.69
328.143	90.69
328.372	96.69
328.6	92.69
328.829	84.69
329.058	98.69
329.287	94.69
329.515	90.69
329.744	85.69
329.972	95.69
330.201	88.69
330.43	91.69
330.658	85.69
330.887	89.69
331.115	106.69
331.344	90.69
331.572	87.69
331.801	94.69
332.03	90.69
332.258	93.69
332.486	93.69
332.715	97.69
332.943	84.69
333.172	82.69
333.4	89.69
333.629	96.69
333.857	73.69
334.085	82.69
334.314	96.69
334.542	91.69
334.771	75.69
334.999	84.69
335.227	90.69
335.455	95.69
335.684	91.69
335.912	90.69
336.14	84.69
336.369	87.69
336.597	83.69
336.825	85.69
337.053	76.69
337.281	97.69
337.51	90.69
337.738	86.69
337.966	95.69
338.194	89.69
338.422	75.69
338.65	89.69
338.878	79.69
339.106	92.69
339.334	80.69
339.562	100.69
339.79	99.69
340.018	84.69
340.246	98.69
340.474	84.69
340.702	94.69
340.93	80.69
341.158	87.69
341.386	77.69
341.614	85.69
341.842	77.69
342.07	86.69
342.298	87.69
342.526	86.69
342.754	90.69
342.981	92.69
343.209	81.69
343.437	95.69
343.665	89.69
343.893	91.69
344.12	87.69
344.348	95.69
344.576	92.69
344.804	87.69
345.031	87.69
345.259	87.69
345.487	79.69
345.714	98.69
345.942	104.69
346.17	95.69
346.397	99.69
346.625	84.69
346.853	89.69
347.08	74.69
347.308	91.69
347.535	94.69
347.763	101.69
347.99	105.69
348.218	107.69
348.445	88.69
348.673	88.69
348.9	96.69
349.128	97.69
349.355	83.69
349.583	76.69
349.81	89.69
350.037	91.69
350.265	85.69
350.492	102.69
350.72	85.69
350.947	84.69
351.174	95.69
351.402	88.69
351.629	78.69
351.856	103.69
352.083	86.69
352.311	88.69
352.538	92.69
352.765	90.69
352.992	92.69
353.22	83.69
353.447	87.69
353.674	99.69
353.901	90.69
354.128	81.69
354.355	82.69
354.583	99.69
354.81	88.69
355.037	87.69
355.264	88.69
355.491	89.69
355.718	96.69
355.945	87.69
356.172	95.69
356.399	100.69
356.626	89.69
356.853	83.69
357.08	94.69
357.307	87.69
357.534	79.69
357.761	87.69
357.988	95.69
358.215	83.69
358.441	80.69
358.668	93.69
358.895	90.69
359.122	87.69
359.349	89.69
359.576	79.69
359.802	87.69
360.029	97.69
360.256	89.69
360.483	88.69
360.709	77.69
360.936	88.69
361.163	85.69
361.39	96.69
361.616	88.69
361.843	88.69
362.07	88.69
362.296	94.69
362.523	94.69
362.749	84.69
362.976	91.69
363.203	94.69
363.429	80.69
363.656	103.69
363.882	80.69
364.109	99.69
364.335	89.69
364.562	78.69
364.788	83.69
365.015	78.69
365.241	79.69
365.468	95.69
365.694	92.69
365.92	93.69
366.147	97.69
366.373	97.69
366.599	95.69
366.826	111.69
367.052	85.69
367.278	80.69
367.505	97.69
367.731	89.69
367.957	83.69
368.184	93.69
368.41	94.69
368.636	81.69
368.862	80.69
369.089	94.69
369.315	84.69
369.541	81.69
369.767	91.69
369.993	92.69
370.219	112.69
370.445	84.69
370.672	98.69
370.898	88.69
371.124	96.69
371.35	85.69
371.576	98.69
371.802	102.69
372.028	97.69
372.254	110.69
372.48	80.69
372.706	83.69
372.932	101.69
373.158	90.69
373.384	96.69
373.61	87.69
373.835	100.69
374.061	85.69
374.287	110.69
374.513	89.69
374.739	97.69
374.965	95.69
375.191	97.69
375.416	92.69
375.642	97.69
375.868	104.69
376.094	96.69
376.319	91.69
376.545	92.69
376.771	89.69
376.997	92.69
377.222	81.69
377.448	86.69
377.674	96.69
377.899	99.69
378.125	89.69
378.35	108.69
378.576	90.69
378.802	102.69
379.027	106.69
379.253	106.69
379.478	100.69
379.704	89.69
379.929	93.69
380.155	88.69
380.38	102.69
380.606	92.69
380.831	90.69
381.057	99.69
381.282	95.69
381.507	102.69
381.733	111.69
381.958	105.69
382.184	99.69
382.409	90.69
382.634	98.69
382.86	96.69
383.085	88.69
383.31	104.69
383.535	98.69
383.761	96.69
383.986	85.69
384.211	92.69
384.436	89.69
384.662	91.69
384.887	91.69
385.112	106.69
385.337	98.69
385.562	88.69
385.787	104.69
386.013	106.69
386.238	92.69
386.463	120.69
386.688	108.69
386.913	79.69
387.138	87.69
387.363	92.69
387.588	111.69
387.813	96.69
388.038	97.69
388.263	106.69
388.488	111.69
388.713	92.69
388.938	97.69
389.163	114.69
389.387	99.69
389.612	93.69
389.837	102.69
390.062	110.69
390.287	90.69
390.512	103.69
390.736	97.69
390.961	105.69
391.186	94.69
391.411	90.69
391.636	98.69
391.86	100.69
392.085	94.69
392.31	97.69
392.534	101.69
392.759	114.69
392.984	95.69
393.208	96.69
393.433	110.69
393.658	97.69
393.882	95.69
394.107	90.69
394.331	102.69
394.556	96.69
394.78	98.69
395.005	103.69
395.229	106.69
395.454	113.69
395.678	106.69
395.903	108.69
396.127	105.69
396.352	99.69
396.576	98.69
396.801	89.69
397.025	109.69
397.249	89.69
397.474	99.69
397.698	98.69
397.922	111.69
398.147	106.69
398.371	103.69
398.595	112.69
398.82	111.69
399.044	93.69
399.268	96.69
399.492	119.69
399.717	110.69
399.941	121.69
400.165	96.69
400.389	104.69
400.613	94.69
400.837	105.69
401.062	109.69
401.286	113.69
401.51	114.69
401.734	113.69
401.958	107.69
402.182	110.69
402.406	94.69
402.63	105.69
402.854	98.69
403.078	105.69
403.302	99.69
403.526	111.69
403.75	108.69
403.974	102.69
404.198	112.69
404.422	111.69
404.645	113.69
404.869	93.69
405.093	103.69
405.317	120.69
405.541	112.69
405.765	102.69
405.988	105.69
406.212	107.69
406.436	110.69
406.66	108.69
406.883	100.69
407.107	100.69
407.331	110.69
407.555	113.69
407.778	111.69
408.002	126.69
408.226	122.69
408.449	102.69
408.673	118.69
408.896	120.69
409.12	123.69
409.344	122.69
409.567	107.69
409.791	98.69
410.014	110.69
410.238	108.69
410.461	125.69
410.685	105.69
410.908	115.69
411.132	119.69
411.355	118.69
411.578	104.69
411.802	115.69
412.025	113.69
412.249	102.69
412.472	114.69
412.695	114.69
412.919	111.69
413.142	121.69
413.365	113.69
413.589	118.69
413.812	128.69
414.035	120.69
414.258	111.69
414.482	102.69
414.705	120.69
414.928	113.69
415.151	116.69
415.374	124.69
415.597	123.69
415.821	122.69
416.044	108.69
416.267	123.69
416.49	118.69
416.713	122.69
416.936	113.69
417.159	113.69
417.382	114.69
417.605	116.69
417.828	120.69
418.051	116.69
418.274	114.69
418.497	131.69
418.72	132.69
418.943	128.69
419.166	131.69
419.389	133.69
419.611	122.69
419.834	129.69
420.057	113.69
420.28	123.69
420.503	122.69
420.726	108.69
420.948	126.69
421.171	122.69
421.394	129.69
421.617	117.69
421.839	150.69
422.062	128.69
422.285	121.69
422.507	118.69
422.73	123.69
422.953	119.69
423.175	122.69
423.398	132.69
423.621	130.69
423.843	138.69
424.066	134.69
424.288	126.69
424.511	127.69
424.733	128.69
424.956	114.69
425.178	129.69
425.401	125.69
425.623	130.69
425.846	130.69
426.068	140.69
426.291	120.69
426.513	135.69
426.735	125.69
426.958	128.69
427.18	135.69
427.402	140.69
427.625	130.69
427.847	125.69
428.069	121.69
428.292	136.69
428.514	113.69
428.736	115.69
428.958	124.69
429.181	128.69
429.403	130.69
429.625	130.69
429.847	128.69
430.069	126.69
430.292	130.69
430.514	138.69
430.736	120.69
430.958	134.69
431.18	140.69
431.402	111.69
431.624	117.69
431.846	112.69
432.068	108.69
432.29	82.69
432.512	114.69
432.734	123.69
432.956	128.69
433.178	120.69
433.4	131.69
433.622	134.69
433.844	130.69
434.066	123.69
434.287	113.69
434.509	95.69
434.731	113.69
434.953	115.69
435.175	136.69
435.397	112.69
435.618	108.69
435.84	113.69
436.062	107.69
436.284	113.69
436.505	136.69
436.727	134.69
436.949	127.69
437.17	128.69
437.392	115.69
437.614	114.69
437.835	117.69
438.057	100.69
438.278	119.69
438.5	113.69
438.721	134.69
438.943	148.69
439.165	150.69
439.386	154.69
439.608	138.69
439.829	138.69
440.05	147.69
440.272	139.69
440.493	155.69
440.715	135.69
440.936	154.69
441.158	134.69
441.379	139.69
441.6	137.69
441.822	135.69
442.043	143.69
442.264	147.69
442.486	162.69
442.707	145.69
442.928	144.69
443.149	147.69
443.371	147.69
443.592	154.69
443.813	145.69
444.034	145.69
444.255	144.69
444.476	131.69
444.698	136.69
444.919	158.69
445.14	283.69
445.361	198.69
445.582	155.69
445.803	147.69
446.024	153.69
446.245	148.69
446.466	153.69
446.687	154.69
446.908	160.69
447.129	162.69
447.35	154.69
447.571	156.69
447.792	140.69
448.013	154.69
448.234	134.69
448.455	137.69
448.675	143.69
448.896	146.69
449.117	139.69
449.338	142.69
449.559	141.69
449.779	144.69
450	144.69
450.221	129.69
450.442	136.69
450.662	144.69
450.883	140.69
451.104	128.69
451.324	133.69
451.545	131.69
451.766	133.69
451.986	138.69
452.207	138.69
452.428	132.69
452.648	123.69
452.869	118.69
453.089	117.69
453.31	110.69
453.53	92.69
453.751	96.69
453.971	99.69
454.192	100.69
454.412	92.69
454.633	102.69
454.853	122.69
455.073	130.69
455.294	115.69
455.514	124.69
455.734	99.69
455.955	120.69
456.175	107.69
456.395	109.69
456.616	105.69
456.836	100.69
457.056	103.69
457.276	105.69
457.497	112.69
457.717	111.69
457.937	119.69
458.157	105.69
458.377	105.69
458.598	105.69
458.818	99.69
459.038	100.69
459.258	87.69
459.478	100.69
459.698	88.69
459.918	93.69
460.138	92.69
460.358	108.69
460.578	103.69
460.798	113.69
461.018	121.69
461.238	109.69
461.458	110.69
461.678	108.69
461.898	124.69
462.118	114.69
462.338	115.69
462.558	113.69
462.777	114.69
462.997	97.69
463.217	102.69
463.437	108.69
463.657	104.69
463.876	124.69
464.096	108.69
464.316	90.69
464.536	109.69
464.755	116.69
464.975	109.69
465.195	119.69
465.414	121.69
465.634	107.69
465.854	112.69
466.073	111.69
466.293	133.69
466.512	138.69
466.732	118.69
466.951	131.69
467.171	124.69
467.391	146.69
467.61	130.69
467.829	124.69
468.049	139.69
468.268	126.69
468.488	128.69
468.707	129.69
468.927	146.69
469.146	133.69
469.365	142.69
469.585	129.69
469.804	143.69
470.023	132.69
470.243	138.69
470.462	148.69
470.681	147.69
470.901	137.69
471.12	132.69
471.339	138.69
471.558	152.69
471.777	138.69
471.997	125.69
472.216	128.69
472.435	110.69
472.654	109.69
472.873	116.69
473.092	111.69
473.311	112.69
473.53	114.69
473.749	125.69
473.968	115.69
474.187	95.69
474.406	123.69
474.625	119.69
474.844	129.69
475.063	131.69
475.282	104.69
475.501	109.69
475.72	107.69
475.939	119.69
476.158	116.69
476.377	110.69
476.596	116.69
476.814	111.69
477.033	112.69
477.252	109.69
477.471	130.69
477.69	134.69
477.908	138.69
478.127	117.69
478.346	139.69
478.564	123.69
478.783	123.69
479.002	136.69
479.22	124.69
479.439	120.69
479.658	122.69
479.876	111.69
480.095	113.69
480.313	110.69
480.532	118.69
480.751	118.69
480.969	100.69
481.188	102.69
481.406	73.69
481.624	95.69
481.843	82.69
482.061	86.69
482.28	108.69
482.498	105.69
482.717	96.69
482.935	114.69
483.153	127.69
483.372	135.69
483.59	135.69
483.808	126.69
484.027	105.69
484.245	139.69
484.463	128.69
484.681	134.69
484.9	129.69
485.118	140.69
485.336	107.69
485.554	130.69
485.772	92.69
485.99	90.69
486.209	114.69
486.427	99.69
486.645	105.69
486.863	123.69
487.081	129.69
487.299	110.69
487.517	128.69
487.735	148.69
487.953	161.69
488.171	188.69
488.389	166.69
488.607	146.69
488.825	131.69
489.043	116.69
489.261	140.69
489.479	136.69
489.696	147.69
489.914	136.69
490.132	138.69
490.35	137.69
490.568	147.69
490.786	157.69
491.003	182.69
491.221	166.69
491.439	172.69
491.657	192.69
491.874	192.69
492.092	195.69
492.31	227.69
492.527	204.69
492.745	191.69
492.963	198.69
493.18	195.69
493.398	193.69
493.615	188.69
493.833	172.69
494.05	174.69
494.268	170.69
494.485	186.69
494.703	158.69
494.92	161.69
495.138	177.69
495.355	165.69
495.573	154.69
495.79	158.69
496.008	165.69
496.225	163.69
496.442	158.69
496.66	159.69
496.877	168.69
497.094	161.69
497.312	142.69
497.529	158.69
497.746	138.69
497.963	128.69
498.181	134.69
498.398	134.69
498.615	99.69
498.832	102.69
499.049	131.69
499.267	104.69
499.484	115.69
499.701	116.69
499.918	123.69
500.135	134.69
500.352	118.69
500.569	140.69
500.786	135.69
501.003	144.69
501.22	134.69
501.437	135.69
501.654	143.69
501.871	135.69
502.088	126.69
502.305	132.69
502.522	129.69
502.739	124.69
502.956	114.69
503.172	112.69
503.389	125.69
503.606	115.69
503.823	143.69
504.04	126.69
504.256	125.69
504.473	97.69
504.69	107.69
504.907	118.69
505.123	116.69
505.34	107.69
505.557	113.69
505.773	116.69
505.99	111.69
506.207	115.69
506.423	111.69
506.64	117.69
506.856	122.69
507.073	124.69
507.289	125.69
507.506	125.69
507.722	99.69
507.939	97.69
508.155	107.69
508.372	107.69
508.588	119.69
508.805	107.69
509.021	114.69
509.238	114.69
509.454	102.69
509.67	102.69
509.887	92.69
510.103	102.69
510.319	98.69
510.536	90.69
510.752	86.69
510.968	92.69
511.184	103.69
511.401	98.69
511.617	74.69
511.833	101.69
512.049	112.69
512.265	102.69
512.481	89.69
512.698	106.69
512.914	107.69
513.13	96.69
513.346	96.69
513.562	92.69
513.778	104.69
513.994	91.69
514.21	87.69
514.426	96.69
514.642	90.69
514.858	109.69
515.074	101.69
515.29	101.69
515.506	97.69
515.721	86.69
515.937	97.69
516.153	99.69
516.369	88.69
516.585	85.69
516.801	96.69
517.016	84.69
517.232	77.69
517.448	87.69
517.664	97.69
517.879	94.69
518.095	100.69
518.311	93.69
518.527	96.69
518.742	80.69
518.958	98.69
519.173	108.69
519.389	93.69
519.605	101.69
519.82	99.69
520.036	110.69
520.251	92.69
520.467	97.69
520.682	89.69
520.898	103.69
521.113	101.69
521.329	119.69
521.544	92.69
521.76	109.69
521.975	103.69
522.19	97.69
522.406	110.69
522.621	107.69
522.836	104.69
523.052	97.69
523.267	95.69
523.482	98.69
523.698	122.69
523.913	99.69
524.128	112.69
524.343	120.69
524.559	114.69
524.774	136.69
524.989	126.69
525.204	115.69
525.419	111.69
525.634	108.69
525.849	125.69
526.064	111.69
526.28	114.69
526.495	111.69
526.71	114.69
526.925	87.69
527.14	91.69
527.355	69.69
527.57	89.69
527.785	110.69
527.999	94.69
528.214	122.69
528.429	108.69
528.644	123.69
528.859	119.69
529.074	135.69
529.289	146.69
529.503	122.69
529.718	126.69
529.933	98.69
530.148	116.69
530.363	102.69
530.577	96.69
530.792	97.69
531.007	98.69
531.221	75.69
531.436	87.69
531.651	85.69
531.865	93.69
532.08	102.69
532.295	102.69
532.509	94.69
532.724	96.69
532.938	111.69
533.153	112.69
533.367	112.69
533.582	113.69
533.796	114.69
534.011	108.69
534.225	104.69
534.44	99.69
534.654	110.69
534.868	124.69
535.083	91.69
535.297	102.69
535.511	110.69
535.726	111.69
535.94	105.69
536.154	103.69
536.369	100.69
536.583	100.69
536.797	87.69
537.011	87.69
537.225	96.69
537.44	81.69
537.654	94.69
537.868	94.69
538.082	97.69
538.296	111.69
538.51	119.69
538.724	114.69
538.938	106.69
539.153	122.69
539.367	110.69
539.581	120.69
539.795	94.69
540.009	108.69
540.222	110.69
540.436	106.69
540.65	104.69
540.864	124.69
541.078	128.69
541.292	130.69
541.506	154.69
541.72	170.69
541.934	166.69
542.147	190.69
542.361	157.69
542.575	155.69
542.789	138.69
543.002	121.69
543.216	141.69
543.43	113.69
543.644	122.69
543.857	140.69
544.071	147.69
544.285	159.69
544.498	153.69
544.712	150.69
544.925	156.69
545.139	159.69
545.352	151.69
545.566	154.69
545.779	146.69
545.993	161.69
546.206	155.69
546.42	159.69
546.633	167.69
546.847	155.69
547.06	148.69
547.274	158.69
547.487	166.69
547.7	158.69
547.914	159.69
548.127	151.69
548.34	165.69
548.554	154.69
548.767	156.69
548.98	157.69
549.193	164.69
549.407	145.69
549.62	152.69
549.833	142.69
550.046	142.69
550.259	162.69
550.473	150.69
550.686	139.69
550.899	158.69
551.112	150.69
551.325	138.69
551.538	140.69
551.751	120.69
551.964	100.69
552.177	119.69
552.39	149.69
552.603	142.69
552.816	154.69
553.029	156.69
553.242	152.69
553.455	147.69
553.667	152.69
553.88	143.69
554.093	161.69
554.306	151.69
554.519	159.69
554.732	158.69
554.944	128.69
555.157	147.69
555.37	138.69
555.583	132.69
555.795	130.69
556.008	130.69
556.221	138.69
556.433	122.69
556.646	150.69
556.859	122.69
557.071	147.69
557.284	136.69
557.496	137.69
557.709	131.69
557.921	143.69
558.134	139.69
558.346	149.69
558.559	155.69
558.771	144.69
558.984	134.69
559.196	127.69
559.409	136.69
559.621	123.69
559.833	121.69
560.046	125.69
560.258	131.69
560.47	124.69
560.683	130.69
560.895	130.69
561.107	136.69
561.32	131.69
561.532	124.69
561.744	132.69
561.956	129.69
562.168	112.69
562.381	124.69
562.593	125.69
562.805	134.69
563.017	130.69
563.229	119.69
563.441	126.69
563.653	134.69
563.865	124.69
564.077	115.69
564.289	128.69
564.501	114.69
564.713	128.69
564.925	111.69
565.137	106.69
565.349	129.69
565.561	125.69
565.773	125.69
565.985	122.69
566.197	122.69
566.408	114.69
566.62	119.69
566.832	107.69
567.044	111.69
567.255	108.69
567.467	99.69
567.679	99.69
567.891	107.69
568.102	105.69
568.314	103.69
568.526	92.69
568.737	113.69
568.949	110.69
569.161	118.69
569.372	94.69
569.584	84.69
569.795	104.69
570.007	84.69
570.218	91.69
570.43	98.69
570.641	92.69
570.853	91.69
571.064	109.69
571.276	105.69
571.487	109.69
571.698	106.69
571.91	99.69
572.121	98.69
572.333	110.69
572.544	89.69
572.755	93.69
572.966	111.69
573.178	88.69
573.389	95.69
573.6	81.69
573.811	86.69
574.023	101.69
574.234	92.69
574.445	103.69
574.656	110.69
574.867	99.69
575.078	102.69
575.289	99.69
575.501	104.69
575.712	99.69
575.923	103.69
576.134	90.69
576.345	102.69
576.556	100.69
576.767	96.69
576.978	102.69
577.188	98.69
577.399	98.69
577.61	100.69
577.821	109.69
578.032	101.69
578.243	92.69
578.454	113.69
578.665	90.69
578.875	81.69
579.086	79.69
579.297	96.69
579.508	96.69
579.718	97.69
579.929	94.69
580.14	80.69
580.35	98.69
580.561	92.69
580.772	84.69
580.982	104.69
581.193	82.69
581.403	95.69
581.614	98.69
581.825	106.69
582.035	92.69
582.246	81.69
582.456	90.69
582.667	86.69
582.877	95.69
583.087	86.69
583.298	89.69
583.508	98.69
583.719	89.69
583.929	101.69
584.139	96.69
584.35	95.69
584.56	96.69
584.77	101.69
584.981	103.69
585.191	92.69
585.401	94.69
585.611	95.69
585.821	91.69
586.032	89.69
586.242	82.69
586.452	86.69
586.662	85.69
586.872	99.69
587.082	89.69
587.292	108.69
587.502	118.69
587.713	95.69
587.923	112.69
588.133	101.69
588.343	93.69
588.553	93.69
588.762	94.69
588.972	103.69
589.182	88.69
589.392	81.69
589.602	88.69
589.812	90.69
590.022	86.69
590.232	100.69
590.441	105.69
590.651	89.69
590.861	92.69
591.071	91.69
591.281	100.69
591.49	98.69
591.7	93.69
591.91	88.69
592.119	84.69
592.329	90.69
592.539	107.69
592.748	91.69
592.958	81.69
593.167	103.69
593.377	94.69
593.587	103.69
593.796	87.69
594.006	95.69
594.215	98.69
594.424	92.69
594.634	98.69
594.843	96.69
595.053	93.69
595.262	89.69
595.472	82.69
595.681	82.69
595.89	104.69
596.1	100.69
596.309	103.69
596.518	97.69
596.727	102.69
596.937	99.69
597.146	98.69
597.355	97.69
597.564	90.69
597.774	93.69
597.983	106.69
598.192	90.69
598.401	83.69
598.61	96.69
598.819	98.69
599.028	94.69
599.237	87.69
599.446	93.69
599.655	90.69
599.864	88.69
600.073	108.69
600.282	84.69
600.491	99.69
600.7	82.69
600.909	92.69
601.118	84.69
601.327	91.69
601.536	95.69
601.745	106.69
601.953	112.69
602.162	111.69
602.371	99.69
602.58	97.69
602.789	107.69
602.997	89.69
603.206	107.69
603.415	100.69
603.623	116.69
603.832	100.69
604.041	95.69
604.249	109.69
604.458	97.69
604.666	95.69
604.875	90.69
605.084	94.69
605.292	88.69
605.501	118.69
605.709	111.69
605.918	114.69
606.126	127.69
606.334	103.69
606.543	125.69
606.751	114.69
606.96	112.69
607.168	104.69
607.376	104.69
607.585	112.69
607.793	113.69
608.001	104.69
608.21	110.69
608.418	109.69
608.626	105.69
608.834	116.69
609.043	109.69
609.251	107.69
609.459	110.69
609.667	119.69
609.875	98.69
610.083	118.69
610.291	97.69
610.499	113.69
610.707	104.69
610.916	100.69
611.124	112.69
611.332	109.69
611.54	107.69
611.748	95.69
611.955	110.69
612.163	97.69
612.371	87.69
612.579	107.69
612.787	112.69
612.995	100.69
613.203	99.69
613.411	115.69
613.618	112.69
613.826	122.69
614.034	102.69
614.242	117.69
614.449	111.69
614.657	108.69
614.865	117.69
615.072	118.69
615.28	112.69
615.488	114.69
615.695	103.69
615.903	124.69
616.111	114.69
616.318	109.69
616.526	101.69
616.733	87.69
616.941	123.69
617.148	94.69
617.356	114.69
617.563	115.69
617.771	107.69
617.978	100.69
618.185	122.69
618.393	110.69
618.6	112.69
618.807	110.69
619.015	109.69
619.222	99.69
619.429	106.69
619.637	101.69
619.844	107.69
620.051	105.69
620.258	111.69
620.466	104.69
620.673	103.69
620.88	101.69
621.087	95.69
621.294	107.69
621.501	88.69
621.708	95.69
621.915	106.69
622.122	102.69
622.329	108.69
622.536	114.69
622.743	109.69
622.95	103.69
623.157	106.69
623.364	102.69
623.571	104.69
623.778	106.69
623.985	110.69
624.192	96.69
624.399	88.69
624.606	104.69
624.812	94.69
625.019	90.69
625.226	99.69
625.433	101.69
625.639	106.69
625.846	109.69
626.053	90.69
626.259	89.69
626.466	96.69
626.673	98.69
626.879	88.69
627.086	96.69
627.293	97.69
627.499	105.69
627.706	103.69
627.912	106.69
628.119	96.69
628.325	99.69
628.532	102.69
628.738	91.69
628.945	102.69
629.151	104.69
629.357	98.69
629.564	99.69
629.77	101.69
629.976	107.69
630.183	95.69
630.389	104.69
630.595	106.69
630.802	84.69
631.008	119.69
631.214	104.69
631.42	114.69
631.627	100.69
631.833	109.69
632.039	100.69
632.245	94.69
632.451	103.69
632.657	102.69
632.863	107.69
633.069	92.69
633.275	102.69
633.481	95.69
633.688	99.69
633.893	103.69
634.099	95.69
634.305	92.69
634.511	90.69
634.717	95.69
634.923	108.69
635.129	96.69
635.335	87.69
635.541	108.69
635.747	105.69
635.952	100.69
636.158	80.69
636.364	96.69
636.57	96.69
636.775	102.69
636.981	102.69
637.187	107.69
637.392	103.69
637.598	105.69
637.804	108.69
638.009	96.69
638.215	98.69
638.421	99.69
638.626	89.69
638.832	97.69
639.037	100.69
639.243	83.69
639.448	95.69
639.654	94.69
639.859	70.69
640.065	96.69
640.27	110.69
640.475	89.69
640.681	107.69
640.886	90.69
641.091	90.69
641.297	95.69
641.502	98.69
641.707	94.69
641.913	93.69
642.118	97.69
642.323	101.69
642.528	110.69
642.733	101.69
642.939	102.69
643.144	96.69
643.349	84.69
643.554	94.69
643.759	95.69
643.964	96.69
644.169	97.69
644.374	104.69
644.579	92.69
644.784	96.69
644.989	102.69
645.194	103.69
645.399	90.69
645.604	105.69
645.809	87.69
646.014	94.69
646.219	93.69
646.423	87.69
646.628	90.69
646.833	91.69
647.038	101.69
647.243	92.69
647.447	98.69
647.652	98.69
647.857	89.69
648.062	88.69
648.266	96.69
648.471	106.69
648.676	100.69
648.88	93.69
649.085	102.69
649.289	102.69
649.494	80.69
649.698	105.69
649.903	97.69
650.107	97.69
650.312	97.69
650.516	97.69
650.721	101.69
650.925	107.69
651.13	94.69
651.334	92.69
651.539	104.69
651.743	93.69
651.947	92.69
652.152	88.69
652.356	99.69
652.56	98.69
652.764	80.69
652.969	97.69
653.173	84.69
653.377	85.69
653.581	102.69
653.785	99.69
653.99	78.69
654.194	90.69
654.398	93.69
654.602	102.69
654.806	88.69
655.01	98.69
655.214	83.69
655.418	97.69
655.622	81.69
655.826	91.69
656.03	82.69
656.234	106.69
656.438	86.69
656.642	83.69
656.846	94.69
657.049	83.69
657.253	96.69
657.457	93.69
657.661	68.69
657.865	87.69
658.068	90.69
658.272	80.69
658.476	83.69
658.68	98.69
658.883	82.69
659.087	98.69
659.291	82.69
659.494	78.69
659.698	85.69
659.901	90.69
660.105	88.69
660.309	97.69
660.512	88.69
660.716	97.69
660.919	110.69
661.123	104.69
661.326	76.69
661.53	88.69
661.733	80.69
661.936	86.69
662.14	90.69
662.343	102.69
662.546	80.69
662.75	94.69
662.953	82.69
663.156	80.69
663.36	85.69
663.563	82.69
663.766	84.69
663.969	94.69
664.173	90.69
664.376	87.69
664.579	97.69
664.782	85.69
664.985	94.69
665.188	98.69
665.391	88.69
665.594	90.69
665.797	94.69
666	98.69
666.203	73.69
666.406	91.69
666.609	79.69
666.812	97.69
667.015	82.69
667.218	98.69
667.421	102.69
667.624	81.69
667.827	100.69
668.03	86.69
668.232	90.69
668.435	87.69
668.638	79.69
668.841	89.69
669.043	71.69
669.246	82.69
669.449	82.69
669.651	96.69
669.854	84.69
670.057	89.69
670.259	78.69
670.462	84.69
670.665	85.69
670.867	85.69
671.07	98.69
671.272	82.69
671.475	82.69
671.677	90.69
671.88	90.69
672.082	80.69
672.284	83.69
672.487	82.69
672.689	84.69
672.892	97.69
