Data from Ni(NO3)2@0.25M.TitratingCurve.Agarose3%dH2O.NegLispCup.LampEnergy10.LIBS07252019_HRD10591_18-04-38-566.txt Node
Date: Thu Jul 25 18:04:38 EDT 2019
User: cochatt
Spectrometer: HR+D1059
Trigger mode: 1
Integration Time (sec): 1.000000E-1
Scans to average: 1
Electric dark correction enabled: true
Nonlinearity correction enabled: false
Boxcar width: 0
XAxis mode: Wavelengths
Number of Pixels in Spectrum: 2048
>>>>>Begin Spectral Data<<<<<
223.165	-23.12
223.4	-23.12
223.635	-23.12
223.869	-27.12
224.104	-3.12
224.338	-17.12
224.573	-20.12
224.808	-25.12
225.042	-4.12
225.277	-5.12
225.511	8.88
225.746	-9.12
225.98	7.88
226.215	10.88
226.449	29.88
226.683	12.88
226.918	38.88
227.152	24.88
227.387	32.88
227.621	36.88
227.856	43.88
228.09	55.88
228.324	50.88
228.559	55.88
228.793	80.88
229.027	86.88
229.262	100.88
229.496	109.88
229.73	115.88
229.964	99.88
230.199	120.88
230.433	117.88
230.667	114.88
230.901	120.88
231.136	139.88
231.37	125.88
231.604	109.88
231.838	137.88
232.072	124.88
232.306	131.88
232.541	129.88
232.775	129.88
233.009	137.88
233.243	119.88
233.477	128.88
233.711	137.88
233.945	134.88
234.179	131.88
234.413	139.88
234.647	132.88
234.881	133.88
235.115	151.88
235.349	139.88
235.583	119.88
235.817	132.88
236.051	131.88
236.285	140.88
236.519	141.88
236.753	140.88
236.987	150.88
237.221	135.88
237.455	137.88
237.689	141.88
237.922	135.88
238.156	149.88
238.39	147.88
238.624	156.88
238.858	124.88
239.091	151.88
239.325	171.88
239.559	145.88
239.793	154.88
240.027	151.88
240.26	163.88
240.494	133.88
240.728	163.88
240.961	147.88
241.195	143.88
241.429	167.88
241.662	151.88
241.896	156.88
242.13	161.88
242.363	154.88
242.597	167.88
242.83	162.88
243.064	169.88
243.298	173.88
243.531	183.88
243.765	159.88
243.998	159.88
244.232	179.88
244.465	175.88
244.699	171.88
244.932	177.88
245.166	187.88
245.399	176.88
245.633	163.88
245.866	197.88
246.099	192.88
246.333	175.88
246.566	191.88
246.8	197.88
247.033	201.88
247.266	200.88
247.5	202.88
247.733	205.88
247.966	199.88
248.2	207.88
248.433	180.88
248.666	206.88
248.899	219.88
249.133	232.88
249.366	216.88
249.599	220.88
249.832	214.88
250.066	221.88
250.299	218.88
250.532	212.88
250.765	213.88
250.998	230.88
251.231	211.88
251.465	230.88
251.698	219.88
251.931	228.88
252.164	232.88
252.397	251.88
252.63	240.88
252.863	238.88
253.096	235.88
253.329	238.88
253.562	216.88
253.795	271.88
254.028	251.88
254.261	228.88
254.494	272.88
254.727	243.88
254.96	260.88
255.193	257.88
255.426	247.88
255.659	251.88
255.892	251.88
256.124	270.88
256.357	263.88
256.59	267.88
256.823	251.88
257.056	280.88
257.289	254.88
257.521	273.88
257.754	241.88
257.987	263.88
258.22	277.88
258.452	259.88
258.685	268.88
258.918	270.88
259.151	278.88
259.383	271.88
259.616	278.88
259.849	273.88
260.081	304.88
260.314	282.88
260.547	302.88
260.779	289.88
261.012	299.88
261.244	303.88
261.477	296.88
261.71	292.88
261.942	300.88
262.175	313.88
262.407	300.88
262.64	305.88
262.872	283.88
263.105	287.88
263.337	307.88
263.57	296.88
263.802	303.88
264.035	296.88
264.267	313.88
264.499	304.88
264.732	300.88
264.964	302.88
265.197	311.88
265.429	333.88
265.661	328.88
265.894	326.88
266.126	317.88
266.358	324.88
266.591	329.88
266.823	340.88
267.055	322.88
267.287	325.88
267.52	312.88
267.752	312.88
267.984	318.88
268.216	317.88
268.448	332.88
268.681	336.88
268.913	343.88
269.145	315.88
269.377	320.88
269.609	331.88
269.841	337.88
270.073	324.88
270.306	361.88
270.538	321.88
270.77	326.88
271.002	348.88
271.234	348.88
271.466	348.88
271.698	341.88
271.93	343.88
272.162	353.88
272.394	348.88
272.626	359.88
272.858	344.88
273.09	351.88
273.322	360.88
273.553	348.88
273.785	349.88
274.017	356.88
274.249	362.88
274.481	368.88
274.713	367.88
274.945	381.88
275.176	375.88
275.408	351.88
275.64	362.88
275.872	349.88
276.104	385.88
276.335	375.88
276.567	375.88
276.799	379.88
277.031	367.88
277.262	386.88
277.494	372.88
277.726	359.88
277.957	389.88
278.189	385.88
278.421	367.88
278.652	391.88
278.884	396.88
279.115	388.88
279.347	376.88
279.579	401.88
279.81	374.88
280.042	383.88
280.273	382.88
280.505	405.88
280.736	385.88
280.968	385.88
281.199	388.88
281.431	390.88
281.662	400.88
281.894	393.88
282.125	410.88
282.356	421.88
282.588	407.88
282.819	406.88
283.051	409.88
283.282	404.88
283.513	414.88
283.745	406.88
283.976	405.88
284.207	428.88
284.439	422.88
284.67	417.88
284.901	413.88
285.132	400.88
285.364	411.88
285.595	419.88
285.826	437.88
286.057	441.88
286.288	413.88
286.52	439.88
286.751	428.88
286.982	417.88
287.213	417.88
287.444	440.88
287.675	436.88
287.906	425.88
288.138	431.88
288.369	453.88
288.6	425.88
288.831	447.88
289.062	451.88
289.293	431.88
289.524	455.88
289.755	455.88
289.986	458.88
290.217	453.88
290.448	448.88
290.679	451.88
290.91	446.88
291.141	447.88
291.371	450.88
291.602	425.88
291.833	446.88
292.064	435.88
292.295	460.88
292.526	452.88
292.757	446.88
292.987	431.88
293.218	430.88
293.449	443.88
293.68	433.88
293.91	451.88
294.141	465.88
294.372	451.88
294.603	467.88
294.833	445.88
295.064	460.88
295.295	463.88
295.525	464.88
295.756	457.88
295.987	429.88
296.217	466.88
296.448	464.88
296.679	463.88
296.909	476.88
297.14	462.88
297.37	481.88
297.601	472.88
297.831	469.88
298.062	481.88
298.292	477.88
298.523	495.88
298.753	475.88
298.984	507.88
299.214	487.88
299.445	493.88
299.675	471.88
299.905	506.88
300.136	485.88
300.366	495.88
300.597	516.88
300.827	499.88
301.057	483.88
301.288	517.88
301.518	503.88
301.748	496.88
301.979	517.88
302.209	515.88
302.439	505.88
302.669	502.88
302.9	504.88
303.13	499.88
303.36	500.88
303.59	471.88
303.82	504.88
304.051	511.88
304.281	503.88
304.511	496.88
304.741	524.88
304.971	520.88
305.201	514.88
305.431	526.88
305.661	503.88
305.891	506.88
306.121	515.88
306.352	499.88
306.582	496.88
306.812	500.88
307.042	523.88
307.272	502.88
307.502	495.88
307.731	508.88
307.961	498.88
308.191	483.88
308.421	496.88
308.651	511.88
308.881	484.88
309.111	521.88
309.341	507.88
309.571	500.88
309.8	516.88
310.03	521.88
310.26	511.88
310.49	511.88
310.72	540.88
310.949	507.88
311.179	519.88
311.409	529.88
311.639	510.88
311.868	535.88
312.098	539.88
312.328	542.88
312.557	540.88
312.787	500.88
313.017	547.88
313.246	554.88
313.476	554.88
313.706	545.88
313.935	555.88
314.165	553.88
314.394	539.88
314.624	568.88
314.853	544.88
315.083	555.88
315.312	558.88
315.542	563.88
315.771	565.88
316.001	581.88
316.23	559.88
316.46	544.88
316.689	551.88
316.919	547.88
317.148	573.88
317.377	563.88
317.607	554.88
317.836	572.88
318.065	568.88
318.295	569.88
318.524	555.88
318.753	552.88
318.983	568.88
319.212	558.88
319.441	557.88
319.67	558.88
319.9	556.88
320.129	575.88
320.358	583.88
320.587	561.88
320.816	585.88
321.046	565.88
321.275	544.88
321.504	584.88
321.733	566.88
321.962	587.88
322.191	597.88
322.42	588.88
322.649	601.88
322.878	603.88
323.108	615.88
323.337	597.88
323.566	593.88
323.795	593.88
324.024	586.88
324.253	601.88
324.482	620.88
324.71	618.88
324.939	587.88
325.168	619.88
325.397	639.88
325.626	642.88
325.855	615.88
326.084	648.88
326.313	636.88
326.542	644.88
326.77	671.88
326.999	650.88
327.228	657.88
327.457	637.88
327.686	635.88
327.914	647.88
328.143	667.88
328.372	660.88
328.6	672.88
328.829	683.88
329.058	678.88
329.287	656.88
329.515	695.88
329.744	673.88
329.972	655.88
330.201	672.88
330.43	687.88
330.658	663.88
330.887	693.88
331.115	730.88
331.344	714.88
331.572	698.88
331.801	709.88
332.03	730.88
332.258	731.88
332.486	751.88
332.715	800.88
332.943	815.88
333.172	798.88
333.4	855.88
333.629	864.88
333.857	869.88
334.085	869.88
334.314	890.88
334.542	874.88
334.771	870.88
334.999	857.88
335.227	860.88
335.455	865.88
335.684	869.88
335.912	881.88
336.14	848.88
336.369	832.88
336.597	846.88
336.825	844.88
337.053	815.88
337.281	821.88
337.51	813.88
337.738	806.88
337.966	790.88
338.194	804.88
338.422	756.88
338.65	751.88
338.878	747.88
339.106	770.88
339.334	748.88
339.562	725.88
339.79	723.88
340.018	728.88
340.246	725.88
340.474	721.88
340.702	713.88
340.93	743.88
341.158	729.88
341.386	744.88
341.614	767.88
341.842	735.88
342.07	709.88
342.298	704.88
342.526	742.88
342.754	711.88
342.981	736.88
343.209	753.88
343.437	764.88
343.665	846.88
343.893	863.88
344.12	882.88
344.348	866.88
344.576	837.88
344.804	784.88
345.031	804.88
345.259	751.88
345.487	745.88
345.714	733.88
345.942	759.88
346.17	750.88
346.397	737.88
346.625	719.88
346.853	724.88
347.08	685.88
347.308	707.88
347.535	707.88
347.763	724.88
347.99	714.88
348.218	713.88
348.445	714.88
348.673	708.88
348.9	715.88
349.128	702.88
349.355	693.88
349.583	716.88
349.81	692.88
350.037	685.88
350.265	698.88
350.492	689.88
350.72	675.88
350.947	695.88
351.174	698.88
351.402	709.88
351.629	724.88
351.856	715.88
352.083	685.88
352.311	683.88
352.538	687.88
352.765	705.88
352.992	671.88
353.22	685.88
353.447	667.88
353.674	661.88
353.901	656.88
354.128	659.88
354.355	663.88
354.583	683.88
354.81	687.88
355.037	687.88
355.264	653.88
355.491	684.88
355.718	681.88
355.945	674.88
356.172	667.88
356.399	707.88
356.626	695.88
356.853	700.88
357.08	696.88
357.307	676.88
357.534	684.88
357.761	676.88
357.988	664.88
358.215	668.88
358.441	697.88
358.668	669.88
358.895	707.88
359.122	665.88
359.349	685.88
359.576	674.88
359.802	686.88
360.029	684.88
360.256	671.88
360.483	671.88
360.709	662.88
360.936	679.88
361.163	670.88
361.39	662.88
361.616	671.88
361.843	676.88
362.07	687.88
362.296	700.88
362.523	674.88
362.749	685.88
362.976	663.88
363.203	668.88
363.429	639.88
363.656	682.88
363.882	665.88
364.109	677.88
364.335	670.88
364.562	686.88
364.788	663.88
365.015	655.88
365.241	680.88
365.468	671.88
365.694	664.88
365.92	677.88
366.147	654.88
366.373	689.88
366.599	662.88
366.826	691.88
367.052	680.88
367.278	684.88
367.505	683.88
367.731	665.88
367.957	684.88
368.184	657.88
368.41	683.88
368.636	680.88
368.862	660.88
369.089	697.88
369.315	677.88
369.541	697.88
369.767	712.88
369.993	691.88
370.219	702.88
370.445	707.88
370.672	690.88
370.898	719.88
371.124	730.88
371.35	734.88
371.576	717.88
371.802	714.88
372.028	703.88
372.254	711.88
372.48	715.88
372.706	727.88
372.932	732.88
373.158	708.88
373.384	728.88
373.61	742.88
373.835	712.88
374.061	720.88
374.287	730.88
374.513	718.88
374.739	769.88
374.965	773.88
375.191	772.88
375.416	783.88
375.642	759.88
375.868	762.88
376.094	756.88
376.319	732.88
376.545	727.88
376.771	699.88
376.997	722.88
377.222	730.88
377.448	712.88
377.674	689.88
377.899	702.88
378.125	713.88
378.35	707.88
378.576	700.88
378.802	700.88
379.027	701.88
379.253	707.88
379.478	688.88
379.704	685.88
379.929	679.88
380.155	696.88
380.38	669.88
380.606	723.88
380.831	723.88
381.057	720.88
381.282	701.88
381.507	705.88
381.733	701.88
381.958	712.88
382.184	728.88
382.409	734.88
382.634	729.88
382.86	717.88
383.085	726.88
383.31	759.88
383.535	778.88
383.761	754.88
383.986	763.88
384.211	784.88
384.436	791.88
384.662	799.88
384.887	830.88
385.112	836.88
385.337	825.88
385.562	837.88
385.787	825.88
386.013	826.88
386.238	814.88
386.463	848.88
386.688	835.88
386.913	830.88
387.138	806.88
387.363	829.88
387.588	845.88
387.813	869.88
388.038	847.88
388.263	853.88
388.488	856.88
388.713	829.88
388.938	820.88
389.163	808.88
389.387	824.88
389.612	840.88
389.837	833.88
390.062	802.88
390.287	863.88
390.512	821.88
390.736	832.88
390.961	849.88
391.186	841.88
391.411	886.88
391.636	893.88
391.86	910.88
392.085	939.88
392.31	914.88
392.534	917.88
392.759	907.88
392.984	900.88
393.208	876.88
393.433	883.88
393.658	899.88
393.882	878.88
394.107	887.88
394.331	887.88
394.556	903.88
394.78	878.88
395.005	896.88
395.229	891.88
395.454	914.88
395.678	955.88
395.903	920.88
396.127	951.88
396.352	906.88
396.576	906.88
396.801	921.88
397.025	916.88
397.249	946.88
397.474	953.88
397.698	960.88
397.922	951.88
398.147	941.88
398.371	959.88
398.595	1000.88
398.82	1068.88
399.044	1141.88
399.268	1219.88
399.492	1340.88
399.717	1453.88
399.941	1493.88
400.165	1375.88
400.389	1262.88
400.613	1172.88
400.837	1112.88
401.062	1087.88
401.286	1071.88
401.51	1059.88
401.734	1033.88
401.958	1070.88
402.182	1041.88
402.406	1076.88
402.63	1093.88
402.854	1085.88
403.078	1125.88
403.302	1119.88
403.526	1131.88
403.75	1134.88
403.974	1164.88
404.198	1163.88
404.422	1168.88
404.645	1169.88
404.869	1110.88
405.093	1150.88
405.317	1121.88
405.541	1143.88
405.765	1149.88
405.988	1139.88
406.212	1163.88
406.436	1163.88
406.66	1206.88
406.883	1181.88
407.107	1262.88
407.331	1295.88
407.555	1324.88
407.778	1335.88
408.002	1342.88
408.226	1265.88
408.449	1293.88
408.673	1225.88
408.896	1211.88
409.12	1199.88
409.344	1213.88
409.567	1174.88
409.791	1164.88
410.014	1195.88
410.238	1149.88
410.461	1184.88
410.685	1145.88
410.908	1133.88
411.132	1122.88
411.355	1105.88
411.578	1099.88
411.802	1117.88
412.025	1108.88
412.249	1112.88
412.472	1115.88
412.695	1092.88
412.919	1093.88
413.142	1079.88
413.365	1077.88
413.589	1090.88
413.812	1088.88
414.035	1061.88
414.258	1063.88
414.482	1076.88
414.705	1104.88
414.928	1051.88
415.151	1056.88
415.374	1105.88
415.597	1084.88
415.821	1015.88
416.044	1038.88
416.267	1011.88
416.49	1061.88
416.713	1051.88
416.936	1042.88
417.159	1045.88
417.382	1077.88
417.605	1027.88
417.828	1062.88
418.051	1080.88
418.274	1071.88
418.497	1075.88
418.72	1103.88
418.943	1049.88
419.166	1167.88
419.389	1216.88
419.611	1187.88
419.834	1111.88
420.057	1118.88
420.28	1074.88
420.503	1067.88
420.726	1056.88
420.948	1068.88
421.171	1062.88
421.394	1071.88
421.617	1073.88
421.839	1077.88
422.062	1087.88
422.285	1055.88
422.507	1045.88
422.73	1054.88
422.953	1098.88
423.175	1090.88
423.398	1107.88
423.621	1131.88
423.843	1111.88
424.066	1108.88
424.288	1089.88
424.511	1088.88
424.733	1089.88
424.956	1086.88
425.178	1102.88
425.401	1076.88
425.623	1070.88
425.846	1076.88
426.068	1085.88
426.291	1027.88
426.513	1035.88
426.735	1011.88
426.958	1017.88
427.18	1003.88
427.402	999.88
427.625	1000.88
427.847	971.88
428.069	1003.88
428.292	974.88
428.514	980.88
428.736	964.88
428.958	984.88
429.181	962.88
429.403	972.88
429.625	982.88
429.847	941.88
430.069	936.88
430.292	943.88
430.514	950.88
430.736	953.88
430.958	983.88
431.18	952.88
431.402	946.88
431.624	968.88
431.846	955.88
432.068	971.88
432.29	995.88
432.512	945.88
432.734	978.88
432.956	964.88
433.178	996.88
433.4	982.88
433.622	996.88
433.844	1033.88
434.066	1031.88
434.287	1009.88
434.509	1039.88
434.731	1079.88
434.953	1084.88
435.175	1112.88
435.397	1094.88
435.618	1008.88
435.84	999.88
436.062	1001.88
436.284	1033.88
436.505	981.88
436.727	1017.88
436.949	985.88
437.17	968.88
437.392	981.88
437.614	960.88
437.835	941.88
438.057	934.88
438.278	929.88
438.5	951.88
438.721	953.88
438.943	963.88
439.165	961.88
439.386	958.88
439.608	990.88
439.829	991.88
440.05	980.88
440.272	965.88
440.493	1002.88
440.715	1016.88
440.936	1030.88
441.158	1034.88
441.379	1046.88
441.6	1123.88
441.822	1099.88
442.043	1097.88
442.264	1121.88
442.486	1079.88
442.707	1092.88
442.928	1087.88
443.149	1063.88
443.371	1093.88
443.592	1086.88
443.813	1082.88
444.034	1119.88
444.255	1135.88
444.476	1161.88
444.698	1257.88
444.919	1269.88
445.14	1316.88
445.361	1231.88
445.582	1155.88
445.803	1065.88
446.024	1079.88
446.245	1062.88
446.466	1039.88
446.687	1021.88
446.908	1021.88
447.129	973.88
447.35	989.88
447.571	963.88
447.792	913.88
448.013	955.88
448.234	947.88
448.455	944.88
448.675	924.88
448.896	927.88
449.117	895.88
449.338	894.88
449.559	916.88
449.779	903.88
450	917.88
450.221	921.88
450.442	932.88
450.662	895.88
450.883	921.88
451.104	963.88
451.324	952.88
451.545	927.88
451.766	936.88
451.986	899.88
452.207	929.88
452.428	907.88
452.648	895.88
452.869	891.88
453.089	899.88
453.31	890.88
453.53	858.88
453.751	859.88
453.971	885.88
454.192	853.88
454.412	855.88
454.633	833.88
454.853	840.88
455.073	849.88
455.294	843.88
455.514	864.88
455.734	848.88
455.955	838.88
456.175	843.88
456.395	824.88
456.616	843.88
456.836	841.88
457.056	854.88
457.276	844.88
457.497	865.88
457.717	872.88
457.937	895.88
458.157	871.88
458.377	880.88
458.598	910.88
458.818	937.88
459.038	939.88
459.258	964.88
459.478	1000.88
459.698	1026.88
459.918	1043.88
460.138	1072.88
460.358	1117.88
460.578	1141.88
460.798	1125.88
461.018	1169.88
461.238	1126.88
461.458	1158.88
461.678	1127.88
461.898	1162.88
462.118	1175.88
462.338	1221.88
462.558	1289.88
462.777	1313.88
462.997	1389.88
463.217	1452.88
463.437	1485.88
463.657	1415.88
463.876	1337.88
464.096	1307.88
464.316	1305.88
464.536	1289.88
464.755	1292.88
464.975	1215.88
465.195	1195.88
465.414	1112.88
465.634	1067.88
465.854	1051.88
466.073	1030.88
466.293	998.88
466.512	1021.88
466.732	1011.88
466.951	960.88
467.171	951.88
467.391	973.88
467.61	925.88
467.829	947.88
468.049	950.88
468.268	930.88
468.488	924.88
468.707	935.88
468.927	927.88
469.146	933.88
469.365	937.88
469.585	958.88
469.804	964.88
470.023	963.88
470.243	963.88
470.462	971.88
470.681	996.88
470.901	962.88
471.12	981.88
471.339	972.88
471.558	954.88
471.777	953.88
471.997	931.88
472.216	921.88
472.435	920.88
472.654	904.88
472.873	901.88
473.092	916.88
473.311	889.88
473.53	908.88
473.749	894.88
473.968	901.88
474.187	913.88
474.406	880.88
474.625	899.88
474.844	889.88
475.063	892.88
475.282	885.88
475.501	928.88
475.72	918.88
475.939	919.88
476.158	938.88
476.377	925.88
476.596	952.88
476.814	969.88
477.033	986.88
477.252	974.88
477.471	1020.88
477.69	1019.88
477.908	1066.88
478.127	1061.88
478.346	1075.88
478.564	1100.88
478.783	1079.88
479.002	1123.88
479.22	1100.88
479.439	1120.88
479.658	1103.88
479.876	1108.88
480.095	1111.88
480.313	1125.88
480.532	1169.88
480.751	1146.88
480.969	1099.88
481.188	1105.88
481.406	1082.88
481.624	1046.88
481.843	1039.88
482.061	1029.88
482.28	1032.88
482.498	1035.88
482.717	1022.88
482.935	1016.88
483.153	1000.88
483.372	1049.88
483.59	1034.88
483.808	1042.88
484.027	1044.88
484.245	1047.88
484.463	1049.88
484.681	1048.88
484.9	1041.88
485.118	1069.88
485.336	1066.88
485.554	1079.88
485.772	1059.88
485.99	1056.88
486.209	1049.88
486.427	1060.88
486.645	1067.88
486.863	1099.88
487.081	1077.88
487.299	1078.88
487.517	1057.88
487.735	1079.88
487.953	1075.88
488.171	1100.88
488.389	1098.88
488.607	1101.88
488.825	1081.88
489.043	1035.88
489.261	1046.88
489.479	1041.88
489.696	1060.88
489.914	1072.88
490.132	1096.88
490.35	1103.88
490.568	1086.88
490.786	1095.88
491.003	1106.88
491.221	1089.88
491.439	1121.88
491.657	1099.88
491.874	1115.88
492.092	1132.88
492.31	1140.88
492.527	1129.88
492.745	1139.88
492.963	1125.88
493.18	1132.88
493.398	1140.88
493.615	1145.88
493.833	1149.88
494.05	1108.88
494.268	1167.88
494.485	1167.88
494.703	1156.88
494.92	1187.88
495.138	1151.88
495.355	1169.88
495.573	1206.88
495.79	1156.88
496.008	1201.88
496.225	1209.88
496.442	1195.88
496.66	1213.88
496.877	1231.88
497.094	1251.88
497.312	1287.88
497.529	1329.88
497.746	1349.88
497.963	1374.88
498.181	1415.88
498.398	1505.88
498.615	1597.88
498.832	1641.88
499.049	1768.88
499.267	1882.88
499.484	2082.88
499.701	2265.88
499.918	2437.88
500.135	2732.88
500.352	2960.88
500.569	3018.88
500.786	2961.88
501.003	2823.88
501.22	2616.88
501.437	2421.88
501.654	2180.88
501.871	1982.88
502.088	1847.88
502.305	1753.88
502.522	1685.88
502.739	1584.88
502.956	1511.88
503.172	1447.88
503.389	1428.88
503.606	1380.88
503.823	1354.88
504.04	1355.88
504.256	1335.88
504.473	1327.88
504.69	1322.88
504.907	1319.88
505.123	1241.88
505.34	1182.88
505.557	1178.88
505.773	1135.88
505.99	1128.88
506.207	1083.88
506.423	1075.88
506.64	1070.88
506.856	1013.88
507.073	1008.88
507.289	1033.88
507.506	1050.88
507.722	1012.88
507.939	989.88
508.155	999.88
508.372	991.88
508.588	999.88
508.805	980.88
509.021	958.88
509.238	933.88
509.454	960.88
509.67	968.88
509.887	951.88
510.103	935.88
510.319	939.88
510.536	914.88
510.752	940.88
510.968	928.88
511.184	960.88
511.401	910.88
511.617	914.88
511.833	948.88
512.049	935.88
512.265	924.88
512.481	931.88
512.698	933.88
512.914	916.88
513.13	946.88
513.346	917.88
513.562	926.88
513.778	926.88
513.994	940.88
514.21	932.88
514.426	963.88
514.642	964.88
514.858	949.88
515.074	964.88
515.29	927.88
515.506	949.88
515.721	993.88
515.937	986.88
516.153	994.88
516.369	1036.88
516.585	1062.88
516.801	1094.88
517.016	1120.88
517.232	1135.88
517.448	1175.88
517.664	1229.88
517.879	1267.88
518.095	1242.88
518.311	1198.88
518.527	1167.88
518.742	1124.88
518.958	1116.88
519.173	1035.88
519.389	1019.88
519.605	1013.88
519.82	1006.88
520.036	957.88
520.251	955.88
520.467	955.88
520.682	924.88
520.898	931.88
521.113	930.88
521.329	917.88
521.544	904.88
521.76	867.88
521.975	885.88
522.19	857.88
522.406	882.88
522.621	872.88
522.836	874.88
523.052	871.88
523.267	880.88
523.482	893.88
523.698	870.88
523.913	853.88
524.128	840.88
524.343	848.88
524.559	848.88
524.774	856.88
524.989	845.88
525.204	843.88
525.419	847.88
525.634	838.88
525.849	820.88
526.064	888.88
526.28	863.88
526.495	849.88
526.71	840.88
526.925	820.88
527.14	807.88
527.355	830.88
527.57	793.88
527.785	822.88
527.999	814.88
528.214	838.88
528.429	819.88
528.644	839.88
528.859	859.88
529.074	829.88
529.289	861.88
529.503	837.88
529.718	816.88
529.933	819.88
530.148	827.88
530.363	820.88
530.577	831.88
530.792	837.88
531.007	832.88
531.221	833.88
531.436	828.88
531.651	801.88
531.865	808.88
532.08	808.88
532.295	836.88
532.509	803.88
532.724	834.88
532.938	835.88
533.153	839.88
533.367	845.88
533.582	819.88
533.796	829.88
534.011	832.88
534.225	815.88
534.44	817.88
534.654	808.88
534.868	810.88
535.083	813.88
535.297	805.88
535.511	789.88
535.726	800.88
535.94	767.88
536.154	764.88
536.369	781.88
536.583	790.88
536.797	761.88
537.011	767.88
537.225	767.88
537.44	773.88
537.654	760.88
537.868	746.88
538.082	761.88
538.296	731.88
538.51	735.88
538.724	764.88
538.938	752.88
539.153	757.88
539.367	761.88
539.581	759.88
539.795	748.88
540.009	755.88
540.222	746.88
540.436	747.88
540.65	745.88
540.864	756.88
541.078	767.88
541.292	774.88
541.506	751.88
541.72	767.88
541.934	765.88
542.147	774.88
542.361	766.88
542.575	781.88
542.789	732.88
543.002	769.88
543.216	750.88
543.43	739.88
543.644	760.88
543.857	749.88
544.071	743.88
544.285	796.88
544.498	737.88
544.712	759.88
544.925	763.88
545.139	754.88
545.352	756.88
545.566	777.88
545.779	767.88
545.993	760.88
546.206	796.88
546.42	775.88
546.633	763.88
546.847	776.88
547.06	763.88
547.274	760.88
547.487	752.88
547.7	792.88
547.914	805.88
548.127	796.88
548.34	800.88
548.554	769.88
548.767	768.88
548.98	786.88
549.193	771.88
549.407	814.88
549.62	780.88
549.833	771.88
550.046	772.88
550.259	777.88
550.473	770.88
550.686	779.88
550.899	771.88
551.112	734.88
551.325	765.88
551.538	763.88
551.751	776.88
551.964	765.88
552.177	777.88
552.39	804.88
552.603	813.88
552.816	817.88
553.029	800.88
553.242	827.88
553.455	828.88
553.667	853.88
553.88	819.88
554.093	809.88
554.306	775.88
554.519	785.88
554.732	755.88
554.944	745.88
555.157	746.88
555.37	738.88
555.583	740.88
555.795	719.88
556.008	716.88
556.221	701.88
556.433	677.88
556.646	667.88
556.859	693.88
557.071	687.88
557.284	681.88
557.496	680.88
557.709	660.88
557.921	675.88
558.134	660.88
558.346	667.88
558.559	658.88
558.771	657.88
558.984	631.88
559.196	644.88
559.409	633.88
559.621	632.88
559.833	636.88
560.046	634.88
560.258	648.88
560.47	655.88
560.683	620.88
560.895	645.88
561.107	625.88
561.32	618.88
561.532	640.88
561.744	625.88
561.956	645.88
562.168	636.88
562.381	636.88
562.593	633.88
562.805	639.88
563.017	663.88
563.229	659.88
563.441	642.88
563.653	651.88
563.865	655.88
564.077	651.88
564.289	672.88
564.501	692.88
564.713	695.88
564.925	680.88
565.137	696.88
565.349	743.88
565.561	731.88
565.773	725.88
565.985	773.88
566.197	819.88
566.408	877.88
566.62	887.88
566.832	965.88
567.044	972.88
567.255	993.88
567.467	998.88
567.679	1033.88
567.891	1068.88
568.102	1057.88
568.314	1067.88
568.526	969.88
568.737	924.88
568.949	851.88
569.161	799.88
569.372	742.88
569.584	715.88
569.795	655.88
570.007	676.88
570.218	645.88
570.43	655.88
570.641	648.88
570.853	640.88
571.064	619.88
571.276	639.88
571.487	623.88
571.698	589.88
571.91	599.88
572.121	604.88
572.333	561.88
572.544	569.88
572.755	547.88
572.966	553.88
573.178	524.88
573.389	529.88
573.6	537.88
573.811	528.88
574.023	535.88
574.234	531.88
574.445	535.88
574.656	516.88
574.867	515.88
575.078	506.88
575.289	512.88
575.501	510.88
575.712	487.88
575.923	505.88
576.134	495.88
576.345	494.88
576.556	501.88
576.767	471.88
576.978	466.88
577.188	477.88
577.399	461.88
577.61	470.88
577.821	481.88
578.032	479.88
578.243	447.88
578.454	479.88
578.665	459.88
578.875	485.88
579.086	447.88
579.297	456.88
579.508	451.88
579.718	444.88
579.929	462.88
580.14	455.88
580.35	461.88
580.561	455.88
580.772	459.88
580.982	438.88
581.193	439.88
581.403	441.88
581.614	417.88
581.825	436.88
582.035	442.88
582.246	431.88
582.456	418.88
582.667	436.88
582.877	440.88
583.087	452.88
583.298	430.88
583.508	411.88
583.719	419.88
583.929	426.88
584.139	437.88
584.35	435.88
584.56	405.88
584.77	431.88
584.981	427.88
585.191	397.88
585.401	417.88
585.611	409.88
585.821	407.88
586.032	413.88
586.242	419.88
586.452	406.88
586.662	409.88
586.872	415.88
587.082	411.88
587.292	422.88
587.502	430.88
587.713	425.88
587.923	444.88
588.133	415.88
588.343	405.88
588.553	411.88
588.762	419.88
588.972	409.88
589.182	440.88
589.392	422.88
589.602	440.88
589.812	426.88
590.022	407.88
590.232	422.88
590.441	419.88
590.651	422.88
590.861	399.88
591.071	419.88
591.281	449.88
591.49	429.88
591.7	422.88
591.91	445.88
592.119	437.88
592.329	447.88
592.539	457.88
592.748	480.88
592.958	478.88
593.167	489.88
593.377	512.88
593.587	483.88
593.796	485.88
594.006	507.88
594.215	496.88
594.424	501.88
594.634	495.88
594.843	496.88
595.053	458.88
595.262	463.88
595.472	444.88
595.681	419.88
595.89	421.88
596.1	421.88
596.309	400.88
596.518	394.88
596.727	399.88
596.937	410.88
597.146	389.88
597.355	377.88
597.564	369.88
597.774	371.88
597.983	371.88
598.192	366.88
598.401	359.88
598.61	356.88
598.819	363.88
599.028	377.88
599.237	352.88
599.446	337.88
599.655	349.88
599.864	355.88
600.073	356.88
600.282	342.88
600.491	323.88
600.7	339.88
600.909	347.88
601.118	356.88
601.327	344.88
601.536	340.88
601.745	347.88
601.953	327.88
602.162	361.88
602.371	335.88
602.58	351.88
602.789	333.88
602.997	329.88
603.206	340.88
603.415	336.88
603.623	338.88
603.832	334.88
604.041	338.88
604.249	321.88
604.458	340.88
604.666	324.88
604.875	320.88
605.084	341.88
605.292	316.88
605.501	336.88
605.709	335.88
605.918	342.88
606.126	349.88
606.334	315.88
606.543	318.88
606.751	314.88
606.96	315.88
607.168	310.88
607.376	318.88
607.585	321.88
607.793	326.88
608.001	326.88
608.21	324.88
608.418	302.88
608.626	307.88
608.834	299.88
609.043	320.88
609.251	311.88
609.459	302.88
609.667	303.88
609.875	318.88
610.083	301.88
610.291	314.88
610.499	318.88
610.707	290.88
610.916	307.88
611.124	297.88
611.332	298.88
611.54	303.88
611.748	299.88
611.955	298.88
612.163	309.88
612.371	331.88
612.579	299.88
612.787	304.88
612.995	303.88
613.203	317.88
613.411	284.88
613.618	310.88
613.826	315.88
614.034	306.88
614.242	296.88
614.449	264.88
614.657	287.88
614.865	295.88
615.072	288.88
615.28	296.88
615.488	316.88
615.695	317.88
615.903	311.88
616.111	305.88
616.318	321.88
616.526	302.88
616.733	297.88
616.941	301.88
617.148	299.88
617.356	297.88
617.563	290.88
617.771	307.88
617.978	299.88
618.185	296.88
618.393	276.88
618.6	288.88
618.807	300.88
619.015	292.88
619.222	279.88
619.429	279.88
619.637	282.88
619.844	268.88
620.051	260.88
620.258	277.88
620.466	279.88
620.673	295.88
620.88	271.88
621.087	264.88
621.294	287.88
621.501	272.88
621.708	272.88
621.915	267.88
622.122	269.88
622.329	279.88
622.536	273.88
622.743	270.88
622.95	277.88
623.157	279.88
623.364	270.88
623.571	266.88
623.778	271.88
623.985	288.88
624.192	261.88
624.399	269.88
624.606	278.88
624.812	279.88
625.019	267.88
625.226	270.88
625.433	253.88
625.639	251.88
625.846	256.88
626.053	271.88
626.259	250.88
626.466	263.88
626.673	254.88
626.879	241.88
627.086	253.88
627.293	270.88
627.499	253.88
627.706	268.88
627.912	251.88
628.119	251.88
628.325	251.88
628.532	263.88
628.738	242.88
628.945	263.88
629.151	243.88
629.357	244.88
629.564	239.88
629.77	255.88
629.976	229.88
630.183	220.88
630.389	231.88
630.595	230.88
630.802	248.88
631.008	249.88
631.214	224.88
631.42	235.88
631.627	245.88
631.833	243.88
632.039	245.88
632.245	258.88
632.451	222.88
632.657	231.88
632.863	222.88
633.069	226.88
633.275	230.88
633.481	232.88
633.688	239.88
633.893	234.88
634.099	236.88
634.305	243.88
634.511	230.88
634.717	214.88
634.923	223.88
635.129	241.88
635.335	221.88
635.541	221.88
635.747	205.88
635.952	227.88
636.158	215.88
636.364	211.88
636.57	225.88
636.775	217.88
636.981	199.88
637.187	220.88
637.392	214.88
637.598	220.88
637.804	214.88
638.009	206.88
638.215	220.88
638.421	217.88
638.626	214.88
638.832	220.88
639.037	202.88
639.243	207.88
639.448	211.88
639.654	195.88
639.859	197.88
640.065	208.88
640.27	200.88
640.475	205.88
640.681	217.88
640.886	195.88
641.091	208.88
641.297	204.88
641.502	195.88
641.707	203.88
641.913	193.88
642.118	198.88
642.323	211.88
642.528	191.88
642.733	217.88
642.939	199.88
643.144	203.88
643.349	198.88
643.554	204.88
643.759	177.88
643.964	205.88
644.169	189.88
644.374	203.88
644.579	194.88
644.784	208.88
644.989	184.88
645.194	198.88
645.399	183.88
645.604	183.88
645.809	211.88
646.014	195.88
646.219	193.88
646.423	200.88
646.628	201.88
646.833	204.88
647.038	206.88
647.243	213.88
647.447	198.88
647.652	215.88
647.857	213.88
648.062	200.88
648.266	207.88
648.471	193.88
648.676	226.88
648.88	198.88
649.085	187.88
649.289	203.88
649.494	182.88
649.698	187.88
649.903	195.88
650.107	196.88
650.312	188.88
650.516	189.88
650.721	182.88
650.925	176.88
651.13	177.88
651.334	183.88
651.539	193.88
651.743	168.88
651.947	181.88
652.152	171.88
652.356	163.88
652.56	167.88
652.764	168.88
652.969	169.88
653.173	155.88
653.377	165.88
653.581	173.88
653.785	153.88
653.99	155.88
654.194	158.88
654.398	163.88
654.602	156.88
654.806	159.88
655.01	170.88
655.214	159.88
655.418	147.88
655.622	152.88
655.826	163.88
656.03	152.88
656.234	140.88
656.438	152.88
656.642	140.88
656.846	144.88
657.049	133.88
657.253	135.88
657.457	142.88
657.661	123.88
657.865	125.88
658.068	109.88
658.272	122.88
658.476	128.88
658.68	121.88
658.883	120.88
659.087	111.88
659.291	120.88
659.494	110.88
659.698	104.88
659.901	98.88
660.105	102.88
660.309	102.88
660.512	104.88
660.716	101.88
660.919	105.88
661.123	108.88
661.326	96.88
661.53	81.88
661.733	88.88
661.936	94.88
662.14	90.88
662.343	92.88
662.546	90.88
662.75	80.88
662.953	89.88
663.156	89.88
663.36	76.88
663.563	91.88
663.766	96.88
663.969	81.88
664.173	98.88
664.376	95.88
664.579	96.88
664.782	95.88
664.985	89.88
665.188	70.88
665.391	83.88
665.594	77.88
665.797	91.88
666	88.88
666.203	82.88
666.406	72.88
666.609	84.88
666.812	87.88
667.015	73.88
667.218	79.88
667.421	90.88
667.624	75.88
667.827	83.88
668.03	81.88
668.232	80.88
668.435	84.88
668.638	84.88
668.841	79.88
669.043	85.88
669.246	87.88
669.449	78.88
669.651	97.88
669.854	75.88
670.057	85.88
670.259	78.88
670.462	69.88
670.665	74.88
670.867	85.88
671.07	96.88
671.272	71.88
671.475	91.88
671.677	87.88
671.88	81.88
672.082	93.88
672.284	82.88
672.487	76.88
672.689	96.88
672.892	78.88
