Data from Ni(NO3)2@0.5M.TitratingCurve.Agarose3%dH2O.NegLispCup.LampEnergy10.LIBS07252019_HRD10591_17-59-01-564.txt Node
Date: Thu Jul 25 17:59:01 EDT 2019
User: cochatt
Spectrometer: HR+D1059
Trigger mode: 1
Integration Time (sec): 1.000000E-1
Scans to average: 1
Electric dark correction enabled: true
Nonlinearity correction enabled: false
Boxcar width: 0
XAxis mode: Wavelengths
Number of Pixels in Spectrum: 2048
>>>>>Begin Spectral Data<<<<<
223.165	-21.19
223.4	-21.19
223.635	-21.19
223.869	-7.19
224.104	-16.19
224.338	-21.19
224.573	-7.19
224.808	-10.19
225.042	-19.19
225.277	-3.19
225.511	3.81
225.746	10.81
225.98	12.81
226.215	0.81
226.449	21.81
226.683	4.81
226.918	24.81
227.152	25.81
227.387	32.81
227.621	45.81
227.856	52.81
228.09	46.81
228.324	50.81
228.559	60.81
228.793	53.81
229.027	115.81
229.262	122.81
229.496	127.81
229.73	137.81
229.964	147.81
230.199	174.81
230.433	167.81
230.667	175.81
230.901	146.81
231.136	152.81
231.37	150.81
231.604	162.81
231.838	182.81
232.072	168.81
232.306	161.81
232.541	148.81
232.775	163.81
233.009	144.81
233.243	141.81
233.477	146.81
233.711	145.81
233.945	158.81
234.179	166.81
234.413	158.81
234.647	163.81
234.881	145.81
235.115	172.81
235.349	147.81
235.583	155.81
235.817	142.81
236.051	152.81
236.285	134.81
236.519	149.81
236.753	136.81
236.987	150.81
237.221	135.81
237.455	162.81
237.689	153.81
237.922	166.81
238.156	154.81
238.39	151.81
238.624	143.81
238.858	151.81
239.091	157.81
239.325	166.81
239.559	180.81
239.793	199.81
240.027	183.81
240.26	172.81
240.494	162.81
240.728	159.81
240.961	152.81
241.195	172.81
241.429	163.81
241.662	188.81
241.896	185.81
242.13	198.81
242.363	192.81
242.597	160.81
242.83	158.81
243.064	163.81
243.298	168.81
243.531	169.81
243.765	172.81
243.998	190.81
244.232	185.81
244.465	183.81
244.699	185.81
244.932	193.81
245.166	188.81
245.399	164.81
245.633	187.81
245.866	203.81
246.099	178.81
246.333	189.81
246.566	181.81
246.8	178.81
247.033	198.81
247.266	196.81
247.5	196.81
247.733	199.81
247.966	222.81
248.2	211.81
248.433	198.81
248.666	205.81
248.899	196.81
249.133	213.81
249.366	216.81
249.599	213.81
249.832	211.81
250.066	203.81
250.299	208.81
250.532	230.81
250.765	242.81
250.998	233.81
251.231	230.81
251.465	261.81
251.698	252.81
251.931	240.81
252.164	225.81
252.397	223.81
252.63	230.81
252.863	228.81
253.096	218.81
253.329	234.81
253.562	235.81
253.795	232.81
254.028	254.81
254.261	237.81
254.494	254.81
254.727	266.81
254.96	259.81
255.193	249.81
255.426	264.81
255.659	262.81
255.892	258.81
256.124	261.81
256.357	262.81
256.59	262.81
256.823	270.81
257.056	278.81
257.289	259.81
257.521	254.81
257.754	278.81
257.987	272.81
258.22	271.81
258.452	276.81
258.685	253.81
258.918	277.81
259.151	270.81
259.383	279.81
259.616	292.81
259.849	280.81
260.081	279.81
260.314	270.81
260.547	272.81
260.779	291.81
261.012	292.81
261.244	291.81
261.477	287.81
261.71	268.81
261.942	267.81
262.175	311.81
262.407	308.81
262.64	305.81
262.872	278.81
263.105	300.81
263.337	307.81
263.57	301.81
263.802	298.81
264.035	312.81
264.267	321.81
264.499	300.81
264.732	314.81
264.964	312.81
265.197	316.81
265.429	313.81
265.661	300.81
265.894	308.81
266.126	312.81
266.358	306.81
266.591	298.81
266.823	333.81
267.055	327.81
267.287	320.81
267.52	313.81
267.752	317.81
267.984	314.81
268.216	316.81
268.448	325.81
268.681	337.81
268.913	325.81
269.145	317.81
269.377	342.81
269.609	331.81
269.841	347.81
270.073	341.81
270.306	341.81
270.538	326.81
270.77	312.81
271.002	329.81
271.234	330.81
271.466	343.81
271.698	354.81
271.93	346.81
272.162	349.81
272.394	362.81
272.626	344.81
272.858	331.81
273.09	342.81
273.322	354.81
273.553	332.81
273.785	355.81
274.017	356.81
274.249	368.81
274.481	380.81
274.713	365.81
274.945	368.81
275.176	376.81
275.408	346.81
275.64	374.81
275.872	390.81
276.104	373.81
276.335	365.81
276.567	368.81
276.799	360.81
277.031	368.81
277.262	376.81
277.494	378.81
277.726	383.81
277.957	380.81
278.189	381.81
278.421	376.81
278.652	384.81
278.884	382.81
279.115	392.81
279.347	386.81
279.579	396.81
279.81	389.81
280.042	387.81
280.273	388.81
280.505	415.81
280.736	383.81
280.968	407.81
281.199	409.81
281.431	400.81
281.662	400.81
281.894	426.81
282.125	401.81
282.356	397.81
282.588	399.81
282.819	392.81
283.051	396.81
283.282	397.81
283.513	432.81
283.745	415.81
283.976	433.81
284.207	426.81
284.439	424.81
284.67	425.81
284.901	411.81
285.132	417.81
285.364	412.81
285.595	417.81
285.826	425.81
286.057	415.81
286.288	441.81
286.52	437.81
286.751	427.81
286.982	442.81
287.213	418.81
287.444	442.81
287.675	432.81
287.906	440.81
288.138	451.81
288.369	449.81
288.6	465.81
288.831	448.81
289.062	443.81
289.293	446.81
289.524	438.81
289.755	426.81
289.986	444.81
290.217	448.81
290.448	437.81
290.679	456.81
290.91	437.81
291.141	442.81
291.371	446.81
291.602	462.81
291.833	448.81
292.064	436.81
292.295	441.81
292.526	445.81
292.757	445.81
292.987	458.81
293.218	437.81
293.449	470.81
293.68	450.81
293.91	447.81
294.141	453.81
294.372	452.81
294.603	452.81
294.833	451.81
295.064	466.81
295.295	453.81
295.525	462.81
295.756	471.81
295.987	453.81
296.217	468.81
296.448	472.81
296.679	475.81
296.909	481.81
297.14	486.81
297.37	481.81
297.601	475.81
297.831	479.81
298.062	478.81
298.292	488.81
298.523	475.81
298.753	469.81
298.984	468.81
299.214	492.81
299.445	499.81
299.675	483.81
299.905	497.81
300.136	522.81
300.366	517.81
300.597	519.81
300.827	512.81
301.057	498.81
301.288	521.81
301.518	508.81
301.748	517.81
301.979	521.81
302.209	506.81
302.439	500.81
302.669	526.81
302.9	516.81
303.13	520.81
303.36	544.81
303.59	512.81
303.82	524.81
304.051	498.81
304.281	526.81
304.511	521.81
304.741	533.81
304.971	520.81
305.201	557.81
305.431	565.81
305.661	547.81
305.891	578.81
306.121	534.81
306.352	515.81
306.582	527.81
306.812	523.81
307.042	512.81
307.272	532.81
307.502	490.81
307.731	502.81
307.961	531.81
308.191	510.81
308.421	534.81
308.651	514.81
308.881	523.81
309.111	542.81
309.341	513.81
309.571	532.81
309.8	553.81
310.03	548.81
310.26	570.81
310.49	561.81
310.72	556.81
310.949	538.81
311.179	527.81
311.409	545.81
311.639	556.81
311.868	534.81
312.098	539.81
312.328	537.81
312.557	563.81
312.787	537.81
313.017	560.81
313.246	590.81
313.476	557.81
313.706	598.81
313.935	576.81
314.165	555.81
314.394	564.81
314.624	557.81
314.853	574.81
315.083	557.81
315.312	558.81
315.542	565.81
315.771	578.81
316.001	577.81
316.23	577.81
316.46	577.81
316.689	575.81
316.919	561.81
317.148	562.81
317.377	588.81
317.607	565.81
317.836	576.81
318.065	549.81
318.295	595.81
318.524	577.81
318.753	568.81
318.983	568.81
319.212	586.81
319.441	582.81
319.67	608.81
319.9	578.81
320.129	593.81
320.358	585.81
320.587	596.81
320.816	579.81
321.046	596.81
321.275	621.81
321.504	628.81
321.733	589.81
321.962	597.81
322.191	595.81
322.42	616.81
322.649	596.81
322.878	619.81
323.108	594.81
323.337	624.81
323.566	603.81
323.795	611.81
324.024	612.81
324.253	624.81
324.482	634.81
324.71	622.81
324.939	636.81
325.168	616.81
325.397	621.81
325.626	623.81
325.855	633.81
326.084	612.81
326.313	628.81
326.542	634.81
326.77	652.81
326.999	616.81
327.228	636.81
327.457	637.81
327.686	642.81
327.914	649.81
328.143	643.81
328.372	619.81
328.6	651.81
328.829	658.81
329.058	660.81
329.287	646.81
329.515	657.81
329.744	642.81
329.972	628.81
330.201	651.81
330.43	633.81
330.658	668.81
330.887	669.81
331.115	663.81
331.344	654.81
331.572	669.81
331.801	686.81
332.03	697.81
332.258	680.81
332.486	719.81
332.715	711.81
332.943	704.81
333.172	701.81
333.4	728.81
333.629	745.81
333.857	756.81
334.085	743.81
334.314	749.81
334.542	739.81
334.771	741.81
334.999	769.81
335.227	788.81
335.455	748.81
335.684	743.81
335.912	776.81
336.14	770.81
336.369	761.81
336.597	754.81
336.825	775.81
337.053	781.81
337.281	772.81
337.51	747.81
337.738	733.81
337.966	747.81
338.194	749.81
338.422	730.81
338.65	740.81
338.878	747.81
339.106	736.81
339.334	742.81
339.562	749.81
339.79	718.81
340.018	698.81
340.246	681.81
340.474	711.81
340.702	712.81
340.93	702.81
341.158	721.81
341.386	733.81
341.614	788.81
341.842	736.81
342.07	717.81
342.298	701.81
342.526	737.81
342.754	701.81
342.981	694.81
343.209	711.81
343.437	752.81
343.665	767.81
343.893	776.81
344.12	776.81
344.348	794.81
344.576	770.81
344.804	757.81
345.031	765.81
345.259	735.81
345.487	714.81
345.714	729.81
345.942	740.81
346.17	745.81
346.397	734.81
346.625	708.81
346.853	678.81
347.08	691.81
347.308	688.81
347.535	678.81
347.763	703.81
347.99	689.81
348.218	666.81
348.445	671.81
348.673	691.81
348.9	691.81
349.128	700.81
349.355	729.81
349.583	712.81
349.81	678.81
350.037	667.81
350.265	676.81
350.492	680.81
350.72	678.81
350.947	652.81
351.174	695.81
351.402	708.81
351.629	694.81
351.856	698.81
352.083	696.81
352.311	721.81
352.538	718.81
352.765	747.81
352.992	675.81
353.22	662.81
353.447	656.81
353.674	681.81
353.901	649.81
354.128	632.81
354.355	652.81
354.583	650.81
354.81	656.81
355.037	661.81
355.264	649.81
355.491	652.81
355.718	652.81
355.945	641.81
356.172	656.81
356.399	691.81
356.626	682.81
356.853	722.81
357.08	670.81
357.307	660.81
357.534	682.81
357.761	650.81
357.988	668.81
358.215	640.81
358.441	653.81
358.668	665.81
358.895	675.81
359.122	664.81
359.349	666.81
359.576	669.81
359.802	653.81
360.029	664.81
360.256	668.81
360.483	662.81
360.709	675.81
360.936	692.81
361.163	696.81
361.39	672.81
361.616	684.81
361.843	683.81
362.07	708.81
362.296	709.81
362.523	687.81
362.749	681.81
362.976	693.81
363.203	690.81
363.429	660.81
363.656	660.81
363.882	663.81
364.109	653.81
364.335	684.81
364.562	671.81
364.788	677.81
365.015	663.81
365.241	658.81
365.468	672.81
365.694	672.81
365.92	670.81
366.147	675.81
366.373	676.81
366.599	672.81
366.826	672.81
367.052	661.81
367.278	664.81
367.505	665.81
367.731	654.81
367.957	682.81
368.184	650.81
368.41	658.81
368.636	690.81
368.862	708.81
369.089	693.81
369.315	680.81
369.541	701.81
369.767	699.81
369.993	700.81
370.219	702.81
370.445	691.81
370.672	695.81
370.898	691.81
371.124	685.81
371.35	716.81
371.576	690.81
371.802	716.81
372.028	708.81
372.254	705.81
372.48	712.81
372.706	707.81
372.932	737.81
373.158	739.81
373.384	733.81
373.61	746.81
373.835	731.81
374.061	727.81
374.287	716.81
374.513	742.81
374.739	754.81
374.965	734.81
375.191	729.81
375.416	745.81
375.642	728.81
375.868	725.81
376.094	727.81
376.319	714.81
376.545	722.81
376.771	716.81
376.997	727.81
377.222	732.81
377.448	696.81
377.674	701.81
377.899	728.81
378.125	718.81
378.35	740.81
378.576	719.81
378.802	722.81
379.027	701.81
379.253	706.81
379.478	704.81
379.704	685.81
379.929	704.81
380.155	720.81
380.38	694.81
380.606	714.81
380.831	714.81
381.057	729.81
381.282	718.81
381.507	724.81
381.733	702.81
381.958	719.81
382.184	712.81
382.409	741.81
382.634	730.81
382.86	733.81
383.085	770.81
383.31	731.81
383.535	739.81
383.761	737.81
383.986	728.81
384.211	756.81
384.436	755.81
384.662	777.81
384.887	760.81
385.112	795.81
385.337	774.81
385.562	796.81
385.787	802.81
386.013	813.81
386.238	804.81
386.463	800.81
386.688	798.81
386.913	816.81
387.138	786.81
387.363	792.81
387.588	798.81
387.813	819.81
388.038	809.81
388.263	824.81
388.488	807.81
388.713	786.81
388.938	788.81
389.163	800.81
389.387	818.81
389.612	803.81
389.837	830.81
390.062	818.81
390.287	809.81
390.512	792.81
390.736	828.81
390.961	818.81
391.186	823.81
391.411	846.81
391.636	849.81
391.86	875.81
392.085	854.81
392.31	833.81
392.534	858.81
392.759	844.81
392.984	811.81
393.208	838.81
393.433	845.81
393.658	838.81
393.882	861.81
394.107	845.81
394.331	833.81
394.556	850.81
394.78	837.81
395.005	842.81
395.229	853.81
395.454	832.81
395.678	854.81
395.903	870.81
396.127	871.81
396.352	886.81
396.576	868.81
396.801	846.81
397.025	871.81
397.249	858.81
397.474	924.81
397.698	906.81
397.922	890.81
398.147	904.81
398.371	927.81
398.595	927.81
398.82	962.81
399.044	1006.81
399.268	1041.81
399.492	1070.81
399.717	1100.81
399.941	1097.81
400.165	1125.81
400.389	1076.81
400.613	1040.81
400.837	991.81
401.062	993.81
401.286	996.81
401.51	972.81
401.734	995.81
401.958	991.81
402.182	988.81
402.406	947.81
402.63	982.81
402.854	981.81
403.078	950.81
403.302	978.81
403.526	991.81
403.75	965.81
403.974	973.81
404.198	957.81
404.422	995.81
404.645	973.81
404.869	986.81
405.093	994.81
405.317	1016.81
405.541	983.81
405.765	1010.81
405.988	1020.81
406.212	971.81
406.436	1029.81
406.66	1060.81
406.883	1055.81
407.107	1081.81
407.331	1075.81
407.555	1099.81
407.778	1151.81
408.002	1125.81
408.226	1090.81
408.449	1096.81
408.673	1075.81
408.896	1053.81
409.12	1024.81
409.344	1058.81
409.567	1051.81
409.791	1034.81
410.014	1010.81
410.238	1013.81
410.461	1050.81
410.685	1022.81
410.908	1026.81
411.132	1004.81
411.355	996.81
411.578	996.81
411.802	1019.81
412.025	996.81
412.249	990.81
412.472	1000.81
412.695	992.81
412.919	987.81
413.142	994.81
413.365	997.81
413.589	1003.81
413.812	963.81
414.035	1001.81
414.258	991.81
414.482	959.81
414.705	982.81
414.928	973.81
415.151	933.81
415.374	976.81
415.597	981.81
415.821	952.81
416.044	950.81
416.267	936.81
416.49	933.81
416.713	954.81
416.936	952.81
417.159	945.81
417.382	919.81
417.605	919.81
417.828	962.81
418.051	960.81
418.274	937.81
418.497	935.81
418.72	917.81
418.943	937.81
419.166	965.81
419.389	1041.81
419.611	1031.81
419.834	984.81
420.057	971.81
420.28	954.81
420.503	922.81
420.726	934.81
420.948	937.81
421.171	943.81
421.394	932.81
421.617	920.81
421.839	940.81
422.062	948.81
422.285	934.81
422.507	919.81
422.73	932.81
422.953	914.81
423.175	912.81
423.398	901.81
423.621	920.81
423.843	943.81
424.066	922.81
424.288	922.81
424.511	933.81
424.733	909.81
424.956	900.81
425.178	911.81
425.401	925.81
425.623	943.81
425.846	926.81
426.068	926.81
426.291	930.81
426.513	955.81
426.735	912.81
426.958	928.81
427.18	899.81
427.402	907.81
427.625	907.81
427.847	901.81
428.069	890.81
428.292	885.81
428.514	872.81
428.736	904.81
428.958	898.81
429.181	924.81
429.403	906.81
429.625	880.81
429.847	876.81
430.069	894.81
430.292	896.81
430.514	870.81
430.736	887.81
430.958	886.81
431.18	886.81
431.402	885.81
431.624	864.81
431.846	902.81
432.068	877.81
432.29	916.81
432.512	884.81
432.734	914.81
432.956	891.81
433.178	916.81
433.4	956.81
433.622	932.81
433.844	936.81
434.066	938.81
434.287	915.81
434.509	938.81
434.731	906.81
434.953	951.81
435.175	976.81
435.397	970.81
435.618	950.81
435.84	930.81
436.062	896.81
436.284	895.81
436.505	908.81
436.727	923.81
436.949	900.81
437.17	891.81
437.392	875.81
437.614	899.81
437.835	870.81
438.057	853.81
438.278	869.81
438.5	877.81
438.721	876.81
438.943	875.81
439.165	888.81
439.386	876.81
439.608	895.81
439.829	886.81
440.05	897.81
440.272	874.81
440.493	889.81
440.715	915.81
440.936	896.81
441.158	909.81
441.379	947.81
441.6	975.81
441.822	953.81
442.043	945.81
442.264	965.81
442.486	940.81
442.707	938.81
442.928	906.81
443.149	940.81
443.371	958.81
443.592	1005.81
443.813	1003.81
444.034	954.81
444.255	958.81
444.476	1012.81
444.698	1000.81
444.919	1023.81
445.14	1120.81
445.361	1065.81
445.582	966.81
445.803	932.81
446.024	908.81
446.245	932.81
446.466	902.81
446.687	904.81
446.908	889.81
447.129	852.81
447.35	882.81
447.571	882.81
447.792	861.81
448.013	849.81
448.234	843.81
448.455	841.81
448.675	852.81
448.896	853.81
449.117	843.81
449.338	832.81
449.559	821.81
449.779	834.81
450	813.81
450.221	812.81
450.442	841.81
450.662	826.81
450.883	861.81
451.104	857.81
451.324	853.81
451.545	820.81
451.766	812.81
451.986	805.81
452.207	798.81
452.428	827.81
452.648	820.81
452.869	818.81
453.089	798.81
453.31	845.81
453.53	809.81
453.751	803.81
453.971	807.81
454.192	827.81
454.412	802.81
454.633	806.81
454.853	809.81
455.073	802.81
455.294	781.81
455.514	792.81
455.734	828.81
455.955	832.81
456.175	844.81
456.395	804.81
456.616	804.81
456.836	797.81
457.056	790.81
457.276	778.81
457.497	825.81
457.717	832.81
457.937	836.81
458.157	806.81
458.377	805.81
458.598	854.81
458.818	849.81
459.038	864.81
459.258	862.81
459.478	948.81
459.698	1005.81
459.918	993.81
460.138	977.81
460.358	960.81
460.578	982.81
460.798	1028.81
461.018	1012.81
461.238	972.81
461.458	978.81
461.678	949.81
461.898	976.81
462.118	996.81
462.338	1044.81
462.558	1060.81
462.777	1068.81
462.997	1110.81
463.217	1132.81
463.437	1203.81
463.657	1128.81
463.876	1096.81
464.096	1078.81
464.316	1086.81
464.536	1069.81
464.755	1026.81
464.975	1023.81
465.195	980.81
465.414	987.81
465.634	912.81
465.854	944.81
466.073	939.81
466.293	896.81
466.512	872.81
466.732	888.81
466.951	894.81
467.171	913.81
467.391	903.81
467.61	865.81
467.829	854.81
468.049	869.81
468.268	844.81
468.488	826.81
468.707	872.81
468.927	846.81
469.146	858.81
469.365	866.81
469.585	881.81
469.804	875.81
470.023	864.81
470.243	849.81
470.462	892.81
470.681	888.81
470.901	864.81
471.12	866.81
471.339	864.81
471.558	866.81
471.777	867.81
471.997	851.81
472.216	842.81
472.435	851.81
472.654	842.81
472.873	859.81
473.092	854.81
473.311	853.81
473.53	832.81
473.749	828.81
473.968	878.81
474.187	829.81
474.406	850.81
474.625	832.81
474.844	844.81
475.063	875.81
475.282	907.81
475.501	892.81
475.72	894.81
475.939	864.81
476.158	876.81
476.377	883.81
476.596	896.81
476.814	899.81
477.033	903.81
477.252	896.81
477.471	893.81
477.69	948.81
477.908	950.81
478.127	960.81
478.346	953.81
478.564	1001.81
478.783	1008.81
479.002	1041.81
479.22	1051.81
479.439	1026.81
479.658	1016.81
479.876	992.81
480.095	994.81
480.313	1044.81
480.532	1038.81
480.751	991.81
480.969	986.81
481.188	1013.81
481.406	1012.81
481.624	975.81
481.843	984.81
482.061	997.81
482.28	993.81
482.498	988.81
482.717	964.81
482.935	987.81
483.153	1006.81
483.372	1041.81
483.59	1058.81
483.808	1033.81
484.027	1003.81
484.245	993.81
484.463	996.81
484.681	989.81
484.9	998.81
485.118	1036.81
485.336	997.81
485.554	1019.81
485.772	1006.81
485.99	1030.81
486.209	1039.81
486.427	1020.81
486.645	1024.81
486.863	1019.81
487.081	1038.81
487.299	1008.81
487.517	1037.81
487.735	1059.81
487.953	1056.81
488.171	1030.81
488.389	1020.81
488.607	1050.81
488.825	1019.81
489.043	1032.81
489.261	1025.81
489.479	1035.81
489.696	1034.81
489.914	1018.81
490.132	1046.81
490.35	1050.81
490.568	1006.81
490.786	1018.81
491.003	1034.81
491.221	1047.81
491.439	1061.81
491.657	1042.81
491.874	1048.81
492.092	1054.81
492.31	1078.81
492.527	1080.81
492.745	1073.81
492.963	1059.81
493.18	1071.81
493.398	1049.81
493.615	1052.81
493.833	1038.81
494.05	1097.81
494.268	1098.81
494.485	1045.81
494.703	1077.81
494.92	1101.81
495.138	1081.81
495.355	1068.81
495.573	1100.81
495.79	1096.81
496.008	1105.81
496.225	1101.81
496.442	1168.81
496.66	1144.81
496.877	1138.81
497.094	1130.81
497.312	1157.81
497.529	1192.81
497.746	1193.81
497.963	1230.81
498.181	1265.81
498.398	1303.81
498.615	1318.81
498.832	1404.81
499.049	1425.81
499.267	1457.81
499.484	1528.81
499.701	1610.81
499.918	1701.81
500.135	1781.81
500.352	1882.81
500.569	1876.81
500.786	1850.81
501.003	1883.81
501.22	1793.81
501.437	1709.81
501.654	1600.81
501.871	1573.81
502.088	1481.81
502.305	1437.81
502.522	1402.81
502.739	1360.81
502.956	1291.81
503.172	1259.81
503.389	1220.81
503.606	1218.81
503.823	1212.81
504.04	1152.81
504.256	1170.81
504.473	1142.81
504.69	1122.81
504.907	1127.81
505.123	1081.81
505.34	1076.81
505.557	1048.81
505.773	1056.81
505.99	1031.81
506.207	1020.81
506.423	1005.81
506.64	1002.81
506.856	986.81
507.073	960.81
507.289	957.81
507.506	964.81
507.722	971.81
507.939	939.81
508.155	948.81
508.372	929.81
508.588	944.81
508.805	898.81
509.021	910.81
509.238	899.81
509.454	896.81
509.67	924.81
509.887	900.81
510.103	858.81
510.319	880.81
510.536	888.81
510.752	876.81
510.968	874.81
511.184	850.81
511.401	877.81
511.617	886.81
511.833	877.81
512.049	857.81
512.265	867.81
512.481	864.81
512.698	834.81
512.914	851.81
513.13	877.81
513.346	838.81
513.562	873.81
513.778	861.81
513.994	873.81
514.21	905.81
514.426	867.81
514.642	850.81
514.858	896.81
515.074	874.81
515.29	855.81
515.506	894.81
515.721	880.81
515.937	920.81
516.153	914.81
516.369	909.81
516.585	922.81
516.801	928.81
517.016	947.81
517.232	943.81
517.448	974.81
517.664	983.81
517.879	980.81
518.095	969.81
518.311	967.81
518.527	954.81
518.742	952.81
518.958	929.81
519.173	924.81
519.389	891.81
519.605	893.81
519.82	898.81
520.036	898.81
520.251	846.81
520.467	859.81
520.682	846.81
520.898	849.81
521.113	822.81
521.329	825.81
521.544	830.81
521.76	825.81
521.975	808.81
522.19	827.81
522.406	803.81
522.621	827.81
522.836	816.81
523.052	807.81
523.267	793.81
523.482	818.81
523.698	808.81
523.913	774.81
524.128	801.81
524.343	774.81
524.559	787.81
524.774	776.81
524.989	772.81
525.204	818.81
525.419	792.81
525.634	798.81
525.849	776.81
526.064	758.81
526.28	752.81
526.495	770.81
526.71	731.81
526.925	770.81
527.14	777.81
527.355	762.81
527.57	756.81
527.785	740.81
527.999	731.81
528.214	765.81
528.429	774.81
528.644	745.81
528.859	764.81
529.074	771.81
529.289	758.81
529.503	767.81
529.718	759.81
529.933	755.81
530.148	760.81
530.363	760.81
530.577	745.81
530.792	750.81
531.007	741.81
531.221	749.81
531.436	742.81
531.651	734.81
531.865	739.81
532.08	741.81
532.295	731.81
532.509	726.81
532.724	718.81
532.938	743.81
533.153	722.81
533.367	741.81
533.582	733.81
533.796	718.81
534.011	718.81
534.225	741.81
534.44	746.81
534.654	731.81
534.868	732.81
535.083	718.81
535.297	711.81
535.511	693.81
535.726	717.81
535.94	733.81
536.154	728.81
536.369	705.81
536.583	711.81
536.797	711.81
537.011	702.81
537.225	713.81
537.44	676.81
537.654	701.81
537.868	677.81
538.082	689.81
538.296	681.81
538.51	692.81
538.724	684.81
538.938	700.81
539.153	683.81
539.367	688.81
539.581	680.81
539.795	685.81
540.009	690.81
540.222	666.81
540.436	663.81
540.65	680.81
540.864	672.81
541.078	698.81
541.292	709.81
541.506	654.81
541.72	678.81
541.934	673.81
542.147	698.81
542.361	701.81
542.575	680.81
542.789	662.81
543.002	652.81
543.216	681.81
543.43	675.81
543.644	664.81
543.857	660.81
544.071	665.81
544.285	678.81
544.498	665.81
544.712	645.81
544.925	682.81
545.139	652.81
545.352	673.81
545.566	672.81
545.779	673.81
545.993	678.81
546.206	694.81
546.42	689.81
546.633	674.81
546.847	680.81
547.06	673.81
547.274	689.81
547.487	689.81
547.7	689.81
547.914	680.81
548.127	687.81
548.34	697.81
548.554	672.81
548.767	672.81
548.98	678.81
549.193	682.81
549.407	674.81
549.62	664.81
549.833	661.81
550.046	653.81
550.259	653.81
550.473	670.81
550.686	675.81
550.899	661.81
551.112	659.81
551.325	656.81
551.538	693.81
551.751	660.81
551.964	653.81
552.177	655.81
552.39	653.81
552.603	701.81
552.816	682.81
553.029	691.81
553.242	703.81
553.455	666.81
553.667	706.81
553.88	663.81
554.093	689.81
554.306	676.81
554.519	663.81
554.732	645.81
554.944	644.81
555.157	639.81
555.37	607.81
555.583	642.81
555.795	597.81
556.008	608.81
556.221	602.81
556.433	612.81
556.646	594.81
556.859	615.81
557.071	589.81
557.284	596.81
557.496	605.81
557.709	598.81
557.921	598.81
558.134	601.81
558.346	590.81
558.559	589.81
558.771	575.81
558.984	606.81
559.196	584.81
559.409	589.81
559.621	553.81
559.833	578.81
560.046	568.81
560.258	572.81
560.47	566.81
560.683	545.81
560.895	577.81
561.107	568.81
561.32	580.81
561.532	554.81
561.744	563.81
561.956	565.81
562.168	566.81
562.381	577.81
562.593	581.81
562.805	560.81
563.017	576.81
563.229	561.81
563.441	579.81
563.653	582.81
563.865	587.81
564.077	569.81
564.289	575.81
564.501	581.81
564.713	603.81
564.925	615.81
565.137	627.81
565.349	615.81
565.561	623.81
565.773	635.81
565.985	662.81
566.197	672.81
566.408	676.81
566.62	682.81
566.832	717.81
567.044	715.81
567.255	724.81
567.467	733.81
567.679	738.81
567.891	727.81
568.102	741.81
568.314	730.81
568.526	680.81
568.737	674.81
568.949	652.81
569.161	617.81
569.372	580.81
569.584	595.81
569.795	568.81
570.007	562.81
570.218	568.81
570.43	552.81
570.641	549.81
570.853	545.81
571.064	546.81
571.276	521.81
571.487	531.81
571.698	536.81
571.91	513.81
572.121	507.81
572.333	477.81
572.544	497.81
572.755	487.81
572.966	480.81
573.178	480.81
573.389	496.81
573.6	489.81
573.811	463.81
574.023	481.81
574.234	454.81
574.445	454.81
574.656	481.81
574.867	464.81
575.078	448.81
575.289	452.81
575.501	450.81
575.712	449.81
575.923	452.81
576.134	446.81
576.345	427.81
576.556	464.81
576.767	436.81
576.978	442.81
577.188	426.81
577.399	410.81
577.61	417.81
577.821	426.81
578.032	419.81
578.243	440.81
578.454	424.81
578.665	412.81
578.875	422.81
579.086	399.81
579.297	408.81
579.508	414.81
579.718	398.81
579.929	402.81
580.14	416.81
580.35	396.81
580.561	405.81
580.772	398.81
580.982	425.81
581.193	402.81
581.403	388.81
581.614	386.81
581.825	402.81
582.035	403.81
582.246	397.81
582.456	406.81
582.667	392.81
582.877	384.81
583.087	383.81
583.298	389.81
583.508	383.81
583.719	404.81
583.929	398.81
584.139	388.81
584.35	382.81
584.56	388.81
584.77	401.81
584.981	387.81
585.191	376.81
585.401	371.81
585.611	392.81
585.821	370.81
586.032	360.81
586.242	372.81
586.452	380.81
586.662	361.81
586.872	365.81
587.082	386.81
587.292	360.81
587.502	373.81
587.713	382.81
587.923	382.81
588.133	371.81
588.343	373.81
588.553	378.81
588.762	393.81
588.972	370.81
589.182	430.81
589.392	430.81
589.602	378.81
589.812	377.81
590.022	386.81
590.232	374.81
590.441	387.81
590.651	382.81
590.861	370.81
591.071	379.81
591.281	373.81
591.49	365.81
591.7	390.81
591.91	387.81
592.119	380.81
592.329	359.81
592.539	380.81
592.748	382.81
592.958	391.81
593.167	400.81
593.377	398.81
593.587	402.81
593.796	382.81
594.006	397.81
594.215	409.81
594.424	395.81
594.634	397.81
594.843	387.81
595.053	382.81
595.262	345.81
595.472	376.81
595.681	373.81
595.89	339.81
596.1	365.81
596.309	345.81
596.518	351.81
596.727	354.81
596.937	334.81
597.146	347.81
597.355	338.81
597.564	343.81
597.774	346.81
597.983	327.81
598.192	340.81
598.401	325.81
598.61	337.81
598.819	319.81
599.028	314.81
599.237	325.81
599.446	317.81
599.655	305.81
599.864	340.81
600.073	318.81
600.282	308.81
600.491	310.81
600.7	338.81
600.909	320.81
601.118	324.81
601.327	315.81
601.536	302.81
601.745	302.81
601.953	315.81
602.162	316.81
602.371	309.81
602.58	302.81
602.789	303.81
602.997	303.81
603.206	310.81
603.415	312.81
603.623	304.81
603.832	290.81
604.041	305.81
604.249	311.81
604.458	325.81
604.666	301.81
604.875	294.81
605.084	301.81
605.292	304.81
605.501	274.81
605.709	297.81
605.918	298.81
606.126	288.81
606.334	298.81
606.543	288.81
606.751	278.81
606.96	305.81
607.168	290.81
607.376	285.81
607.585	310.81
607.793	269.81
608.001	300.81
608.21	299.81
608.418	274.81
608.626	287.81
608.834	274.81
609.043	289.81
609.251	302.81
609.459	297.81
609.667	293.81
609.875	288.81
610.083	290.81
610.291	310.81
610.499	297.81
610.707	282.81
610.916	280.81
611.124	297.81
611.332	270.81
611.54	285.81
611.748	283.81
611.955	293.81
612.163	279.81
612.371	270.81
612.579	264.81
612.787	273.81
612.995	306.81
613.203	281.81
613.411	272.81
613.618	270.81
613.826	296.81
614.034	282.81
614.242	270.81
614.449	262.81
614.657	262.81
614.865	268.81
615.072	286.81
615.28	269.81
615.488	279.81
615.695	283.81
615.903	275.81
616.111	293.81
616.318	289.81
616.526	270.81
616.733	273.81
616.941	251.81
617.148	273.81
617.356	279.81
617.563	282.81
617.771	258.81
617.978	270.81
618.185	254.81
618.393	258.81
618.6	260.81
618.807	257.81
619.015	257.81
619.222	251.81
619.429	285.81
619.637	266.81
619.844	261.81
620.051	267.81
620.258	234.81
620.466	253.81
620.673	253.81
620.88	237.81
621.087	238.81
621.294	264.81
621.501	243.81
621.708	245.81
621.915	250.81
622.122	242.81
622.329	259.81
622.536	261.81
622.743	254.81
622.95	254.81
623.157	234.81
623.364	258.81
623.571	243.81
623.778	260.81
623.985	253.81
624.192	277.81
624.399	244.81
624.606	236.81
624.812	222.81
625.019	241.81
625.226	250.81
625.433	238.81
625.639	226.81
625.846	241.81
626.053	229.81
626.259	229.81
626.466	232.81
626.673	228.81
626.879	232.81
627.086	241.81
627.293	235.81
627.499	229.81
627.706	245.81
627.912	218.81
628.119	227.81
628.325	242.81
628.532	240.81
628.738	238.81
628.945	249.81
629.151	210.81
629.357	245.81
629.564	233.81
629.77	224.81
629.976	221.81
630.183	231.81
630.389	223.81
630.595	231.81
630.802	219.81
631.008	232.81
631.214	214.81
631.42	211.81
631.627	236.81
631.833	232.81
632.039	213.81
632.245	212.81
632.451	225.81
632.657	215.81
632.863	224.81
633.069	225.81
633.275	212.81
633.481	214.81
633.688	221.81
633.893	213.81
634.099	219.81
634.305	231.81
634.511	223.81
634.717	222.81
634.923	206.81
635.129	225.81
635.335	209.81
635.541	206.81
635.747	214.81
635.952	222.81
636.158	214.81
636.364	200.81
636.57	226.81
636.775	234.81
636.981	217.81
637.187	221.81
637.392	222.81
637.598	232.81
637.804	217.81
638.009	197.81
638.215	214.81
638.421	202.81
638.626	218.81
638.832	210.81
639.037	202.81
639.243	208.81
639.448	196.81
639.654	226.81
639.859	221.81
640.065	207.81
640.27	198.81
640.475	201.81
640.681	196.81
640.886	211.81
641.091	210.81
641.297	206.81
641.502	205.81
641.707	200.81
641.913	208.81
642.118	210.81
642.323	209.81
642.528	195.81
642.733	205.81
642.939	208.81
643.144	208.81
643.349	214.81
643.554	210.81
643.759	213.81
643.964	198.81
644.169	204.81
644.374	185.81
644.579	213.81
644.784	201.81
644.989	203.81
645.194	211.81
645.399	193.81
645.604	203.81
645.809	197.81
646.014	195.81
646.219	212.81
646.423	209.81
646.628	216.81
646.833	224.81
647.038	218.81
647.243	202.81
647.447	210.81
647.652	219.81
647.857	186.81
648.062	196.81
648.266	217.81
648.471	216.81
648.676	204.81
648.88	186.81
649.085	192.81
649.289	213.81
649.494	216.81
649.698	203.81
649.903	198.81
650.107	206.81
650.312	184.81
650.516	214.81
650.721	196.81
650.925	211.81
651.13	205.81
651.334	197.81
651.539	215.81
651.743	202.81
651.947	200.81
652.152	200.81
652.356	199.81
652.56	211.81
652.764	200.81
652.969	196.81
653.173	209.81
653.377	197.81
653.581	191.81
653.785	196.81
653.99	193.81
654.194	190.81
654.398	193.81
654.602	198.81
654.806	194.81
655.01	177.81
655.214	174.81
655.418	189.81
655.622	186.81
655.826	182.81
656.03	198.81
656.234	188.81
656.438	181.81
656.642	176.81
656.846	195.81
657.049	171.81
657.253	184.81
657.457	167.81
657.661	166.81
657.865	164.81
658.068	140.81
658.272	155.81
658.476	146.81
658.68	132.81
658.883	141.81
659.087	136.81
659.291	145.81
659.494	126.81
659.698	126.81
659.901	123.81
660.105	113.81
660.309	103.81
660.512	105.81
660.716	111.81
660.919	108.81
661.123	113.81
661.326	115.81
661.53	107.81
661.733	92.81
661.936	106.81
662.14	90.81
662.343	102.81
662.546	84.81
662.75	97.81
662.953	103.81
663.156	98.81
663.36	89.81
663.563	72.81
663.766	88.81
663.969	77.81
664.173	72.81
664.376	83.81
664.579	81.81
664.782	92.81
664.985	80.81
665.188	89.81
665.391	95.81
665.594	82.81
665.797	87.81
666	85.81
666.203	80.81
666.406	91.81
666.609	87.81
666.812	80.81
667.015	77.81
667.218	84.81
667.421	69.81
667.624	82.81
667.827	72.81
668.03	88.81
668.232	101.81
668.435	86.81
668.638	76.81
668.841	74.81
669.043	91.81
669.246	78.81
669.449	79.81
669.651	98.81
669.854	72.81
670.057	85.81
670.259	72.81
670.462	74.81
670.665	82.81
670.867	82.81
671.07	91.81
671.272	86.81
671.475	80.81
671.677	75.81
671.88	82.81
672.082	89.81
672.284	83.81
672.487	83.81
672.689	72.81
672.892	72.81
