Data from Ni(NO3)2@0.125M.TitratingCurve.Agarose3%dH2O.NegLispCup.LampEnergy10.LIBS07252019_HRD10591_18-11-27-568.txt Node
Date: Thu Jul 25 18:11:27 EDT 2019
User: cochatt
Spectrometer: HR+D1059
Trigger mode: 1
Integration Time (sec): 1.000000E-1
Scans to average: 1
Electric dark correction enabled: true
Nonlinearity correction enabled: false
Boxcar width: 0
XAxis mode: Wavelengths
Number of Pixels in Spectrum: 2048
>>>>>Begin Spectral Data<<<<<
223.165	-16.31
223.4	-16.31
223.635	-16.31
223.869	-16.31
224.104	-5.31
224.338	-13.31
224.573	-16.31
224.808	-21.31
225.042	-15.31
225.277	-7.31
225.511	1.69
225.746	11.69
225.98	11.69
226.215	10.69
226.449	17.69
226.683	24.69
226.918	11.69
227.152	21.69
227.387	19.69
227.621	15.69
227.856	29.69
228.09	30.69
228.324	49.69
228.559	45.69
228.793	75.69
229.027	103.69
229.262	107.69
229.496	114.69
229.73	123.69
229.964	117.69
230.199	121.69
230.433	117.69
230.667	120.69
230.901	123.69
231.136	123.69
231.37	138.69
231.604	121.69
231.838	144.69
232.072	143.69
232.306	138.69
232.541	142.69
232.775	151.69
233.009	145.69
233.243	133.69
233.477	136.69
233.711	142.69
233.945	147.69
234.179	157.69
234.413	157.69
234.647	142.69
234.881	141.69
235.115	142.69
235.349	149.69
235.583	164.69
235.817	154.69
236.051	149.69
236.285	149.69
236.519	150.69
236.753	165.69
236.987	149.69
237.221	142.69
237.455	161.69
237.689	158.69
237.922	171.69
238.156	166.69
238.39	168.69
238.624	159.69
238.858	164.69
239.091	179.69
239.325	170.69
239.559	178.69
239.793	175.69
240.027	183.69
240.26	184.69
240.494	175.69
240.728	176.69
240.961	168.69
241.195	190.69
241.429	202.69
241.662	193.69
241.896	185.69
242.13	197.69
242.363	187.69
242.597	189.69
242.83	206.69
243.064	193.69
243.298	201.69
243.531	199.69
243.765	196.69
243.998	199.69
244.232	197.69
244.465	199.69
244.699	192.69
244.932	197.69
245.166	206.69
245.399	204.69
245.633	221.69
245.866	213.69
246.099	202.69
246.333	212.69
246.566	221.69
246.8	213.69
247.033	209.69
247.266	224.69
247.5	233.69
247.733	229.69
247.966	227.69
248.2	241.69
248.433	239.69
248.666	225.69
248.899	259.69
249.133	241.69
249.366	253.69
249.599	239.69
249.832	230.69
250.066	241.69
250.299	256.69
250.532	251.69
250.765	265.69
250.998	254.69
251.231	265.69
251.465	238.69
251.698	257.69
251.931	257.69
252.164	265.69
252.397	280.69
252.63	248.69
252.863	266.69
253.096	283.69
253.329	287.69
253.562	275.69
253.795	279.69
254.028	277.69
254.261	281.69
254.494	277.69
254.727	297.69
254.96	287.69
255.193	290.69
255.426	290.69
255.659	286.69
255.892	279.69
256.124	275.69
256.357	275.69
256.59	289.69
256.823	293.69
257.056	305.69
257.289	309.69
257.521	285.69
257.754	284.69
257.987	291.69
258.22	314.69
258.452	308.69
258.685	304.69
258.918	303.69
259.151	325.69
259.383	311.69
259.616	305.69
259.849	317.69
260.081	315.69
260.314	316.69
260.547	321.69
260.779	320.69
261.012	311.69
261.244	309.69
261.477	316.69
261.71	326.69
261.942	330.69
262.175	344.69
262.407	328.69
262.64	337.69
262.872	337.69
263.105	317.69
263.337	335.69
263.57	342.69
263.802	335.69
264.035	331.69
264.267	326.69
264.499	356.69
264.732	341.69
264.964	356.69
265.197	369.69
265.429	371.69
265.661	370.69
265.894	379.69
266.126	363.69
266.358	358.69
266.591	359.69
266.823	369.69
267.055	350.69
267.287	351.69
267.52	349.69
267.752	363.69
267.984	373.69
268.216	355.69
268.448	377.69
268.681	377.69
268.913	361.69
269.145	378.69
269.377	385.69
269.609	399.69
269.841	378.69
270.073	368.69
270.306	383.69
270.538	379.69
270.77	376.69
271.002	392.69
271.234	386.69
271.466	379.69
271.698	374.69
271.93	388.69
272.162	400.69
272.394	369.69
272.626	395.69
272.858	392.69
273.09	389.69
273.322	398.69
273.553	389.69
273.785	399.69
274.017	405.69
274.249	402.69
274.481	393.69
274.713	415.69
274.945	411.69
275.176	407.69
275.408	433.69
275.64	407.69
275.872	413.69
276.104	425.69
276.335	415.69
276.567	415.69
276.799	425.69
277.031	435.69
277.262	417.69
277.494	416.69
277.726	437.69
277.957	450.69
278.189	443.69
278.421	422.69
278.652	439.69
278.884	437.69
279.115	437.69
279.347	464.69
279.579	451.69
279.81	453.69
280.042	426.69
280.273	445.69
280.505	473.69
280.736	436.69
280.968	464.69
281.199	471.69
281.431	479.69
281.662	463.69
281.894	451.69
282.125	443.69
282.356	480.69
282.588	462.69
282.819	463.69
283.051	474.69
283.282	472.69
283.513	492.69
283.745	458.69
283.976	464.69
284.207	481.69
284.439	479.69
284.67	493.69
284.901	474.69
285.132	490.69
285.364	518.69
285.595	507.69
285.826	480.69
286.057	506.69
286.288	488.69
286.52	477.69
286.751	509.69
286.982	528.69
287.213	492.69
287.444	508.69
287.675	534.69
287.906	531.69
288.138	508.69
288.369	507.69
288.6	521.69
288.831	519.69
289.062	508.69
289.293	519.69
289.524	535.69
289.755	535.69
289.986	523.69
290.217	529.69
290.448	529.69
290.679	538.69
290.91	550.69
291.141	502.69
291.371	515.69
291.602	541.69
291.833	541.69
292.064	550.69
292.295	556.69
292.526	542.69
292.757	523.69
292.987	514.69
293.218	512.69
293.449	524.69
293.68	529.69
293.91	541.69
294.141	552.69
294.372	519.69
294.603	528.69
294.833	540.69
295.064	549.69
295.295	544.69
295.525	544.69
295.756	539.69
295.987	532.69
296.217	536.69
296.448	558.69
296.679	553.69
296.909	537.69
297.14	567.69
297.37	567.69
297.601	563.69
297.831	577.69
298.062	593.69
298.292	565.69
298.523	587.69
298.753	583.69
298.984	568.69
299.214	574.69
299.445	586.69
299.675	555.69
299.905	589.69
300.136	595.69
300.366	603.69
300.597	584.69
300.827	598.69
301.057	593.69
301.288	628.69
301.518	615.69
301.748	601.69
301.979	608.69
302.209	619.69
302.439	626.69
302.669	617.69
302.9	598.69
303.13	592.69
303.36	603.69
303.59	603.69
303.82	592.69
304.051	605.69
304.281	616.69
304.511	587.69
304.741	611.69
304.971	601.69
305.201	590.69
305.431	596.69
305.661	582.69
305.891	606.69
306.121	610.69
306.352	603.69
306.582	581.69
306.812	597.69
307.042	583.69
307.272	581.69
307.502	571.69
307.731	592.69
307.961	589.69
308.191	601.69
308.421	579.69
308.651	593.69
308.881	641.69
309.111	594.69
309.341	569.69
309.571	581.69
309.8	601.69
310.03	614.69
310.26	585.69
310.49	581.69
310.72	602.69
310.949	603.69
311.179	627.69
311.409	631.69
311.639	609.69
311.868	605.69
312.098	619.69
312.328	627.69
312.557	627.69
312.787	630.69
313.017	611.69
313.246	621.69
313.476	629.69
313.706	659.69
313.935	640.69
314.165	652.69
314.394	657.69
314.624	658.69
314.853	658.69
315.083	617.69
315.312	650.69
315.542	618.69
315.771	630.69
316.001	627.69
316.23	623.69
316.46	649.69
316.689	662.69
316.919	625.69
317.148	633.69
317.377	633.69
317.607	632.69
317.836	626.69
318.065	632.69
318.295	630.69
318.524	648.69
318.753	639.69
318.983	653.69
319.212	619.69
319.441	641.69
319.67	625.69
319.9	602.69
320.129	641.69
320.358	638.69
320.587	620.69
320.816	642.69
321.046	632.69
321.275	630.69
321.504	603.69
321.733	637.69
321.962	629.69
322.191	634.69
322.42	664.69
322.649	643.69
322.878	647.69
323.108	679.69
323.337	655.69
323.566	667.69
323.795	657.69
324.024	655.69
324.253	651.69
324.482	642.69
324.71	673.69
324.939	641.69
325.168	660.69
325.397	659.69
325.626	669.69
325.855	674.69
326.084	663.69
326.313	717.69
326.542	710.69
326.77	725.69
326.999	689.69
327.228	688.69
327.457	690.69
327.686	692.69
327.914	701.69
328.143	715.69
328.372	718.69
328.6	680.69
328.829	705.69
329.058	706.69
329.287	717.69
329.515	721.69
329.744	679.69
329.972	732.69
330.201	694.69
330.43	735.69
330.658	707.69
330.887	734.69
331.115	739.69
331.344	752.69
331.572	749.69
331.801	765.69
332.03	775.69
332.258	768.69
332.486	819.69
332.715	869.69
332.943	895.69
333.172	957.69
333.4	937.69
333.629	963.69
333.857	956.69
334.085	959.69
334.314	921.69
334.542	901.69
334.771	921.69
334.999	898.69
335.227	864.69
335.455	861.69
335.684	854.69
335.912	871.69
336.14	866.69
336.369	849.69
336.597	827.69
336.825	831.69
337.053	852.69
337.281	834.69
337.51	801.69
337.738	819.69
337.966	783.69
338.194	809.69
338.422	761.69
338.65	758.69
338.878	800.69
339.106	765.69
339.334	761.69
339.562	741.69
339.79	742.69
340.018	740.69
340.246	723.69
340.474	723.69
340.702	722.69
340.93	752.69
341.158	773.69
341.386	735.69
341.614	723.69
341.842	732.69
342.07	712.69
342.298	703.69
342.526	725.69
342.754	718.69
342.981	724.69
343.209	728.69
343.437	774.69
343.665	846.69
343.893	885.69
344.12	918.69
344.348	870.69
344.576	813.69
344.804	798.69
345.031	767.69
345.259	778.69
345.487	724.69
345.714	722.69
345.942	701.69
346.17	721.69
346.397	729.69
346.625	709.69
346.853	711.69
347.08	715.69
347.308	709.69
347.535	718.69
347.763	751.69
347.99	729.69
348.218	718.69
348.445	712.69
348.673	701.69
348.9	697.69
349.128	718.69
349.355	691.69
349.583	686.69
349.81	687.69
350.037	701.69
350.265	695.69
350.492	697.69
350.72	695.69
350.947	695.69
351.174	696.69
351.402	692.69
351.629	677.69
351.856	679.69
352.083	689.69
352.311	691.69
352.538	690.69
352.765	677.69
352.992	649.69
353.22	690.69
353.447	693.69
353.674	677.69
353.901	694.69
354.128	689.69
354.355	705.69
354.583	687.69
354.81	668.69
355.037	695.69
355.264	686.69
355.491	688.69
355.718	702.69
355.945	671.69
356.172	674.69
356.399	708.69
356.626	685.69
356.853	692.69
357.08	667.69
357.307	672.69
357.534	689.69
357.761	688.69
357.988	691.69
358.215	672.69
358.441	705.69
358.668	705.69
358.895	684.69
359.122	668.69
359.349	700.69
359.576	704.69
359.802	692.69
360.029	707.69
360.256	679.69
360.483	679.69
360.709	706.69
360.936	684.69
361.163	673.69
361.39	682.69
361.616	669.69
361.843	678.69
362.07	697.69
362.296	685.69
362.523	711.69
362.749	695.69
362.976	678.69
363.203	691.69
363.429	700.69
363.656	674.69
363.882	689.69
364.109	687.69
364.335	685.69
364.562	682.69
364.788	681.69
365.015	674.69
365.241	689.69
365.468	681.69
365.694	653.69
365.92	667.69
366.147	700.69
366.373	682.69
366.599	692.69
366.826	676.69
367.052	663.69
367.278	689.69
367.505	691.69
367.731	682.69
367.957	689.69
368.184	695.69
368.41	704.69
368.636	711.69
368.862	698.69
369.089	693.69
369.315	715.69
369.541	714.69
369.767	727.69
369.993	714.69
370.219	717.69
370.445	715.69
370.672	729.69
370.898	735.69
371.124	723.69
371.35	729.69
371.576	746.69
371.802	731.69
372.028	740.69
372.254	740.69
372.48	743.69
372.706	770.69
372.932	799.69
373.158	774.69
373.384	760.69
373.61	771.69
373.835	743.69
374.061	742.69
374.287	770.69
374.513	787.69
374.739	793.69
374.965	813.69
375.191	816.69
375.416	813.69
375.642	806.69
375.868	785.69
376.094	812.69
376.319	776.69
376.545	757.69
376.771	758.69
376.997	761.69
377.222	762.69
377.448	737.69
377.674	742.69
377.899	723.69
378.125	710.69
378.35	734.69
378.576	717.69
378.802	744.69
379.027	727.69
379.253	731.69
379.478	739.69
379.704	705.69
379.929	717.69
380.155	717.69
380.38	737.69
380.606	758.69
380.831	740.69
381.057	745.69
381.282	747.69
381.507	782.69
381.733	733.69
381.958	767.69
382.184	767.69
382.409	777.69
382.634	785.69
382.86	789.69
383.085	790.69
383.31	810.69
383.535	815.69
383.761	813.69
383.986	832.69
384.211	863.69
384.436	884.69
384.662	867.69
384.887	902.69
385.112	927.69
385.337	918.69
385.562	899.69
385.787	896.69
386.013	910.69
386.238	905.69
386.463	894.69
386.688	906.69
386.913	888.69
387.138	879.69
387.363	861.69
387.588	869.69
387.813	875.69
388.038	872.69
388.263	873.69
388.488	881.69
388.713	851.69
388.938	890.69
389.163	884.69
389.387	888.69
389.612	860.69
389.837	899.69
390.062	850.69
390.287	875.69
390.512	887.69
390.736	874.69
390.961	923.69
391.186	931.69
391.411	950.69
391.636	1018.69
391.86	992.69
392.085	1020.69
392.31	1023.69
392.534	985.69
392.759	958.69
392.984	934.69
393.208	943.69
393.433	926.69
393.658	954.69
393.882	965.69
394.107	949.69
394.331	979.69
394.556	950.69
394.78	933.69
395.005	972.69
395.229	1010.69
395.454	985.69
395.678	1009.69
395.903	993.69
396.127	984.69
396.352	970.69
396.576	919.69
396.801	910.69
397.025	964.69
397.249	964.69
397.474	995.69
397.698	981.69
397.922	987.69
398.147	1009.69
398.371	994.69
398.595	1030.69
398.82	1089.69
399.044	1174.69
399.268	1315.69
399.492	1517.69
399.717	1738.69
399.941	1745.69
400.165	1497.69
400.389	1337.69
400.613	1216.69
400.837	1169.69
401.062	1177.69
401.286	1116.69
401.51	1107.69
401.734	1130.69
401.958	1143.69
402.182	1161.69
402.406	1157.69
402.63	1198.69
402.854	1222.69
403.078	1221.69
403.302	1265.69
403.526	1286.69
403.75	1314.69
403.974	1345.69
404.198	1304.69
404.422	1329.69
404.645	1312.69
404.869	1274.69
405.093	1258.69
405.317	1222.69
405.541	1250.69
405.765	1224.69
405.988	1216.69
406.212	1235.69
406.436	1206.69
406.66	1258.69
406.883	1270.69
407.107	1358.69
407.331	1411.69
407.555	1455.69
407.778	1483.69
408.002	1401.69
408.226	1363.69
408.449	1321.69
408.673	1273.69
408.896	1252.69
409.12	1264.69
409.344	1273.69
409.567	1277.69
409.791	1282.69
410.014	1262.69
410.238	1301.69
410.461	1237.69
410.685	1230.69
410.908	1213.69
411.132	1204.69
411.355	1160.69
411.578	1183.69
411.802	1161.69
412.025	1175.69
412.249	1181.69
412.472	1160.69
412.695	1137.69
412.919	1079.69
413.142	1100.69
413.365	1115.69
413.589	1160.69
413.812	1099.69
414.035	1094.69
414.258	1128.69
414.482	1113.69
414.705	1160.69
414.928	1110.69
415.151	1131.69
415.374	1125.69
415.597	1123.69
415.821	1082.69
416.044	1125.69
416.267	1081.69
416.49	1100.69
416.713	1089.69
416.936	1112.69
417.159	1087.69
417.382	1072.69
417.605	1103.69
417.828	1113.69
418.051	1122.69
418.274	1120.69
418.497	1095.69
418.72	1143.69
418.943	1153.69
419.166	1232.69
419.389	1243.69
419.611	1234.69
419.834	1210.69
420.057	1149.69
420.28	1129.69
420.503	1100.69
420.726	1093.69
420.948	1085.69
421.171	1080.69
421.394	1111.69
421.617	1083.69
421.839	1066.69
422.062	1117.69
422.285	1125.69
422.507	1139.69
422.73	1148.69
422.953	1165.69
423.175	1189.69
423.398	1177.69
423.621	1186.69
423.843	1188.69
424.066	1194.69
424.288	1198.69
424.511	1153.69
424.733	1157.69
424.956	1149.69
425.178	1160.69
425.401	1103.69
425.623	1117.69
425.846	1074.69
426.068	1096.69
426.291	1041.69
426.513	1047.69
426.735	1042.69
426.958	1047.69
427.18	990.69
427.402	999.69
427.625	997.69
427.847	977.69
428.069	973.69
428.292	970.69
428.514	984.69
428.736	961.69
428.958	975.69
429.181	964.69
429.403	985.69
429.625	968.69
429.847	961.69
430.069	952.69
430.292	950.69
430.514	937.69
430.736	935.69
430.958	961.69
431.18	942.69
431.402	969.69
431.624	959.69
431.846	984.69
432.068	990.69
432.29	1008.69
432.512	972.69
432.734	967.69
432.956	936.69
433.178	1011.69
433.4	977.69
433.622	950.69
433.844	999.69
434.066	1021.69
434.287	998.69
434.509	1023.69
434.731	1108.69
434.953	1106.69
435.175	1104.69
435.397	1114.69
435.618	1045.69
435.84	1021.69
436.062	972.69
436.284	988.69
436.505	961.69
436.727	1016.69
436.949	1005.69
437.17	982.69
437.392	968.69
437.614	930.69
437.835	946.69
438.057	962.69
438.278	934.69
438.5	948.69
438.721	922.69
438.943	957.69
439.165	928.69
439.386	947.69
439.608	992.69
439.829	965.69
440.05	971.69
440.272	970.69
440.493	994.69
440.715	1008.69
440.936	1010.69
441.158	1028.69
441.379	1075.69
441.6	1128.69
441.822	1124.69
442.043	1114.69
442.264	1080.69
442.486	1083.69
442.707	1089.69
442.928	1106.69
443.149	1108.69
443.371	1098.69
443.592	1107.69
443.813	1107.69
444.034	1114.69
444.255	1189.69
444.476	1182.69
444.698	1331.69
444.919	1338.69
445.14	1414.69
445.361	1256.69
445.582	1154.69
445.803	1101.69
446.024	1066.69
446.245	1008.69
446.466	976.69
446.687	968.69
446.908	989.69
447.129	977.69
447.35	936.69
447.571	951.69
447.792	899.69
448.013	936.69
448.234	914.69
448.455	897.69
448.675	901.69
448.896	897.69
449.117	867.69
449.338	861.69
449.559	883.69
449.779	890.69
450	886.69
450.221	893.69
450.442	920.69
450.662	922.69
450.883	923.69
451.104	934.69
451.324	920.69
451.545	903.69
451.766	903.69
451.986	907.69
452.207	884.69
452.428	893.69
452.648	938.69
452.869	877.69
453.089	885.69
453.31	891.69
453.53	878.69
453.751	881.69
453.971	867.69
454.192	854.69
454.412	861.69
454.633	848.69
454.853	853.69
455.073	848.69
455.294	866.69
455.514	826.69
455.734	858.69
455.955	823.69
456.175	840.69
456.395	830.69
456.616	834.69
456.836	863.69
457.056	867.69
457.276	833.69
457.497	808.69
457.717	831.69
457.937	847.69
458.157	849.69
458.377	822.69
458.598	850.69
458.818	891.69
459.038	927.69
459.258	947.69
459.478	971.69
459.698	1010.69
459.918	1048.69
460.138	1076.69
460.358	1133.69
460.578	1183.69
460.798	1177.69
461.018	1197.69
461.238	1159.69
461.458	1167.69
461.678	1136.69
461.898	1189.69
462.118	1177.69
462.338	1226.69
462.558	1268.69
462.777	1335.69
462.997	1427.69
463.217	1616.69
463.437	1566.69
463.657	1424.69
463.876	1371.69
464.096	1351.69
464.316	1363.69
464.536	1365.69
464.755	1344.69
464.975	1248.69
465.195	1194.69
465.414	1142.69
465.634	1055.69
465.854	1030.69
466.073	1018.69
466.293	1004.69
466.512	965.69
466.732	973.69
466.951	956.69
467.171	935.69
467.391	945.69
467.61	946.69
467.829	946.69
468.049	915.69
468.268	891.69
468.488	901.69
468.707	882.69
468.927	870.69
469.146	883.69
469.365	911.69
469.585	901.69
469.804	981.69
470.023	993.69
470.243	942.69
470.462	981.69
470.681	998.69
470.901	961.69
471.12	988.69
471.339	946.69
471.558	929.69
471.777	913.69
471.997	890.69
472.216	891.69
472.435	863.69
472.654	886.69
472.873	857.69
473.092	888.69
473.311	868.69
473.53	865.69
473.749	864.69
473.968	886.69
474.187	855.69
474.406	885.69
474.625	880.69
474.844	858.69
475.063	859.69
475.282	852.69
475.501	904.69
475.72	920.69
475.939	896.69
476.158	901.69
476.377	912.69
476.596	889.69
476.814	939.69
477.033	881.69
477.252	911.69
477.471	933.69
477.69	981.69
477.908	1017.69
478.127	1041.69
478.346	1052.69
478.564	1078.69
478.783	1071.69
479.002	1115.69
479.22	1110.69
479.439	1107.69
479.658	1084.69
479.876	1073.69
480.095	1091.69
480.313	1188.69
480.532	1171.69
480.751	1201.69
480.969	1102.69
481.188	1073.69
481.406	1047.69
481.624	1036.69
481.843	1024.69
482.061	951.69
482.28	989.69
482.498	1001.69
482.717	963.69
482.935	984.69
483.153	1009.69
483.372	975.69
483.59	998.69
483.808	1010.69
484.027	971.69
484.245	1025.69
484.463	1013.69
484.681	1007.69
484.9	1029.69
485.118	1038.69
485.336	1054.69
485.554	1046.69
485.772	1064.69
485.99	1064.69
486.209	1025.69
486.427	1048.69
486.645	1051.69
486.863	1051.69
487.081	1046.69
487.299	1035.69
487.517	1043.69
487.735	1043.69
487.953	1052.69
488.171	1053.69
488.389	1056.69
488.607	1002.69
488.825	1008.69
489.043	989.69
489.261	1017.69
489.479	1033.69
489.696	1043.69
489.914	1029.69
490.132	1031.69
490.35	1041.69
490.568	1047.69
490.786	1010.69
491.003	1071.69
491.221	1037.69
491.439	1067.69
491.657	1034.69
491.874	1039.69
492.092	1036.69
492.31	1053.69
492.527	1061.69
492.745	1043.69
492.963	1107.69
493.18	1103.69
493.398	1075.69
493.615	1115.69
493.833	1112.69
494.05	1105.69
494.268	1101.69
494.485	1103.69
494.703	1100.69
494.92	1102.69
495.138	1101.69
495.355	1097.69
495.573	1139.69
495.79	1136.69
496.008	1156.69
496.225	1139.69
496.442	1137.69
496.66	1134.69
496.877	1165.69
497.094	1175.69
497.312	1232.69
497.529	1219.69
497.746	1238.69
497.963	1290.69
498.181	1373.69
498.398	1424.69
498.615	1500.69
498.832	1589.69
499.049	1690.69
499.267	1866.69
499.484	2059.69
499.701	2251.69
499.918	2507.69
500.135	2875.69
500.352	3406.69
500.569	3555.69
500.786	3456.69
501.003	3189.69
501.22	2781.69
501.437	2420.69
501.654	2142.69
501.871	1929.69
502.088	1762.69
502.305	1673.69
502.522	1584.69
502.739	1558.69
502.956	1447.69
503.172	1407.69
503.389	1330.69
503.606	1253.69
503.823	1240.69
504.04	1245.69
504.256	1278.69
504.473	1295.69
504.69	1344.69
504.907	1314.69
505.123	1201.69
505.34	1165.69
505.557	1097.69
505.773	1079.69
505.99	1047.69
506.207	1032.69
506.423	1008.69
506.64	1014.69
506.856	992.69
507.073	979.69
507.289	968.69
507.506	999.69
507.722	977.69
507.939	970.69
508.155	943.69
508.372	934.69
508.588	903.69
508.805	925.69
509.021	941.69
509.238	909.69
509.454	903.69
509.67	891.69
509.887	901.69
510.103	892.69
510.319	879.69
510.536	886.69
510.752	870.69
510.968	897.69
511.184	881.69
511.401	884.69
511.617	887.69
511.833	887.69
512.049	867.69
512.265	897.69
512.481	898.69
512.698	862.69
512.914	886.69
513.13	886.69
513.346	873.69
513.562	881.69
513.778	901.69
513.994	902.69
514.21	889.69
514.426	887.69
514.642	888.69
514.858	908.69
515.074	895.69
515.29	925.69
515.506	917.69
515.721	924.69
515.937	927.69
516.153	990.69
516.369	979.69
516.585	1040.69
516.801	1055.69
517.016	1120.69
517.232	1178.69
517.448	1222.69
517.664	1305.69
517.879	1266.69
518.095	1243.69
518.311	1249.69
518.527	1192.69
518.742	1122.69
518.958	1055.69
519.173	1025.69
519.389	1029.69
519.605	971.69
519.82	950.69
520.036	942.69
520.251	915.69
520.467	918.69
520.682	877.69
520.898	900.69
521.113	862.69
521.329	902.69
521.544	866.69
521.76	845.69
521.975	848.69
522.19	851.69
522.406	848.69
522.621	823.69
522.836	833.69
523.052	846.69
523.267	831.69
523.482	817.69
523.698	803.69
523.913	811.69
524.128	804.69
524.343	842.69
524.559	813.69
524.774	817.69
524.989	793.69
525.204	801.69
525.419	793.69
525.634	814.69
525.849	836.69
526.064	805.69
526.28	785.69
526.495	797.69
526.71	777.69
526.925	799.69
527.14	787.69
527.355	787.69
527.57	787.69
527.785	775.69
527.999	802.69
528.214	817.69
528.429	801.69
528.644	797.69
528.859	815.69
529.074	807.69
529.289	817.69
529.503	787.69
529.718	806.69
529.933	789.69
530.148	795.69
530.363	788.69
530.577	791.69
530.792	794.69
531.007	776.69
531.221	787.69
531.436	806.69
531.651	817.69
531.865	781.69
532.08	798.69
532.295	799.69
532.509	809.69
532.724	782.69
532.938	802.69
533.153	784.69
533.367	827.69
533.582	797.69
533.796	805.69
534.011	791.69
534.225	790.69
534.44	767.69
534.654	785.69
534.868	785.69
535.083	764.69
535.297	791.69
535.511	768.69
535.726	775.69
535.94	765.69
536.154	761.69
536.369	735.69
536.583	741.69
536.797	730.69
537.011	746.69
537.225	756.69
537.44	727.69
537.654	741.69
537.868	732.69
538.082	731.69
538.296	726.69
538.51	733.69
538.724	726.69
538.938	715.69
539.153	731.69
539.367	744.69
539.581	709.69
539.795	723.69
540.009	716.69
540.222	706.69
540.436	708.69
540.65	709.69
540.864	733.69
541.078	711.69
541.292	723.69
541.506	740.69
541.72	729.69
541.934	713.69
542.147	703.69
542.361	695.69
542.575	707.69
542.789	706.69
543.002	703.69
543.216	688.69
543.43	714.69
543.644	711.69
543.857	710.69
544.071	707.69
544.285	701.69
544.498	708.69
544.712	728.69
544.925	723.69
545.139	719.69
545.352	730.69
545.566	731.69
545.779	727.69
545.993	743.69
546.206	724.69
546.42	727.69
546.633	730.69
546.847	747.69
547.06	697.69
547.274	756.69
547.487	729.69
547.7	715.69
547.914	724.69
548.127	732.69
548.34	742.69
548.554	733.69
548.767	734.69
548.98	742.69
549.193	757.69
549.407	723.69
549.62	751.69
549.833	802.69
550.046	753.69
550.259	747.69
550.473	707.69
550.686	698.69
550.899	697.69
551.112	695.69
551.325	696.69
551.538	695.69
551.751	682.69
551.964	730.69
552.177	715.69
552.39	737.69
552.603	768.69
552.816	781.69
553.029	797.69
553.242	785.69
553.455	805.69
553.667	839.69
553.88	785.69
554.093	811.69
554.306	741.69
554.519	765.69
554.732	719.69
554.944	728.69
555.157	708.69
555.37	691.69
555.583	678.69
555.795	674.69
556.008	654.69
556.221	652.69
556.433	639.69
556.646	634.69
556.859	661.69
557.071	667.69
557.284	635.69
557.496	628.69
557.709	614.69
557.921	611.69
558.134	617.69
558.346	626.69
558.559	623.69
558.771	623.69
558.984	607.69
559.196	603.69
559.409	623.69
559.621	616.69
559.833	609.69
560.046	578.69
560.258	593.69
560.47	607.69
560.683	594.69
560.895	582.69
561.107	585.69
561.32	611.69
561.532	595.69
561.744	608.69
561.956	587.69
562.168	577.69
562.381	592.69
562.593	592.69
562.805	592.69
563.017	619.69
563.229	618.69
563.441	590.69
563.653	607.69
563.865	611.69
564.077	598.69
564.289	629.69
564.501	635.69
564.713	636.69
564.925	646.69
565.137	680.69
565.349	685.69
565.561	695.69
565.773	721.69
565.985	745.69
566.197	777.69
566.408	846.69
566.62	927.69
566.832	969.69
567.044	1031.69
567.255	1003.69
567.467	1031.69
567.679	1082.69
567.891	1171.69
568.102	1231.69
568.314	1156.69
568.526	1034.69
568.737	895.69
568.949	848.69
569.161	772.69
569.372	725.69
569.584	666.69
569.795	660.69
570.007	639.69
570.218	627.69
570.43	610.69
570.641	627.69
570.853	613.69
571.064	621.69
571.276	642.69
571.487	623.69
571.698	600.69
571.91	570.69
572.121	537.69
572.333	536.69
572.544	533.69
572.755	519.69
572.966	507.69
573.178	512.69
573.389	521.69
573.6	506.69
573.811	503.69
574.023	490.69
574.234	488.69
574.445	504.69
574.656	481.69
574.867	521.69
575.078	517.69
575.289	475.69
575.501	491.69
575.712	476.69
575.923	463.69
576.134	477.69
576.345	484.69
576.556	471.69
576.767	468.69
576.978	462.69
577.188	484.69
577.399	460.69
577.61	443.69
577.821	450.69
578.032	448.69
578.243	442.69
578.454	460.69
578.665	465.69
578.875	457.69
579.086	441.69
579.297	432.69
579.508	434.69
579.718	405.69
579.929	427.69
580.14	428.69
580.35	431.69
580.561	429.69
580.772	409.69
580.982	423.69
581.193	427.69
581.403	403.69
581.614	422.69
581.825	418.69
582.035	428.69
582.246	429.69
582.456	411.69
582.667	422.69
582.877	400.69
583.087	389.69
583.298	390.69
583.508	418.69
583.719	398.69
583.929	422.69
584.139	416.69
584.35	393.69
584.56	415.69
584.77	388.69
584.981	414.69
585.191	410.69
585.401	393.69
585.611	396.69
585.821	383.69
586.032	401.69
586.242	416.69
586.452	389.69
586.662	403.69
586.872	392.69
587.082	408.69
587.292	381.69
587.502	400.69
587.713	381.69
587.923	389.69
588.133	389.69
588.343	387.69
588.553	403.69
588.762	381.69
588.972	408.69
589.182	395.69
589.392	385.69
589.602	394.69
589.812	387.69
590.022	409.69
590.232	398.69
590.441	427.69
590.651	406.69
590.861	404.69
591.071	410.69
591.281	420.69
591.49	410.69
591.7	410.69
591.91	413.69
592.119	422.69
592.329	443.69
592.539	446.69
592.748	456.69
592.958	497.69
593.167	482.69
593.377	490.69
593.587	502.69
593.796	506.69
594.006	522.69
594.215	536.69
594.424	515.69
594.634	510.69
594.843	495.69
595.053	475.69
595.262	446.69
595.472	442.69
595.681	402.69
595.89	416.69
596.1	403.69
596.309	390.69
596.518	377.69
596.727	383.69
596.937	373.69
597.146	372.69
597.355	379.69
597.564	363.69
597.774	362.69
597.983	353.69
598.192	358.69
598.401	347.69
598.61	347.69
598.819	347.69
599.028	336.69
599.237	331.69
599.446	337.69
599.655	339.69
599.864	334.69
600.073	334.69
600.282	325.69
600.491	333.69
600.7	349.69
600.909	337.69
601.118	329.69
601.327	333.69
601.536	354.69
601.745	343.69
601.953	332.69
602.162	318.69
602.371	327.69
602.58	318.69
602.789	326.69
602.997	324.69
603.206	325.69
603.415	341.69
603.623	322.69
603.832	327.69
604.041	312.69
604.249	312.69
604.458	329.69
604.666	302.69
604.875	297.69
605.084	319.69
605.292	317.69
605.501	302.69
605.709	311.69
605.918	311.69
606.126	323.69
606.334	309.69
606.543	308.69
606.751	308.69
606.96	320.69
607.168	310.69
607.376	319.69
607.585	313.69
607.793	293.69
608.001	296.69
608.21	307.69
608.418	317.69
608.626	300.69
608.834	312.69
609.043	299.69
609.251	320.69
609.459	306.69
609.667	286.69
609.875	293.69
610.083	303.69
610.291	291.69
610.499	311.69
610.707	273.69
610.916	284.69
611.124	305.69
611.332	292.69
611.54	303.69
611.748	298.69
611.955	291.69
612.163	288.69
612.371	290.69
612.579	291.69
612.787	306.69
612.995	306.69
613.203	307.69
613.411	284.69
613.618	298.69
613.826	285.69
614.034	298.69
614.242	312.69
614.449	279.69
614.657	288.69
614.865	284.69
615.072	288.69
615.28	277.69
615.488	291.69
615.695	288.69
615.903	279.69
616.111	285.69
616.318	302.69
616.526	301.69
616.733	305.69
616.941	294.69
617.148	290.69
617.356	273.69
617.563	289.69
617.771	302.69
617.978	301.69
618.185	296.69
618.393	288.69
618.6	296.69
618.807	306.69
619.015	306.69
619.222	288.69
619.429	265.69
619.637	296.69
619.844	267.69
620.051	284.69
620.258	275.69
620.466	266.69
620.673	267.69
620.88	272.69
621.087	267.69
621.294	273.69
621.501	263.69
621.708	275.69
621.915	271.69
622.122	270.69
622.329	251.69
622.536	263.69
622.743	265.69
622.95	277.69
623.157	260.69
623.364	265.69
623.571	247.69
623.778	264.69
623.985	256.69
624.192	262.69
624.399	243.69
624.606	261.69
624.812	242.69
625.019	245.69
625.226	252.69
625.433	255.69
625.639	240.69
625.846	244.69
626.053	241.69
626.259	234.69
626.466	249.69
626.673	231.69
626.879	231.69
627.086	237.69
627.293	246.69
627.499	239.69
627.706	253.69
627.912	231.69
628.119	237.69
628.325	245.69
628.532	232.69
628.738	228.69
628.945	231.69
629.151	224.69
629.357	230.69
629.564	222.69
629.77	225.69
629.976	240.69
630.183	214.69
630.389	223.69
630.595	218.69
630.802	214.69
631.008	221.69
631.214	213.69
631.42	244.69
631.627	227.69
631.833	217.69
632.039	221.69
632.245	211.69
632.451	226.69
632.657	201.69
632.863	197.69
633.069	216.69
633.275	202.69
633.481	219.69
633.688	226.69
633.893	211.69
634.099	229.69
634.305	213.69
634.511	202.69
634.717	203.69
634.923	209.69
635.129	213.69
635.335	213.69
635.541	213.69
635.747	193.69
635.952	195.69
636.158	202.69
636.364	203.69
636.57	202.69
636.775	224.69
636.981	222.69
637.187	219.69
637.392	203.69
637.598	215.69
637.804	203.69
638.009	203.69
638.215	209.69
638.421	202.69
638.626	197.69
638.832	207.69
639.037	210.69
639.243	193.69
639.448	202.69
639.654	193.69
639.859	204.69
640.065	205.69
640.27	201.69
640.475	191.69
640.681	202.69
640.886	199.69
641.091	182.69
641.297	187.69
641.502	174.69
641.707	194.69
641.913	190.69
642.118	198.69
642.323	185.69
642.528	189.69
642.733	197.69
642.939	185.69
643.144	198.69
643.349	197.69
643.554	197.69
643.759	166.69
643.964	188.69
644.169	183.69
644.374	183.69
644.579	157.69
644.784	197.69
644.989	195.69
645.194	183.69
645.399	191.69
645.604	189.69
645.809	187.69
646.014	171.69
646.219	187.69
646.423	183.69
646.628	186.69
646.833	206.69
647.038	203.69
647.243	219.69
647.447	193.69
647.652	195.69
647.857	198.69
648.062	202.69
648.266	199.69
648.471	208.69
648.676	197.69
648.88	199.69
649.085	215.69
649.289	198.69
649.494	192.69
649.698	198.69
649.903	198.69
650.107	186.69
650.312	178.69
650.516	175.69
650.721	184.69
650.925	187.69
651.13	167.69
651.334	179.69
651.539	182.69
651.743	174.69
651.947	163.69
652.152	162.69
652.356	169.69
652.56	165.69
652.764	148.69
652.969	151.69
653.173	171.69
653.377	150.69
653.581	153.69
653.785	145.69
653.99	163.69
654.194	137.69
654.398	140.69
654.602	142.69
654.806	151.69
655.01	143.69
655.214	140.69
655.418	145.69
655.622	129.69
655.826	141.69
656.03	129.69
656.234	146.69
656.438	156.69
656.642	153.69
656.846	134.69
657.049	141.69
657.253	148.69
657.457	114.69
657.661	125.69
657.865	117.69
658.068	101.69
658.272	117.69
658.476	104.69
658.68	112.69
658.883	106.69
659.087	113.69
659.291	111.69
659.494	100.69
659.698	92.69
659.901	90.69
660.105	101.69
660.309	87.69
660.512	93.69
660.716	97.69
660.919	93.69
661.123	96.69
661.326	86.69
661.53	84.69
661.733	84.69
661.936	96.69
662.14	83.69
662.343	81.69
662.546	94.69
662.75	85.69
662.953	84.69
663.156	81.69
663.36	92.69
663.563	101.69
663.766	85.69
663.969	76.69
664.173	81.69
664.376	83.69
664.579	80.69
664.782	79.69
664.985	69.69
665.188	85.69
665.391	78.69
665.594	81.69
665.797	79.69
666	78.69
666.203	70.69
666.406	69.69
666.609	70.69
666.812	78.69
667.015	87.69
667.218	95.69
667.421	71.69
667.624	74.69
667.827	88.69
668.03	91.69
668.232	80.69
668.435	88.69
668.638	86.69
668.841	76.69
669.043	77.69
669.246	92.69
669.449	82.69
669.651	79.69
669.854	92.69
670.057	81.69
670.259	65.69
670.462	86.69
670.665	85.69
670.867	68.69
671.07	85.69
671.272	83.69
671.475	90.69
671.677	83.69
671.88	73.69
672.082	83.69
672.284	83.69
672.487	72.69
672.689	86.69
672.892	81.69
