Data from NickelSpatula.Lamp.E10.P2_HRD10591_11-57-04-533.txt Node
Date: Tue Jul 23 11:57:04 EDT 2019
User: cochatt
Spectrometer: HR+D1059
Trigger mode: 1
Integration Time (sec): 1.000000E-1
Scans to average: 1
Electric dark correction enabled: true
Nonlinearity correction enabled: false
Boxcar width: 0
XAxis mode: Wavelengths
Number of Pixels in Spectrum: 2048
>>>>>Begin Spectral Data<<<<<
223.165	-3.19
223.4	-3.19
223.635	-3.19
223.869	-18.19
224.104	-13.19
224.338	-22.19
224.573	-14.19
224.808	-23.19
225.042	-3.19
225.277	-6.19
225.511	3.81
225.746	6.81
225.98	-8.19
226.215	8.81
226.449	14.81
226.683	22.81
226.918	24.81
227.152	29.81
227.387	45.81
227.621	27.81
227.856	65.81
228.09	51.81
228.324	60.81
228.559	65.81
228.793	77.81
229.027	146.81
229.262	147.81
229.496	164.81
229.73	168.81
229.964	188.81
230.199	205.81
230.433	213.81
230.667	224.81
230.901	198.81
231.136	206.81
231.37	209.81
231.604	218.81
231.838	234.81
232.072	243.81
232.306	247.81
232.541	253.81
232.775	233.81
233.009	254.81
233.243	274.81
233.477	301.81
233.711	336.81
233.945	340.81
234.179	322.81
234.413	347.81
234.647	377.81
234.881	464.81
235.115	404.81
235.349	387.81
235.583	356.81
235.817	346.81
236.051	375.81
236.285	425.81
236.519	465.81
236.753	422.81
236.987	424.81
237.221	406.81
237.455	400.81
237.689	417.81
237.922	464.81
238.156	460.81
238.39	540.81
238.624	645.81
238.858	596.81
239.091	484.81
239.325	498.81
239.559	491.81
239.793	532.81
240.027	645.81
240.26	587.81
240.494	565.81
240.728	561.81
240.961	677.81
241.195	667.81
241.429	611.81
241.662	592.81
241.896	509.81
242.13	464.81
242.363	429.81
242.597	452.81
242.83	546.81
243.064	512.81
243.298	560.81
243.531	617.81
243.765	619.81
243.998	614.81
244.232	606.81
244.465	601.81
244.699	583.81
244.932	653.81
245.166	614.81
245.399	532.81
245.633	530.81
245.866	569.81
246.099	606.81
246.333	682.81
246.566	743.81
246.8	722.81
247.033	737.81
247.266	709.81
247.5	669.81
247.733	627.81
247.966	646.81
248.2	646.81
248.433	724.81
248.666	792.81
248.899	820.81
249.133	821.81
249.366	957.81
249.599	1036.81
249.832	917.81
250.066	806.81
250.299	820.81
250.532	786.81
250.765	769.81
250.998	716.81
251.231	695.81
251.465	760.81
251.698	820.81
251.931	778.81
252.164	822.81
252.397	908.81
252.63	984.81
252.863	1117.81
253.096	1171.81
253.329	1114.81
253.562	1084.81
253.795	1170.81
254.028	1300.81
254.261	1365.81
254.494	1211.81
254.727	1106.81
254.96	1094.81
255.193	1136.81
255.426	1084.81
255.659	829.81
255.892	790.81
256.124	864.81
256.357	1014.81
256.59	1174.81
256.823	1128.81
257.056	959.81
257.289	887.81
257.521	941.81
257.754	1110.81
257.987	1245.81
258.22	1115.81
258.452	1022.81
258.685	1133.81
258.918	1240.81
259.151	1214.81
259.383	1323.81
259.616	1487.81
259.849	1563.81
260.081	1651.81
260.314	1851.81
260.547	1471.81
260.779	1468.81
261.012	1702.81
261.244	1555.81
261.477	1577.81
261.71	1535.81
261.942	1272.81
262.175	1249.81
262.407	1191.81
262.64	1238.81
262.872	1434.81
263.105	1604.81
263.337	1684.81
263.57	1514.81
263.802	1020.81
264.035	904.81
264.267	860.81
264.499	754.81
264.732	696.81
264.964	704.81
265.197	694.81
265.429	758.81
265.661	835.81
265.894	848.81
266.126	906.81
266.358	1023.81
266.591	1172.81
266.823	1434.81
267.055	1387.81
267.287	1210.81
267.52	1299.81
267.752	1338.81
267.984	1428.81
268.216	1365.81
268.448	1102.81
268.681	1111.81
268.913	1201.81
269.145	1236.81
269.377	1288.81
269.609	1267.81
269.841	1204.81
270.073	1319.81
270.306	1370.81
270.538	1387.81
270.77	1381.81
271.002	1413.81
271.234	1424.81
271.466	1492.81
271.698	1415.81
271.93	1344.81
272.162	1372.81
272.394	1398.81
272.626	1402.81
272.858	1409.81
273.09	1388.81
273.322	1262.81
273.553	1195.81
273.785	1459.81
274.017	1869.81
274.249	2349.81
274.481	2426.81
274.713	2636.81
274.945	3098.81
275.176	3184.81
275.408	2745.81
275.64	2538.81
275.872	2558.81
276.104	2198.81
276.335	1860.81
276.567	1820.81
276.799	1897.81
277.031	1997.81
277.262	1571.81
277.494	1204.81
277.726	1165.81
277.957	1288.81
278.189	1483.81
278.421	1444.81
278.652	1394.81
278.884	1363.81
279.115	1236.81
279.347	1166.81
279.579	1163.81
279.81	1180.81
280.042	1185.81
280.273	1210.81
280.505	1125.81
280.736	973.81
280.968	981.81
281.199	1117.81
281.431	1218.81
281.662	1210.81
281.894	1193.81
282.125	1240.81
282.356	1312.81
282.588	1381.81
282.819	1203.81
283.051	1350.81
283.282	1717.81
283.513	1926.81
283.745	2113.81
283.976	2100.81
284.207	1972.81
284.439	2065.81
284.67	1931.81
284.901	1714.81
285.132	1900.81
285.364	1991.81
285.595	1804.81
285.826	1958.81
286.057	1996.81
286.288	1924.81
286.52	1953.81
286.751	2063.81
286.982	2025.81
287.213	1783.81
287.444	1716.81
287.675	1819.81
287.906	1750.81
288.138	1536.81
288.369	1361.81
288.6	1261.81
288.831	1338.81
289.062	1570.81
289.293	1692.81
289.524	1607.81
289.755	1575.81
289.986	1611.81
290.217	1424.81
290.448	1132.81
290.679	947.81
290.91	906.81
291.141	883.81
291.371	977.81
291.602	967.81
291.833	978.81
292.064	1004.81
292.295	1206.81
292.526	1386.81
292.757	1421.81
292.987	1508.81
293.218	1548.81
293.449	1580.81
293.68	1675.81
293.91	1587.81
294.141	1623.81
294.372	1548.81
294.603	1385.81
294.833	1535.81
295.064	1814.81
295.295	1709.81
295.525	1288.81
295.756	1088.81
295.987	976.81
296.217	992.81
296.448	1034.81
296.679	1070.81
296.909	1147.81
297.14	1242.81
297.37	1371.81
297.601	1283.81
297.831	1117.81
298.062	1222.81
298.292	1370.81
298.523	1477.81
298.753	1693.81
298.984	1522.81
299.214	1212.81
299.445	1032.81
299.675	992.81
299.905	996.81
300.136	985.81
300.366	1108.81
300.597	1076.81
300.827	956.81
301.057	925.81
301.288	940.81
301.518	1006.81
301.748	1154.81
301.979	1239.81
302.209	1289.81
302.439	1324.81
302.669	1154.81
302.9	1152.81
303.13	1089.81
303.36	1058.81
303.59	1029.81
303.82	1097.81
304.051	1184.81
304.281	1276.81
304.511	1255.81
304.741	1112.81
304.971	1156.81
305.201	1260.81
305.431	1137.81
305.661	1030.81
305.891	1005.81
306.121	1034.81
306.352	925.81
306.582	840.81
306.812	820.81
307.042	813.81
307.272	782.81
307.502	781.81
307.731	832.81
307.961	878.81
308.191	835.81
308.421	804.81
308.651	795.81
308.881	750.81
309.111	742.81
309.341	786.81
309.571	849.81
309.8	877.81
310.03	886.81
310.26	930.81
310.49	910.81
310.72	825.81
310.949	838.81
311.179	855.81
311.409	890.81
311.639	1044.81
311.868	1328.81
312.098	1754.81
312.328	1858.81
312.557	1837.81
312.787	1840.81
313.017	1614.81
313.246	1773.81
313.476	1916.81
313.706	1560.81
313.935	1237.81
314.165	1014.81
314.394	933.81
314.624	944.81
314.853	994.81
315.083	1044.81
315.312	1017.81
315.542	992.81
315.771	923.81
316.001	821.81
316.23	800.81
316.46	828.81
316.689	821.81
316.919	838.81
317.148	885.81
317.377	823.81
317.607	874.81
317.836	928.81
318.065	1056.81
318.295	1177.81
318.524	1133.81
318.753	944.81
318.983	900.81
319.212	914.81
319.441	970.81
319.67	1061.81
319.9	1127.81
320.129	1080.81
320.358	930.81
320.587	926.81
320.816	980.81
321.046	1133.81
321.275	1224.81
321.504	1212.81
321.733	1164.81
321.962	1165.81
322.191	1072.81
322.42	1000.81
322.649	1026.81
322.878	1107.81
323.108	1113.81
323.337	1045.81
323.566	1017.81
323.795	995.81
324.024	962.81
324.253	930.81
324.482	917.81
324.71	986.81
324.939	1146.81
325.168	1048.81
325.397	893.81
325.626	892.81
325.855	898.81
326.084	893.81
326.313	845.81
326.542	785.81
326.77	868.81
326.999	861.81
327.228	911.81
327.457	950.81
327.686	958.81
327.914	883.81
328.143	802.81
328.372	800.81
328.6	792.81
328.829	840.81
329.058	861.81
329.287	851.81
329.515	863.81
329.744	881.81
329.972	826.81
330.201	777.81
330.43	825.81
330.658	885.81
330.887	990.81
331.115	995.81
331.344	993.81
331.572	955.81
331.801	858.81
332.03	815.81
332.258	865.81
332.486	962.81
332.715	946.81
332.943	884.81
333.172	871.81
333.4	925.81
333.629	999.81
333.857	1127.81
334.085	1093.81
334.314	1100.81
334.542	1011.81
334.771	965.81
334.999	941.81
335.227	919.81
335.455	915.81
335.684	984.81
335.912	1148.81
336.14	1318.81
336.369	1245.81
336.597	1185.81
336.825	1304.81
337.053	1473.81
337.281	1162.81
337.51	950.81
337.738	928.81
337.966	1047.81
338.194	1139.81
338.422	1047.81
338.65	915.81
338.878	860.81
339.106	890.81
339.334	986.81
339.562	1024.81
339.79	982.81
340.018	960.81
340.246	1027.81
340.474	1140.81
340.702	1189.81
340.93	1219.81
341.158	1241.81
341.386	1084.81
341.614	1022.81
341.842	1042.81
342.07	1080.81
342.298	1285.81
342.526	1332.81
342.754	1115.81
342.981	1062.81
343.209	999.81
343.437	1078.81
343.665	1110.81
343.893	1078.81
344.12	1280.81
344.348	1488.81
344.576	1336.81
344.804	1127.81
345.031	1000.81
345.259	945.81
345.487	948.81
345.714	964.81
345.942	1043.81
346.17	1158.81
346.397	1092.81
346.625	961.81
346.853	948.81
347.08	896.81
347.308	959.81
347.535	1069.81
347.763	1092.81
347.99	939.81
348.218	867.81
348.445	951.81
348.673	932.81
348.9	924.81
349.128	1018.81
349.355	998.81
349.583	995.81
349.81	951.81
350.037	908.81
350.265	839.81
350.492	780.81
350.72	784.81
350.947	808.81
351.174	856.81
351.402	892.81
351.629	910.81
351.856	890.81
352.083	874.81
352.311	894.81
352.538	992.81
352.765	1038.81
352.992	971.81
353.22	897.81
353.447	925.81
353.674	884.81
353.901	889.81
354.128	888.81
354.355	922.81
354.583	930.81
354.81	916.81
355.037	980.81
355.264	939.81
355.491	985.81
355.718	1065.81
355.945	1034.81
356.172	1033.81
356.399	1042.81
356.626	1207.81
356.853	1480.81
357.08	1528.81
357.307	1572.81
357.534	1241.81
357.761	1268.81
357.988	1572.81
358.215	1832.81
358.441	1705.81
358.668	1448.81
358.895	1360.81
359.122	1119.81
359.349	1103.81
359.576	1216.81
359.802	996.81
360.029	898.81
360.256	956.81
360.483	1187.81
360.709	1428.81
360.936	1483.81
361.163	1306.81
361.39	1034.81
361.616	985.81
361.843	1139.81
362.07	1352.81
362.296	1236.81
362.523	965.81
362.749	902.81
362.976	917.81
363.203	1127.81
363.429	1212.81
363.656	1005.81
363.882	903.81
364.109	918.81
364.335	928.81
364.562	925.81
364.788	1030.81
365.015	1172.81
365.241	1076.81
365.468	926.81
365.694	791.81
365.92	777.81
366.147	773.81
366.373	753.81
366.599	765.81
366.826	779.81
367.052	782.81
367.278	804.81
367.505	792.81
367.731	851.81
367.957	960.81
368.184	970.81
368.41	959.81
368.636	958.81
368.862	992.81
369.089	921.81
369.315	838.81
369.541	836.81
369.767	837.81
369.993	794.81
370.219	820.81
370.445	844.81
370.672	941.81
370.898	1020.81
371.124	997.81
371.35	876.81
371.576	847.81
371.802	921.81
372.028	1085.81
372.254	1195.81
372.48	1043.81
372.706	946.81
372.932	992.81
373.158	1052.81
373.384	1234.81
373.61	1601.81
373.835	1632.81
374.061	1246.81
374.287	1074.81
374.513	1242.81
374.739	1436.81
374.965	1522.81
375.191	1514.81
375.416	1050.81
375.642	937.81
375.868	1095.81
376.094	1201.81
376.319	1079.81
376.545	1162.81
376.771	1229.81
376.997	1063.81
377.222	838.81
377.448	733.81
377.674	734.81
377.899	724.81
378.125	735.81
378.35	723.81
378.576	758.81
378.802	805.81
379.027	852.81
379.253	829.81
379.478	856.81
379.704	959.81
379.929	970.81
380.155	1004.81
380.38	909.81
380.606	937.81
380.831	1055.81
381.057	969.81
381.282	913.81
381.507	1064.81
381.733	1297.81
381.958	1384.81
382.184	1469.81
382.409	1504.81
382.634	1475.81
382.86	1536.81
383.085	1293.81
383.31	1042.81
383.535	1070.81
383.761	1117.81
383.986	1080.81
384.211	1250.81
384.436	1266.81
384.662	981.81
384.887	933.81
385.112	969.81
385.337	988.81
385.562	911.81
385.787	996.81
386.013	1121.81
386.238	1121.81
386.463	968.81
386.688	933.81
386.913	916.81
387.138	869.81
387.363	908.81
387.588	931.81
387.813	944.81
388.038	1045.81
388.263	944.81
388.488	896.81
388.713	1052.81
388.938	1106.81
389.163	946.81
389.387	872.81
389.612	869.81
389.837	885.81
390.062	913.81
390.287	929.81
390.512	967.81
390.736	918.81
390.961	871.81
391.186	803.81
391.411	826.81
391.636	831.81
391.86	919.81
392.085	932.81
392.31	968.81
392.534	916.81
392.759	897.81
392.984	934.81
393.208	887.81
393.433	836.81
393.658	806.81
393.882	767.81
394.107	765.81
394.331	797.81
394.556	775.81
394.78	799.81
395.005	824.81
395.229	811.81
395.454	841.81
395.678	882.81
395.903	882.81
396.127	862.81
396.352	847.81
396.576	924.81
396.801	950.81
397.025	1038.81
397.249	1040.81
397.474	916.81
397.698	919.81
397.922	923.81
398.147	936.81
398.371	892.81
398.595	932.81
398.82	913.81
399.044	926.81
399.268	999.81
399.492	1019.81
399.717	1030.81
399.941	1100.81
400.165	1013.81
400.389	1002.81
400.613	1037.81
400.837	1010.81
401.062	894.81
401.286	867.81
401.51	869.81
401.734	899.81
401.958	925.81
402.182	877.81
402.406	885.81
402.63	904.81
402.854	946.81
403.078	1028.81
403.302	1240.81
403.526	1307.81
403.75	1146.81
403.974	1036.81
404.198	1096.81
404.422	1125.81
404.645	1324.81
404.869	1455.81
405.093	1131.81
405.317	948.81
405.541	967.81
405.765	1024.81
405.988	1001.81
406.212	1059.81
406.436	1220.81
406.66	1330.81
406.883	1086.81
407.107	1111.81
407.331	1310.81
407.555	1248.81
407.778	1091.81
408.002	1022.81
408.226	1026.81
408.449	1024.81
408.673	1000.81
408.896	904.81
409.12	924.81
409.344	916.81
409.567	882.81
409.791	900.81
410.014	892.81
410.238	890.81
410.461	902.81
410.685	867.81
410.908	913.81
411.132	940.81
411.355	935.81
411.578	939.81
411.802	932.81
412.025	942.81
412.249	970.81
412.472	935.81
412.695	931.81
412.919	925.81
413.142	972.81
413.365	1024.81
413.589	1001.81
413.812	900.81
414.035	887.81
414.258	917.81
414.482	984.81
414.705	1001.81
414.928	897.81
415.151	868.81
415.374	887.81
415.597	880.81
415.821	904.81
416.044	874.81
416.267	857.81
416.49	845.81
416.713	842.81
416.936	836.81
417.159	859.81
417.382	892.81
417.605	887.81
417.828	880.81
418.051	900.81
418.274	926.81
418.497	896.81
418.72	898.81
418.943	930.81
419.166	949.81
419.389	998.81
419.611	965.81
419.834	1022.81
420.057	1048.81
420.28	1059.81
420.503	967.81
420.726	873.81
420.948	865.81
421.171	891.81
421.394	849.81
421.617	863.81
421.839	898.81
422.062	896.81
422.285	896.81
422.507	902.81
422.73	924.81
422.953	941.81
423.175	922.81
423.398	911.81
423.621	944.81
423.843	1025.81
424.066	963.81
424.288	930.81
424.511	892.81
424.733	873.81
424.956	921.81
425.178	1034.81
425.401	1156.81
425.623	1264.81
425.846	1118.81
426.068	993.81
426.291	1026.81
426.513	1012.81
426.735	909.81
426.958	965.81
427.18	1108.81
427.402	1381.81
427.625	1368.81
427.847	1136.81
428.069	902.81
428.292	878.81
428.514	905.81
428.736	867.81
428.958	924.81
429.181	1037.81
429.403	954.81
429.625	860.81
429.847	860.81
430.069	889.81
430.292	869.81
430.514	866.81
430.736	920.81
430.958	1098.81
431.18	1028.81
431.402	851.81
431.624	792.81
431.846	782.81
432.068	778.81
432.29	822.81
432.512	912.81
432.734	1154.81
432.956	1069.81
433.178	874.81
433.4	852.81
433.622	856.81
433.844	861.81
434.066	894.81
434.287	904.81
434.509	900.81
434.731	906.81
434.953	858.81
435.175	928.81
435.397	1014.81
435.618	886.81
435.84	822.81
436.062	818.81
436.284	823.81
436.505	785.81
436.727	793.81
436.949	811.81
437.17	830.81
437.392	834.81
437.614	826.81
437.835	813.81
438.057	816.81
438.278	914.81
438.5	1257.81
438.721	1271.81
438.943	911.81
439.165	795.81
439.386	794.81
439.608	774.81
439.829	785.81
440.05	778.81
440.272	843.81
440.493	982.81
440.715	1125.81
440.936	945.81
441.158	848.81
441.379	865.81
441.6	944.81
441.822	998.81
442.043	859.81
442.264	859.81
442.486	846.81
442.707	851.81
442.928	869.81
443.149	911.81
443.371	899.81
443.592	916.81
443.813	902.81
444.034	900.81
444.255	919.81
444.476	980.81
444.698	933.81
444.919	948.81
445.14	1056.81
445.361	975.81
445.582	939.81
445.803	925.81
446.024	950.81
446.245	942.81
446.466	895.81
446.687	840.81
446.908	868.81
447.129	841.81
447.35	813.81
447.571	797.81
447.792	818.81
448.013	777.81
448.234	773.81
448.455	792.81
448.675	783.81
448.896	810.81
449.117	791.81
449.338	806.81
449.559	840.81
449.779	857.81
450	832.81
450.221	803.81
450.442	822.81
450.662	774.81
450.883	811.81
451.104	784.81
451.324	757.81
451.545	776.81
451.766	784.81
451.986	778.81
452.207	776.81
452.428	755.81
452.648	751.81
452.869	797.81
453.089	824.81
453.31	788.81
453.53	746.81
453.751	748.81
453.971	730.81
454.192	787.81
454.412	809.81
454.633	766.81
454.853	714.81
455.073	713.81
455.294	745.81
455.514	735.81
455.734	754.81
455.955	815.81
456.175	806.81
456.395	747.81
456.616	680.81
456.836	715.81
457.056	690.81
457.276	688.81
457.497	736.81
457.717	718.81
457.937	708.81
458.157	719.81
458.377	702.81
458.598	740.81
458.818	772.81
459.038	804.81
459.258	822.81
459.478	824.81
459.698	876.81
459.918	901.81
460.138	890.81
460.358	877.81
460.578	869.81
460.798	896.81
461.018	900.81
461.238	872.81
461.458	845.81
461.678	868.81
461.898	919.81
462.118	890.81
462.338	899.81
462.558	961.81
462.777	992.81
462.997	1038.81
463.217	1003.81
463.437	1016.81
463.657	989.81
463.876	973.81
464.096	951.81
464.316	960.81
464.536	951.81
464.755	1001.81
464.975	999.81
465.195	946.81
465.414	996.81
465.634	950.81
465.854	921.81
466.073	877.81
466.293	878.81
466.512	925.81
466.732	993.81
466.951	1024.81
467.171	932.81
467.391	890.81
467.61	850.81
467.829	926.81
468.049	934.81
468.268	875.81
468.488	868.81
468.707	878.81
468.927	1043.81
469.146	1108.81
469.365	1048.81
469.585	921.81
469.804	1009.81
470.023	1067.81
470.243	986.81
470.462	930.81
470.681	922.81
470.901	905.81
471.12	960.81
471.339	972.81
471.558	922.81
471.777	925.81
471.997	972.81
472.216	1093.81
472.435	1080.81
472.654	958.81
472.873	931.81
473.092	988.81
473.311	1043.81
473.53	969.81
473.749	945.81
473.968	956.81
474.187	956.81
474.406	915.81
474.625	916.81
474.844	940.81
475.063	1011.81
475.282	1013.81
475.501	1046.81
475.72	1110.81
475.939	1063.81
476.158	1079.81
476.377	1220.81
476.596	1401.81
476.814	1468.81
477.033	1216.81
477.252	1059.81
477.471	986.81
477.69	1000.81
477.908	1100.81
478.127	1144.81
478.346	1044.81
478.564	1132.81
478.783	1056.81
479.002	1098.81
479.22	1274.81
479.439	1395.81
479.658	1224.81
479.876	1131.81
480.095	1188.81
480.313	1204.81
480.532	1138.81
480.751	1094.81
480.969	1133.81
481.188	1266.81
481.406	1298.81
481.624	1199.81
481.843	1128.81
482.061	1056.81
482.28	1185.81
482.498	1434.81
482.717	1359.81
482.935	1176.81
483.153	1113.81
483.372	1036.81
483.59	1054.81
483.808	1062.81
484.027	1034.81
484.245	1024.81
484.463	1001.81
484.681	1033.81
484.9	1098.81
485.118	1176.81
485.336	1088.81
485.554	1039.81
485.772	1052.81
485.99	1133.81
486.209	1160.81
486.427	1196.81
486.645	1151.81
486.863	1206.81
487.081	1203.81
487.299	1284.81
487.517	1271.81
487.735	1170.81
487.953	1196.81
488.171	1242.81
488.389	1158.81
488.607	1080.81
488.825	1111.81
489.043	1249.81
489.261	1392.81
489.479	1481.81
489.696	1260.81
489.914	1158.81
490.132	1074.81
490.35	1124.81
490.568	1118.81
490.786	1106.81
491.003	1111.81
491.221	1128.81
491.439	1115.81
491.657	1143.81
491.874	1212.81
492.092	1421.81
492.31	1645.81
492.527	1658.81
492.745	1462.81
492.963	1293.81
493.18	1270.81
493.398	1315.81
493.615	1293.81
493.833	1229.81
494.05	1168.81
494.268	1257.81
494.485	1226.81
494.703	1189.81
494.92	1224.81
495.138	1184.81
495.355	1203.81
495.573	1222.81
495.79	1317.81
496.008	1628.81
496.225	1462.81
496.442	1334.81
496.66	1315.81
496.877	1417.81
497.094	1316.81
497.312	1284.81
497.529	1287.81
497.746	1269.81
497.963	1317.81
498.181	1435.81
498.398	1518.81
498.615	1614.81
498.832	1657.81
499.049	1716.81
499.267	1523.81
499.484	1500.81
499.701	1603.81
499.918	1713.81
500.135	1860.81
500.352	1882.81
500.569	1920.81
500.786	2034.81
501.003	1947.81
501.22	1827.81
501.437	1692.81
501.654	1638.81
501.871	1589.81
502.088	1641.81
502.305	1477.81
502.522	1564.81
502.739	1495.81
502.956	1345.81
503.172	1330.81
503.389	1300.81
503.606	1274.81
503.823	1280.81
504.04	1307.81
504.256	1306.81
504.473	1321.81
504.69	1360.81
504.907	1367.81
505.123	1356.81
505.34	1415.81
505.557	1421.81
505.773	1297.81
505.99	1292.81
506.207	1370.81
506.423	1236.81
506.64	1164.81
506.856	1208.81
507.073	1365.81
507.289	1306.81
507.506	1308.81
507.722	1421.81
507.939	1382.81
508.155	1394.81
508.372	1275.81
508.588	1230.81
508.805	1214.81
509.021	1202.81
509.238	1140.81
509.454	1174.81
509.67	1145.81
509.887	1175.81
510.103	1300.81
510.319	1274.81
510.536	1163.81
510.752	1074.81
510.968	1038.81
511.184	1006.81
511.401	1029.81
511.617	1008.81
511.833	1045.81
512.049	1051.81
512.265	1078.81
512.481	1133.81
512.698	1236.81
512.914	1345.81
513.13	1190.81
513.346	1102.81
513.562	1179.81
513.778	1162.81
513.994	1130.81
514.21	1176.81
514.426	1160.81
514.642	1117.81
514.858	1103.81
515.074	1164.81
515.29	1262.81
515.506	1415.81
515.721	1347.81
515.937	1214.81
516.153	1198.81
516.369	1121.81
516.585	1181.81
516.801	1326.81
517.016	1504.81
517.232	1480.81
517.448	1496.81
517.664	1349.81
517.879	1268.81
518.095	1255.81
518.311	1255.81
518.527	1298.81
518.742	1394.81
518.958	1452.81
519.173	1359.81
519.389	1329.81
519.605	1338.81
519.82	1447.81
520.036	1676.81
520.251	1639.81
520.467	1513.81
520.682	2188.81
520.898	2639.81
521.113	2498.81
521.329	1672.81
521.544	1499.81
521.76	1473.81
521.975	1302.81
522.19	1272.81
522.406	1292.81
522.621	1425.81
522.836	1456.81
523.052	1463.81
523.267	1243.81
523.482	1259.81
523.698	1335.81
523.913	1306.81
524.128	1204.81
524.343	1140.81
524.559	1157.81
524.774	1114.81
524.989	1142.81
525.204	1170.81
525.419	1276.81
525.634	1192.81
525.849	1236.81
526.064	1217.81
526.28	1254.81
526.495	1422.81
526.71	1439.81
526.925	1260.81
527.14	1294.81
527.355	1257.81
527.57	1111.81
527.785	1159.81
527.999	1150.81
528.214	1088.81
528.429	1034.81
528.644	1032.81
528.859	1004.81
529.074	989.81
529.289	986.81
529.503	972.81
529.718	1016.81
529.933	1108.81
530.148	1150.81
530.363	1033.81
530.577	1018.81
530.792	973.81
531.007	1003.81
531.221	978.81
531.436	974.81
531.651	959.81
531.865	987.81
532.08	1016.81
532.295	983.81
532.509	993.81
532.724	1122.81
532.938	1234.81
533.153	1416.81
533.367	1187.81
533.582	1164.81
533.796	1076.81
534.011	1049.81
534.225	1010.81
534.44	1056.81
534.654	1077.81
534.868	1195.81
535.083	1108.81
535.297	981.81
535.511	1050.81
535.726	1186.81
535.94	1045.81
536.154	1006.81
536.369	961.81
536.583	982.81
536.797	992.81
537.011	983.81
537.225	1059.81
537.44	1146.81
537.654	1017.81
537.868	996.81
538.082	1014.81
538.296	990.81
538.51	1041.81
538.724	1063.81
538.938	1037.81
539.153	972.81
539.367	957.81
539.581	962.81
539.795	1005.81
540.009	1114.81
540.222	1009.81
540.436	1041.81
540.65	1103.81
540.864	1130.81
541.078	1152.81
541.292	1272.81
541.506	1082.81
541.72	1028.81
541.934	1014.81
542.147	1011.81
542.361	1002.81
542.575	1032.81
542.789	998.81
543.002	929.81
543.216	1048.81
543.43	917.81
543.644	920.81
543.857	919.81
544.071	933.81
544.285	918.81
544.498	894.81
544.712	919.81
544.925	976.81
545.139	948.81
545.352	886.81
545.566	899.81
545.779	1024.81
545.993	954.81
546.206	882.81
546.42	871.81
546.633	863.81
546.847	852.81
547.06	844.81
547.274	845.81
547.487	874.81
547.7	927.81
547.914	971.81
548.127	1085.81
548.34	1094.81
548.554	962.81
548.767	981.81
548.98	1038.81
549.193	978.81
549.407	982.81
549.62	1140.81
549.833	1067.81
550.046	1147.81
550.259	1158.81
550.473	1016.81
550.686	974.81
550.899	962.81
551.112	983.81
551.325	1063.81
551.538	1072.81
551.751	914.81
551.964	884.81
552.177	895.81
552.39	906.81
552.603	884.81
552.816	937.81
553.029	880.81
553.242	872.81
553.455	926.81
553.667	1030.81
553.88	965.81
554.093	898.81
554.306	823.81
554.519	797.81
554.732	777.81
554.944	793.81
555.157	779.81
555.37	764.81
555.583	774.81
555.795	796.81
556.008	814.81
556.221	824.81
556.433	795.81
556.646	768.81
556.859	790.81
557.071	808.81
557.284	824.81
557.496	802.81
557.709	814.81
557.921	777.81
558.134	753.81
558.346	713.81
558.559	705.81
558.771	761.81
558.984	789.81
559.196	739.81
559.409	738.81
559.621	728.81
559.833	698.81
560.046	721.81
560.258	704.81
560.47	733.81
560.683	699.81
560.895	693.81
561.107	662.81
561.32	657.81
561.532	691.81
561.744	738.81
561.956	762.81
562.168	705.81
562.381	689.81
562.593	727.81
562.805	734.81
563.017	700.81
563.229	677.81
563.441	670.81
563.653	648.81
563.865	672.81
564.077	701.81
564.289	666.81
564.501	685.81
564.713	734.81
564.925	736.81
565.137	690.81
565.349	709.81
565.561	698.81
565.773	726.81
565.985	736.81
566.197	790.81
566.408	827.81
566.62	854.81
566.832	843.81
567.044	867.81
567.255	900.81
567.467	992.81
567.679	893.81
567.891	887.81
568.102	883.81
568.314	910.81
568.526	854.81
568.737	805.81
568.949	863.81
569.161	741.81
569.372	683.81
569.584	699.81
569.795	669.81
570.007	700.81
570.218	767.81
570.43	713.81
570.641	693.81
570.853	678.81
571.064	672.81
571.276	683.81
571.487	709.81
571.698	654.81
571.91	663.81
572.121	650.81
572.333	628.81
572.544	621.81
572.755	618.81
572.966	609.81
573.178	625.81
573.389	642.81
573.6	657.81
573.811	618.81
574.023	570.81
574.234	584.81
574.445	581.81
574.656	566.81
574.867	581.81
575.078	581.81
575.289	587.81
575.501	632.81
575.712	591.81
575.923	546.81
576.134	548.81
576.345	545.81
576.556	567.81
576.767	554.81
576.978	544.81
577.188	516.81
577.399	527.81
577.61	543.81
577.821	538.81
578.032	543.81
578.243	587.81
578.454	581.81
578.665	566.81
578.875	546.81
579.086	545.81
579.297	553.81
579.508	566.81
579.718	567.81
579.929	552.81
580.14	548.81
580.35	505.81
580.561	487.81
580.772	501.81
580.982	493.81
581.193	469.81
581.403	458.81
581.614	476.81
581.825	434.81
582.035	453.81
582.246	461.81
582.456	482.81
582.667	481.81
582.877	468.81
583.087	468.81
583.298	466.81
583.508	471.81
583.719	442.81
583.929	458.81
584.139	458.81
584.35	459.81
584.56	491.81
584.77	477.81
584.981	485.81
585.191	483.81
585.401	482.81
585.611	477.81
585.821	475.81
586.032	479.81
586.242	460.81
586.452	476.81
586.662	475.81
586.872	516.81
587.082	489.81
587.292	468.81
587.502	471.81
587.713	470.81
587.923	445.81
588.133	523.81
588.343	484.81
588.553	454.81
588.762	451.81
588.972	451.81
589.182	456.81
589.392	458.81
589.602	453.81
589.812	483.81
590.022	514.81
590.232	516.81
590.441	466.81
590.651	458.81
590.861	448.81
591.071	454.81
591.281	460.81
591.49	449.81
591.7	459.81
591.91	446.81
592.119	445.81
592.329	455.81
592.539	440.81
592.748	453.81
592.958	462.81
593.167	509.81
593.377	485.81
593.587	483.81
593.796	489.81
594.006	484.81
594.215	478.81
594.424	498.81
594.634	490.81
594.843	472.81
595.053	463.81
595.262	445.81
595.472	455.81
595.681	427.81
595.89	423.81
596.1	436.81
596.309	457.81
596.518	420.81
596.727	422.81
596.937	426.81
597.146	421.81
597.355	463.81
597.564	448.81
597.774	413.81
597.983	408.81
598.192	410.81
598.401	407.81
598.61	386.81
598.819	390.81
599.028	400.81
599.237	388.81
599.446	389.81
599.655	378.81
599.864	368.81
600.073	372.81
600.282	366.81
600.491	378.81
600.7	388.81
600.909	397.81
601.118	392.81
601.327	386.81
601.536	365.81
601.745	404.81
601.953	404.81
602.162	377.81
602.371	379.81
602.58	398.81
602.789	384.81
602.997	396.81
603.206	368.81
603.415	380.81
603.623	353.81
603.832	369.81
604.041	364.81
604.249	389.81
604.458	376.81
604.666	361.81
604.875	347.81
605.084	349.81
605.292	350.81
605.501	373.81
605.709	373.81
605.918	373.81
606.126	334.81
606.334	346.81
606.543	352.81
606.751	362.81
606.96	362.81
607.168	352.81
607.376	346.81
607.585	346.81
607.793	350.81
608.001	360.81
608.21	338.81
608.418	359.81
608.626	360.81
608.834	340.81
609.043	337.81
609.251	354.81
609.459	336.81
609.667	341.81
609.875	352.81
610.083	350.81
610.291	356.81
610.499	355.81
610.707	343.81
610.916	334.81
611.124	337.81
611.332	338.81
611.54	358.81
611.748	341.81
611.955	347.81
612.163	341.81
612.371	328.81
612.579	337.81
612.787	332.81
612.995	334.81
613.203	340.81
613.411	346.81
613.618	335.81
613.826	359.81
614.034	368.81
614.242	327.81
614.449	338.81
614.657	312.81
614.865	324.81
615.072	336.81
615.28	321.81
615.488	328.81
615.695	330.81
615.903	334.81
616.111	309.81
616.318	308.81
616.526	317.81
616.733	325.81
616.941	304.81
617.148	348.81
617.356	336.81
617.563	324.81
617.771	324.81
617.978	321.81
618.185	341.81
618.393	312.81
618.6	306.81
618.807	321.81
619.015	337.81
619.222	324.81
619.429	317.81
619.637	328.81
619.844	327.81
620.051	305.81
620.258	327.81
620.466	306.81
620.673	314.81
620.88	290.81
621.087	300.81
621.294	300.81
621.501	293.81
621.708	297.81
621.915	299.81
622.122	281.81
622.329	307.81
622.536	305.81
622.743	301.81
622.95	294.81
623.157	304.81
623.364	309.81
623.571	320.81
623.778	290.81
623.985	310.81
624.192	316.81
624.399	291.81
624.606	300.81
624.812	299.81
625.019	304.81
625.226	307.81
625.433	297.81
625.639	279.81
625.846	290.81
626.053	297.81
626.259	267.81
626.466	261.81
626.673	314.81
626.879	301.81
627.086	276.81
627.293	276.81
627.499	268.81
627.706	272.81
627.912	272.81
628.119	258.81
628.325	255.81
628.532	260.81
628.738	272.81
628.945	265.81
629.151	268.81
629.357	259.81
629.564	273.81
629.77	267.81
629.976	282.81
630.183	276.81
630.389	265.81
630.595	266.81
630.802	273.81
631.008	277.81
631.214	250.81
631.42	252.81
631.627	262.81
631.833	244.81
632.039	247.81
632.245	250.81
632.451	253.81
632.657	246.81
632.863	245.81
633.069	241.81
633.275	257.81
633.481	237.81
633.688	230.81
633.893	240.81
634.099	245.81
634.305	237.81
634.511	246.81
634.717	229.81
634.923	234.81
635.129	231.81
635.335	242.81
635.541	237.81
635.747	222.81
635.952	246.81
636.158	250.81
636.364	231.81
636.57	233.81
636.775	228.81
636.981	245.81
637.187	231.81
637.392	229.81
637.598	243.81
637.804	224.81
638.009	220.81
638.215	225.81
638.421	223.81
638.626	231.81
638.832	225.81
639.037	218.81
639.243	237.81
639.448	233.81
639.654	252.81
639.859	225.81
640.065	224.81
640.27	229.81
640.475	221.81
640.681	234.81
640.886	229.81
641.091	213.81
641.297	210.81
641.502	224.81
641.707	228.81
641.913	209.81
642.118	227.81
642.323	213.81
642.528	237.81
642.733	228.81
642.939	212.81
643.144	223.81
643.349	225.81
643.554	217.81
643.759	214.81
643.964	224.81
644.169	210.81
644.374	205.81
644.579	206.81
644.784	213.81
644.989	221.81
645.194	221.81
645.399	226.81
645.604	203.81
645.809	228.81
646.014	203.81
646.219	216.81
646.423	218.81
646.628	200.81
646.833	228.81
647.038	212.81
647.243	202.81
647.447	221.81
647.652	208.81
647.857	205.81
648.062	201.81
648.266	217.81
648.471	205.81
648.676	205.81
648.88	210.81
649.085	229.81
649.289	207.81
649.494	203.81
649.698	219.81
649.903	218.81
650.107	211.81
650.312	213.81
650.516	188.81
650.721	192.81
650.925	192.81
651.13	168.81
651.334	176.81
651.539	189.81
651.743	198.81
651.947	184.81
652.152	183.81
652.356	192.81
652.56	164.81
652.764	165.81
652.969	168.81
653.173	167.81
653.377	172.81
653.581	169.81
653.785	163.81
653.99	158.81
654.194	172.81
654.398	132.81
654.602	157.81
654.806	162.81
655.01	163.81
655.214	161.81
655.418	178.81
655.622	152.81
655.826	155.81
656.03	165.81
656.234	160.81
656.438	155.81
656.642	148.81
656.846	174.81
657.049	146.81
657.253	144.81
657.457	139.81
657.661	136.81
657.865	142.81
658.068	143.81
658.272	124.81
658.476	132.81
658.68	128.81
658.883	127.81
659.087	124.81
659.291	130.81
659.494	114.81
659.698	117.81
659.901	108.81
660.105	107.81
660.309	120.81
660.512	109.81
660.716	109.81
660.919	102.81
661.123	109.81
661.326	113.81
661.53	117.81
661.733	92.81
661.936	94.81
662.14	88.81
662.343	95.81
662.546	101.81
662.75	89.81
662.953	99.81
663.156	96.81
663.36	89.81
663.563	79.81
663.766	89.81
663.969	84.81
664.173	80.81
664.376	89.81
664.579	88.81
664.782	81.81
664.985	79.81
665.188	99.81
665.391	90.81
665.594	88.81
665.797	85.81
666	101.81
666.203	90.81
666.406	76.81
666.609	84.81
666.812	88.81
667.015	78.81
667.218	89.81
667.421	82.81
667.624	82.81
667.827	83.81
668.03	87.81
668.232	85.81
668.435	90.81
668.638	90.81
668.841	88.81
669.043	69.81
669.246	99.81
669.449	94.81
669.651	92.81
669.854	91.81
670.057	83.81
670.259	83.81
670.462	82.81
670.665	81.81
670.867	72.81
671.07	75.81
671.272	88.81
671.475	86.81
671.677	95.81
671.88	85.81
672.082	86.81
672.284	102.81
672.487	93.81
672.689	83.81
672.892	85.81
