Data from NickelSpatula.Lamp.E10.P2_HRD10591_11-56-49-534.txt Node
Date: Tue Jul 23 11:56:49 EDT 2019
User: cochatt
Spectrometer: HR+D1059
Trigger mode: 1
Integration Time (sec): 1.000000E-1
Scans to average: 1
Electric dark correction enabled: true
Nonlinearity correction enabled: false
Boxcar width: 0
XAxis mode: Wavelengths
Number of Pixels in Spectrum: 2048
>>>>>Begin Spectral Data<<<<<
223.165	-16.5
223.4	-16.5
223.635	-16.5
223.869	-9.5
224.104	-17.5
224.338	-23.5
224.573	-28.5
224.808	-4.5
225.042	-17.5
225.277	6.5
225.511	0.5
225.746	6.5
225.98	-2.5
226.215	5.5
226.449	20.5
226.683	21.5
226.918	23.5
227.152	35.5
227.387	38.5
227.621	42.5
227.856	50.5
228.09	59.5
228.324	49.5
228.559	64.5
228.793	85.5
229.027	144.5
229.262	143.5
229.496	153.5
229.73	151.5
229.964	162.5
230.199	185.5
230.433	201.5
230.667	194.5
230.901	189.5
231.136	190.5
231.37	199.5
231.604	214.5
231.838	217.5
232.072	219.5
232.306	224.5
232.541	229.5
232.775	219.5
233.009	245.5
233.243	281.5
233.477	278.5
233.711	311.5
233.945	299.5
234.179	277.5
234.413	306.5
234.647	335.5
234.881	399.5
235.115	387.5
235.349	354.5
235.583	328.5
235.817	316.5
236.051	326.5
236.285	385.5
236.519	419.5
236.753	394.5
236.987	362.5
237.221	358.5
237.455	371.5
237.689	374.5
237.922	441.5
238.156	427.5
238.39	485.5
238.624	577.5
238.858	512.5
239.091	435.5
239.325	461.5
239.559	441.5
239.793	466.5
240.027	587.5
240.26	529.5
240.494	517.5
240.728	521.5
240.961	615.5
241.195	564.5
241.429	568.5
241.662	546.5
241.896	449.5
242.13	435.5
242.363	405.5
242.597	433.5
242.83	472.5
243.064	486.5
243.298	550.5
243.531	564.5
243.765	576.5
243.998	544.5
244.232	541.5
244.465	530.5
244.699	538.5
244.932	616.5
245.166	564.5
245.399	503.5
245.633	493.5
245.866	535.5
246.099	542.5
246.333	645.5
246.566	706.5
246.8	679.5
247.033	663.5
247.266	592.5
247.5	607.5
247.733	623.5
247.966	589.5
248.2	599.5
248.433	674.5
248.666	708.5
248.899	698.5
249.133	734.5
249.366	857.5
249.599	917.5
249.832	836.5
250.066	721.5
250.299	756.5
250.532	725.5
250.765	708.5
250.998	648.5
251.231	636.5
251.465	683.5
251.698	741.5
251.931	691.5
252.164	742.5
252.397	826.5
252.63	915.5
252.863	1009.5
253.096	1039.5
253.329	1002.5
253.562	967.5
253.795	1098.5
254.028	1170.5
254.261	1149.5
254.494	1076.5
254.727	984.5
254.96	959.5
255.193	1057.5
255.426	984.5
255.659	761.5
255.892	730.5
256.124	802.5
256.357	932.5
256.59	1041.5
256.823	1012.5
257.056	893.5
257.289	823.5
257.521	895.5
257.754	1045.5
257.987	1205.5
258.22	1004.5
258.452	917.5
258.685	1026.5
258.918	1149.5
259.151	1157.5
259.383	1210.5
259.616	1407.5
259.849	1429.5
260.081	1561.5
260.314	1690.5
260.547	1327.5
260.779	1370.5
261.012	1593.5
261.244	1473.5
261.477	1450.5
261.71	1376.5
261.942	1165.5
262.175	1182.5
262.407	1113.5
262.64	1127.5
262.872	1323.5
263.105	1453.5
263.337	1521.5
263.57	1414.5
263.802	976.5
264.035	860.5
264.267	829.5
264.499	724.5
264.732	651.5
264.964	651.5
265.197	668.5
265.429	743.5
265.661	780.5
265.894	804.5
266.126	844.5
266.358	928.5
266.591	1131.5
266.823	1346.5
267.055	1287.5
267.287	1201.5
267.52	1171.5
267.752	1269.5
267.984	1349.5
268.216	1300.5
268.448	1045.5
268.681	1034.5
268.913	1109.5
269.145	1197.5
269.377	1215.5
269.609	1221.5
269.841	1150.5
270.073	1199.5
270.306	1295.5
270.538	1321.5
270.77	1329.5
271.002	1360.5
271.234	1351.5
271.466	1413.5
271.698	1272.5
271.93	1238.5
272.162	1272.5
272.394	1263.5
272.626	1242.5
272.858	1288.5
273.09	1299.5
273.322	1128.5
273.553	1079.5
273.785	1263.5
274.017	1648.5
274.249	2071.5
274.481	2151.5
274.713	2339.5
274.945	2676.5
275.176	2784.5
275.408	2482.5
275.64	2311.5
275.872	2293.5
276.104	1983.5
276.335	1729.5
276.567	1723.5
276.799	1759.5
277.031	1820.5
277.262	1418.5
277.494	1107.5
277.726	1087.5
277.957	1200.5
278.189	1314.5
278.421	1329.5
278.652	1310.5
278.884	1247.5
279.115	1149.5
279.347	1107.5
279.579	1107.5
279.81	1105.5
280.042	1104.5
280.273	1144.5
280.505	1058.5
280.736	937.5
280.968	959.5
281.199	1052.5
281.431	1170.5
281.662	1180.5
281.894	1119.5
282.125	1198.5
282.356	1261.5
282.588	1316.5
282.819	1171.5
283.051	1285.5
283.282	1527.5
283.513	1780.5
283.745	2001.5
283.976	2005.5
284.207	1826.5
284.439	1859.5
284.67	1854.5
284.901	1600.5
285.132	1758.5
285.364	1833.5
285.595	1723.5
285.826	1819.5
286.057	1826.5
286.288	1741.5
286.52	1808.5
286.751	1919.5
286.982	1909.5
287.213	1669.5
287.444	1624.5
287.675	1726.5
287.906	1667.5
288.138	1446.5
288.369	1245.5
288.6	1225.5
288.831	1289.5
289.062	1522.5
289.293	1656.5
289.524	1512.5
289.755	1505.5
289.986	1560.5
290.217	1335.5
290.448	1058.5
290.679	940.5
290.91	887.5
291.141	856.5
291.371	899.5
291.602	896.5
291.833	891.5
292.064	1005.5
292.295	1134.5
292.526	1281.5
292.757	1337.5
292.987	1454.5
293.218	1443.5
293.449	1561.5
293.68	1615.5
293.91	1530.5
294.141	1575.5
294.372	1443.5
294.603	1348.5
294.833	1444.5
295.064	1728.5
295.295	1645.5
295.525	1220.5
295.756	1049.5
295.987	878.5
296.217	909.5
296.448	954.5
296.679	963.5
296.909	1028.5
297.14	1101.5
297.37	1277.5
297.601	1189.5
297.831	1032.5
298.062	1122.5
298.292	1244.5
298.523	1298.5
298.753	1487.5
298.984	1329.5
299.214	1102.5
299.445	950.5
299.675	887.5
299.905	831.5
300.136	882.5
300.366	961.5
300.597	952.5
300.827	873.5
301.057	820.5
301.288	859.5
301.518	903.5
301.748	996.5
301.979	1078.5
302.209	1134.5
302.439	1142.5
302.669	1049.5
302.9	1056.5
303.13	1006.5
303.36	971.5
303.59	929.5
303.82	975.5
304.051	1061.5
304.281	1203.5
304.511	1177.5
304.741	1056.5
304.971	1081.5
305.201	1146.5
305.431	1085.5
305.661	939.5
305.891	895.5
306.121	889.5
306.352	844.5
306.582	767.5
306.812	758.5
307.042	747.5
307.272	724.5
307.502	735.5
307.731	774.5
307.961	802.5
308.191	776.5
308.421	751.5
308.651	716.5
308.881	685.5
309.111	713.5
309.341	767.5
309.571	802.5
309.8	825.5
310.03	799.5
310.26	811.5
310.49	822.5
310.72	765.5
310.949	789.5
311.179	811.5
311.409	875.5
311.639	988.5
311.868	1257.5
312.098	1601.5
312.328	1751.5
312.557	1675.5
312.787	1725.5
313.017	1537.5
313.246	1627.5
313.476	1752.5
313.706	1459.5
313.935	1162.5
314.165	966.5
314.394	881.5
314.624	899.5
314.853	917.5
315.083	959.5
315.312	922.5
315.542	911.5
315.771	845.5
316.001	754.5
316.23	769.5
316.46	750.5
316.689	766.5
316.919	794.5
317.148	799.5
317.377	806.5
317.607	792.5
317.836	858.5
318.065	953.5
318.295	1067.5
318.524	1009.5
318.753	886.5
318.983	826.5
319.212	790.5
319.441	833.5
319.67	939.5
319.9	1027.5
320.129	973.5
320.358	857.5
320.587	846.5
320.816	884.5
321.046	970.5
321.275	1085.5
321.504	1071.5
321.733	1049.5
321.962	1022.5
322.191	930.5
322.42	897.5
322.649	907.5
322.878	980.5
323.108	981.5
323.337	957.5
323.566	931.5
323.795	940.5
324.024	893.5
324.253	828.5
324.482	833.5
324.71	878.5
324.939	969.5
325.168	934.5
325.397	805.5
325.626	764.5
325.855	793.5
326.084	819.5
326.313	794.5
326.542	777.5
326.77	786.5
326.999	810.5
327.228	840.5
327.457	872.5
327.686	847.5
327.914	756.5
328.143	747.5
328.372	741.5
328.6	746.5
328.829	746.5
329.058	806.5
329.287	801.5
329.515	798.5
329.744	800.5
329.972	763.5
330.201	722.5
330.43	774.5
330.658	857.5
330.887	940.5
331.115	908.5
331.344	893.5
331.572	868.5
331.801	816.5
332.03	790.5
332.258	805.5
332.486	888.5
332.715	889.5
332.943	871.5
333.172	850.5
333.4	860.5
333.629	959.5
333.857	1037.5
334.085	1011.5
334.314	1008.5
334.542	952.5
334.771	889.5
334.999	891.5
335.227	855.5
335.455	869.5
335.684	955.5
335.912	1041.5
336.14	1159.5
336.369	1137.5
336.597	1087.5
336.825	1229.5
337.053	1305.5
337.281	1079.5
337.51	899.5
337.738	881.5
337.966	955.5
338.194	1023.5
338.422	980.5
338.65	848.5
338.878	803.5
339.106	796.5
339.334	905.5
339.562	930.5
339.79	881.5
340.018	864.5
340.246	936.5
340.474	1046.5
340.702	1076.5
340.93	1114.5
341.158	1117.5
341.386	929.5
341.614	928.5
341.842	926.5
342.07	989.5
342.298	1149.5
342.526	1152.5
342.754	1013.5
342.981	899.5
343.209	924.5
343.437	989.5
343.665	1028.5
343.893	1011.5
344.12	1146.5
344.348	1328.5
344.576	1201.5
344.804	986.5
345.031	889.5
345.259	863.5
345.487	862.5
345.714	910.5
345.942	937.5
346.17	1018.5
346.397	953.5
346.625	892.5
346.853	835.5
347.08	822.5
347.308	865.5
347.535	967.5
347.763	973.5
347.99	884.5
348.218	829.5
348.445	887.5
348.673	861.5
348.9	848.5
349.128	900.5
349.355	883.5
349.583	914.5
349.81	866.5
350.037	817.5
350.265	741.5
350.492	720.5
350.72	715.5
350.947	746.5
351.174	751.5
351.402	781.5
351.629	806.5
351.856	777.5
352.083	733.5
352.311	801.5
352.538	853.5
352.765	873.5
352.992	816.5
353.22	807.5
353.447	838.5
353.674	817.5
353.901	768.5
354.128	797.5
354.355	793.5
354.583	805.5
354.81	814.5
355.037	883.5
355.264	826.5
355.491	856.5
355.718	883.5
355.945	874.5
356.172	863.5
356.399	879.5
356.626	988.5
356.853	1187.5
357.08	1227.5
357.307	1210.5
357.534	1033.5
357.761	1076.5
357.988	1298.5
358.215	1429.5
358.441	1351.5
358.668	1205.5
358.895	1119.5
359.122	942.5
359.349	970.5
359.576	1050.5
359.802	897.5
360.029	796.5
360.256	829.5
360.483	1007.5
360.709	1179.5
360.936	1200.5
361.163	1060.5
361.39	911.5
361.616	864.5
361.843	905.5
362.07	1090.5
362.296	1003.5
362.523	866.5
362.749	810.5
362.976	796.5
363.203	960.5
363.429	1005.5
363.656	882.5
363.882	811.5
364.109	819.5
364.335	798.5
364.562	816.5
364.788	888.5
365.015	974.5
365.241	884.5
365.468	782.5
365.694	764.5
365.92	723.5
366.147	707.5
366.373	715.5
366.599	706.5
366.826	730.5
367.052	719.5
367.278	734.5
367.505	722.5
367.731	793.5
367.957	837.5
368.184	812.5
368.41	838.5
368.636	818.5
368.862	854.5
369.089	798.5
369.315	759.5
369.541	742.5
369.767	739.5
369.993	750.5
370.219	737.5
370.445	762.5
370.672	802.5
370.898	837.5
371.124	827.5
371.35	787.5
371.576	770.5
371.802	806.5
372.028	914.5
372.254	989.5
372.48	888.5
372.706	841.5
372.932	867.5
373.158	894.5
373.384	1014.5
373.61	1279.5
373.835	1280.5
374.061	1046.5
374.287	900.5
374.513	1013.5
374.739	1180.5
374.965	1208.5
375.191	1194.5
375.416	931.5
375.642	852.5
375.868	913.5
376.094	1010.5
376.319	909.5
376.545	969.5
376.771	988.5
376.997	918.5
377.222	751.5
377.448	681.5
377.674	683.5
377.899	672.5
378.125	691.5
378.35	705.5
378.576	692.5
378.802	716.5
379.027	775.5
379.253	762.5
379.478	750.5
379.704	809.5
379.929	849.5
380.155	863.5
380.38	794.5
380.606	841.5
380.831	890.5
381.057	856.5
381.282	810.5
381.507	906.5
381.733	1071.5
381.958	1105.5
382.184	1184.5
382.409	1237.5
382.634	1210.5
382.86	1206.5
383.085	1080.5
383.31	919.5
383.535	985.5
383.761	987.5
383.986	956.5
384.211	1039.5
384.436	1023.5
384.662	903.5
384.887	834.5
385.112	850.5
385.337	852.5
385.562	840.5
385.787	889.5
386.013	958.5
386.238	956.5
386.463	843.5
386.688	851.5
386.913	802.5
387.138	800.5
387.363	827.5
387.588	845.5
387.813	844.5
388.038	895.5
388.263	829.5
388.488	838.5
388.713	916.5
388.938	945.5
389.163	845.5
389.387	818.5
389.612	814.5
389.837	801.5
390.062	822.5
390.287	884.5
390.512	871.5
390.736	836.5
390.961	811.5
391.186	785.5
391.411	777.5
391.636	786.5
391.86	840.5
392.085	886.5
392.31	901.5
392.534	838.5
392.759	825.5
392.984	861.5
393.208	830.5
393.433	822.5
393.658	750.5
393.882	753.5
394.107	769.5
394.331	762.5
394.556	744.5
394.78	751.5
395.005	771.5
395.229	792.5
395.454	787.5
395.678	798.5
395.903	847.5
396.127	803.5
396.352	829.5
396.576	854.5
396.801	877.5
397.025	913.5
397.249	955.5
397.474	818.5
397.698	838.5
397.922	886.5
398.147	853.5
398.371	841.5
398.595	874.5
398.82	869.5
399.044	885.5
399.268	933.5
399.492	969.5
399.717	1027.5
399.941	1078.5
400.165	995.5
400.389	959.5
400.613	962.5
400.837	932.5
401.062	867.5
401.286	863.5
401.51	864.5
401.734	861.5
401.958	881.5
402.182	859.5
402.406	842.5
402.63	866.5
402.854	889.5
403.078	1000.5
403.302	1171.5
403.526	1191.5
403.75	1114.5
403.974	1021.5
404.198	1011.5
404.422	1085.5
404.645	1150.5
404.869	1261.5
405.093	1042.5
405.317	947.5
405.541	925.5
405.765	947.5
405.988	932.5
406.212	1000.5
406.436	1085.5
406.66	1133.5
406.883	994.5
407.107	1029.5
407.331	1099.5
407.555	1120.5
407.778	1030.5
408.002	988.5
408.226	1001.5
408.449	1005.5
408.673	955.5
408.896	889.5
409.12	854.5
409.344	896.5
409.567	884.5
409.791	886.5
410.014	883.5
410.238	821.5
410.461	865.5
410.685	867.5
410.908	872.5
411.132	883.5
411.355	907.5
411.578	911.5
411.802	902.5
412.025	919.5
412.249	906.5
412.472	888.5
412.695	910.5
412.919	885.5
413.142	910.5
413.365	916.5
413.589	943.5
413.812	915.5
414.035	861.5
414.258	865.5
414.482	887.5
414.705	905.5
414.928	865.5
415.151	846.5
415.374	834.5
415.597	839.5
415.821	854.5
416.044	833.5
416.267	816.5
416.49	813.5
416.713	808.5
416.936	829.5
417.159	819.5
417.382	805.5
417.605	836.5
417.828	848.5
418.051	845.5
418.274	851.5
418.497	881.5
418.72	864.5
418.943	863.5
419.166	892.5
419.389	955.5
419.611	917.5
419.834	934.5
420.057	959.5
420.28	956.5
420.503	871.5
420.726	824.5
420.948	827.5
421.171	835.5
421.394	841.5
421.617	840.5
421.839	833.5
422.062	873.5
422.285	866.5
422.507	863.5
422.73	867.5
422.953	867.5
423.175	867.5
423.398	875.5
423.621	918.5
423.843	963.5
424.066	906.5
424.288	882.5
424.511	842.5
424.733	852.5
424.956	861.5
425.178	939.5
425.401	996.5
425.623	1169.5
425.846	1000.5
426.068	913.5
426.291	925.5
426.513	913.5
426.735	870.5
426.958	869.5
427.18	1001.5
427.402	1205.5
427.625	1205.5
427.847	1031.5
428.069	867.5
428.292	816.5
428.514	857.5
428.736	819.5
428.958	886.5
429.181	967.5
429.403	906.5
429.625	829.5
429.847	803.5
430.069	824.5
430.292	829.5
430.514	819.5
430.736	856.5
430.958	965.5
431.18	926.5
431.402	749.5
431.624	795.5
431.846	752.5
432.068	739.5
432.29	777.5
432.512	845.5
432.734	993.5
432.956	949.5
433.178	834.5
433.4	801.5
433.622	811.5
433.844	831.5
434.066	870.5
434.287	830.5
434.509	856.5
434.731	859.5
434.953	835.5
435.175	886.5
435.397	949.5
435.618	874.5
435.84	796.5
436.062	769.5
436.284	803.5
436.505	793.5
436.727	758.5
436.949	759.5
437.17	808.5
437.392	817.5
437.614	794.5
437.835	760.5
438.057	804.5
438.278	859.5
438.5	1099.5
438.721	1073.5
438.943	852.5
439.165	780.5
439.386	747.5
439.608	755.5
439.829	753.5
440.05	746.5
440.272	809.5
440.493	871.5
440.715	997.5
440.936	886.5
441.158	820.5
441.379	822.5
441.6	905.5
441.822	923.5
442.043	850.5
442.264	829.5
442.486	804.5
442.707	830.5
442.928	830.5
443.149	859.5
443.371	856.5
443.592	882.5
443.813	911.5
444.034	855.5
444.255	904.5
444.476	921.5
444.698	921.5
444.919	925.5
445.14	1018.5
445.361	979.5
445.582	942.5
445.803	903.5
446.024	893.5
446.245	859.5
446.466	851.5
446.687	834.5
446.908	807.5
447.129	799.5
447.35	805.5
447.571	781.5
447.792	773.5
448.013	782.5
448.234	773.5
448.455	758.5
448.675	762.5
448.896	798.5
449.117	779.5
449.338	780.5
449.559	817.5
449.779	810.5
450	813.5
450.221	799.5
450.442	768.5
450.662	778.5
450.883	761.5
451.104	767.5
451.324	764.5
451.545	763.5
451.766	772.5
451.986	760.5
452.207	753.5
452.428	740.5
452.648	719.5
452.869	745.5
453.089	756.5
453.31	775.5
453.53	722.5
453.751	711.5
453.971	718.5
454.192	733.5
454.412	719.5
454.633	710.5
454.853	717.5
455.073	704.5
455.294	745.5
455.514	733.5
455.734	755.5
455.955	751.5
456.175	786.5
456.395	730.5
456.616	683.5
456.836	685.5
457.056	670.5
457.276	682.5
457.497	688.5
457.717	701.5
457.937	683.5
458.157	697.5
458.377	705.5
458.598	718.5
458.818	745.5
459.038	777.5
459.258	777.5
459.478	820.5
459.698	860.5
459.918	870.5
460.138	822.5
460.358	856.5
460.578	826.5
460.798	847.5
461.018	869.5
461.238	858.5
461.458	834.5
461.678	856.5
461.898	895.5
462.118	876.5
462.338	886.5
462.558	902.5
462.777	942.5
462.997	959.5
463.217	968.5
463.437	1006.5
463.657	957.5
463.876	921.5
464.096	937.5
464.316	942.5
464.536	908.5
464.755	968.5
464.975	929.5
465.195	920.5
465.414	916.5
465.634	907.5
465.854	904.5
466.073	838.5
466.293	817.5
466.512	869.5
466.732	957.5
466.951	953.5
467.171	895.5
467.391	847.5
467.61	825.5
467.829	869.5
468.049	880.5
468.268	805.5
468.488	837.5
468.707	851.5
468.927	981.5
469.146	1033.5
469.365	963.5
469.585	913.5
469.804	920.5
470.023	998.5
470.243	913.5
470.462	876.5
470.681	890.5
470.901	873.5
471.12	901.5
471.339	918.5
471.558	857.5
471.777	896.5
471.997	909.5
472.216	1045.5
472.435	961.5
472.654	897.5
472.873	885.5
473.092	931.5
473.311	957.5
473.53	896.5
473.749	890.5
473.968	915.5
474.187	907.5
474.406	877.5
474.625	880.5
474.844	920.5
475.063	947.5
475.282	968.5
475.501	964.5
475.72	1054.5
475.939	990.5
476.158	1018.5
476.377	1155.5
476.596	1318.5
476.814	1327.5
477.033	1135.5
477.252	968.5
477.471	949.5
477.69	945.5
477.908	1047.5
478.127	1106.5
478.346	1018.5
478.564	1088.5
478.783	1050.5
479.002	1027.5
479.22	1204.5
479.439	1286.5
479.658	1120.5
479.876	1045.5
480.095	1122.5
480.313	1157.5
480.532	1051.5
480.751	1027.5
480.969	1069.5
481.188	1170.5
481.406	1183.5
481.624	1141.5
481.843	1039.5
482.061	1020.5
482.28	1109.5
482.498	1343.5
482.717	1235.5
482.935	1109.5
483.153	1048.5
483.372	997.5
483.59	965.5
483.808	984.5
484.027	955.5
484.245	962.5
484.463	951.5
484.681	1000.5
484.9	1013.5
485.118	1109.5
485.336	1015.5
485.554	1001.5
485.772	1034.5
485.99	1095.5
486.209	1125.5
486.427	1113.5
486.645	1104.5
486.863	1139.5
487.081	1133.5
487.299	1197.5
487.517	1155.5
487.735	1102.5
487.953	1130.5
488.171	1179.5
488.389	1108.5
488.607	1044.5
488.825	1052.5
489.043	1106.5
489.261	1221.5
489.479	1298.5
489.696	1173.5
489.914	1107.5
490.132	1053.5
490.35	1037.5
490.568	1063.5
490.786	1047.5
491.003	1084.5
491.221	1110.5
491.439	1092.5
491.657	1071.5
491.874	1118.5
492.092	1295.5
492.31	1418.5
492.527	1458.5
492.745	1322.5
492.963	1215.5
493.18	1210.5
493.398	1214.5
493.615	1180.5
493.833	1138.5
494.05	1143.5
494.268	1177.5
494.485	1130.5
494.703	1111.5
494.92	1142.5
495.138	1147.5
495.355	1114.5
495.573	1119.5
495.79	1231.5
496.008	1386.5
496.225	1310.5
496.442	1207.5
496.66	1207.5
496.877	1307.5
497.094	1281.5
497.312	1225.5
497.529	1228.5
497.746	1245.5
497.963	1259.5
498.181	1377.5
498.398	1450.5
498.615	1467.5
498.832	1536.5
499.049	1606.5
499.267	1486.5
499.484	1491.5
499.701	1595.5
499.918	1688.5
500.135	1803.5
500.352	1805.5
500.569	1861.5
500.786	1896.5
501.003	1878.5
501.22	1718.5
501.437	1624.5
501.654	1553.5
501.871	1483.5
502.088	1496.5
502.305	1411.5
502.522	1402.5
502.739	1393.5
502.956	1283.5
503.172	1250.5
503.389	1233.5
503.606	1201.5
503.823	1206.5
504.04	1241.5
504.256	1230.5
504.473	1265.5
504.69	1287.5
504.907	1296.5
505.123	1263.5
505.34	1319.5
505.557	1319.5
505.773	1234.5
505.99	1217.5
506.207	1255.5
506.423	1154.5
506.64	1105.5
506.856	1157.5
507.073	1249.5
507.289	1242.5
507.506	1226.5
507.722	1250.5
507.939	1301.5
508.155	1297.5
508.372	1181.5
508.588	1135.5
508.805	1108.5
509.021	1103.5
509.238	1071.5
509.454	1115.5
509.67	1128.5
509.887	1098.5
510.103	1226.5
510.319	1202.5
510.536	1088.5
510.752	1044.5
510.968	1005.5
511.184	966.5
511.401	983.5
511.617	973.5
511.833	987.5
512.049	1019.5
512.265	998.5
512.481	1049.5
512.698	1135.5
512.914	1250.5
513.13	1149.5
513.346	1058.5
513.562	1064.5
513.778	1058.5
513.994	1029.5
514.21	1085.5
514.426	1073.5
514.642	1053.5
514.858	1025.5
515.074	1106.5
515.29	1212.5
515.506	1350.5
515.721	1283.5
515.937	1171.5
516.153	1102.5
516.369	1075.5
516.585	1140.5
516.801	1216.5
517.016	1351.5
517.232	1399.5
517.448	1366.5
517.664	1269.5
517.879	1238.5
518.095	1223.5
518.311	1218.5
518.527	1243.5
518.742	1288.5
518.958	1402.5
519.173	1307.5
519.389	1236.5
519.605	1235.5
519.82	1317.5
520.036	1539.5
520.251	1543.5
520.467	1417.5
520.682	1979.5
520.898	2283.5
521.113	2193.5
521.329	1524.5
521.544	1421.5
521.76	1364.5
521.975	1226.5
522.19	1192.5
522.406	1213.5
522.621	1325.5
522.836	1303.5
523.052	1310.5
523.267	1117.5
523.482	1135.5
523.698	1178.5
523.913	1211.5
524.128	1102.5
524.343	1093.5
524.559	1073.5
524.774	1082.5
524.989	1085.5
525.204	1100.5
525.419	1207.5
525.634	1108.5
525.849	1153.5
526.064	1151.5
526.28	1181.5
526.495	1319.5
526.71	1355.5
526.925	1150.5
527.14	1120.5
527.355	1105.5
527.57	1024.5
527.785	1087.5
527.999	1070.5
528.214	998.5
528.429	981.5
528.644	970.5
528.859	958.5
529.074	953.5
529.289	933.5
529.503	912.5
529.718	962.5
529.933	1078.5
530.148	1069.5
530.363	973.5
530.577	956.5
530.792	934.5
531.007	951.5
531.221	945.5
531.436	937.5
531.651	955.5
531.865	936.5
532.08	965.5
532.295	932.5
532.509	972.5
532.724	1030.5
532.938	1113.5
533.153	1267.5
533.367	1085.5
533.582	1083.5
533.796	1021.5
534.011	969.5
534.225	969.5
534.44	961.5
534.654	1043.5
534.868	1121.5
535.083	1013.5
535.297	964.5
535.511	973.5
535.726	1095.5
535.94	1034.5
536.154	980.5
536.369	908.5
536.583	901.5
536.797	918.5
537.011	917.5
537.225	989.5
537.44	1013.5
537.654	941.5
537.868	928.5
538.082	980.5
538.296	917.5
538.51	946.5
538.724	985.5
538.938	970.5
539.153	903.5
539.367	923.5
539.581	920.5
539.795	938.5
540.009	1029.5
540.222	951.5
540.436	938.5
540.65	1021.5
540.864	1004.5
541.078	1061.5
541.292	1160.5
541.506	982.5
541.72	962.5
541.934	991.5
542.147	944.5
542.361	922.5
542.575	973.5
542.789	940.5
543.002	874.5
543.216	935.5
543.43	874.5
543.644	870.5
543.857	864.5
544.071	893.5
544.285	877.5
544.498	856.5
544.712	842.5
544.925	901.5
545.139	879.5
545.352	853.5
545.566	869.5
545.779	966.5
545.993	871.5
546.206	845.5
546.42	822.5
546.633	820.5
546.847	823.5
547.06	815.5
547.274	812.5
547.487	843.5
547.7	863.5
547.914	890.5
548.127	1001.5
548.34	966.5
548.554	899.5
548.767	947.5
548.98	985.5
549.193	925.5
549.407	948.5
549.62	1095.5
549.833	1035.5
550.046	1058.5
550.259	1072.5
550.473	959.5
550.686	907.5
550.899	925.5
551.112	941.5
551.325	947.5
551.538	1024.5
551.751	881.5
551.964	832.5
552.177	864.5
552.39	835.5
552.603	841.5
552.816	870.5
553.029	847.5
553.242	845.5
553.455	906.5
553.667	970.5
553.88	919.5
554.093	855.5
554.306	810.5
554.519	797.5
554.732	783.5
554.944	741.5
555.157	769.5
555.37	751.5
555.583	742.5
555.795	763.5
556.008	791.5
556.221	783.5
556.433	751.5
556.646	750.5
556.859	748.5
557.071	761.5
557.284	751.5
557.496	747.5
557.709	736.5
557.921	742.5
558.134	699.5
558.346	685.5
558.559	718.5
558.771	712.5
558.984	733.5
559.196	724.5
559.409	694.5
559.621	674.5
559.833	679.5
560.046	703.5
560.258	687.5
560.47	700.5
560.683	673.5
560.895	649.5
561.107	637.5
561.32	664.5
561.532	667.5
561.744	697.5
561.956	693.5
562.168	675.5
562.381	672.5
562.593	692.5
562.805	705.5
563.017	657.5
563.229	651.5
563.441	647.5
563.653	663.5
563.865	665.5
564.077	652.5
564.289	633.5
564.501	675.5
564.713	730.5
564.925	706.5
565.137	659.5
565.349	667.5
565.561	672.5
565.773	686.5
565.985	718.5
566.197	758.5
566.408	826.5
566.62	818.5
566.832	831.5
567.044	849.5
567.255	877.5
567.467	941.5
567.679	856.5
567.891	856.5
568.102	850.5
568.314	891.5
568.526	805.5
568.737	787.5
568.949	833.5
569.161	737.5
569.372	686.5
569.584	689.5
569.795	668.5
570.007	673.5
570.218	717.5
570.43	703.5
570.641	661.5
570.853	626.5
571.064	633.5
571.276	677.5
571.487	696.5
571.698	665.5
571.91	631.5
572.121	640.5
572.333	584.5
572.544	584.5
572.755	622.5
572.966	592.5
573.178	585.5
573.389	618.5
573.6	626.5
573.811	623.5
574.023	569.5
574.234	554.5
574.445	570.5
574.656	549.5
574.867	535.5
575.078	581.5
575.289	574.5
575.501	598.5
575.712	565.5
575.923	531.5
576.134	501.5
576.345	534.5
576.556	526.5
576.767	530.5
576.978	512.5
577.188	502.5
577.399	523.5
577.61	521.5
577.821	514.5
578.032	522.5
578.243	550.5
578.454	544.5
578.665	553.5
578.875	523.5
579.086	517.5
579.297	523.5
579.508	545.5
579.718	533.5
579.929	538.5
580.14	505.5
580.35	490.5
580.561	490.5
580.772	482.5
580.982	466.5
581.193	469.5
581.403	445.5
581.614	456.5
581.825	471.5
582.035	441.5
582.246	464.5
582.456	450.5
582.667	461.5
582.877	454.5
583.087	468.5
583.298	435.5
583.508	467.5
583.719	430.5
583.929	429.5
584.139	445.5
584.35	454.5
584.56	442.5
584.77	470.5
584.981	462.5
585.191	448.5
585.401	451.5
585.611	447.5
585.821	463.5
586.032	473.5
586.242	447.5
586.452	445.5
586.662	449.5
586.872	489.5
587.082	490.5
587.292	451.5
587.502	450.5
587.713	443.5
587.923	450.5
588.133	489.5
588.343	458.5
588.553	465.5
588.762	471.5
588.972	435.5
589.182	445.5
589.392	455.5
589.602	461.5
589.812	465.5
590.022	497.5
590.232	488.5
590.441	446.5
590.651	441.5
590.861	459.5
591.071	435.5
591.281	437.5
591.49	451.5
591.7	446.5
591.91	438.5
592.119	432.5
592.329	447.5
592.539	464.5
592.748	454.5
592.958	448.5
593.167	453.5
593.377	473.5
593.587	476.5
593.796	470.5
594.006	476.5
594.215	485.5
594.424	479.5
594.634	482.5
594.843	462.5
595.053	441.5
595.262	437.5
595.472	425.5
595.681	431.5
595.89	423.5
596.1	413.5
596.309	446.5
596.518	417.5
596.727	416.5
596.937	402.5
597.146	413.5
597.355	431.5
597.564	433.5
597.774	399.5
597.983	397.5
598.192	377.5
598.401	365.5
598.61	361.5
598.819	374.5
599.028	389.5
599.237	369.5
599.446	365.5
599.655	358.5
599.864	363.5
600.073	358.5
600.282	370.5
600.491	353.5
600.7	369.5
600.909	340.5
601.118	356.5
601.327	370.5
601.536	374.5
601.745	371.5
601.953	380.5
602.162	375.5
602.371	369.5
602.58	397.5
602.789	386.5
602.997	371.5
603.206	367.5
603.415	370.5
603.623	324.5
603.832	359.5
604.041	355.5
604.249	345.5
604.458	356.5
604.666	365.5
604.875	341.5
605.084	358.5
605.292	365.5
605.501	331.5
605.709	367.5
605.918	341.5
606.126	337.5
606.334	359.5
606.543	331.5
606.751	338.5
606.96	339.5
607.168	335.5
607.376	367.5
607.585	331.5
607.793	332.5
608.001	353.5
608.21	346.5
608.418	353.5
608.626	352.5
608.834	358.5
609.043	350.5
609.251	327.5
609.459	332.5
609.667	334.5
609.875	335.5
610.083	347.5
610.291	329.5
610.499	337.5
610.707	329.5
610.916	335.5
611.124	312.5
611.332	333.5
611.54	337.5
611.748	314.5
611.955	323.5
612.163	349.5
612.371	321.5
612.579	312.5
612.787	327.5
612.995	325.5
613.203	319.5
613.411	327.5
613.618	327.5
613.826	341.5
614.034	323.5
614.242	305.5
614.449	325.5
614.657	319.5
614.865	318.5
615.072	292.5
615.28	313.5
615.488	328.5
615.695	335.5
615.903	314.5
616.111	326.5
616.318	328.5
616.526	313.5
616.733	323.5
616.941	329.5
617.148	352.5
617.356	314.5
617.563	317.5
617.771	311.5
617.978	297.5
618.185	308.5
618.393	309.5
618.6	303.5
618.807	298.5
619.015	298.5
619.222	314.5
619.429	317.5
619.637	306.5
619.844	286.5
620.051	303.5
620.258	308.5
620.466	274.5
620.673	289.5
620.88	295.5
621.087	293.5
621.294	292.5
621.501	282.5
621.708	294.5
621.915	293.5
622.122	272.5
622.329	291.5
622.536	289.5
622.743	287.5
622.95	301.5
623.157	294.5
623.364	289.5
623.571	294.5
623.778	290.5
623.985	298.5
624.192	304.5
624.399	285.5
624.606	301.5
624.812	282.5
625.019	305.5
625.226	327.5
625.433	292.5
625.639	273.5
625.846	269.5
626.053	266.5
626.259	271.5
626.466	284.5
626.673	291.5
626.879	279.5
627.086	261.5
627.293	275.5
627.499	267.5
627.706	273.5
627.912	255.5
628.119	272.5
628.325	278.5
628.532	277.5
628.738	255.5
628.945	251.5
629.151	259.5
629.357	261.5
629.564	262.5
629.77	261.5
629.976	246.5
630.183	254.5
630.389	255.5
630.595	251.5
630.802	249.5
631.008	260.5
631.214	237.5
631.42	257.5
631.627	244.5
631.833	247.5
632.039	258.5
632.245	245.5
632.451	244.5
632.657	248.5
632.863	238.5
633.069	261.5
633.275	246.5
633.481	233.5
633.688	233.5
633.893	244.5
634.099	245.5
634.305	239.5
634.511	233.5
634.717	233.5
634.923	214.5
635.129	218.5
635.335	235.5
635.541	218.5
635.747	231.5
635.952	246.5
636.158	233.5
636.364	251.5
636.57	229.5
636.775	221.5
636.981	223.5
637.187	225.5
637.392	227.5
637.598	226.5
637.804	229.5
638.009	243.5
638.215	224.5
638.421	229.5
638.626	221.5
638.832	221.5
639.037	201.5
639.243	230.5
639.448	226.5
639.654	238.5
639.859	229.5
640.065	217.5
640.27	233.5
640.475	230.5
640.681	206.5
640.886	220.5
641.091	228.5
641.297	223.5
641.502	224.5
641.707	216.5
641.913	216.5
642.118	218.5
642.323	215.5
642.528	224.5
642.733	210.5
642.939	213.5
643.144	202.5
643.349	216.5
643.554	216.5
643.759	206.5
643.964	207.5
644.169	209.5
644.374	199.5
644.579	220.5
644.784	214.5
644.989	206.5
645.194	199.5
645.399	225.5
645.604	210.5
645.809	215.5
646.014	200.5
646.219	193.5
646.423	199.5
646.628	203.5
646.833	199.5
647.038	217.5
647.243	187.5
647.447	215.5
647.652	215.5
647.857	193.5
648.062	205.5
648.266	194.5
648.471	204.5
648.676	202.5
648.88	217.5
649.085	206.5
649.289	211.5
649.494	198.5
649.698	219.5
649.903	220.5
650.107	193.5
650.312	183.5
650.516	194.5
650.721	202.5
650.925	171.5
651.13	187.5
651.334	186.5
651.539	197.5
651.743	180.5
651.947	181.5
652.152	186.5
652.356	177.5
652.56	185.5
652.764	175.5
652.969	177.5
653.173	181.5
653.377	150.5
653.581	169.5
653.785	177.5
653.99	162.5
654.194	170.5
654.398	168.5
654.602	164.5
654.806	159.5
655.01	158.5
655.214	150.5
655.418	158.5
655.622	160.5
655.826	157.5
656.03	170.5
656.234	168.5
656.438	168.5
656.642	148.5
656.846	155.5
657.049	135.5
657.253	145.5
657.457	135.5
657.661	139.5
657.865	149.5
658.068	133.5
658.272	117.5
658.476	123.5
658.68	121.5
658.883	116.5
659.087	118.5
659.291	104.5
659.494	95.5
659.698	96.5
659.901	113.5
660.105	104.5
660.309	104.5
660.512	104.5
660.716	100.5
660.919	97.5
661.123	101.5
661.326	94.5
661.53	86.5
661.733	81.5
661.936	102.5
662.14	93.5
662.343	84.5
662.546	90.5
662.75	87.5
662.953	89.5
663.156	82.5
663.36	89.5
663.563	92.5
663.766	82.5
663.969	80.5
664.173	83.5
664.376	90.5
664.579	85.5
664.782	62.5
664.985	72.5
665.188	97.5
665.391	90.5
665.594	79.5
665.797	77.5
666	87.5
666.203	91.5
666.406	91.5
666.609	63.5
666.812	82.5
667.015	82.5
667.218	97.5
667.421	82.5
667.624	86.5
667.827	68.5
668.03	98.5
668.232	82.5
668.435	80.5
668.638	68.5
668.841	82.5
669.043	80.5
669.246	69.5
669.449	75.5
669.651	70.5
669.854	89.5
670.057	73.5
670.259	75.5
670.462	89.5
670.665	91.5
670.867	76.5
671.07	85.5
671.272	88.5
671.475	85.5
671.677	72.5
671.88	89.5
672.082	96.5
672.284	92.5
672.487	91.5
672.689	83.5
672.892	82.5
