Data from NickelSpatula.Lamp.E10.P2_HRD10591_11-58-44-528.txt Node
Date: Tue Jul 23 11:58:44 EDT 2019
User: cochatt
Spectrometer: HR+D1059
Trigger mode: 1
Integration Time (sec): 1.000000E-1
Scans to average: 1
Electric dark correction enabled: true
Nonlinearity correction enabled: false
Boxcar width: 0
XAxis mode: Wavelengths
Number of Pixels in Spectrum: 2048
>>>>>Begin Spectral Data<<<<<
223.165	-19.94
223.4	-19.94
223.635	-19.94
223.869	-15.94
224.104	-19.94
224.338	-14.94
224.573	-18.94
224.808	-15.94
225.042	-10.94
225.277	1.06
225.511	-10.94
225.746	8.06
225.98	12.06
226.215	21.06
226.449	10.06
226.683	13.06
226.918	25.06
227.152	37.06
227.387	48.06
227.621	37.06
227.856	42.06
228.09	67.06
228.324	63.06
228.559	59.06
228.793	75.06
229.027	141.06
229.262	158.06
229.496	167.06
229.73	186.06
229.964	203.06
230.199	223.06
230.433	225.06
230.667	213.06
230.901	225.06
231.136	211.06
231.37	222.06
231.604	231.06
231.838	253.06
232.072	231.06
232.306	244.06
232.541	253.06
232.775	252.06
233.009	258.06
233.243	307.06
233.477	301.06
233.711	331.06
233.945	332.06
234.179	345.06
234.413	352.06
234.647	398.06
234.881	448.06
235.115	416.06
235.349	397.06
235.583	359.06
235.817	352.06
236.051	393.06
236.285	418.06
236.519	460.06
236.753	436.06
236.987	405.06
237.221	422.06
237.455	419.06
237.689	431.06
237.922	465.06
238.156	498.06
238.39	562.06
238.624	691.06
238.858	588.06
239.091	490.06
239.325	513.06
239.559	504.06
239.793	546.06
240.027	673.06
240.26	605.06
240.494	578.06
240.728	616.06
240.961	705.06
241.195	619.06
241.429	653.06
241.662	600.06
241.896	520.06
242.13	510.06
242.363	448.06
242.597	494.06
242.83	571.06
243.064	571.06
243.298	566.06
243.531	648.06
243.765	649.06
243.998	639.06
244.232	608.06
244.465	565.06
244.699	595.06
244.932	658.06
245.166	629.06
245.399	538.06
245.633	515.06
245.866	573.06
246.099	603.06
246.333	733.06
246.566	775.06
246.8	812.06
247.033	749.06
247.266	692.06
247.5	690.06
247.733	690.06
247.966	658.06
248.2	691.06
248.433	789.06
248.666	888.06
248.899	834.06
249.133	860.06
249.366	983.06
249.599	1065.06
249.832	930.06
250.066	819.06
250.299	828.06
250.532	821.06
250.765	807.06
250.998	734.06
251.231	710.06
251.465	789.06
251.698	833.06
251.931	805.06
252.164	843.06
252.397	924.06
252.63	1054.06
252.863	1160.06
253.096	1197.06
253.329	1160.06
253.562	1131.06
253.795	1211.06
254.028	1368.06
254.261	1424.06
254.494	1267.06
254.727	1136.06
254.96	1117.06
255.193	1176.06
255.426	1100.06
255.659	860.06
255.892	800.06
256.124	860.06
256.357	1029.06
256.59	1183.06
256.823	1146.06
257.056	976.06
257.289	896.06
257.521	989.06
257.754	1136.06
257.987	1282.06
258.22	1117.06
258.452	992.06
258.685	1142.06
258.918	1291.06
259.151	1268.06
259.383	1290.06
259.616	1536.06
259.849	1563.06
260.081	1726.06
260.314	1943.06
260.547	1478.06
260.779	1498.06
261.012	1729.06
261.244	1630.06
261.477	1646.06
261.71	1575.06
261.942	1322.06
262.175	1293.06
262.407	1254.06
262.64	1291.06
262.872	1554.06
263.105	1684.06
263.337	1774.06
263.57	1540.06
263.802	1034.06
264.035	878.06
264.267	865.06
264.499	757.06
264.732	716.06
264.964	685.06
265.197	722.06
265.429	760.06
265.661	818.06
265.894	842.06
266.126	905.06
266.358	1020.06
266.591	1264.06
266.823	1506.06
267.055	1416.06
267.287	1255.06
267.52	1256.06
267.752	1325.06
267.984	1463.06
268.216	1364.06
268.448	1112.06
268.681	1121.06
268.913	1197.06
269.145	1235.06
269.377	1294.06
269.609	1309.06
269.841	1230.06
270.073	1294.06
270.306	1362.06
270.538	1384.06
270.77	1411.06
271.002	1404.06
271.234	1462.06
271.466	1487.06
271.698	1480.06
271.93	1458.06
272.162	1475.06
272.394	1432.06
272.626	1345.06
272.858	1460.06
273.09	1505.06
273.322	1346.06
273.553	1286.06
273.785	1477.06
274.017	2011.06
274.249	2429.06
274.481	2519.06
274.713	2727.06
274.945	3206.06
275.176	3288.06
275.408	2865.06
275.64	2624.06
275.872	2653.06
276.104	2254.06
276.335	1921.06
276.567	1900.06
276.799	1971.06
277.031	2060.06
277.262	1598.06
277.494	1228.06
277.726	1170.06
277.957	1358.06
278.189	1499.06
278.421	1467.06
278.652	1466.06
278.884	1375.06
279.115	1255.06
279.347	1206.06
279.579	1234.06
279.81	1194.06
280.042	1184.06
280.273	1292.06
280.505	1148.06
280.736	1013.06
280.968	1032.06
281.199	1090.06
281.431	1230.06
281.662	1190.06
281.894	1163.06
282.125	1242.06
282.356	1366.06
282.588	1427.06
282.819	1253.06
283.051	1389.06
283.282	1683.06
283.513	1974.06
283.745	2169.06
283.976	2160.06
284.207	2036.06
284.439	2065.06
284.67	2030.06
284.901	1764.06
285.132	1932.06
285.364	2036.06
285.595	1847.06
285.826	1984.06
286.057	2037.06
286.288	1995.06
286.52	2008.06
286.751	2104.06
286.982	2126.06
287.213	1805.06
287.444	1725.06
287.675	1830.06
287.906	1823.06
288.138	1533.06
288.369	1362.06
288.6	1300.06
288.831	1335.06
289.062	1530.06
289.293	1690.06
289.524	1584.06
289.755	1593.06
289.986	1644.06
290.217	1459.06
290.448	1126.06
290.679	956.06
290.91	898.06
291.141	922.06
291.371	969.06
291.602	980.06
291.833	1004.06
292.064	1050.06
292.295	1203.06
292.526	1402.06
292.757	1434.06
292.987	1568.06
293.218	1576.06
293.449	1612.06
293.68	1694.06
293.91	1589.06
294.141	1628.06
294.372	1500.06
294.603	1436.06
294.833	1600.06
295.064	1836.06
295.295	1776.06
295.525	1349.06
295.756	1148.06
295.987	990.06
296.217	1042.06
296.448	1047.06
296.679	1076.06
296.909	1194.06
297.14	1302.06
297.37	1435.06
297.601	1362.06
297.831	1157.06
298.062	1252.06
298.292	1426.06
298.523	1566.06
298.753	1765.06
298.984	1614.06
299.214	1296.06
299.445	1086.06
299.675	1055.06
299.905	1016.06
300.136	1085.06
300.366	1174.06
300.597	1132.06
300.827	1025.06
301.057	1017.06
301.288	998.06
301.518	1082.06
301.748	1226.06
301.979	1325.06
302.209	1438.06
302.439	1432.06
302.669	1241.06
302.9	1240.06
303.13	1153.06
303.36	1072.06
303.59	1049.06
303.82	1089.06
304.051	1211.06
304.281	1338.06
304.511	1293.06
304.741	1137.06
304.971	1200.06
305.201	1308.06
305.431	1164.06
305.661	1067.06
305.891	1035.06
306.121	1073.06
306.352	938.06
306.582	873.06
306.812	857.06
307.042	857.06
307.272	821.06
307.502	791.06
307.731	871.06
307.961	927.06
308.191	893.06
308.421	799.06
308.651	799.06
308.881	769.06
309.111	785.06
309.341	814.06
309.571	924.06
309.8	898.06
310.03	945.06
310.26	1000.06
310.49	978.06
310.72	852.06
310.949	860.06
311.179	873.06
311.409	939.06
311.639	1088.06
311.868	1417.06
312.098	1790.06
312.328	1979.06
312.557	1866.06
312.787	1920.06
313.017	1678.06
313.246	1864.06
313.476	1976.06
313.706	1620.06
313.935	1275.06
314.165	1044.06
314.394	967.06
314.624	985.06
314.853	1027.06
315.083	1029.06
315.312	1024.06
315.542	997.06
315.771	952.06
316.001	859.06
316.23	840.06
316.46	853.06
316.689	854.06
316.919	877.06
317.148	906.06
317.377	856.06
317.607	893.06
317.836	976.06
318.065	1098.06
318.295	1268.06
318.524	1151.06
318.753	990.06
318.983	948.06
319.212	914.06
319.441	992.06
319.67	1135.06
319.9	1248.06
320.129	1115.06
320.358	991.06
320.587	956.06
320.816	1040.06
321.046	1174.06
321.275	1330.06
321.504	1348.06
321.733	1300.06
321.962	1229.06
322.191	1146.06
322.42	1112.06
322.649	1108.06
322.878	1224.06
323.108	1187.06
323.337	1114.06
323.566	1066.06
323.795	1070.06
324.024	1009.06
324.253	982.06
324.482	987.06
324.71	1097.06
324.939	1211.06
325.168	1091.06
325.397	932.06
325.626	883.06
325.855	918.06
326.084	905.06
326.313	895.06
326.542	827.06
326.77	869.06
326.999	886.06
327.228	947.06
327.457	1022.06
327.686	1022.06
327.914	906.06
328.143	847.06
328.372	816.06
328.6	859.06
328.829	906.06
329.058	904.06
329.287	878.06
329.515	878.06
329.744	867.06
329.972	811.06
330.201	792.06
330.43	845.06
330.658	957.06
330.887	1105.06
331.115	1014.06
331.344	973.06
331.572	971.06
331.801	913.06
332.03	852.06
332.258	882.06
332.486	954.06
332.715	955.06
332.943	902.06
333.172	911.06
333.4	951.06
333.629	1037.06
333.857	1090.06
334.085	1088.06
334.314	1114.06
334.542	1061.06
334.771	991.06
334.999	916.06
335.227	894.06
335.455	925.06
335.684	1027.06
335.912	1192.06
336.14	1317.06
336.369	1248.06
336.597	1202.06
336.825	1370.06
337.053	1533.06
337.281	1219.06
337.51	1004.06
337.738	971.06
337.966	1045.06
338.194	1208.06
338.422	1089.06
338.65	944.06
338.878	903.06
339.106	890.06
339.334	1029.06
339.562	1080.06
339.79	1005.06
340.018	951.06
340.246	1057.06
340.474	1180.06
340.702	1258.06
340.93	1343.06
341.158	1351.06
341.386	1081.06
341.614	1085.06
341.842	1127.06
342.07	1141.06
342.298	1362.06
342.526	1400.06
342.754	1202.06
342.981	1067.06
343.209	1050.06
343.437	1142.06
343.665	1185.06
343.893	1168.06
344.12	1353.06
344.348	1601.06
344.576	1406.06
344.804	1166.06
345.031	1017.06
345.259	974.06
345.487	998.06
345.714	1034.06
345.942	1086.06
346.17	1184.06
346.397	1136.06
346.625	999.06
346.853	980.06
347.08	963.06
347.308	1010.06
347.535	1108.06
347.763	1139.06
347.99	1024.06
348.218	902.06
348.445	949.06
348.673	958.06
348.9	977.06
349.128	1051.06
349.355	1092.06
349.583	1083.06
349.81	1030.06
350.037	923.06
350.265	853.06
350.492	783.06
350.72	781.06
350.947	836.06
351.174	888.06
351.402	975.06
351.629	991.06
351.856	939.06
352.083	933.06
352.311	989.06
352.538	1094.06
352.765	1145.06
352.992	1034.06
353.22	980.06
353.447	992.06
353.674	994.06
353.901	948.06
354.128	959.06
354.355	991.06
354.583	1005.06
354.81	993.06
355.037	1024.06
355.264	978.06
355.491	1104.06
355.718	1166.06
355.945	1144.06
356.172	1095.06
356.399	1093.06
356.626	1358.06
356.853	1634.06
357.08	1725.06
357.307	1756.06
357.534	1381.06
357.761	1396.06
357.988	1752.06
358.215	1989.06
358.441	1910.06
358.668	1641.06
358.895	1500.06
359.122	1215.06
359.349	1208.06
359.576	1319.06
359.802	1095.06
360.029	952.06
360.256	1024.06
360.483	1281.06
360.709	1610.06
360.936	1661.06
361.163	1449.06
361.39	1129.06
361.616	1082.06
361.843	1268.06
362.07	1516.06
362.296	1408.06
362.523	1080.06
362.749	930.06
362.976	978.06
363.203	1221.06
363.429	1353.06
363.656	1065.06
363.882	979.06
364.109	1008.06
364.335	993.06
364.562	1005.06
364.788	1115.06
365.015	1312.06
365.241	1181.06
365.468	963.06
365.694	828.06
365.92	827.06
366.147	811.06
366.373	802.06
366.599	779.06
366.826	812.06
367.052	816.06
367.278	834.06
367.505	851.06
367.731	907.06
367.957	1011.06
368.184	1040.06
368.41	1042.06
368.636	1020.06
368.862	1028.06
369.089	1010.06
369.315	907.06
369.541	906.06
369.767	888.06
369.993	841.06
370.219	861.06
370.445	932.06
370.672	1030.06
370.898	1112.06
371.124	1075.06
371.35	946.06
371.576	886.06
371.802	971.06
372.028	1163.06
372.254	1353.06
372.48	1154.06
372.706	1044.06
372.932	1093.06
373.158	1148.06
373.384	1370.06
373.61	1823.06
373.835	1876.06
374.061	1356.06
374.287	1186.06
374.513	1408.06
374.739	1657.06
374.965	1677.06
375.191	1649.06
375.416	1172.06
375.642	1026.06
375.868	1205.06
376.094	1368.06
376.319	1165.06
376.545	1301.06
376.771	1347.06
376.997	1163.06
377.222	854.06
377.448	752.06
377.674	740.06
377.899	758.06
378.125	791.06
378.35	746.06
378.576	805.06
378.802	858.06
379.027	936.06
379.253	902.06
379.478	929.06
379.704	1061.06
379.929	1086.06
380.155	1098.06
380.38	951.06
380.606	1017.06
380.831	1122.06
381.057	1021.06
381.282	998.06
381.507	1212.06
381.733	1459.06
381.958	1515.06
382.184	1629.06
382.409	1693.06
382.634	1626.06
382.86	1739.06
383.085	1424.06
383.31	1109.06
383.535	1230.06
383.761	1228.06
383.986	1200.06
384.211	1460.06
384.436	1365.06
384.662	1042.06
384.887	1029.06
385.112	1049.06
385.337	1058.06
385.562	980.06
385.787	1123.06
386.013	1216.06
386.238	1234.06
386.463	1036.06
386.688	988.06
386.913	956.06
387.138	910.06
387.363	960.06
387.588	1008.06
387.813	996.06
388.038	1093.06
388.263	981.06
388.488	970.06
388.713	1136.06
388.938	1224.06
389.163	1038.06
389.387	930.06
389.612	930.06
389.837	947.06
390.062	955.06
390.287	975.06
390.512	1025.06
390.736	935.06
390.961	885.06
391.186	861.06
391.411	825.06
391.636	864.06
391.86	924.06
392.085	1029.06
392.31	1014.06
392.534	962.06
392.759	918.06
392.984	981.06
393.208	984.06
393.433	872.06
393.658	799.06
393.882	790.06
394.107	808.06
394.331	821.06
394.556	804.06
394.78	811.06
395.005	838.06
395.229	862.06
395.454	903.06
395.678	898.06
395.903	928.06
396.127	870.06
396.352	889.06
396.576	982.06
396.801	998.06
397.025	1078.06
397.249	1127.06
397.474	948.06
397.698	912.06
397.922	974.06
398.147	917.06
398.371	932.06
398.595	977.06
398.82	946.06
399.044	948.06
399.268	1037.06
399.492	1045.06
399.717	1058.06
399.941	1096.06
400.165	1067.06
400.389	1067.06
400.613	1080.06
400.837	1034.06
401.062	946.06
401.286	903.06
401.51	910.06
401.734	889.06
401.958	893.06
402.182	894.06
402.406	931.06
402.63	928.06
402.854	970.06
403.078	1084.06
403.302	1291.06
403.526	1331.06
403.75	1196.06
403.974	1068.06
404.198	1092.06
404.422	1229.06
404.645	1421.06
404.869	1588.06
405.093	1179.06
405.317	993.06
405.541	997.06
405.765	1000.06
405.988	1014.06
406.212	1108.06
406.436	1333.06
406.66	1418.06
406.883	1156.06
407.107	1208.06
407.331	1378.06
407.555	1318.06
407.778	1100.06
408.002	1048.06
408.226	1065.06
408.449	1063.06
408.673	1027.06
408.896	952.06
409.12	911.06
409.344	928.06
409.567	874.06
409.791	894.06
410.014	891.06
410.238	893.06
410.461	881.06
410.685	888.06
410.908	909.06
411.132	969.06
411.355	952.06
411.578	970.06
411.802	940.06
412.025	958.06
412.249	1004.06
412.472	931.06
412.695	929.06
412.919	932.06
413.142	986.06
413.365	1043.06
413.589	1065.06
413.812	960.06
414.035	917.06
414.258	932.06
414.482	1054.06
414.705	1092.06
414.928	909.06
415.151	871.06
415.374	860.06
415.597	933.06
415.821	910.06
416.044	871.06
416.267	887.06
416.49	880.06
416.713	862.06
416.936	865.06
417.159	875.06
417.382	893.06
417.605	909.06
417.828	907.06
418.051	908.06
418.274	921.06
418.497	914.06
418.72	911.06
418.943	961.06
419.166	1008.06
419.389	1043.06
419.611	1004.06
419.834	1036.06
420.057	1132.06
420.28	1131.06
420.503	1036.06
420.726	924.06
420.948	904.06
421.171	869.06
421.394	866.06
421.617	864.06
421.839	905.06
422.062	914.06
422.285	930.06
422.507	949.06
422.73	966.06
422.953	977.06
423.175	950.06
423.398	926.06
423.621	1004.06
423.843	1074.06
424.066	958.06
424.288	931.06
424.511	923.06
424.733	901.06
424.956	984.06
425.178	1065.06
425.401	1252.06
425.623	1411.06
425.846	1148.06
426.068	1009.06
426.291	1091.06
426.513	988.06
426.735	964.06
426.958	1006.06
427.18	1149.06
427.402	1517.06
427.625	1494.06
427.847	1210.06
428.069	905.06
428.292	916.06
428.514	865.06
428.736	853.06
428.958	967.06
429.181	1132.06
429.403	963.06
429.625	896.06
429.847	875.06
430.069	902.06
430.292	921.06
430.514	884.06
430.736	973.06
430.958	1201.06
431.18	1105.06
431.402	843.06
431.624	811.06
431.846	830.06
432.068	777.06
432.29	828.06
432.512	948.06
432.734	1224.06
432.956	1125.06
433.178	914.06
433.4	846.06
433.622	840.06
433.844	866.06
434.066	929.06
434.287	920.06
434.509	895.06
434.731	918.06
434.953	870.06
435.175	930.06
435.397	1045.06
435.618	914.06
435.84	814.06
436.062	816.06
436.284	839.06
436.505	794.06
436.727	798.06
436.949	803.06
437.17	840.06
437.392	851.06
437.614	837.06
437.835	850.06
438.057	859.06
438.278	979.06
438.5	1383.06
438.721	1381.06
438.943	946.06
439.165	828.06
439.386	798.06
439.608	760.06
439.829	796.06
440.05	811.06
440.272	869.06
440.493	1027.06
440.715	1253.06
440.936	986.06
441.158	864.06
441.379	849.06
441.6	988.06
441.822	1016.06
442.043	885.06
442.264	858.06
442.486	871.06
442.707	883.06
442.928	861.06
443.149	897.06
443.371	894.06
443.592	901.06
443.813	943.06
444.034	891.06
444.255	881.06
444.476	956.06
444.698	937.06
444.919	938.06
445.14	1099.06
445.361	1027.06
445.582	980.06
445.803	925.06
446.024	934.06
446.245	934.06
446.466	928.06
446.687	893.06
446.908	868.06
447.129	846.06
447.35	841.06
447.571	824.06
447.792	813.06
448.013	800.06
448.234	785.06
448.455	782.06
448.675	800.06
448.896	822.06
449.117	812.06
449.338	803.06
449.559	837.06
449.779	888.06
450	874.06
450.221	825.06
450.442	843.06
450.662	804.06
450.883	816.06
451.104	813.06
451.324	832.06
451.545	796.06
451.766	835.06
451.986	793.06
452.207	780.06
452.428	774.06
452.648	781.06
452.869	809.06
453.089	852.06
453.31	817.06
453.53	761.06
453.751	748.06
453.971	727.06
454.192	759.06
454.412	796.06
454.633	757.06
454.853	777.06
455.073	714.06
455.294	718.06
455.514	731.06
455.734	774.06
455.955	808.06
456.175	828.06
456.395	761.06
456.616	724.06
456.836	741.06
457.056	713.06
457.276	706.06
457.497	718.06
457.717	713.06
457.937	706.06
458.157	702.06
458.377	716.06
458.598	766.06
458.818	781.06
459.038	827.06
459.258	812.06
459.478	840.06
459.698	900.06
459.918	890.06
460.138	890.06
460.358	898.06
460.578	886.06
460.798	896.06
461.018	892.06
461.238	846.06
461.458	882.06
461.678	922.06
461.898	954.06
462.118	941.06
462.338	940.06
462.558	967.06
462.777	984.06
462.997	1042.06
463.217	1003.06
463.437	1035.06
463.657	1031.06
463.876	954.06
464.096	967.06
464.316	962.06
464.536	978.06
464.755	1020.06
464.975	1018.06
465.195	957.06
465.414	1000.06
465.634	949.06
465.854	948.06
466.073	866.06
466.293	861.06
466.512	960.06
466.732	1058.06
466.951	1053.06
467.171	925.06
467.391	881.06
467.61	858.06
467.829	956.06
468.049	936.06
468.268	892.06
468.488	856.06
468.707	908.06
468.927	1072.06
469.146	1190.06
469.365	1006.06
469.585	979.06
469.804	996.06
470.023	1118.06
470.243	982.06
470.462	910.06
470.681	925.06
470.901	902.06
471.12	967.06
471.339	956.06
471.558	923.06
471.777	919.06
471.997	987.06
472.216	1140.06
472.435	1082.06
472.654	972.06
472.873	930.06
473.092	1019.06
473.311	1070.06
473.53	941.06
473.749	917.06
473.968	980.06
474.187	982.06
474.406	954.06
474.625	932.06
474.844	944.06
475.063	1035.06
475.282	1041.06
475.501	1063.06
475.72	1118.06
475.939	1094.06
476.158	1121.06
476.377	1258.06
476.596	1460.06
476.814	1496.06
477.033	1253.06
477.252	1080.06
477.471	1009.06
477.69	1039.06
477.908	1067.06
478.127	1162.06
478.346	1041.06
478.564	1139.06
478.783	1072.06
479.002	1128.06
479.22	1286.06
479.439	1420.06
479.658	1223.06
479.876	1115.06
480.095	1228.06
480.313	1243.06
480.532	1142.06
480.751	1101.06
480.969	1116.06
481.188	1275.06
481.406	1320.06
481.624	1268.06
481.843	1121.06
482.061	1061.06
482.28	1221.06
482.498	1464.06
482.717	1354.06
482.935	1188.06
483.153	1128.06
483.372	1085.06
483.59	1052.06
483.808	1054.06
484.027	1013.06
484.245	979.06
484.463	981.06
484.681	1055.06
484.9	1102.06
485.118	1195.06
485.336	1128.06
485.554	1048.06
485.772	1108.06
485.99	1157.06
486.209	1234.06
486.427	1248.06
486.645	1191.06
486.863	1246.06
487.081	1243.06
487.299	1386.06
487.517	1341.06
487.735	1230.06
487.953	1249.06
488.171	1284.06
488.389	1192.06
488.607	1120.06
488.825	1144.06
489.043	1291.06
489.261	1508.06
489.479	1573.06
489.696	1312.06
489.914	1186.06
490.132	1136.06
490.35	1124.06
490.568	1150.06
490.786	1121.06
491.003	1140.06
491.221	1170.06
491.439	1128.06
491.657	1157.06
491.874	1238.06
492.092	1496.06
492.31	1814.06
492.527	1729.06
492.745	1517.06
492.963	1296.06
493.18	1316.06
493.398	1316.06
493.615	1288.06
493.833	1256.06
494.05	1252.06
494.268	1270.06
494.485	1240.06
494.703	1197.06
494.92	1269.06
495.138	1222.06
495.355	1248.06
495.573	1235.06
495.79	1383.06
496.008	1832.06
496.225	1602.06
496.442	1386.06
496.66	1366.06
496.877	1433.06
497.094	1402.06
497.312	1322.06
497.529	1328.06
497.746	1330.06
497.963	1376.06
498.181	1466.06
498.398	1604.06
498.615	1650.06
498.832	1719.06
499.049	1705.06
499.267	1517.06
499.484	1574.06
499.701	1636.06
499.918	1744.06
500.135	1844.06
500.352	1878.06
500.569	1948.06
500.786	2036.06
501.003	2020.06
501.22	1822.06
501.437	1692.06
501.654	1670.06
501.871	1656.06
502.088	1660.06
502.305	1499.06
502.522	1507.06
502.739	1519.06
502.956	1392.06
503.172	1377.06
503.389	1316.06
503.606	1267.06
503.823	1321.06
504.04	1316.06
504.256	1348.06
504.473	1378.06
504.69	1368.06
504.907	1381.06
505.123	1395.06
505.34	1450.06
505.557	1412.06
505.773	1330.06
505.99	1307.06
506.207	1377.06
506.423	1283.06
506.64	1208.06
506.856	1273.06
507.073	1405.06
507.289	1336.06
507.506	1339.06
507.722	1411.06
507.939	1442.06
508.155	1485.06
508.372	1294.06
508.588	1278.06
508.805	1258.06
509.021	1225.06
509.238	1191.06
509.454	1176.06
509.67	1176.06
509.887	1205.06
510.103	1316.06
510.319	1340.06
510.536	1182.06
510.752	1114.06
510.968	1060.06
511.184	1053.06
511.401	1042.06
511.617	1041.06
511.833	1032.06
512.049	1064.06
512.265	1102.06
512.481	1153.06
512.698	1251.06
512.914	1385.06
513.13	1230.06
513.346	1134.06
513.562	1206.06
513.778	1172.06
513.994	1144.06
514.21	1238.06
514.426	1227.06
514.642	1154.06
514.858	1152.06
515.074	1184.06
515.29	1261.06
515.506	1380.06
515.721	1334.06
515.937	1260.06
516.153	1187.06
516.369	1146.06
516.585	1202.06
516.801	1381.06
517.016	1610.06
517.232	1564.06
517.448	1567.06
517.664	1374.06
517.879	1294.06
518.095	1227.06
518.311	1298.06
518.527	1293.06
518.742	1414.06
518.958	1516.06
519.173	1401.06
519.389	1388.06
519.605	1409.06
519.82	1515.06
520.036	1784.06
520.251	1714.06
520.467	1599.06
520.682	2408.06
520.898	2951.06
521.113	2765.06
521.329	1741.06
521.544	1520.06
521.76	1537.06
521.975	1337.06
522.19	1258.06
522.406	1292.06
522.621	1445.06
522.836	1538.06
523.052	1569.06
523.267	1304.06
523.482	1305.06
523.698	1381.06
523.913	1372.06
524.128	1228.06
524.343	1155.06
524.559	1208.06
524.774	1144.06
524.989	1164.06
525.204	1190.06
525.419	1337.06
525.634	1227.06
525.849	1274.06
526.064	1280.06
526.28	1290.06
526.495	1510.06
526.71	1530.06
526.925	1377.06
527.14	1436.06
527.355	1387.06
527.57	1142.06
527.785	1196.06
527.999	1127.06
528.214	1056.06
528.429	1067.06
528.644	1091.06
528.859	1008.06
529.074	967.06
529.289	991.06
529.503	984.06
529.718	1013.06
529.933	1176.06
530.148	1221.06
530.363	1048.06
530.577	1024.06
530.792	1008.06
531.007	1000.06
531.221	966.06
531.436	1012.06
531.651	1028.06
531.865	1032.06
532.08	1037.06
532.295	967.06
532.509	1026.06
532.724	1203.06
532.938	1333.06
533.153	1541.06
533.367	1206.06
533.582	1194.06
533.796	1048.06
534.011	1069.06
534.225	1087.06
534.44	1052.06
534.654	1104.06
534.868	1243.06
535.083	1133.06
535.297	1019.06
535.511	1035.06
535.726	1143.06
535.94	1067.06
536.154	1016.06
536.369	990.06
536.583	1020.06
536.797	1042.06
537.011	1044.06
537.225	1141.06
537.44	1188.06
537.654	1020.06
537.868	1003.06
538.082	1011.06
538.296	999.06
538.51	1093.06
538.724	1061.06
538.938	1048.06
539.153	994.06
539.367	976.06
539.581	983.06
539.795	1051.06
540.009	1157.06
540.222	1057.06
540.436	1052.06
540.65	1154.06
540.864	1165.06
541.078	1217.06
541.292	1392.06
541.506	1094.06
541.72	1052.06
541.934	1061.06
542.147	1023.06
542.361	1054.06
542.575	1085.06
542.789	1048.06
543.002	978.06
543.216	1099.06
543.43	951.06
543.644	939.06
543.857	947.06
544.071	920.06
544.285	953.06
544.498	929.06
544.712	939.06
544.925	1002.06
545.139	955.06
545.352	905.06
545.566	918.06
545.779	1075.06
545.993	954.06
546.206	876.06
546.42	887.06
546.633	892.06
546.847	860.06
547.06	869.06
547.274	880.06
547.487	888.06
547.7	986.06
547.914	1019.06
548.127	1110.06
548.34	1106.06
548.554	979.06
548.767	1012.06
548.98	1049.06
549.193	995.06
549.407	1022.06
549.62	1188.06
549.833	1129.06
550.046	1160.06
550.259	1171.06
550.473	1027.06
550.686	983.06
550.899	1003.06
551.112	985.06
551.325	1038.06
551.538	1109.06
551.751	955.06
551.964	918.06
552.177	900.06
552.39	844.06
552.603	916.06
552.816	964.06
553.029	891.06
553.242	892.06
553.455	945.06
553.667	1049.06
553.88	982.06
554.093	906.06
554.306	859.06
554.519	809.06
554.732	792.06
554.944	780.06
555.157	790.06
555.37	784.06
555.583	775.06
555.795	800.06
556.008	813.06
556.221	831.06
556.433	790.06
556.646	772.06
556.859	784.06
557.071	837.06
557.284	821.06
557.496	854.06
557.709	845.06
557.921	793.06
558.134	753.06
558.346	754.06
558.559	768.06
558.771	778.06
558.984	825.06
559.196	789.06
559.409	764.06
559.621	706.06
559.833	702.06
560.046	727.06
560.258	717.06
560.47	758.06
560.683	724.06
560.895	685.06
561.107	676.06
561.32	672.06
561.532	693.06
561.744	766.06
561.956	796.06
562.168	697.06
562.381	696.06
562.593	690.06
562.805	746.06
563.017	726.06
563.229	657.06
563.441	640.06
563.653	650.06
563.865	705.06
564.077	708.06
564.289	671.06
564.501	700.06
564.713	767.06
564.925	740.06
565.137	688.06
565.349	699.06
565.561	702.06
565.773	711.06
565.985	701.06
566.197	770.06
566.408	840.06
566.62	856.06
566.832	844.06
567.044	869.06
567.255	910.06
567.467	982.06
567.679	900.06
567.891	891.06
568.102	891.06
568.314	926.06
568.526	855.06
568.737	836.06
568.949	867.06
569.161	739.06
569.372	699.06
569.584	697.06
569.795	694.06
570.007	700.06
570.218	756.06
570.43	706.06
570.641	697.06
570.853	663.06
571.064	669.06
571.276	712.06
571.487	699.06
571.698	664.06
571.91	678.06
572.121	656.06
572.333	624.06
572.544	616.06
572.755	640.06
572.966	624.06
573.178	621.06
573.389	637.06
573.6	636.06
573.811	636.06
574.023	591.06
574.234	568.06
574.445	582.06
574.656	552.06
574.867	600.06
575.078	590.06
575.289	595.06
575.501	639.06
575.712	594.06
575.923	553.06
576.134	536.06
576.345	541.06
576.556	560.06
576.767	538.06
576.978	533.06
577.188	515.06
577.399	499.06
577.61	544.06
577.821	535.06
578.032	540.06
578.243	567.06
578.454	566.06
578.665	593.06
578.875	566.06
579.086	560.06
579.297	568.06
579.508	579.06
579.718	554.06
579.929	553.06
580.14	542.06
580.35	508.06
580.561	502.06
580.772	494.06
580.982	485.06
581.193	468.06
581.403	476.06
581.614	485.06
581.825	456.06
582.035	454.06
582.246	484.06
582.456	483.06
582.667	480.06
582.877	464.06
583.087	452.06
583.298	484.06
583.508	472.06
583.719	457.06
583.929	477.06
584.139	481.06
584.35	468.06
584.56	468.06
584.77	470.06
584.981	467.06
585.191	469.06
585.401	466.06
585.611	463.06
585.821	519.06
586.032	503.06
586.242	482.06
586.452	470.06
586.662	500.06
586.872	500.06
587.082	491.06
587.292	489.06
587.502	452.06
587.713	453.06
587.923	475.06
588.133	491.06
588.343	462.06
588.553	451.06
588.762	448.06
588.972	468.06
589.182	455.06
589.392	460.06
589.602	447.06
589.812	482.06
590.022	526.06
590.232	508.06
590.441	462.06
590.651	451.06
590.861	466.06
591.071	480.06
591.281	477.06
591.49	434.06
591.7	471.06
591.91	454.06
592.119	458.06
592.329	450.06
592.539	485.06
592.748	479.06
592.958	477.06
593.167	477.06
593.377	500.06
593.587	480.06
593.796	480.06
594.006	481.06
594.215	477.06
594.424	496.06
594.634	503.06
594.843	480.06
595.053	465.06
595.262	437.06
595.472	458.06
595.681	438.06
595.89	416.06
596.1	429.06
596.309	454.06
596.518	427.06
596.727	436.06
596.937	404.06
597.146	429.06
597.355	442.06
597.564	450.06
597.774	409.06
597.983	433.06
598.192	418.06
598.401	415.06
598.61	408.06
598.819	393.06
599.028	413.06
599.237	395.06
599.446	385.06
599.655	382.06
599.864	382.06
600.073	373.06
600.282	376.06
600.491	394.06
600.7	397.06
600.909	414.06
601.118	389.06
601.327	386.06
601.536	392.06
601.745	390.06
601.953	402.06
602.162	392.06
602.371	398.06
602.58	408.06
602.789	387.06
602.997	377.06
603.206	390.06
603.415	381.06
603.623	386.06
603.832	356.06
604.041	373.06
604.249	372.06
604.458	384.06
604.666	376.06
604.875	333.06
605.084	349.06
605.292	351.06
605.501	377.06
605.709	380.06
605.918	368.06
606.126	368.06
606.334	346.06
606.543	359.06
606.751	377.06
606.96	352.06
607.168	338.06
607.376	359.06
607.585	354.06
607.793	349.06
608.001	355.06
608.21	346.06
608.418	349.06
608.626	363.06
608.834	346.06
609.043	336.06
609.251	351.06
609.459	338.06
609.667	352.06
609.875	340.06
610.083	350.06
610.291	349.06
610.499	344.06
610.707	347.06
610.916	332.06
611.124	365.06
611.332	349.06
611.54	333.06
611.748	343.06
611.955	347.06
612.163	361.06
612.371	343.06
612.579	332.06
612.787	320.06
612.995	324.06
613.203	316.06
613.411	316.06
613.618	344.06
613.826	353.06
614.034	366.06
614.242	327.06
614.449	322.06
614.657	339.06
614.865	337.06
615.072	313.06
615.28	308.06
615.488	328.06
615.695	323.06
615.903	326.06
616.111	342.06
616.318	331.06
616.526	322.06
616.733	322.06
616.941	336.06
617.148	331.06
617.356	318.06
617.563	338.06
617.771	310.06
617.978	299.06
618.185	308.06
618.393	334.06
618.6	298.06
618.807	310.06
619.015	299.06
619.222	314.06
619.429	328.06
619.637	317.06
619.844	315.06
620.051	293.06
620.258	322.06
620.466	302.06
620.673	302.06
620.88	287.06
621.087	295.06
621.294	304.06
621.501	301.06
621.708	301.06
621.915	305.06
622.122	297.06
622.329	282.06
622.536	308.06
622.743	292.06
622.95	307.06
623.157	308.06
623.364	299.06
623.571	312.06
623.778	305.06
623.985	318.06
624.192	302.06
624.399	293.06
624.606	290.06
624.812	301.06
625.019	301.06
625.226	335.06
625.433	306.06
625.639	298.06
625.846	267.06
626.053	277.06
626.259	255.06
626.466	286.06
626.673	311.06
626.879	288.06
627.086	276.06
627.293	278.06
627.499	266.06
627.706	286.06
627.912	259.06
628.119	288.06
628.325	274.06
628.532	268.06
628.738	267.06
628.945	265.06
629.151	261.06
629.357	260.06
629.564	256.06
629.77	260.06
629.976	275.06
630.183	248.06
630.389	251.06
630.595	259.06
630.802	269.06
631.008	240.06
631.214	258.06
631.42	249.06
631.627	263.06
631.833	257.06
632.039	259.06
632.245	243.06
632.451	221.06
632.657	235.06
632.863	234.06
633.069	244.06
633.275	240.06
633.481	251.06
633.688	240.06
633.893	240.06
634.099	265.06
634.305	237.06
634.511	250.06
634.717	238.06
634.923	235.06
635.129	219.06
635.335	238.06
635.541	240.06
635.747	257.06
635.952	240.06
636.158	259.06
636.364	241.06
636.57	245.06
636.775	243.06
636.981	240.06
637.187	233.06
637.392	246.06
637.598	220.06
637.804	224.06
638.009	219.06
638.215	234.06
638.421	235.06
638.626	236.06
638.832	219.06
639.037	204.06
639.243	223.06
639.448	221.06
639.654	242.06
639.859	247.06
640.065	224.06
640.27	256.06
640.475	235.06
640.681	218.06
640.886	217.06
641.091	230.06
641.297	227.06
641.502	234.06
641.707	221.06
641.913	224.06
642.118	226.06
642.323	217.06
642.528	219.06
642.733	227.06
642.939	208.06
643.144	224.06
643.349	213.06
643.554	221.06
643.759	226.06
643.964	196.06
644.169	216.06
644.374	227.06
644.579	211.06
644.784	208.06
644.989	203.06
645.194	227.06
645.399	210.06
645.604	205.06
645.809	227.06
646.014	203.06
646.219	230.06
646.423	196.06
646.628	197.06
646.833	211.06
647.038	204.06
647.243	219.06
647.447	244.06
647.652	220.06
647.857	220.06
648.062	206.06
648.266	229.06
648.471	217.06
648.676	213.06
648.88	205.06
649.085	214.06
649.289	226.06
649.494	202.06
649.698	227.06
649.903	217.06
650.107	203.06
650.312	210.06
650.516	199.06
650.721	205.06
650.925	194.06
651.13	206.06
651.334	202.06
651.539	181.06
651.743	189.06
651.947	172.06
652.152	182.06
652.356	183.06
652.56	156.06
652.764	185.06
652.969	168.06
653.173	172.06
653.377	163.06
653.581	176.06
653.785	180.06
653.99	161.06
654.194	163.06
654.398	165.06
654.602	156.06
654.806	172.06
655.01	175.06
655.214	180.06
655.418	164.06
655.622	165.06
655.826	150.06
656.03	164.06
656.234	177.06
656.438	166.06
656.642	168.06
656.846	149.06
657.049	158.06
657.253	141.06
657.457	136.06
657.661	148.06
657.865	134.06
658.068	117.06
658.272	143.06
658.476	125.06
658.68	122.06
658.883	112.06
659.087	119.06
659.291	112.06
659.494	107.06
659.698	128.06
659.901	108.06
660.105	101.06
660.309	97.06
660.512	120.06
660.716	97.06
660.919	109.06
661.123	111.06
661.326	104.06
661.53	100.06
661.733	96.06
661.936	89.06
662.14	91.06
662.343	81.06
662.546	95.06
662.75	97.06
662.953	97.06
663.156	94.06
663.36	91.06
663.563	91.06
663.766	77.06
663.969	88.06
664.173	72.06
664.376	78.06
664.579	91.06
664.782	80.06
664.985	78.06
665.188	94.06
665.391	85.06
665.594	87.06
665.797	73.06
666	101.06
666.203	86.06
666.406	72.06
666.609	89.06
666.812	86.06
667.015	93.06
667.218	86.06
667.421	86.06
667.624	97.06
667.827	92.06
668.03	82.06
668.232	90.06
668.435	100.06
668.638	94.06
668.841	84.06
669.043	89.06
669.246	93.06
669.449	97.06
669.651	70.06
669.854	83.06
670.057	90.06
670.259	85.06
670.462	83.06
670.665	77.06
670.867	84.06
671.07	93.06
671.272	68.06
671.475	78.06
671.677	82.06
671.88	83.06
672.082	94.06
672.284	93.06
672.487	88.06
672.689	83.06
672.892	91.06
