Data from NickelSpatula.Lamp.E10.P2_HRD10591_11-57-35-532.txt Node
Date: Tue Jul 23 11:57:35 EDT 2019
User: cochatt
Spectrometer: HR+D1059
Trigger mode: 1
Integration Time (sec): 1.000000E-1
Scans to average: 1
Electric dark correction enabled: true
Nonlinearity correction enabled: false
Boxcar width: 0
XAxis mode: Wavelengths
Number of Pixels in Spectrum: 2048
>>>>>Begin Spectral Data<<<<<
223.165	-20.56
223.4	-20.56
223.635	-20.56
223.869	-30.56
224.104	-11.56
224.338	-4.56
224.573	-11.56
224.808	-14.56
225.042	-26.56
225.277	3.44
225.511	1.44
225.746	3.44
225.98	0.44
226.215	11.44
226.449	19.44
226.683	23.44
226.918	27.44
227.152	29.44
227.387	21.44
227.621	28.44
227.856	53.44
228.09	51.44
228.324	62.44
228.559	61.44
228.793	93.44
229.027	147.44
229.262	162.44
229.496	166.44
229.73	168.44
229.964	183.44
230.199	208.44
230.433	217.44
230.667	219.44
230.901	219.44
231.136	204.44
231.37	202.44
231.604	224.44
231.838	247.44
232.072	239.44
232.306	245.44
232.541	250.44
232.775	241.44
233.009	239.44
233.243	285.44
233.477	313.44
233.711	351.44
233.945	328.44
234.179	327.44
234.413	358.44
234.647	386.44
234.881	469.44
235.115	418.44
235.349	389.44
235.583	345.44
235.817	341.44
236.051	365.44
236.285	400.44
236.519	467.44
236.753	413.44
236.987	396.44
237.221	387.44
237.455	410.44
237.689	424.44
237.922	461.44
238.156	473.44
238.39	557.44
238.624	645.44
238.858	602.44
239.091	479.44
239.325	501.44
239.559	451.44
239.793	531.44
240.027	649.44
240.26	591.44
240.494	567.44
240.728	585.44
240.961	675.44
241.195	629.44
241.429	639.44
241.662	597.44
241.896	503.44
242.13	465.44
242.363	446.44
242.597	461.44
242.83	542.44
243.064	523.44
243.298	577.44
243.531	640.44
243.765	644.44
243.998	628.44
244.232	587.44
244.465	588.44
244.699	562.44
244.932	633.44
245.166	629.44
245.399	528.44
245.633	535.44
245.866	555.44
246.099	593.44
246.333	697.44
246.566	746.44
246.8	752.44
247.033	681.44
247.266	691.44
247.5	672.44
247.733	663.44
247.966	624.44
248.2	661.44
248.433	727.44
248.666	854.44
248.899	851.44
249.133	837.44
249.366	987.44
249.599	1049.44
249.832	921.44
250.066	823.44
250.299	815.44
250.532	800.44
250.765	795.44
250.998	722.44
251.231	725.44
251.465	778.44
251.698	827.44
251.931	787.44
252.164	812.44
252.397	903.44
252.63	1019.44
252.863	1144.44
253.096	1145.44
253.329	1093.44
253.562	1073.44
253.795	1193.44
254.028	1344.44
254.261	1379.44
254.494	1229.44
254.727	1100.44
254.96	1085.44
255.193	1135.44
255.426	1111.44
255.659	852.44
255.892	798.44
256.124	844.44
256.357	1011.44
256.59	1212.44
256.823	1127.44
257.056	972.44
257.289	915.44
257.521	955.44
257.754	1118.44
257.987	1281.44
258.22	1082.44
258.452	987.44
258.685	1121.44
258.918	1255.44
259.151	1228.44
259.383	1281.44
259.616	1473.44
259.849	1516.44
260.081	1706.44
260.314	1854.44
260.547	1426.44
260.779	1465.44
261.012	1686.44
261.244	1563.44
261.477	1606.44
261.71	1489.44
261.942	1254.44
262.175	1262.44
262.407	1192.44
262.64	1251.44
262.872	1458.44
263.105	1625.44
263.337	1692.44
263.57	1484.44
263.802	1010.44
264.035	897.44
264.267	851.44
264.499	741.44
264.732	700.44
264.964	704.44
265.197	708.44
265.429	768.44
265.661	795.44
265.894	845.44
266.126	896.44
266.358	1014.44
266.591	1257.44
266.823	1468.44
267.055	1389.44
267.287	1210.44
267.52	1228.44
267.752	1268.44
267.984	1376.44
268.216	1373.44
268.448	1085.44
268.681	1105.44
268.913	1219.44
269.145	1265.44
269.377	1294.44
269.609	1293.44
269.841	1210.44
270.073	1307.44
270.306	1366.44
270.538	1394.44
270.77	1399.44
271.002	1391.44
271.234	1476.44
271.466	1445.44
271.698	1395.44
271.93	1404.44
272.162	1409.44
272.394	1415.44
272.626	1345.44
272.858	1417.44
273.09	1463.44
273.322	1270.44
273.553	1257.44
273.785	1485.44
274.017	1919.44
274.249	2386.44
274.481	2500.44
274.713	2689.44
274.945	3085.44
275.176	3175.44
275.408	2737.44
275.64	2580.44
275.872	2588.44
276.104	2209.44
276.335	1861.44
276.567	1876.44
276.799	1905.44
277.031	2005.44
277.262	1560.44
277.494	1226.44
277.726	1173.44
277.957	1287.44
278.189	1435.44
278.421	1415.44
278.652	1417.44
278.884	1329.44
279.115	1259.44
279.347	1166.44
279.579	1175.44
279.81	1167.44
280.042	1215.44
280.273	1210.44
280.505	1125.44
280.736	996.44
280.968	1011.44
281.199	1077.44
281.431	1201.44
281.662	1228.44
281.894	1162.44
282.125	1254.44
282.356	1316.44
282.588	1387.44
282.819	1232.44
283.051	1350.44
283.282	1632.44
283.513	1883.44
283.745	2140.44
283.976	2134.44
284.207	1988.44
284.439	2072.44
284.67	1963.44
284.901	1728.44
285.132	1900.44
285.364	2015.44
285.595	1843.44
285.826	1960.44
286.057	1983.44
286.288	1942.44
286.52	1940.44
286.751	2113.44
286.982	2036.44
287.213	1772.44
287.444	1733.44
287.675	1792.44
287.906	1783.44
288.138	1539.44
288.369	1349.44
288.6	1281.44
288.831	1296.44
289.062	1538.44
289.293	1667.44
289.524	1591.44
289.755	1581.44
289.986	1615.44
290.217	1424.44
290.448	1097.44
290.679	951.44
290.91	890.44
291.141	916.44
291.371	960.44
291.602	968.44
291.833	980.44
292.064	1044.44
292.295	1189.44
292.526	1383.44
292.757	1437.44
292.987	1507.44
293.218	1557.44
293.449	1583.44
293.68	1676.44
293.91	1597.44
294.141	1621.44
294.372	1509.44
294.603	1391.44
294.833	1542.44
295.064	1845.44
295.295	1739.44
295.525	1297.44
295.756	1103.44
295.987	1012.44
296.217	1004.44
296.448	1035.44
296.679	1065.44
296.909	1204.44
297.14	1275.44
297.37	1389.44
297.601	1301.44
297.831	1167.44
298.062	1223.44
298.292	1408.44
298.523	1557.44
298.753	1718.44
298.984	1537.44
299.214	1231.44
299.445	1041.44
299.675	997.44
299.905	1017.44
300.136	1035.44
300.366	1147.44
300.597	1117.44
300.827	985.44
301.057	949.44
301.288	1024.44
301.518	1043.44
301.748	1169.44
301.979	1267.44
302.209	1363.44
302.439	1380.44
302.669	1203.44
302.9	1205.44
303.13	1094.44
303.36	1076.44
303.59	1031.44
303.82	1073.44
304.051	1196.44
304.281	1289.44
304.511	1264.44
304.741	1118.44
304.971	1177.44
305.201	1267.44
305.431	1203.44
305.661	1025.44
305.891	1005.44
306.121	1025.44
306.352	937.44
306.582	835.44
306.812	839.44
307.042	829.44
307.272	799.44
307.502	782.44
307.731	875.44
307.961	898.44
308.191	817.44
308.421	779.44
308.651	766.44
308.881	739.44
309.111	736.44
309.341	781.44
309.571	869.44
309.8	901.44
310.03	912.44
310.26	931.44
310.49	955.44
310.72	852.44
310.949	841.44
311.179	861.44
311.409	895.44
311.639	1045.44
311.868	1370.44
312.098	1740.44
312.328	1898.44
312.557	1817.44
312.787	1845.44
313.017	1611.44
313.246	1777.44
313.476	1933.44
313.706	1556.44
313.935	1258.44
314.165	1047.44
314.394	939.44
314.624	969.44
314.853	988.44
315.083	1037.44
315.312	973.44
315.542	967.44
315.771	908.44
316.001	842.44
316.23	829.44
316.46	821.44
316.689	842.44
316.919	864.44
317.148	857.44
317.377	853.44
317.607	863.44
317.836	929.44
318.065	1073.44
318.295	1197.44
318.524	1112.44
318.753	955.44
318.983	900.44
319.212	894.44
319.441	1026.44
319.67	1100.44
319.9	1166.44
320.129	1119.44
320.358	963.44
320.587	935.44
320.816	997.44
321.046	1131.44
321.275	1285.44
321.504	1289.44
321.733	1235.44
321.962	1187.44
322.191	1106.44
322.42	1061.44
322.649	1078.44
322.878	1179.44
323.108	1144.44
323.337	1080.44
323.566	1077.44
323.795	1029.44
324.024	962.44
324.253	951.44
324.482	929.44
324.71	1001.44
324.939	1157.44
325.168	1084.44
325.397	899.44
325.626	890.44
325.855	900.44
326.084	887.44
326.313	863.44
326.542	819.44
326.77	831.44
326.999	876.44
327.228	924.44
327.457	976.44
327.686	991.44
327.914	873.44
328.143	791.44
328.372	824.44
328.6	803.44
328.829	833.44
329.058	864.44
329.287	853.44
329.515	905.44
329.744	860.44
329.972	816.44
330.201	799.44
330.43	820.44
330.658	948.44
330.887	1046.44
331.115	993.44
331.344	987.44
331.572	927.44
331.801	893.44
332.03	859.44
332.258	864.44
332.486	953.44
332.715	943.44
332.943	896.44
333.172	866.44
333.4	934.44
333.629	1024.44
333.857	1095.44
334.085	1082.44
334.314	1095.44
334.542	1043.44
334.771	935.44
334.999	919.44
335.227	929.44
335.455	943.44
335.684	1021.44
335.912	1175.44
336.14	1280.44
336.369	1203.44
336.597	1188.44
336.825	1390.44
337.053	1504.44
337.281	1228.44
337.51	974.44
337.738	950.44
337.966	1016.44
338.194	1135.44
338.422	1076.44
338.65	928.44
338.878	872.44
339.106	900.44
339.334	991.44
339.562	1054.44
339.79	955.44
340.018	971.44
340.246	1015.44
340.474	1132.44
340.702	1240.44
340.93	1318.44
341.158	1307.44
341.386	1062.44
341.614	1074.44
341.842	1081.44
342.07	1109.44
342.298	1302.44
342.526	1340.44
342.754	1137.44
342.981	1067.44
343.209	1029.44
343.437	1101.44
343.665	1166.44
343.893	1153.44
344.12	1337.44
344.348	1514.44
344.576	1385.44
344.804	1155.44
345.031	1007.44
345.259	963.44
345.487	961.44
345.714	1003.44
345.942	1062.44
346.17	1114.44
346.397	1095.44
346.625	979.44
346.853	913.44
347.08	895.44
347.308	956.44
347.535	1031.44
347.763	1109.44
347.99	958.44
348.218	872.44
348.445	959.44
348.673	931.44
348.9	928.44
349.128	1011.44
349.355	1074.44
349.583	1027.44
349.81	971.44
350.037	889.44
350.265	839.44
350.492	800.44
350.72	769.44
350.947	822.44
351.174	839.44
351.402	919.44
351.629	947.44
351.856	929.44
352.083	849.44
352.311	895.44
352.538	1033.44
352.765	1107.44
352.992	980.44
353.22	947.44
353.447	956.44
353.674	907.44
353.901	937.44
354.128	932.44
354.355	973.44
354.583	926.44
354.81	933.44
355.037	970.44
355.264	962.44
355.491	1043.44
355.718	1114.44
355.945	1090.44
356.172	1040.44
356.399	1064.44
356.626	1283.44
356.853	1526.44
357.08	1627.44
357.307	1655.44
357.534	1289.44
357.761	1331.44
357.988	1681.44
358.215	1914.44
358.441	1812.44
358.668	1557.44
358.895	1439.44
359.122	1151.44
359.349	1154.44
359.576	1263.44
359.802	1041.44
360.029	915.44
360.256	1012.44
360.483	1209.44
360.709	1537.44
360.936	1543.44
361.163	1370.44
361.39	1076.44
361.616	1028.44
361.843	1164.44
362.07	1404.44
362.296	1295.44
362.523	1033.44
362.749	889.44
362.976	977.44
363.203	1149.44
363.429	1305.44
363.656	1010.44
363.882	938.44
364.109	955.44
364.335	962.44
364.562	937.44
364.788	1060.44
365.015	1242.44
365.241	1119.44
365.468	937.44
365.694	835.44
365.92	813.44
366.147	793.44
366.373	763.44
366.599	781.44
366.826	792.44
367.052	813.44
367.278	817.44
367.505	792.44
367.731	870.44
367.957	971.44
368.184	978.44
368.41	972.44
368.636	986.44
368.862	1002.44
369.089	991.44
369.315	891.44
369.541	879.44
369.767	844.44
369.993	840.44
370.219	832.44
370.445	877.44
370.672	973.44
370.898	1058.44
371.124	1022.44
371.35	905.44
371.576	869.44
371.802	961.44
372.028	1136.44
372.254	1285.44
372.48	1100.44
372.706	972.44
372.932	1029.44
373.158	1077.44
373.384	1273.44
373.61	1705.44
373.835	1785.44
374.061	1314.44
374.287	1109.44
374.513	1308.44
374.739	1548.44
374.965	1629.44
375.191	1564.44
375.416	1125.44
375.642	987.44
375.868	1146.44
376.094	1255.44
376.319	1084.44
376.545	1220.44
376.771	1283.44
376.997	1128.44
377.222	843.44
377.448	732.44
377.674	758.44
377.899	736.44
378.125	743.44
378.35	743.44
378.576	748.44
378.802	835.44
379.027	885.44
379.253	862.44
379.478	897.44
379.704	985.44
379.929	1031.44
380.155	1037.44
380.38	904.44
380.606	973.44
380.831	1083.44
381.057	993.44
381.282	949.44
381.507	1135.44
381.733	1375.44
381.958	1435.44
382.184	1545.44
382.409	1617.44
382.634	1590.44
382.86	1653.44
383.085	1343.44
383.31	1077.44
383.535	1151.44
383.761	1182.44
383.986	1103.44
384.211	1312.44
384.436	1263.44
384.662	1003.44
384.887	971.44
385.112	971.44
385.337	997.44
385.562	925.44
385.787	1051.44
386.013	1155.44
386.238	1156.44
386.463	947.44
386.688	959.44
386.913	902.44
387.138	849.44
387.363	933.44
387.588	949.44
387.813	946.44
388.038	1052.44
388.263	961.44
388.488	940.44
388.713	1083.44
388.938	1173.44
389.163	984.44
389.387	877.44
389.612	904.44
389.837	917.44
390.062	924.44
390.287	967.44
390.512	997.44
390.736	895.44
390.961	878.44
391.186	824.44
391.411	812.44
391.636	841.44
391.86	904.44
392.085	980.44
392.31	973.44
392.534	941.44
392.759	953.44
392.984	960.44
393.208	944.44
393.433	849.44
393.658	808.44
393.882	776.44
394.107	789.44
394.331	792.44
394.556	744.44
394.78	799.44
395.005	801.44
395.229	845.44
395.454	855.44
395.678	860.44
395.903	907.44
396.127	875.44
396.352	885.44
396.576	945.44
396.801	971.44
397.025	1065.44
397.249	1102.44
397.474	891.44
397.698	899.44
397.922	952.44
398.147	899.44
398.371	905.44
398.595	937.44
398.82	904.44
399.044	923.44
399.268	980.44
399.492	1018.44
399.717	1025.44
399.941	1079.44
400.165	1036.44
400.389	1017.44
400.613	1024.44
400.837	995.44
401.062	892.44
401.286	881.44
401.51	895.44
401.734	900.44
401.958	912.44
402.182	879.44
402.406	891.44
402.63	906.44
402.854	925.44
403.078	1070.44
403.302	1249.44
403.526	1299.44
403.75	1171.44
403.974	1060.44
404.198	1068.44
404.422	1187.44
404.645	1358.44
404.869	1489.44
405.093	1147.44
405.317	982.44
405.541	984.44
405.765	983.44
405.988	984.44
406.212	1081.44
406.436	1263.44
406.66	1375.44
406.883	1102.44
407.107	1137.44
407.331	1288.44
407.555	1245.44
407.778	1066.44
408.002	1059.44
408.226	1016.44
408.449	1034.44
408.673	996.44
408.896	907.44
409.12	890.44
409.344	909.44
409.567	911.44
409.791	880.44
410.014	859.44
410.238	886.44
410.461	892.44
410.685	890.44
410.908	901.44
411.132	917.44
411.355	919.44
411.578	933.44
411.802	924.44
412.025	961.44
412.249	977.44
412.472	927.44
412.695	929.44
412.919	937.44
413.142	961.44
413.365	1010.44
413.589	1040.44
413.812	910.44
414.035	912.44
414.258	943.44
414.482	1011.44
414.705	1012.44
414.928	898.44
415.151	842.44
415.374	885.44
415.597	872.44
415.821	914.44
416.044	889.44
416.267	888.44
416.49	889.44
416.713	847.44
416.936	846.44
417.159	878.44
417.382	905.44
417.605	861.44
417.828	903.44
418.051	917.44
418.274	916.44
418.497	921.44
418.72	899.44
418.943	923.44
419.166	963.44
419.389	1029.44
419.611	975.44
419.834	977.44
420.057	1112.44
420.28	1097.44
420.503	1014.44
420.726	888.44
420.948	847.44
421.171	873.44
421.394	883.44
421.617	869.44
421.839	875.44
422.062	916.44
422.285	889.44
422.507	918.44
422.73	952.44
422.953	961.44
423.175	931.44
423.398	963.44
423.621	1006.44
423.843	1020.44
424.066	983.44
424.288	892.44
424.511	871.44
424.733	891.44
424.956	929.44
425.178	1050.44
425.401	1180.44
425.623	1320.44
425.846	1105.44
426.068	972.44
426.291	1066.44
426.513	987.44
426.735	904.44
426.958	963.44
427.18	1121.44
427.402	1424.44
427.625	1399.44
427.847	1163.44
428.069	915.44
428.292	873.44
428.514	871.44
428.736	844.44
428.958	920.44
429.181	1128.44
429.403	969.44
429.625	867.44
429.847	867.44
430.069	867.44
430.292	892.44
430.514	877.44
430.736	961.44
430.958	1142.44
431.18	1049.44
431.402	829.44
431.624	836.44
431.846	811.44
432.068	770.44
432.29	807.44
432.512	891.44
432.734	1199.44
432.956	1111.44
433.178	864.44
433.4	836.44
433.622	850.44
433.844	845.44
434.066	899.44
434.287	876.44
434.509	864.44
434.731	905.44
434.953	863.44
435.175	917.44
435.397	1016.44
435.618	872.44
435.84	811.44
436.062	823.44
436.284	797.44
436.505	795.44
436.727	788.44
436.949	791.44
437.17	811.44
437.392	857.44
437.614	812.44
437.835	820.44
438.057	832.44
438.278	967.44
438.5	1348.44
438.721	1297.44
438.943	918.44
439.165	793.44
439.386	783.44
439.608	802.44
439.829	775.44
440.05	807.44
440.272	850.44
440.493	975.44
440.715	1193.44
440.936	970.44
441.158	851.44
441.379	847.44
441.6	965.44
441.822	984.44
442.043	880.44
442.264	874.44
442.486	872.44
442.707	872.44
442.928	835.44
443.149	876.44
443.371	887.44
443.592	936.44
443.813	928.44
444.034	913.44
444.255	872.44
444.476	948.44
444.698	936.44
444.919	921.44
445.14	1028.44
445.361	1000.44
445.582	935.44
445.803	938.44
446.024	947.44
446.245	933.44
446.466	902.44
446.687	871.44
446.908	875.44
447.129	826.44
447.35	801.44
447.571	797.44
447.792	777.44
448.013	775.44
448.234	772.44
448.455	795.44
448.675	762.44
448.896	800.44
449.117	805.44
449.338	810.44
449.559	813.44
449.779	859.44
450	853.44
450.221	806.44
450.442	788.44
450.662	780.44
450.883	781.44
451.104	786.44
451.324	789.44
451.545	795.44
451.766	803.44
451.986	746.44
452.207	759.44
452.428	771.44
452.648	758.44
452.869	799.44
453.089	826.44
453.31	819.44
453.53	734.44
453.751	743.44
453.971	744.44
454.192	753.44
454.412	789.44
454.633	776.44
454.853	731.44
455.073	724.44
455.294	704.44
455.514	721.44
455.734	741.44
455.955	811.44
456.175	823.44
456.395	738.44
456.616	722.44
456.836	702.44
457.056	697.44
457.276	700.44
457.497	725.44
457.717	726.44
457.937	725.44
458.157	697.44
458.377	726.44
458.598	738.44
458.818	771.44
459.038	793.44
459.258	829.44
459.478	852.44
459.698	907.44
459.918	891.44
460.138	871.44
460.358	873.44
460.578	885.44
460.798	883.44
461.018	868.44
461.238	862.44
461.458	857.44
461.678	882.44
461.898	919.44
462.118	928.44
462.338	918.44
462.558	931.44
462.777	966.44
462.997	1002.44
463.217	993.44
463.437	1021.44
463.657	1017.44
463.876	952.44
464.096	947.44
464.316	948.44
464.536	973.44
464.755	985.44
464.975	1025.44
465.195	945.44
465.414	977.44
465.634	923.44
465.854	904.44
466.073	879.44
466.293	865.44
466.512	900.44
466.732	1007.44
466.951	1015.44
467.171	921.44
467.391	880.44
467.61	857.44
467.829	924.44
468.049	932.44
468.268	878.44
468.488	863.44
468.707	903.44
468.927	1078.44
469.146	1109.44
469.365	1012.44
469.585	963.44
469.804	994.44
470.023	1118.44
470.243	937.44
470.462	902.44
470.681	899.44
470.901	907.44
471.12	961.44
471.339	943.44
471.558	904.44
471.777	914.44
471.997	973.44
472.216	1084.44
472.435	1053.44
472.654	951.44
472.873	943.44
473.092	972.44
473.311	1040.44
473.53	946.44
473.749	945.44
473.968	975.44
474.187	961.44
474.406	939.44
474.625	899.44
474.844	915.44
475.063	1026.44
475.282	1002.44
475.501	1059.44
475.72	1115.44
475.939	1092.44
476.158	1098.44
476.377	1251.44
476.596	1437.44
476.814	1484.44
477.033	1228.44
477.252	1055.44
477.471	992.44
477.69	1010.44
477.908	1103.44
478.127	1113.44
478.346	1024.44
478.564	1107.44
478.783	1059.44
479.002	1072.44
479.22	1269.44
479.439	1407.44
479.658	1220.44
479.876	1096.44
480.095	1184.44
480.313	1197.44
480.532	1127.44
480.751	1079.44
480.969	1099.44
481.188	1248.44
481.406	1342.44
481.624	1226.44
481.843	1120.44
482.061	1049.44
482.28	1172.44
482.498	1443.44
482.717	1369.44
482.935	1188.44
483.153	1075.44
483.372	1065.44
483.59	1065.44
483.808	1045.44
484.027	1034.44
484.245	1003.44
484.463	951.44
484.681	997.44
484.9	1084.44
485.118	1164.44
485.336	1082.44
485.554	1026.44
485.772	1073.44
485.99	1155.44
486.209	1213.44
486.427	1193.44
486.645	1165.44
486.863	1224.44
487.081	1181.44
487.299	1308.44
487.517	1303.44
487.735	1191.44
487.953	1224.44
488.171	1286.44
488.389	1181.44
488.607	1097.44
488.825	1149.44
489.043	1267.44
489.261	1402.44
489.479	1487.44
489.696	1264.44
489.914	1177.44
490.132	1080.44
490.35	1122.44
490.568	1105.44
490.786	1109.44
491.003	1120.44
491.221	1157.44
491.439	1130.44
491.657	1119.44
491.874	1230.44
492.092	1444.44
492.31	1707.44
492.527	1673.44
492.745	1466.44
492.963	1320.44
493.18	1275.44
493.398	1294.44
493.615	1260.44
493.833	1228.44
494.05	1218.44
494.268	1210.44
494.485	1211.44
494.703	1213.44
494.92	1226.44
495.138	1184.44
495.355	1222.44
495.573	1228.44
495.79	1378.44
496.008	1729.44
496.225	1520.44
496.442	1322.44
496.66	1326.44
496.877	1397.44
497.094	1385.44
497.312	1285.44
497.529	1292.44
497.746	1283.44
497.963	1348.44
498.181	1472.44
498.398	1568.44
498.615	1602.44
498.832	1658.44
499.049	1714.44
499.267	1547.44
499.484	1530.44
499.701	1598.44
499.918	1730.44
500.135	1856.44
500.352	1880.44
500.569	1954.44
500.786	1995.44
501.003	2006.44
501.22	1791.44
501.437	1678.44
501.654	1641.44
501.871	1617.44
502.088	1607.44
502.305	1503.44
502.522	1465.44
502.739	1523.44
502.956	1367.44
503.172	1338.44
503.389	1299.44
503.606	1277.44
503.823	1287.44
504.04	1309.44
504.256	1298.44
504.473	1354.44
504.69	1341.44
504.907	1389.44
505.123	1351.44
505.34	1457.44
505.557	1451.44
505.773	1325.44
505.99	1289.44
506.207	1343.44
506.423	1243.44
506.64	1196.44
506.856	1241.44
507.073	1368.44
507.289	1310.44
507.506	1320.44
507.722	1408.44
507.939	1406.44
508.155	1417.44
508.372	1296.44
508.588	1316.44
508.805	1230.44
509.021	1231.44
509.238	1165.44
509.454	1151.44
509.67	1164.44
509.887	1169.44
510.103	1313.44
510.319	1300.44
510.536	1160.44
510.752	1062.44
510.968	1043.44
511.184	1007.44
511.401	1018.44
511.617	1031.44
511.833	1055.44
512.049	1053.44
512.265	1049.44
512.481	1111.44
512.698	1225.44
512.914	1316.44
513.13	1227.44
513.346	1110.44
513.562	1143.44
513.778	1142.44
513.994	1152.44
514.21	1209.44
514.426	1180.44
514.642	1141.44
514.858	1130.44
515.074	1167.44
515.29	1255.44
515.506	1416.44
515.721	1333.44
515.937	1216.44
516.153	1144.44
516.369	1139.44
516.585	1204.44
516.801	1348.44
517.016	1560.44
517.232	1481.44
517.448	1510.44
517.664	1341.44
517.879	1276.44
518.095	1257.44
518.311	1258.44
518.527	1259.44
518.742	1353.44
518.958	1439.44
519.173	1393.44
519.389	1332.44
519.605	1353.44
519.82	1437.44
520.036	1711.44
520.251	1715.44
520.467	1547.44
520.682	2247.44
520.898	2749.44
521.113	2613.44
521.329	1644.44
521.544	1475.44
521.76	1481.44
521.975	1322.44
522.19	1290.44
522.406	1325.44
522.621	1439.44
522.836	1497.44
523.052	1505.44
523.267	1279.44
523.482	1239.44
523.698	1347.44
523.913	1331.44
524.128	1181.44
524.343	1157.44
524.559	1176.44
524.774	1116.44
524.989	1127.44
525.204	1191.44
525.419	1287.44
525.634	1223.44
525.849	1216.44
526.064	1220.44
526.28	1217.44
526.495	1464.44
526.71	1443.44
526.925	1285.44
527.14	1346.44
527.355	1309.44
527.57	1103.44
527.785	1149.44
527.999	1104.44
528.214	1035.44
528.429	1056.44
528.644	1053.44
528.859	975.44
529.074	989.44
529.289	977.44
529.503	1002.44
529.718	1013.44
529.933	1142.44
530.148	1146.44
530.363	1027.44
530.577	996.44
530.792	964.44
531.007	982.44
531.221	947.44
531.436	998.44
531.651	971.44
531.865	993.44
532.08	1023.44
532.295	984.44
532.509	1029.44
532.724	1135.44
532.938	1258.44
533.153	1449.44
533.367	1178.44
533.582	1143.44
533.796	1080.44
534.011	1030.44
534.225	1010.44
534.44	1040.44
534.654	1069.44
534.868	1236.44
535.083	1098.44
535.297	1021.44
535.511	994.44
535.726	1137.44
535.94	1071.44
536.154	998.44
536.369	1002.44
536.583	961.44
536.797	976.44
537.011	1031.44
537.225	1083.44
537.44	1122.44
537.654	989.44
537.868	988.44
538.082	1041.44
538.296	1007.44
538.51	1044.44
538.724	1057.44
538.938	1040.44
539.153	957.44
539.367	977.44
539.581	976.44
539.795	1014.44
540.009	1129.44
540.222	1011.44
540.436	1049.44
540.65	1116.44
540.864	1152.44
541.078	1142.44
541.292	1322.44
541.506	1097.44
541.72	1064.44
541.934	1017.44
542.147	1043.44
542.361	1001.44
542.575	1055.44
542.789	1011.44
543.002	926.44
543.216	1029.44
543.43	942.44
543.644	911.44
543.857	897.44
544.071	918.44
544.285	931.44
544.498	900.44
544.712	904.44
544.925	965.44
545.139	961.44
545.352	865.44
545.566	919.44
545.779	1030.44
545.993	949.44
546.206	844.44
546.42	850.44
546.633	880.44
546.847	861.44
547.06	873.44
547.274	833.44
547.487	880.44
547.7	943.44
547.914	1000.44
548.127	1119.44
548.34	1096.44
548.554	950.44
548.767	983.44
548.98	1027.44
549.193	950.44
549.407	985.44
549.62	1126.44
549.833	1104.44
550.046	1163.44
550.259	1172.44
550.473	1031.44
550.686	968.44
550.899	979.44
551.112	966.44
551.325	1027.44
551.538	1092.44
551.751	923.44
551.964	895.44
552.177	915.44
552.39	845.44
552.603	882.44
552.816	933.44
553.029	881.44
553.242	868.44
553.455	928.44
553.667	1025.44
553.88	945.44
554.093	882.44
554.306	831.44
554.519	824.44
554.732	779.44
554.944	756.44
555.157	756.44
555.37	735.44
555.583	786.44
555.795	769.44
556.008	788.44
556.221	823.44
556.433	787.44
556.646	755.44
556.859	788.44
557.071	804.44
557.284	796.44
557.496	826.44
557.709	802.44
557.921	771.44
558.134	734.44
558.346	716.44
558.559	727.44
558.771	771.44
558.984	804.44
559.196	761.44
559.409	729.44
559.621	713.44
559.833	717.44
560.046	700.44
560.258	716.44
560.47	759.44
560.683	726.44
560.895	683.44
561.107	682.44
561.32	666.44
561.532	668.44
561.744	728.44
561.956	768.44
562.168	695.44
562.381	694.44
562.593	732.44
562.805	731.44
563.017	674.44
563.229	672.44
563.441	643.44
563.653	682.44
563.865	694.44
564.077	676.44
564.289	683.44
564.501	672.44
564.713	723.44
564.925	725.44
565.137	663.44
565.349	703.44
565.561	695.44
565.773	686.44
565.985	711.44
566.197	761.44
566.408	843.44
566.62	827.44
566.832	826.44
567.044	828.44
567.255	900.44
567.467	943.44
567.679	885.44
567.891	849.44
568.102	894.44
568.314	920.44
568.526	843.44
568.737	809.44
568.949	871.44
569.161	769.44
569.372	679.44
569.584	714.44
569.795	679.44
570.007	682.44
570.218	736.44
570.43	697.44
570.641	675.44
570.853	682.44
571.064	655.44
571.276	673.44
571.487	703.44
571.698	668.44
571.91	661.44
572.121	650.44
572.333	651.44
572.544	611.44
572.755	620.44
572.966	609.44
573.178	623.44
573.389	651.44
573.6	636.44
573.811	627.44
574.023	587.44
574.234	568.44
574.445	588.44
574.656	577.44
574.867	580.44
575.078	576.44
575.289	576.44
575.501	618.44
575.712	572.44
575.923	556.44
576.134	537.44
576.345	553.44
576.556	560.44
576.767	543.44
576.978	515.44
577.188	528.44
577.399	531.44
577.61	522.44
577.821	529.44
578.032	545.44
578.243	566.44
578.454	565.44
578.665	559.44
578.875	556.44
579.086	554.44
579.297	539.44
579.508	547.44
579.718	581.44
579.929	532.44
580.14	515.44
580.35	490.44
580.561	481.44
580.772	501.44
580.982	486.44
581.193	467.44
581.403	473.44
581.614	483.44
581.825	477.44
582.035	456.44
582.246	475.44
582.456	458.44
582.667	479.44
582.877	492.44
583.087	473.44
583.298	448.44
583.508	473.44
583.719	450.44
583.929	438.44
584.139	463.44
584.35	456.44
584.56	500.44
584.77	461.44
584.981	478.44
585.191	473.44
585.401	465.44
585.611	488.44
585.821	499.44
586.032	490.44
586.242	470.44
586.452	481.44
586.662	472.44
586.872	507.44
587.082	481.44
587.292	459.44
587.502	460.44
587.713	461.44
587.923	453.44
588.133	481.44
588.343	476.44
588.553	475.44
588.762	457.44
588.972	473.44
589.182	448.44
589.392	451.44
589.602	462.44
589.812	481.44
590.022	501.44
590.232	507.44
590.441	454.44
590.651	453.44
590.861	465.44
591.071	465.44
591.281	441.44
591.49	435.44
591.7	454.44
591.91	480.44
592.119	453.44
592.329	455.44
592.539	444.44
592.748	459.44
592.958	457.44
593.167	476.44
593.377	472.44
593.587	468.44
593.796	461.44
594.006	468.44
594.215	464.44
594.424	490.44
594.634	499.44
594.843	457.44
595.053	449.44
595.262	442.44
595.472	447.44
595.681	427.44
595.89	420.44
596.1	428.44
596.309	442.44
596.518	419.44
596.727	408.44
596.937	431.44
597.146	429.44
597.355	471.44
597.564	445.44
597.774	419.44
597.983	405.44
598.192	415.44
598.401	389.44
598.61	376.44
598.819	392.44
599.028	395.44
599.237	400.44
599.446	379.44
599.655	381.44
599.864	371.44
600.073	380.44
600.282	379.44
600.491	374.44
600.7	371.44
600.909	381.44
601.118	355.44
601.327	373.44
601.536	373.44
601.745	392.44
601.953	394.44
602.162	385.44
602.371	405.44
602.58	404.44
602.789	375.44
602.997	373.44
603.206	369.44
603.415	365.44
603.623	335.44
603.832	353.44
604.041	346.44
604.249	362.44
604.458	396.44
604.666	373.44
604.875	333.44
605.084	345.44
605.292	345.44
605.501	339.44
605.709	374.44
605.918	353.44
606.126	341.44
606.334	367.44
606.543	356.44
606.751	353.44
606.96	345.44
607.168	323.44
607.376	345.44
607.585	341.44
607.793	362.44
608.001	337.44
608.21	367.44
608.418	367.44
608.626	358.44
608.834	364.44
609.043	345.44
609.251	331.44
609.459	326.44
609.667	328.44
609.875	344.44
610.083	334.44
610.291	349.44
610.499	352.44
610.707	348.44
610.916	326.44
611.124	343.44
611.332	318.44
611.54	343.44
611.748	331.44
611.955	328.44
612.163	333.44
612.371	336.44
612.579	329.44
612.787	338.44
612.995	336.44
613.203	325.44
613.411	327.44
613.618	332.44
613.826	368.44
614.034	355.44
614.242	343.44
614.449	319.44
614.657	331.44
614.865	312.44
615.072	327.44
615.28	333.44
615.488	329.44
615.695	324.44
615.903	323.44
616.111	306.44
616.318	337.44
616.526	349.44
616.733	325.44
616.941	298.44
617.148	305.44
617.356	305.44
617.563	320.44
617.771	315.44
617.978	316.44
618.185	299.44
618.393	332.44
618.6	332.44
618.807	313.44
619.015	324.44
619.222	321.44
619.429	328.44
619.637	319.44
619.844	291.44
620.051	301.44
620.258	292.44
620.466	296.44
620.673	303.44
620.88	292.44
621.087	277.44
621.294	293.44
621.501	299.44
621.708	294.44
621.915	300.44
622.122	298.44
622.329	303.44
622.536	293.44
622.743	297.44
622.95	269.44
623.157	289.44
623.364	307.44
623.571	303.44
623.778	306.44
623.985	294.44
624.192	316.44
624.399	292.44
624.606	297.44
624.812	298.44
625.019	300.44
625.226	313.44
625.433	308.44
625.639	285.44
625.846	292.44
626.053	292.44
626.259	270.44
626.466	266.44
626.673	309.44
626.879	288.44
627.086	278.44
627.293	281.44
627.499	271.44
627.706	274.44
627.912	282.44
628.119	270.44
628.325	250.44
628.532	263.44
628.738	267.44
628.945	273.44
629.151	267.44
629.357	261.44
629.564	245.44
629.77	269.44
629.976	244.44
630.183	263.44
630.389	269.44
630.595	245.44
630.802	256.44
631.008	264.44
631.214	249.44
631.42	244.44
631.627	244.44
631.833	252.44
632.039	256.44
632.245	239.44
632.451	240.44
632.657	256.44
632.863	238.44
633.069	241.44
633.275	243.44
633.481	245.44
633.688	237.44
633.893	251.44
634.099	236.44
634.305	235.44
634.511	244.44
634.717	248.44
634.923	232.44
635.129	232.44
635.335	231.44
635.541	235.44
635.747	217.44
635.952	229.44
636.158	235.44
636.364	239.44
636.57	232.44
636.775	245.44
636.981	236.44
637.187	239.44
637.392	228.44
637.598	241.44
637.804	226.44
638.009	251.44
638.215	231.44
638.421	213.44
638.626	209.44
638.832	228.44
639.037	216.44
639.243	221.44
639.448	236.44
639.654	230.44
639.859	253.44
640.065	228.44
640.27	223.44
640.475	233.44
640.681	229.44
640.886	220.44
641.091	221.44
641.297	226.44
641.502	228.44
641.707	239.44
641.913	211.44
642.118	243.44
642.323	227.44
642.528	218.44
642.733	227.44
642.939	218.44
643.144	200.44
643.349	205.44
643.554	213.44
643.759	202.44
643.964	221.44
644.169	206.44
644.374	206.44
644.579	225.44
644.784	211.44
644.989	215.44
645.194	205.44
645.399	213.44
645.604	207.44
645.809	202.44
646.014	194.44
646.219	216.44
646.423	211.44
646.628	202.44
646.833	199.44
647.038	223.44
647.243	217.44
647.447	202.44
647.652	201.44
647.857	204.44
648.062	204.44
648.266	224.44
648.471	194.44
648.676	219.44
648.88	219.44
649.085	209.44
649.289	198.44
649.494	213.44
649.698	223.44
649.903	200.44
650.107	192.44
650.312	180.44
650.516	196.44
650.721	195.44
650.925	206.44
651.13	187.44
651.334	195.44
651.539	185.44
651.743	179.44
651.947	181.44
652.152	200.44
652.356	177.44
652.56	175.44
652.764	153.44
652.969	179.44
653.173	166.44
653.377	173.44
653.581	153.44
653.785	173.44
653.99	161.44
654.194	173.44
654.398	169.44
654.602	161.44
654.806	172.44
655.01	169.44
655.214	149.44
655.418	167.44
655.622	159.44
655.826	175.44
656.03	153.44
656.234	156.44
656.438	157.44
656.642	169.44
656.846	156.44
657.049	165.44
657.253	148.44
657.457	142.44
657.661	138.44
657.865	123.44
658.068	128.44
658.272	129.44
658.476	138.44
658.68	111.44
658.883	121.44
659.087	106.44
659.291	116.44
659.494	110.44
659.698	117.44
659.901	113.44
660.105	111.44
660.309	103.44
660.512	104.44
660.716	96.44
660.919	92.44
661.123	91.44
661.326	98.44
661.53	108.44
661.733	111.44
661.936	89.44
662.14	90.44
662.343	78.44
662.546	97.44
662.75	89.44
662.953	94.44
663.156	85.44
663.36	91.44
663.563	92.44
663.766	91.44
663.969	88.44
664.173	75.44
664.376	80.44
664.579	93.44
664.782	86.44
664.985	99.44
665.188	92.44
665.391	79.44
665.594	80.44
665.797	86.44
666	82.44
666.203	68.44
666.406	89.44
666.609	77.44
666.812	91.44
667.015	79.44
667.218	87.44
667.421	85.44
667.624	77.44
667.827	73.44
668.03	85.44
668.232	82.44
668.435	96.44
668.638	76.44
668.841	81.44
669.043	95.44
669.246	87.44
669.449	94.44
669.651	80.44
669.854	96.44
670.057	89.44
670.259	81.44
670.462	82.44
670.665	97.44
670.867	93.44
671.07	88.44
671.272	84.44
671.475	102.44
671.677	81.44
671.88	82.44
672.082	89.44
672.284	90.44
672.487	85.44
672.689	84.44
672.892	92.44
