Data from NickelSpatula_HRD10591_16-34-51-125.txt Node
Date: Mon Jul 22 16:34:51 EDT 2019
User: cochatt
Spectrometer: HR+D1059
Trigger mode: 1
Integration Time (sec): 1.000000E-1
Scans to average: 1
Electric dark correction enabled: true
Nonlinearity correction enabled: false
Boxcar width: 0
XAxis mode: Wavelengths
Number of Pixels in Spectrum: 2048
>>>>>Begin Spectral Data<<<<<
223.165	-31.12
223.4	-31.12
223.635	-31.12
223.869	-25.12
224.104	-23.12
224.338	-4.12
224.573	-9.12
224.808	-26.12
225.042	-2.12
225.277	-12.12
225.511	9.88
225.746	5.88
225.98	-3.12
226.215	25.88
226.449	9.88
226.683	13.88
226.918	25.88
227.152	44.88
227.387	40.88
227.621	23.88
227.856	32.88
228.09	43.88
228.324	59.88
228.559	70.88
228.793	67.88
229.027	71.88
229.262	63.88
229.496	77.88
229.73	78.88
229.964	77.88
230.199	81.88
230.433	91.88
230.667	104.88
230.901	93.88
231.136	81.88
231.37	92.88
231.604	95.88
231.838	105.88
232.072	89.88
232.306	106.88
232.541	107.88
232.775	98.88
233.009	104.88
233.243	129.88
233.477	117.88
233.711	108.88
233.945	122.88
234.179	115.88
234.413	121.88
234.647	127.88
234.881	129.88
235.115	136.88
235.349	116.88
235.583	116.88
235.817	124.88
236.051	123.88
236.285	122.88
236.519	136.88
236.753	128.88
236.987	148.88
237.221	122.88
237.455	142.88
237.689	127.88
237.922	126.88
238.156	129.88
238.39	142.88
238.624	154.88
238.858	146.88
239.091	136.88
239.325	144.88
239.559	146.88
239.793	132.88
240.027	156.88
240.26	161.88
240.494	134.88
240.728	142.88
240.961	164.88
241.195	165.88
241.429	163.88
241.662	163.88
241.896	137.88
242.13	137.88
242.363	139.88
242.597	135.88
242.83	152.88
243.064	153.88
243.298	161.88
243.531	157.88
243.765	187.88
243.998	173.88
244.232	149.88
244.465	155.88
244.699	155.88
244.932	172.88
245.166	175.88
245.399	151.88
245.633	160.88
245.866	172.88
246.099	166.88
246.333	177.88
246.566	202.88
246.8	183.88
247.033	178.88
247.266	175.88
247.5	179.88
247.733	167.88
247.966	184.88
248.2	165.88
248.433	184.88
248.666	197.88
248.899	193.88
249.133	198.88
249.366	221.88
249.599	231.88
249.832	210.88
250.066	216.88
250.299	188.88
250.532	189.88
250.765	195.88
250.998	193.88
251.231	165.88
251.465	203.88
251.698	185.88
251.931	190.88
252.164	202.88
252.397	228.88
252.63	257.88
252.863	259.88
253.096	268.88
253.329	248.88
253.562	237.88
253.795	275.88
254.028	292.88
254.261	292.88
254.494	276.88
254.727	256.88
254.96	234.88
255.193	292.88
255.426	242.88
255.659	212.88
255.892	197.88
256.124	203.88
256.357	221.88
256.59	274.88
256.823	257.88
257.056	216.88
257.289	200.88
257.521	220.88
257.754	280.88
257.987	281.88
258.22	240.88
258.452	214.88
258.685	251.88
258.918	261.88
259.151	265.88
259.383	288.88
259.616	309.88
259.849	335.88
260.081	346.88
260.314	355.88
260.547	300.88
260.779	303.88
261.012	328.88
261.244	342.88
261.477	336.88
261.71	308.88
261.942	281.88
262.175	282.88
262.407	261.88
262.64	258.88
262.872	321.88
263.105	327.88
263.337	348.88
263.57	321.88
263.802	243.88
264.035	217.88
264.267	209.88
264.499	186.88
264.732	191.88
264.964	166.88
265.197	181.88
265.429	195.88
265.661	195.88
265.894	197.88
266.126	208.88
266.358	229.88
266.591	298.88
266.823	307.88
267.055	303.88
267.287	270.88
267.52	279.88
267.752	295.88
267.984	315.88
268.216	298.88
268.448	260.88
268.681	259.88
268.913	276.88
269.145	289.88
269.377	305.88
269.609	304.88
269.841	281.88
270.073	307.88
270.306	307.88
270.538	310.88
270.77	321.88
271.002	314.88
271.234	312.88
271.466	328.88
271.698	307.88
271.93	308.88
272.162	296.88
272.394	310.88
272.626	318.88
272.858	321.88
273.09	318.88
273.322	262.88
273.553	249.88
273.785	290.88
274.017	397.88
274.249	443.88
274.481	462.88
274.713	497.88
274.945	545.88
275.176	569.88
275.408	539.88
275.64	504.88
275.872	528.88
276.104	451.88
276.335	407.88
276.567	413.88
276.799	379.88
277.031	416.88
277.262	346.88
277.494	265.88
277.726	255.88
277.957	297.88
278.189	332.88
278.421	320.88
278.652	318.88
278.884	293.88
279.115	269.88
279.347	267.88
279.579	274.88
279.81	282.88
280.042	269.88
280.273	284.88
280.505	282.88
280.736	245.88
280.968	243.88
281.199	247.88
281.431	266.88
281.662	271.88
281.894	266.88
282.125	267.88
282.356	288.88
282.588	289.88
282.819	277.88
283.051	304.88
283.282	340.88
283.513	393.88
283.745	421.88
283.976	420.88
284.207	381.88
284.439	431.88
284.67	400.88
284.901	379.88
285.132	381.88
285.364	422.88
285.595	399.88
285.826	380.88
286.057	417.88
286.288	395.88
286.52	427.88
286.751	439.88
286.982	439.88
287.213	385.88
287.444	371.88
287.675	397.88
287.906	378.88
288.138	333.88
288.369	303.88
288.6	295.88
288.831	286.88
289.062	335.88
289.293	362.88
289.524	327.88
289.755	337.88
289.986	351.88
290.217	333.88
290.448	260.88
290.679	214.88
290.91	225.88
291.141	220.88
291.371	232.88
291.602	219.88
291.833	228.88
292.064	229.88
292.295	257.88
292.526	285.88
292.757	303.88
292.987	331.88
293.218	344.88
293.449	335.88
293.68	364.88
293.91	344.88
294.141	356.88
294.372	329.88
294.603	311.88
294.833	318.88
295.064	380.88
295.295	364.88
295.525	297.88
295.756	260.88
295.987	215.88
296.217	225.88
296.448	233.88
296.679	240.88
296.909	257.88
297.14	278.88
297.37	316.88
297.601	289.88
297.831	255.88
298.062	259.88
298.292	298.88
298.523	309.88
298.753	379.88
298.984	353.88
299.214	295.88
299.445	248.88
299.675	239.88
299.905	226.88
300.136	230.88
300.366	257.88
300.597	257.88
300.827	236.88
301.057	222.88
301.288	239.88
301.518	243.88
301.748	282.88
301.979	293.88
302.209	293.88
302.439	293.88
302.669	278.88
302.9	277.88
303.13	271.88
303.36	262.88
303.59	221.88
303.82	244.88
304.051	274.88
304.281	291.88
304.511	285.88
304.741	262.88
304.971	259.88
305.201	271.88
305.431	262.88
305.661	235.88
305.891	237.88
306.121	249.88
306.352	201.88
306.582	205.88
306.812	199.88
307.042	208.88
307.272	187.88
307.502	196.88
307.731	191.88
307.961	211.88
308.191	202.88
308.421	180.88
308.651	185.88
308.881	182.88
309.111	176.88
309.341	182.88
309.571	200.88
309.8	191.88
310.03	208.88
310.26	232.88
310.49	239.88
310.72	203.88
310.949	201.88
311.179	195.88
311.409	196.88
311.639	219.88
311.868	284.88
312.098	360.88
312.328	375.88
312.557	377.88
312.787	379.88
313.017	332.88
313.246	367.88
313.476	395.88
313.706	331.88
313.935	266.88
314.165	226.88
314.394	213.88
314.624	211.88
314.853	211.88
315.083	220.88
315.312	220.88
315.542	215.88
315.771	207.88
316.001	197.88
316.23	193.88
316.46	174.88
316.689	186.88
316.919	188.88
317.148	195.88
317.377	189.88
317.607	207.88
317.836	210.88
318.065	242.88
318.295	261.88
318.524	249.88
318.753	207.88
318.983	211.88
319.212	212.88
319.441	216.88
319.67	249.88
319.9	234.88
320.129	210.88
320.358	194.88
320.587	184.88
320.816	216.88
321.046	242.88
321.275	280.88
321.504	278.88
321.733	267.88
321.962	271.88
322.191	263.88
322.42	252.88
322.649	233.88
322.878	261.88
323.108	253.88
323.337	236.88
323.566	239.88
323.795	249.88
324.024	243.88
324.253	220.88
324.482	205.88
324.71	244.88
324.939	252.88
325.168	242.88
325.397	212.88
325.626	208.88
325.855	198.88
326.084	201.88
326.313	207.88
326.542	180.88
326.77	191.88
326.999	197.88
327.228	208.88
327.457	201.88
327.686	223.88
327.914	181.88
328.143	152.88
328.372	188.88
328.6	183.88
328.829	193.88
329.058	204.88
329.287	195.88
329.515	183.88
329.744	202.88
329.972	185.88
330.201	189.88
330.43	191.88
330.658	201.88
330.887	218.88
331.115	223.88
331.344	202.88
331.572	204.88
331.801	211.88
332.03	180.88
332.258	195.88
332.486	202.88
332.715	213.88
332.943	195.88
333.172	189.88
333.4	209.88
333.629	225.88
333.857	246.88
334.085	233.88
334.314	255.88
334.542	233.88
334.771	216.88
334.999	209.88
335.227	197.88
335.455	200.88
335.684	209.88
335.912	247.88
336.14	268.88
336.369	255.88
336.597	240.88
336.825	273.88
337.053	308.88
337.281	255.88
337.51	207.88
337.738	204.88
337.966	227.88
338.194	240.88
338.422	241.88
338.65	200.88
338.878	191.88
339.106	184.88
339.334	217.88
339.562	234.88
339.79	210.88
340.018	223.88
340.246	219.88
340.474	255.88
340.702	271.88
340.93	276.88
341.158	276.88
341.386	224.88
341.614	220.88
341.842	229.88
342.07	235.88
342.298	279.88
342.526	280.88
342.754	256.88
342.981	237.88
343.209	230.88
343.437	236.88
343.665	237.88
343.893	236.88
344.12	266.88
344.348	325.88
344.576	296.88
344.804	242.88
345.031	224.88
345.259	205.88
345.487	218.88
345.714	205.88
345.942	236.88
346.17	252.88
346.397	245.88
346.625	209.88
346.853	197.88
347.08	201.88
347.308	220.88
347.535	242.88
347.763	234.88
347.99	207.88
348.218	183.88
348.445	224.88
348.673	215.88
348.9	191.88
349.128	213.88
349.355	225.88
349.583	213.88
349.81	219.88
350.037	201.88
350.265	195.88
350.492	175.88
350.72	175.88
350.947	189.88
351.174	183.88
351.402	197.88
351.629	195.88
351.856	194.88
352.083	204.88
352.311	194.88
352.538	220.88
352.765	251.88
352.992	234.88
353.22	226.88
353.447	239.88
353.674	228.88
353.901	208.88
354.128	203.88
354.355	222.88
354.583	220.88
354.81	222.88
355.037	246.88
355.264	216.88
355.491	239.88
355.718	273.88
355.945	254.88
356.172	233.88
356.399	233.88
356.626	267.88
356.853	333.88
357.08	342.88
357.307	342.88
357.534	283.88
357.761	319.88
357.988	350.88
358.215	382.88
358.441	356.88
358.668	342.88
358.895	297.88
359.122	263.88
359.349	239.88
359.576	268.88
359.802	245.88
360.029	195.88
360.256	203.88
360.483	268.88
360.709	328.88
360.936	332.88
361.163	290.88
361.39	234.88
361.616	209.88
361.843	252.88
362.07	302.88
362.296	288.88
362.523	232.88
362.749	204.88
362.976	202.88
363.203	235.88
363.429	257.88
363.656	225.88
363.882	222.88
364.109	221.88
364.335	210.88
364.562	205.88
364.788	223.88
365.015	249.88
365.241	243.88
365.468	223.88
365.694	188.88
365.92	191.88
366.147	171.88
366.373	159.88
366.599	193.88
366.826	160.88
367.052	177.88
367.278	171.88
367.505	180.88
367.731	202.88
367.957	220.88
368.184	234.88
368.41	221.88
368.636	210.88
368.862	220.88
369.089	216.88
369.315	199.88
369.541	210.88
369.767	191.88
369.993	177.88
370.219	184.88
370.445	190.88
370.672	210.88
370.898	226.88
371.124	228.88
371.35	204.88
371.576	181.88
371.802	194.88
372.028	227.88
372.254	277.88
372.48	224.88
372.706	201.88
372.932	225.88
373.158	226.88
373.384	260.88
373.61	339.88
373.835	350.88
374.061	266.88
374.287	243.88
374.513	285.88
374.739	322.88
374.965	327.88
375.191	317.88
375.416	231.88
375.642	223.88
375.868	247.88
376.094	277.88
376.319	236.88
376.545	253.88
376.771	256.88
376.997	239.88
377.222	167.88
377.448	167.88
377.674	155.88
377.899	157.88
378.125	164.88
378.35	173.88
378.576	173.88
378.802	196.88
379.027	197.88
379.253	169.88
379.478	185.88
379.704	225.88
379.929	237.88
380.155	226.88
380.38	202.88
380.606	215.88
380.831	245.88
381.057	243.88
381.282	202.88
381.507	228.88
381.733	280.88
381.958	291.88
382.184	300.88
382.409	321.88
382.634	326.88
382.86	328.88
383.085	282.88
383.31	225.88
383.535	261.88
383.761	238.88
383.986	240.88
384.211	295.88
384.436	281.88
384.662	227.88
384.887	202.88
385.112	222.88
385.337	207.88
385.562	217.88
385.787	236.88
386.013	256.88
386.238	264.88
386.463	228.88
386.688	207.88
386.913	189.88
387.138	192.88
387.363	222.88
387.588	218.88
387.813	213.88
388.038	231.88
388.263	215.88
388.488	194.88
388.713	239.88
388.938	235.88
389.163	200.88
389.387	204.88
389.612	173.88
389.837	206.88
390.062	209.88
390.287	218.88
390.512	214.88
390.736	204.88
390.961	211.88
391.186	197.88
391.411	181.88
391.636	181.88
391.86	200.88
392.085	215.88
392.31	208.88
392.534	213.88
392.759	207.88
392.984	213.88
393.208	206.88
393.433	193.88
393.658	186.88
393.882	175.88
394.107	185.88
394.331	173.88
394.556	175.88
394.78	188.88
395.005	186.88
395.229	177.88
395.454	193.88
395.678	175.88
395.903	181.88
396.127	186.88
396.352	202.88
396.576	215.88
396.801	223.88
397.025	259.88
397.249	275.88
397.474	231.88
397.698	207.88
397.922	212.88
398.147	184.88
398.371	193.88
398.595	217.88
398.82	202.88
399.044	210.88
399.268	226.88
399.492	230.88
399.717	219.88
399.941	219.88
400.165	207.88
400.389	214.88
400.613	223.88
400.837	204.88
401.062	186.88
401.286	181.88
401.51	193.88
401.734	195.88
401.958	205.88
402.182	191.88
402.406	205.88
402.63	201.88
402.854	214.88
403.078	230.88
403.302	278.88
403.526	291.88
403.75	287.88
403.974	229.88
404.198	232.88
404.422	266.88
404.645	280.88
404.869	326.88
405.093	247.88
405.317	207.88
405.541	213.88
405.765	215.88
405.988	222.88
406.212	251.88
406.436	271.88
406.66	281.88
406.883	238.88
407.107	245.88
407.331	281.88
407.555	269.88
407.778	236.88
408.002	220.88
408.226	232.88
408.449	223.88
408.673	224.88
408.896	180.88
409.12	190.88
409.344	190.88
409.567	195.88
409.791	204.88
410.014	192.88
410.238	189.88
410.461	188.88
410.685	202.88
410.908	204.88
411.132	186.88
411.355	198.88
411.578	206.88
411.802	204.88
412.025	201.88
412.249	202.88
412.472	207.88
412.695	220.88
412.919	207.88
413.142	215.88
413.365	220.88
413.589	233.88
413.812	205.88
414.035	194.88
414.258	186.88
414.482	201.88
414.705	221.88
414.928	190.88
415.151	180.88
415.374	190.88
415.597	193.88
415.821	207.88
416.044	195.88
416.267	179.88
416.49	192.88
416.713	183.88
416.936	182.88
417.159	199.88
417.382	199.88
417.605	184.88
417.828	216.88
418.051	187.88
418.274	200.88
418.497	201.88
418.72	189.88
418.943	204.88
419.166	213.88
419.389	224.88
419.611	216.88
419.834	200.88
420.057	228.88
420.28	224.88
420.503	220.88
420.726	201.88
420.948	191.88
421.171	191.88
421.394	188.88
421.617	183.88
421.839	195.88
422.062	189.88
422.285	203.88
422.507	217.88
422.73	208.88
422.953	211.88
423.175	192.88
423.398	196.88
423.621	217.88
423.843	234.88
424.066	202.88
424.288	187.88
424.511	203.88
424.733	206.88
424.956	190.88
425.178	215.88
425.401	246.88
425.623	287.88
425.846	252.88
426.068	218.88
426.291	251.88
426.513	215.88
426.735	187.88
426.958	199.88
427.18	217.88
427.402	299.88
427.625	309.88
427.847	287.88
428.069	200.88
428.292	198.88
428.514	201.88
428.736	187.88
428.958	190.88
429.181	236.88
429.403	230.88
429.625	202.88
429.847	176.88
430.069	193.88
430.292	181.88
430.514	179.88
430.736	193.88
430.958	243.88
431.18	224.88
431.402	168.88
431.624	175.88
431.846	174.88
432.068	167.88
432.29	159.88
432.512	189.88
432.734	251.88
432.956	250.88
433.178	183.88
433.4	184.88
433.622	180.88
433.844	194.88
434.066	216.88
434.287	204.88
434.509	180.88
434.731	220.88
434.953	211.88
435.175	201.88
435.397	231.88
435.618	194.88
435.84	191.88
436.062	180.88
436.284	175.88
436.505	183.88
436.727	171.88
436.949	173.88
437.17	191.88
437.392	185.88
437.614	161.88
437.835	187.88
438.057	177.88
438.278	200.88
438.5	247.88
438.721	266.88
438.943	208.88
439.165	174.88
439.386	188.88
439.608	178.88
439.829	172.88
440.05	176.88
440.272	195.88
440.493	208.88
440.715	251.88
440.936	199.88
441.158	188.88
441.379	200.88
441.6	207.88
441.822	227.88
442.043	199.88
442.264	189.88
442.486	188.88
442.707	198.88
442.928	179.88
443.149	189.88
443.371	204.88
443.592	193.88
443.813	199.88
444.034	199.88
444.255	171.88
444.476	199.88
444.698	189.88
444.919	183.88
445.14	326.88
445.361	275.88
445.582	219.88
445.803	208.88
446.024	222.88
446.245	214.88
446.466	210.88
446.687	202.88
446.908	196.88
447.129	195.88
447.35	194.88
447.571	170.88
447.792	175.88
448.013	161.88
448.234	155.88
448.455	167.88
448.675	161.88
448.896	168.88
449.117	185.88
449.338	188.88
449.559	186.88
449.779	196.88
450	195.88
450.221	179.88
450.442	165.88
450.662	184.88
450.883	179.88
451.104	190.88
451.324	167.88
451.545	184.88
451.766	175.88
451.986	165.88
452.207	168.88
452.428	170.88
452.648	172.88
452.869	200.88
453.089	193.88
453.31	204.88
453.53	183.88
453.751	179.88
453.971	177.88
454.192	155.88
454.412	189.88
454.633	166.88
454.853	168.88
455.073	160.88
455.294	160.88
455.514	161.88
455.734	159.88
455.955	161.88
456.175	183.88
456.395	170.88
456.616	170.88
456.836	164.88
457.056	157.88
457.276	165.88
457.497	165.88
457.717	162.88
457.937	160.88
458.157	158.88
458.377	164.88
458.598	152.88
458.818	164.88
459.038	193.88
459.258	193.88
459.478	195.88
459.698	209.88
459.918	202.88
460.138	199.88
460.358	196.88
460.578	186.88
460.798	199.88
461.018	200.88
461.238	189.88
461.458	193.88
461.678	198.88
461.898	211.88
462.118	203.88
462.338	227.88
462.558	200.88
462.777	214.88
462.997	223.88
463.217	216.88
463.437	227.88
463.657	207.88
463.876	195.88
464.096	200.88
464.316	196.88
464.536	215.88
464.755	240.88
464.975	229.88
465.195	216.88
465.414	230.88
465.634	200.88
465.854	198.88
466.073	188.88
466.293	181.88
466.512	209.88
466.732	210.88
466.951	217.88
467.171	212.88
467.391	196.88
467.61	193.88
467.829	190.88
468.049	198.88
468.268	188.88
468.488	183.88
468.707	184.88
468.927	198.88
469.146	228.88
469.365	203.88
469.585	202.88
469.804	205.88
470.023	220.88
470.243	207.88
470.462	218.88
470.681	203.88
470.901	211.88
471.12	212.88
471.339	224.88
471.558	182.88
471.777	198.88
471.997	215.88
472.216	234.88
472.435	225.88
472.654	211.88
472.873	196.88
473.092	233.88
473.311	238.88
473.53	191.88
473.749	194.88
473.968	224.88
474.187	209.88
474.406	204.88
474.625	194.88
474.844	204.88
475.063	214.88
475.282	217.88
475.501	229.88
475.72	278.88
475.939	229.88
476.158	233.88
476.377	269.88
476.596	313.88
476.814	301.88
477.033	275.88
477.252	201.88
477.471	195.88
477.69	196.88
477.908	210.88
478.127	233.88
478.346	220.88
478.564	269.88
478.783	234.88
479.002	244.88
479.22	257.88
479.439	271.88
479.658	241.88
479.876	223.88
480.095	234.88
480.313	246.88
480.532	227.88
480.751	222.88
480.969	213.88
481.188	246.88
481.406	245.88
481.624	253.88
481.843	226.88
482.061	210.88
482.28	254.88
482.498	308.88
482.717	322.88
482.935	253.88
483.153	232.88
483.372	196.88
483.59	215.88
483.808	203.88
484.027	209.88
484.245	207.88
484.463	209.88
484.681	192.88
484.9	219.88
485.118	238.88
485.336	228.88
485.554	202.88
485.772	216.88
485.99	231.88
486.209	231.88
486.427	253.88
486.645	241.88
486.863	252.88
487.081	248.88
487.299	268.88
487.517	275.88
487.735	253.88
487.953	227.88
488.171	253.88
488.389	229.88
488.607	220.88
488.825	250.88
489.043	250.88
489.261	294.88
489.479	309.88
489.696	265.88
489.914	241.88
490.132	228.88
490.35	221.88
490.568	226.88
490.786	207.88
491.003	224.88
491.221	231.88
491.439	225.88
491.657	211.88
491.874	241.88
492.092	315.88
492.31	374.88
492.527	362.88
492.745	277.88
492.963	254.88
493.18	249.88
493.398	246.88
493.615	268.88
493.833	240.88
494.05	233.88
494.268	252.88
494.485	259.88
494.703	246.88
494.92	241.88
495.138	225.88
495.355	234.88
495.573	236.88
495.79	282.88
496.008	372.88
496.225	312.88
496.442	245.88
496.66	249.88
496.877	282.88
497.094	261.88
497.312	261.88
497.529	258.88
497.746	243.88
497.963	254.88
498.181	280.88
498.398	291.88
498.615	303.88
498.832	324.88
499.049	320.88
499.267	290.88
499.484	298.88
499.701	314.88
499.918	348.88
500.135	360.88
500.352	376.88
500.569	402.88
500.786	413.88
501.003	383.88
501.22	352.88
501.437	339.88
501.654	338.88
501.871	307.88
502.088	306.88
502.305	273.88
502.522	276.88
502.739	287.88
502.956	275.88
503.172	261.88
503.389	257.88
503.606	256.88
503.823	263.88
504.04	264.88
504.256	259.88
504.473	267.88
504.69	267.88
504.907	291.88
505.123	267.88
505.34	308.88
505.557	277.88
505.773	255.88
505.99	251.88
506.207	269.88
506.423	231.88
506.64	220.88
506.856	251.88
507.073	291.88
507.289	267.88
507.506	253.88
507.722	284.88
507.939	267.88
508.155	279.88
508.372	249.88
508.588	243.88
508.805	241.88
509.021	251.88
509.238	235.88
509.454	227.88
509.67	230.88
509.887	230.88
510.103	260.88
510.319	259.88
510.536	245.88
510.752	226.88
510.968	219.88
511.184	222.88
511.401	214.88
511.617	202.88
511.833	211.88
512.049	213.88
512.265	235.88
512.481	223.88
512.698	256.88
512.914	273.88
513.13	247.88
513.346	236.88
513.562	242.88
513.778	226.88
513.994	243.88
514.21	263.88
514.426	255.88
514.642	221.88
514.858	215.88
515.074	236.88
515.29	255.88
515.506	271.88
515.721	269.88
515.937	263.88
516.153	237.88
516.369	239.88
516.585	247.88
516.801	303.88
517.016	343.88
517.232	287.88
517.448	290.88
517.664	276.88
517.879	284.88
518.095	258.88
518.311	263.88
518.527	268.88
518.742	297.88
518.958	273.88
519.173	293.88
519.389	269.88
519.605	287.88
519.82	287.88
520.036	318.88
520.251	316.88
520.467	345.88
520.682	543.88
520.898	683.88
521.113	634.88
521.329	391.88
521.544	311.88
521.76	316.88
521.975	253.88
522.19	267.88
522.406	259.88
522.621	288.88
522.836	305.88
523.052	305.88
523.267	276.88
523.482	275.88
523.698	277.88
523.913	269.88
524.128	229.88
524.343	218.88
524.559	241.88
524.774	235.88
524.989	253.88
525.204	236.88
525.419	267.88
525.634	258.88
525.849	272.88
526.064	234.88
526.28	254.88
526.495	293.88
526.71	331.88
526.925	291.88
527.14	293.88
527.355	295.88
527.57	239.88
527.785	269.88
527.999	259.88
528.214	223.88
528.429	221.88
528.644	241.88
528.859	225.88
529.074	191.88
529.289	193.88
529.503	222.88
529.718	229.88
529.933	313.88
530.148	307.88
530.363	250.88
530.577	236.88
530.792	214.88
531.007	219.88
531.221	191.88
531.436	207.88
531.651	227.88
531.865	204.88
532.08	226.88
532.295	209.88
532.509	231.88
532.724	248.88
532.938	275.88
533.153	350.88
533.367	269.88
533.582	257.88
533.796	228.88
534.011	217.88
534.225	230.88
534.44	247.88
534.654	236.88
534.868	307.88
535.083	258.88
535.297	241.88
535.511	199.88
535.726	229.88
535.94	215.88
536.154	202.88
536.369	210.88
536.583	220.88
536.797	241.88
537.011	228.88
537.225	250.88
537.44	266.88
537.654	225.88
537.868	211.88
538.082	214.88
538.296	221.88
538.51	237.88
538.724	244.88
538.938	230.88
539.153	208.88
539.367	202.88
539.581	224.88
539.795	234.88
540.009	255.88
540.222	225.88
540.436	243.88
540.65	248.88
540.864	260.88
541.078	250.88
541.292	319.88
541.506	233.88
541.72	232.88
541.934	220.88
542.147	209.88
542.361	227.88
542.575	235.88
542.789	220.88
543.002	211.88
543.216	235.88
543.43	204.88
543.644	210.88
543.857	208.88
544.071	200.88
544.285	199.88
544.498	199.88
544.712	190.88
544.925	218.88
545.139	215.88
545.352	195.88
545.566	203.88
545.779	213.88
545.993	207.88
546.206	184.88
546.42	202.88
546.633	193.88
546.847	170.88
547.06	190.88
547.274	184.88
547.487	209.88
547.7	202.88
547.914	211.88
548.127	204.88
548.34	221.88
548.554	219.88
548.767	216.88
548.98	225.88
549.193	207.88
549.407	208.88
549.62	256.88
549.833	224.88
550.046	217.88
550.259	239.88
550.473	218.88
550.686	211.88
550.899	230.88
551.112	211.88
551.325	213.88
551.538	229.88
551.751	216.88
551.964	199.88
552.177	200.88
552.39	194.88
552.603	193.88
552.816	184.88
553.029	196.88
553.242	197.88
553.455	207.88
553.667	233.88
553.88	207.88
554.093	197.88
554.306	197.88
554.519	184.88
554.732	195.88
554.944	182.88
555.157	182.88
555.37	180.88
555.583	182.88
555.795	180.88
556.008	177.88
556.221	178.88
556.433	162.88
556.646	173.88
556.859	179.88
557.071	183.88
557.284	186.88
557.496	201.88
557.709	195.88
557.921	183.88
558.134	175.88
558.346	183.88
558.559	177.88
558.771	175.88
558.984	186.88
559.196	172.88
559.409	176.88
559.621	161.88
559.833	151.88
560.046	171.88
560.258	165.88
560.47	161.88
560.683	180.88
560.895	165.88
561.107	167.88
561.32	166.88
561.532	152.88
561.744	176.88
561.956	199.88
562.168	172.88
562.381	172.88
562.593	184.88
562.805	169.88
563.017	156.88
563.229	157.88
563.441	140.88
563.653	170.88
563.865	167.88
564.077	172.88
564.289	159.88
564.501	160.88
564.713	185.88
564.925	181.88
565.137	155.88
565.349	172.88
565.561	165.88
565.773	174.88
565.985	172.88
566.197	175.88
566.408	203.88
566.62	211.88
566.832	186.88
567.044	190.88
567.255	219.88
567.467	219.88
567.679	208.88
567.891	185.88
568.102	227.88
568.314	223.88
568.526	209.88
568.737	200.88
568.949	212.88
569.161	195.88
569.372	179.88
569.584	178.88
569.795	177.88
570.007	165.88
570.218	190.88
570.43	188.88
570.641	161.88
570.853	161.88
571.064	157.88
571.276	168.88
571.487	161.88
571.698	167.88
571.91	164.88
572.121	163.88
572.333	163.88
572.544	148.88
572.755	168.88
572.966	161.88
573.178	165.88
573.389	161.88
573.6	155.88
573.811	163.88
574.023	143.88
574.234	138.88
574.445	159.88
574.656	155.88
574.867	144.88
575.078	136.88
575.289	155.88
575.501	149.88
575.712	153.88
575.923	142.88
576.134	130.88
576.345	152.88
576.556	142.88
576.767	136.88
576.978	131.88
577.188	137.88
577.399	152.88
577.61	137.88
577.821	147.88
578.032	146.88
578.243	166.88
578.454	156.88
578.665	155.88
578.875	141.88
579.086	161.88
579.297	164.88
579.508	169.88
579.718	165.88
579.929	147.88
580.14	162.88
580.35	139.88
580.561	131.88
580.772	137.88
580.982	144.88
581.193	142.88
581.403	125.88
581.614	137.88
581.825	136.88
582.035	128.88
582.246	137.88
582.456	135.88
582.667	124.88
582.877	141.88
583.087	126.88
583.298	123.88
583.508	139.88
583.719	129.88
583.929	132.88
584.139	141.88
584.35	140.88
584.56	141.88
584.77	128.88
584.981	138.88
585.191	138.88
585.401	146.88
585.611	152.88
585.821	125.88
586.032	168.88
586.242	128.88
586.452	133.88
586.662	139.88
586.872	144.88
587.082	138.88
587.292	128.88
587.502	135.88
587.713	125.88
587.923	127.88
588.133	147.88
588.343	141.88
588.553	137.88
588.762	136.88
588.972	144.88
589.182	136.88
589.392	134.88
589.602	136.88
589.812	144.88
590.022	164.88
590.232	149.88
590.441	141.88
590.651	143.88
590.861	135.88
591.071	127.88
591.281	136.88
591.49	117.88
591.7	136.88
591.91	120.88
592.119	141.88
592.329	143.88
592.539	132.88
592.748	140.88
592.958	138.88
593.167	120.88
593.377	138.88
593.587	147.88
593.796	135.88
594.006	127.88
594.215	126.88
594.424	155.88
594.634	136.88
594.843	127.88
595.053	135.88
595.262	137.88
595.472	136.88
595.681	137.88
595.89	140.88
596.1	134.88
596.309	127.88
596.518	115.88
596.727	124.88
596.937	127.88
597.146	132.88
597.355	139.88
597.564	127.88
597.774	125.88
597.983	124.88
598.192	131.88
598.401	111.88
598.61	114.88
598.819	134.88
599.028	126.88
599.237	126.88
599.446	128.88
599.655	120.88
599.864	121.88
600.073	127.88
600.282	124.88
600.491	116.88
600.7	118.88
600.909	127.88
601.118	120.88
601.327	127.88
601.536	114.88
601.745	131.88
601.953	136.88
602.162	129.88
602.371	127.88
602.58	135.88
602.789	117.88
602.997	127.88
603.206	130.88
603.415	121.88
603.623	112.88
603.832	123.88
604.041	123.88
604.249	120.88
604.458	136.88
604.666	121.88
604.875	129.88
605.084	107.88
605.292	121.88
605.501	119.88
605.709	118.88
605.918	123.88
606.126	108.88
606.334	115.88
606.543	130.88
606.751	137.88
606.96	130.88
607.168	116.88
607.376	117.88
607.585	108.88
607.793	118.88
608.001	97.88
608.21	121.88
608.418	119.88
608.626	122.88
608.834	116.88
609.043	117.88
609.251	119.88
609.459	115.88
609.667	118.88
609.875	114.88
610.083	123.88
610.291	111.88
610.499	131.88
610.707	121.88
610.916	99.88
611.124	125.88
611.332	116.88
611.54	111.88
611.748	110.88
611.955	109.88
612.163	104.88
612.371	104.88
612.579	103.88
612.787	111.88
612.995	119.88
613.203	122.88
613.411	103.88
613.618	101.88
613.826	117.88
614.034	138.88
614.242	116.88
614.449	121.88
614.657	106.88
614.865	103.88
615.072	116.88
615.28	104.88
615.488	91.88
615.695	118.88
615.903	105.88
616.111	114.88
616.318	119.88
616.526	118.88
616.733	128.88
616.941	119.88
617.148	103.88
617.356	101.88
617.563	121.88
617.771	113.88
617.978	103.88
618.185	111.88
618.393	109.88
618.6	117.88
618.807	125.88
619.015	101.88
619.222	92.88
619.429	102.88
619.637	120.88
619.844	124.88
620.051	89.88
620.258	111.88
620.466	115.88
620.673	114.88
620.88	101.88
621.087	98.88
621.294	105.88
621.501	111.88
621.708	106.88
621.915	100.88
622.122	115.88
622.329	117.88
622.536	121.88
622.743	92.88
622.95	122.88
623.157	118.88
623.364	103.88
623.571	109.88
623.778	120.88
623.985	113.88
624.192	108.88
624.399	119.88
624.606	115.88
624.812	109.88
625.019	125.88
625.226	113.88
625.433	123.88
625.639	116.88
625.846	106.88
626.053	104.88
626.259	100.88
626.466	117.88
626.673	120.88
626.879	123.88
627.086	115.88
627.293	115.88
627.499	106.88
627.706	100.88
627.912	103.88
628.119	102.88
628.325	101.88
628.532	106.88
628.738	105.88
628.945	106.88
629.151	115.88
629.357	109.88
629.564	116.88
629.77	123.88
629.976	119.88
630.183	116.88
630.389	95.88
630.595	117.88
630.802	106.88
631.008	97.88
631.214	115.88
631.42	107.88
631.627	99.88
631.833	114.88
632.039	105.88
632.245	104.88
632.451	103.88
632.657	105.88
632.863	106.88
633.069	90.88
633.275	89.88
633.481	101.88
633.688	92.88
633.893	101.88
634.099	101.88
634.305	102.88
634.511	87.88
634.717	97.88
634.923	112.88
635.129	86.88
635.335	108.88
635.541	91.88
635.747	91.88
635.952	105.88
636.158	91.88
636.364	106.88
636.57	112.88
636.775	103.88
636.981	113.88
637.187	96.88
637.392	107.88
637.598	113.88
637.804	94.88
638.009	97.88
638.215	99.88
638.421	101.88
638.626	112.88
638.832	91.88
639.037	101.88
639.243	106.88
639.448	106.88
639.654	116.88
639.859	98.88
640.065	98.88
640.27	123.88
640.475	100.88
640.681	99.88
640.886	90.88
641.091	89.88
641.297	116.88
641.502	113.88
641.707	93.88
641.913	109.88
642.118	90.88
642.323	98.88
642.528	93.88
642.733	106.88
642.939	98.88
643.144	105.88
643.349	99.88
643.554	105.88
643.759	97.88
643.964	108.88
644.169	113.88
644.374	95.88
644.579	85.88
644.784	92.88
644.989	95.88
645.194	90.88
645.399	87.88
645.604	114.88
645.809	90.88
646.014	104.88
646.219	91.88
646.423	85.88
646.628	94.88
646.833	97.88
647.038	93.88
647.243	88.88
647.447	95.88
647.652	114.88
647.857	105.88
648.062	90.88
648.266	94.88
648.471	85.88
648.676	104.88
648.88	96.88
649.085	82.88
649.289	108.88
649.494	112.88
649.698	118.88
649.903	96.88
650.107	97.88
650.312	88.88
650.516	100.88
650.721	98.88
650.925	111.88
651.13	106.88
651.334	100.88
651.539	100.88
651.743	86.88
651.947	93.88
652.152	86.88
652.356	77.88
652.56	90.88
652.764	92.88
652.969	86.88
653.173	88.88
653.377	97.88
653.581	82.88
653.785	99.88
653.99	86.88
654.194	84.88
654.398	104.88
654.602	92.88
654.806	103.88
655.01	89.88
655.214	101.88
655.418	83.88
655.622	92.88
655.826	82.88
656.03	97.88
656.234	93.88
656.438	84.88
656.642	84.88
656.846	92.88
657.049	96.88
657.253	99.88
657.457	99.88
657.661	73.88
657.865	79.88
658.068	90.88
658.272	92.88
658.476	89.88
658.68	103.88
658.883	75.88
659.087	85.88
659.291	87.88
659.494	82.88
659.698	85.88
659.901	84.88
660.105	87.88
660.309	81.88
660.512	89.88
660.716	92.88
660.919	75.88
661.123	91.88
661.326	71.88
661.53	90.88
661.733	82.88
661.936	76.88
662.14	73.88
662.343	74.88
662.546	90.88
662.75	78.88
662.953	62.88
663.156	94.88
663.36	72.88
663.563	76.88
663.766	73.88
663.969	74.88
664.173	79.88
664.376	91.88
664.579	78.88
664.782	80.88
664.985	89.88
665.188	80.88
665.391	80.88
665.594	59.88
665.797	85.88
666	76.88
666.203	71.88
666.406	66.88
666.609	68.88
666.812	91.88
667.015	80.88
667.218	86.88
667.421	84.88
667.624	59.88
667.827	81.88
668.03	82.88
668.232	69.88
668.435	72.88
668.638	79.88
668.841	80.88
669.043	83.88
669.246	74.88
669.449	80.88
669.651	79.88
669.854	80.88
670.057	76.88
670.259	78.88
670.462	92.88
670.665	99.88
670.867	81.88
671.07	89.88
671.272	88.88
671.475	78.88
671.677	84.88
671.88	84.88
672.082	89.88
672.284	84.88
672.487	67.88
672.689	93.88
672.892	87.88
