Data from NickelSpatula_HRD10591_16-36-00-126.txt Node
Date: Mon Jul 22 16:36:00 EDT 2019
User: cochatt
Spectrometer: HR+D1059
Trigger mode: 1
Integration Time (sec): 1.000000E-1
Scans to average: 1
Electric dark correction enabled: true
Nonlinearity correction enabled: false
Boxcar width: 0
XAxis mode: Wavelengths
Number of Pixels in Spectrum: 2048
>>>>>Begin Spectral Data<<<<<
223.165	-18.94
223.4	-18.94
223.635	-18.94
223.869	-17.94
224.104	-21.94
224.338	-9.94
224.573	-6.94
224.808	-21.94
225.042	6.06
225.277	-22.94
225.511	-0.94
225.746	6.06
225.98	8.06
226.215	5.06
226.449	12.06
226.683	23.06
226.918	19.06
227.152	42.06
227.387	20.06
227.621	30.06
227.856	37.06
228.09	46.06
228.324	44.06
228.559	53.06
228.793	58.06
229.027	62.06
229.262	76.06
229.496	58.06
229.73	85.06
229.964	80.06
230.199	98.06
230.433	87.06
230.667	88.06
230.901	88.06
231.136	89.06
231.37	83.06
231.604	105.06
231.838	93.06
232.072	106.06
232.306	92.06
232.541	100.06
232.775	101.06
233.009	101.06
233.243	103.06
233.477	105.06
233.711	96.06
233.945	95.06
234.179	95.06
234.413	106.06
234.647	121.06
234.881	115.06
235.115	123.06
235.349	99.06
235.583	109.06
235.817	98.06
236.051	113.06
236.285	113.06
236.519	129.06
236.753	108.06
236.987	104.06
237.221	110.06
237.455	115.06
237.689	114.06
237.922	121.06
238.156	118.06
238.39	105.06
238.624	107.06
238.858	126.06
239.091	108.06
239.325	120.06
239.559	108.06
239.793	113.06
240.027	133.06
240.26	125.06
240.494	124.06
240.728	119.06
240.961	139.06
241.195	123.06
241.429	117.06
241.662	122.06
241.896	102.06
242.13	113.06
242.363	117.06
242.597	101.06
242.83	129.06
243.064	119.06
243.298	128.06
243.531	128.06
243.765	140.06
243.998	129.06
244.232	149.06
244.465	127.06
244.699	111.06
244.932	141.06
245.166	123.06
245.399	105.06
245.633	125.06
245.866	121.06
246.099	131.06
246.333	120.06
246.566	149.06
246.8	149.06
247.033	147.06
247.266	125.06
247.5	135.06
247.733	141.06
247.966	122.06
248.2	131.06
248.433	147.06
248.666	137.06
248.899	149.06
249.133	159.06
249.366	173.06
249.599	155.06
249.832	159.06
250.066	165.06
250.299	152.06
250.532	141.06
250.765	144.06
250.998	139.06
251.231	126.06
251.465	157.06
251.698	148.06
251.931	146.06
252.164	147.06
252.397	161.06
252.63	173.06
252.863	170.06
253.096	181.06
253.329	177.06
253.562	174.06
253.795	191.06
254.028	205.06
254.261	196.06
254.494	189.06
254.727	174.06
254.96	183.06
255.193	189.06
255.426	174.06
255.659	146.06
255.892	151.06
256.124	148.06
256.357	165.06
256.59	189.06
256.823	163.06
257.056	166.06
257.289	151.06
257.521	159.06
257.754	169.06
257.987	174.06
258.22	186.06
258.452	170.06
258.685	177.06
258.918	189.06
259.151	179.06
259.383	203.06
259.616	211.06
259.849	212.06
260.081	199.06
260.314	233.06
260.547	205.06
260.779	196.06
261.012	234.06
261.244	225.06
261.477	211.06
261.71	199.06
261.942	194.06
262.175	179.06
262.407	185.06
262.64	200.06
262.872	208.06
263.105	222.06
263.337	222.06
263.57	193.06
263.802	165.06
264.035	140.06
264.267	143.06
264.499	126.06
264.732	140.06
264.964	129.06
265.197	145.06
265.429	143.06
265.661	157.06
265.894	148.06
266.126	157.06
266.358	153.06
266.591	183.06
266.823	213.06
267.055	200.06
267.287	179.06
267.52	181.06
267.752	191.06
267.984	191.06
268.216	183.06
268.448	175.06
268.681	172.06
268.913	197.06
269.145	185.06
269.377	187.06
269.609	179.06
269.841	167.06
270.073	179.06
270.306	196.06
270.538	193.06
270.77	198.06
271.002	214.06
271.234	210.06
271.466	197.06
271.698	221.06
271.93	202.06
272.162	198.06
272.394	207.06
272.626	183.06
272.858	211.06
273.09	213.06
273.322	198.06
273.553	174.06
273.785	206.06
274.017	241.06
274.249	279.06
274.481	285.06
274.713	300.06
274.945	331.06
275.176	354.06
275.408	326.06
275.64	303.06
275.872	307.06
276.104	260.06
276.335	238.06
276.567	245.06
276.799	257.06
277.031	251.06
277.262	219.06
277.494	173.06
277.726	198.06
277.957	194.06
278.189	214.06
278.421	206.06
278.652	200.06
278.884	194.06
279.115	173.06
279.347	191.06
279.579	173.06
279.81	187.06
280.042	169.06
280.273	177.06
280.505	166.06
280.736	163.06
280.968	155.06
281.199	164.06
281.431	170.06
281.662	176.06
281.894	167.06
282.125	175.06
282.356	189.06
282.588	185.06
282.819	181.06
283.051	180.06
283.282	213.06
283.513	237.06
283.745	261.06
283.976	246.06
284.207	254.06
284.439	261.06
284.67	265.06
284.901	234.06
285.132	238.06
285.364	234.06
285.595	222.06
285.826	252.06
286.057	258.06
286.288	226.06
286.52	254.06
286.751	257.06
286.982	245.06
287.213	226.06
287.444	236.06
287.675	225.06
287.906	238.06
288.138	209.06
288.369	219.06
288.6	175.06
288.831	197.06
289.062	218.06
289.293	214.06
289.524	221.06
289.755	217.06
289.986	227.06
290.217	197.06
290.448	169.06
290.679	153.06
290.91	151.06
291.141	141.06
291.371	147.06
291.602	154.06
291.833	154.06
292.064	168.06
292.295	175.06
292.526	192.06
292.757	207.06
292.987	203.06
293.218	223.06
293.449	209.06
293.68	232.06
293.91	228.06
294.141	232.06
294.372	187.06
294.603	201.06
294.833	222.06
295.064	228.06
295.295	245.06
295.525	179.06
295.756	172.06
295.987	147.06
296.217	173.06
296.448	177.06
296.679	150.06
296.909	171.06
297.14	171.06
297.37	204.06
297.601	179.06
297.831	160.06
298.062	176.06
298.292	219.06
298.523	207.06
298.753	231.06
298.984	218.06
299.214	177.06
299.445	161.06
299.675	154.06
299.905	156.06
300.136	165.06
300.366	161.06
300.597	149.06
300.827	162.06
301.057	161.06
301.288	159.06
301.518	164.06
301.748	168.06
301.979	187.06
302.209	195.06
302.439	171.06
302.669	169.06
302.9	172.06
303.13	170.06
303.36	164.06
303.59	179.06
303.82	181.06
304.051	179.06
304.281	185.06
304.511	187.06
304.741	171.06
304.971	179.06
305.201	180.06
305.431	159.06
305.661	159.06
305.891	172.06
306.121	166.06
306.352	171.06
306.582	148.06
306.812	126.06
307.042	133.06
307.272	146.06
307.502	132.06
307.731	127.06
307.961	149.06
308.191	125.06
308.421	141.06
308.651	131.06
308.881	131.06
309.111	136.06
309.341	158.06
309.571	141.06
309.8	153.06
310.03	149.06
310.26	158.06
310.49	159.06
310.72	144.06
310.949	144.06
311.179	133.06
311.409	155.06
311.639	157.06
311.868	180.06
312.098	227.06
312.328	239.06
312.557	241.06
312.787	241.06
313.017	221.06
313.246	224.06
313.476	234.06
313.706	210.06
313.935	166.06
314.165	149.06
314.394	147.06
314.624	142.06
314.853	157.06
315.083	152.06
315.312	153.06
315.542	156.06
315.771	151.06
316.001	131.06
316.23	131.06
316.46	134.06
316.689	150.06
316.919	139.06
317.148	140.06
317.377	134.06
317.607	132.06
317.836	156.06
318.065	151.06
318.295	161.06
318.524	173.06
318.753	158.06
318.983	141.06
319.212	148.06
319.441	151.06
319.67	169.06
319.9	161.06
320.129	169.06
320.358	153.06
320.587	149.06
320.816	139.06
321.046	163.06
321.275	191.06
321.504	191.06
321.733	178.06
321.962	173.06
322.191	163.06
322.42	160.06
322.649	175.06
322.878	186.06
323.108	177.06
323.337	163.06
323.566	171.06
323.795	158.06
324.024	145.06
324.253	147.06
324.482	156.06
324.71	158.06
324.939	161.06
325.168	155.06
325.397	154.06
325.626	142.06
325.855	158.06
326.084	149.06
326.313	142.06
326.542	144.06
326.77	135.06
326.999	138.06
327.228	155.06
327.457	128.06
327.686	136.06
327.914	142.06
328.143	129.06
328.372	118.06
328.6	149.06
328.829	144.06
329.058	136.06
329.287	135.06
329.515	128.06
329.744	137.06
329.972	134.06
330.201	136.06
330.43	137.06
330.658	155.06
330.887	146.06
331.115	135.06
331.344	142.06
331.572	153.06
331.801	136.06
332.03	132.06
332.258	129.06
332.486	139.06
332.715	147.06
332.943	131.06
333.172	140.06
333.4	151.06
333.629	151.06
333.857	142.06
334.085	170.06
334.314	163.06
334.542	139.06
334.771	148.06
334.999	151.06
335.227	153.06
335.455	135.06
335.684	154.06
335.912	149.06
336.14	185.06
336.369	175.06
336.597	181.06
336.825	194.06
337.053	203.06
337.281	175.06
337.51	134.06
337.738	138.06
337.966	154.06
338.194	164.06
338.422	149.06
338.65	145.06
338.878	143.06
339.106	147.06
339.334	155.06
339.562	151.06
339.79	153.06
340.018	144.06
340.246	169.06
340.474	164.06
340.702	165.06
340.93	166.06
341.158	179.06
341.386	165.06
341.614	147.06
341.842	149.06
342.07	153.06
342.298	180.06
342.526	195.06
342.754	177.06
342.981	145.06
343.209	166.06
343.437	184.06
343.665	182.06
343.893	166.06
344.12	189.06
344.348	198.06
344.576	210.06
344.804	161.06
345.031	161.06
345.259	143.06
345.487	156.06
345.714	147.06
345.942	168.06
346.17	180.06
346.397	176.06
346.625	163.06
346.853	152.06
347.08	137.06
347.308	144.06
347.535	159.06
347.763	177.06
347.99	151.06
348.218	143.06
348.445	161.06
348.673	170.06
348.9	147.06
349.128	174.06
349.355	170.06
349.583	147.06
349.81	147.06
350.037	137.06
350.265	127.06
350.492	121.06
350.72	136.06
350.947	147.06
351.174	140.06
351.402	147.06
351.629	137.06
351.856	148.06
352.083	138.06
352.311	137.06
352.538	171.06
352.765	175.06
352.992	164.06
353.22	166.06
353.447	150.06
353.674	154.06
353.901	142.06
354.128	155.06
354.355	166.06
354.583	158.06
354.81	159.06
355.037	172.06
355.264	183.06
355.491	170.06
355.718	180.06
355.945	161.06
356.172	163.06
356.399	160.06
356.626	181.06
356.853	217.06
357.08	238.06
357.307	233.06
357.534	193.06
357.761	193.06
357.988	220.06
358.215	229.06
358.441	217.06
358.668	209.06
358.895	206.06
359.122	160.06
359.349	174.06
359.576	186.06
359.802	169.06
360.029	145.06
360.256	168.06
360.483	182.06
360.709	224.06
360.936	218.06
361.163	191.06
361.39	163.06
361.616	165.06
361.843	194.06
362.07	192.06
362.296	174.06
362.523	155.06
362.749	150.06
362.976	140.06
363.203	183.06
363.429	183.06
363.656	161.06
363.882	147.06
364.109	154.06
364.335	155.06
364.562	154.06
364.788	157.06
365.015	165.06
365.241	181.06
365.468	155.06
365.694	139.06
365.92	140.06
366.147	137.06
366.373	135.06
366.599	129.06
366.826	144.06
367.052	129.06
367.278	145.06
367.505	135.06
367.731	152.06
367.957	149.06
368.184	153.06
368.41	161.06
368.636	157.06
368.862	149.06
369.089	162.06
369.315	158.06
369.541	139.06
369.767	135.06
369.993	139.06
370.219	137.06
370.445	155.06
370.672	152.06
370.898	166.06
371.124	165.06
371.35	139.06
371.576	147.06
371.802	144.06
372.028	160.06
372.254	186.06
372.48	183.06
372.706	159.06
372.932	158.06
373.158	150.06
373.384	182.06
373.61	230.06
373.835	217.06
374.061	171.06
374.287	167.06
374.513	190.06
374.739	212.06
374.965	226.06
375.191	207.06
375.416	155.06
375.642	159.06
375.868	162.06
376.094	187.06
376.319	161.06
376.545	172.06
376.771	179.06
376.997	170.06
377.222	131.06
377.448	133.06
377.674	133.06
377.899	130.06
378.125	125.06
378.35	122.06
378.576	135.06
378.802	133.06
379.027	161.06
379.253	165.06
379.478	154.06
379.704	157.06
379.929	149.06
380.155	167.06
380.38	158.06
380.606	149.06
380.831	177.06
381.057	155.06
381.282	159.06
381.507	169.06
381.733	174.06
381.958	199.06
382.184	223.06
382.409	226.06
382.634	233.06
382.86	228.06
383.085	200.06
383.31	183.06
383.535	193.06
383.761	175.06
383.986	162.06
384.211	192.06
384.436	194.06
384.662	152.06
384.887	155.06
385.112	147.06
385.337	157.06
385.562	163.06
385.787	168.06
386.013	187.06
386.238	173.06
386.463	165.06
386.688	140.06
386.913	140.06
387.138	150.06
387.363	147.06
387.588	152.06
387.813	157.06
388.038	165.06
388.263	146.06
388.488	162.06
388.713	173.06
388.938	183.06
389.163	149.06
389.387	137.06
389.612	151.06
389.837	145.06
390.062	163.06
390.287	143.06
390.512	141.06
390.736	142.06
390.961	156.06
391.186	131.06
391.411	136.06
391.636	149.06
391.86	147.06
392.085	149.06
392.31	160.06
392.534	153.06
392.759	161.06
392.984	153.06
393.208	147.06
393.433	130.06
393.658	138.06
393.882	134.06
394.107	130.06
394.331	136.06
394.556	133.06
394.78	136.06
395.005	141.06
395.229	140.06
395.454	146.06
395.678	153.06
395.903	155.06
396.127	117.06
396.352	149.06
396.576	158.06
396.801	173.06
397.025	162.06
397.249	187.06
397.474	163.06
397.698	152.06
397.922	158.06
398.147	136.06
398.371	139.06
398.595	134.06
398.82	149.06
399.044	149.06
399.268	177.06
399.492	165.06
399.717	154.06
399.941	166.06
400.165	143.06
400.389	142.06
400.613	161.06
400.837	161.06
401.062	156.06
401.286	148.06
401.51	156.06
401.734	149.06
401.958	153.06
402.182	164.06
402.406	137.06
402.63	143.06
402.854	153.06
403.078	157.06
403.302	196.06
403.526	207.06
403.75	195.06
403.974	177.06
404.198	177.06
404.422	185.06
404.645	210.06
404.869	191.06
405.093	162.06
405.317	154.06
405.541	155.06
405.765	153.06
405.988	171.06
406.212	154.06
406.436	183.06
406.66	210.06
406.883	163.06
407.107	172.06
407.331	185.06
407.555	181.06
407.778	169.06
408.002	162.06
408.226	162.06
408.449	174.06
408.673	148.06
408.896	147.06
409.12	139.06
409.344	161.06
409.567	133.06
409.791	142.06
410.014	141.06
410.238	140.06
410.461	145.06
410.685	137.06
410.908	143.06
411.132	152.06
411.355	147.06
411.578	146.06
411.802	141.06
412.025	151.06
412.249	153.06
412.472	157.06
412.695	142.06
412.919	139.06
413.142	154.06
413.365	164.06
413.589	153.06
413.812	155.06
414.035	149.06
414.258	142.06
414.482	158.06
414.705	161.06
414.928	145.06
415.151	139.06
415.374	163.06
415.597	166.06
415.821	148.06
416.044	147.06
416.267	137.06
416.49	143.06
416.713	124.06
416.936	146.06
417.159	133.06
417.382	141.06
417.605	149.06
417.828	147.06
418.051	155.06
418.274	164.06
418.497	157.06
418.72	148.06
418.943	154.06
419.166	145.06
419.389	168.06
419.611	159.06
419.834	154.06
420.057	180.06
420.28	161.06
420.503	169.06
420.726	138.06
420.948	151.06
421.171	135.06
421.394	155.06
421.617	149.06
421.839	121.06
422.062	147.06
422.285	142.06
422.507	143.06
422.73	157.06
422.953	168.06
423.175	155.06
423.398	149.06
423.621	165.06
423.843	144.06
424.066	139.06
424.288	152.06
424.511	141.06
424.733	152.06
424.956	167.06
425.178	166.06
425.401	194.06
425.623	191.06
425.846	163.06
426.068	162.06
426.291	178.06
426.513	164.06
426.735	149.06
426.958	163.06
427.18	170.06
427.402	197.06
427.625	213.06
427.847	195.06
428.069	143.06
428.292	149.06
428.514	155.06
428.736	163.06
428.958	165.06
429.181	177.06
429.403	166.06
429.625	143.06
429.847	144.06
430.069	161.06
430.292	174.06
430.514	156.06
430.736	141.06
430.958	189.06
431.18	173.06
431.402	159.06
431.624	150.06
431.846	132.06
432.068	159.06
432.29	161.06
432.512	164.06
432.734	163.06
432.956	174.06
433.178	138.06
433.4	131.06
433.622	156.06
433.844	161.06
434.066	164.06
434.287	156.06
434.509	148.06
434.731	154.06
434.953	155.06
435.175	156.06
435.397	187.06
435.618	146.06
435.84	140.06
436.062	143.06
436.284	155.06
436.505	126.06
436.727	141.06
436.949	131.06
437.17	153.06
437.392	153.06
437.614	159.06
437.835	119.06
438.057	163.06
438.278	154.06
438.5	218.06
438.721	187.06
438.943	151.06
439.165	150.06
439.386	126.06
439.608	146.06
439.829	129.06
440.05	128.06
440.272	149.06
440.493	151.06
440.715	173.06
440.936	146.06
441.158	168.06
441.379	124.06
441.6	159.06
441.822	173.06
442.043	153.06
442.264	168.06
442.486	158.06
442.707	144.06
442.928	155.06
443.149	152.06
443.371	154.06
443.592	155.06
443.813	147.06
444.034	143.06
444.255	151.06
444.476	162.06
444.698	143.06
444.919	165.06
445.14	279.06
445.361	226.06
445.582	167.06
445.803	157.06
446.024	150.06
446.245	171.06
446.466	151.06
446.687	142.06
446.908	168.06
447.129	140.06
447.35	141.06
447.571	141.06
447.792	129.06
448.013	140.06
448.234	151.06
448.455	140.06
448.675	131.06
448.896	143.06
449.117	141.06
449.338	159.06
449.559	148.06
449.779	151.06
450	148.06
450.221	137.06
450.442	152.06
450.662	143.06
450.883	155.06
451.104	138.06
451.324	145.06
451.545	154.06
451.766	138.06
451.986	139.06
452.207	141.06
452.428	151.06
452.648	150.06
452.869	163.06
453.089	146.06
453.31	140.06
453.53	143.06
453.751	141.06
453.971	135.06
454.192	145.06
454.412	142.06
454.633	133.06
454.853	138.06
455.073	127.06
455.294	131.06
455.514	140.06
455.734	129.06
455.955	139.06
456.175	149.06
456.395	133.06
456.616	141.06
456.836	139.06
457.056	120.06
457.276	116.06
457.497	137.06
457.717	120.06
457.937	134.06
458.157	137.06
458.377	147.06
458.598	149.06
458.818	141.06
459.038	146.06
459.258	139.06
459.478	142.06
459.698	149.06
459.918	158.06
460.138	148.06
460.358	140.06
460.578	118.06
460.798	160.06
461.018	138.06
461.238	141.06
461.458	143.06
461.678	169.06
461.898	157.06
462.118	165.06
462.338	168.06
462.558	147.06
462.777	151.06
462.997	166.06
463.217	157.06
463.437	156.06
463.657	163.06
463.876	161.06
464.096	150.06
464.316	166.06
464.536	148.06
464.755	160.06
464.975	158.06
465.195	159.06
465.414	166.06
465.634	161.06
465.854	160.06
466.073	142.06
466.293	137.06
466.512	164.06
466.732	153.06
466.951	158.06
467.171	149.06
467.391	145.06
467.61	151.06
467.829	163.06
468.049	157.06
468.268	149.06
468.488	155.06
468.707	158.06
468.927	171.06
469.146	166.06
469.365	149.06
469.585	162.06
469.804	168.06
470.023	173.06
470.243	174.06
470.462	152.06
470.681	149.06
470.901	147.06
471.12	172.06
471.339	150.06
471.558	144.06
471.777	151.06
471.997	188.06
472.216	179.06
472.435	175.06
472.654	165.06
472.873	138.06
473.092	161.06
473.311	174.06
473.53	163.06
473.749	157.06
473.968	157.06
474.187	157.06
474.406	151.06
474.625	147.06
474.844	154.06
475.063	166.06
475.282	151.06
475.501	164.06
475.72	191.06
475.939	173.06
476.158	168.06
476.377	200.06
476.596	210.06
476.814	208.06
477.033	188.06
477.252	169.06
477.471	166.06
477.69	162.06
477.908	166.06
478.127	172.06
478.346	183.06
478.564	185.06
478.783	170.06
479.002	183.06
479.22	193.06
479.439	197.06
479.658	197.06
479.876	170.06
480.095	178.06
480.313	177.06
480.532	173.06
480.751	163.06
480.969	163.06
481.188	185.06
481.406	205.06
481.624	195.06
481.843	167.06
482.061	172.06
482.28	155.06
482.498	199.06
482.717	222.06
482.935	181.06
483.153	171.06
483.372	162.06
483.59	163.06
483.808	156.06
484.027	166.06
484.245	158.06
484.463	164.06
484.681	156.06
484.9	175.06
485.118	181.06
485.336	161.06
485.554	154.06
485.772	158.06
485.99	187.06
486.209	191.06
486.427	170.06
486.645	185.06
486.863	170.06
487.081	169.06
487.299	192.06
487.517	193.06
487.735	166.06
487.953	169.06
488.171	175.06
488.389	172.06
488.607	157.06
488.825	162.06
489.043	189.06
489.261	215.06
489.479	223.06
489.696	182.06
489.914	163.06
490.132	157.06
490.35	156.06
490.568	172.06
490.786	175.06
491.003	163.06
491.221	189.06
491.439	181.06
491.657	185.06
491.874	170.06
492.092	201.06
492.31	248.06
492.527	244.06
492.745	192.06
492.963	193.06
493.18	187.06
493.398	189.06
493.615	190.06
493.833	193.06
494.05	193.06
494.268	181.06
494.485	167.06
494.703	186.06
494.92	185.06
495.138	173.06
495.355	185.06
495.573	185.06
495.79	200.06
496.008	260.06
496.225	206.06
496.442	194.06
496.66	216.06
496.877	221.06
497.094	198.06
497.312	185.06
497.529	176.06
497.746	206.06
497.963	191.06
498.181	200.06
498.398	203.06
498.615	204.06
498.832	216.06
499.049	226.06
499.267	195.06
499.484	205.06
499.701	204.06
499.918	221.06
500.135	234.06
500.352	259.06
500.569	265.06
500.786	285.06
501.003	255.06
501.22	250.06
501.437	214.06
501.654	242.06
501.871	219.06
502.088	228.06
502.305	197.06
502.522	206.06
502.739	213.06
502.956	189.06
503.172	205.06
503.389	191.06
503.606	176.06
503.823	185.06
504.04	177.06
504.256	191.06
504.473	183.06
504.69	188.06
504.907	195.06
505.123	207.06
505.34	211.06
505.557	189.06
505.773	184.06
505.99	198.06
506.207	205.06
506.423	195.06
506.64	183.06
506.856	188.06
507.073	198.06
507.289	215.06
507.506	174.06
507.722	205.06
507.939	207.06
508.155	195.06
508.372	194.06
508.588	195.06
508.805	174.06
509.021	193.06
509.238	182.06
509.454	166.06
509.67	174.06
509.887	199.06
510.103	194.06
510.319	178.06
510.536	167.06
510.752	161.06
510.968	155.06
511.184	145.06
511.401	163.06
511.617	175.06
511.833	158.06
512.049	157.06
512.265	161.06
512.481	180.06
512.698	178.06
512.914	193.06
513.13	173.06
513.346	185.06
513.562	185.06
513.778	175.06
513.994	192.06
514.21	195.06
514.426	190.06
514.642	178.06
514.858	186.06
515.074	183.06
515.29	197.06
515.506	199.06
515.721	199.06
515.937	182.06
516.153	191.06
516.369	176.06
516.585	200.06
516.801	225.06
517.016	241.06
517.232	205.06
517.448	235.06
517.664	187.06
517.879	175.06
518.095	183.06
518.311	190.06
518.527	187.06
518.742	211.06
518.958	210.06
519.173	207.06
519.389	228.06
519.605	204.06
519.82	217.06
520.036	234.06
520.251	229.06
520.467	237.06
520.682	360.06
520.898	435.06
521.113	385.06
521.329	257.06
521.544	204.06
521.76	210.06
521.975	215.06
522.19	183.06
522.406	186.06
522.621	213.06
522.836	223.06
523.052	222.06
523.267	198.06
523.482	174.06
523.698	208.06
523.913	177.06
524.128	190.06
524.343	181.06
524.559	181.06
524.774	175.06
524.989	193.06
525.204	184.06
525.419	197.06
525.634	204.06
525.849	182.06
526.064	186.06
526.28	191.06
526.495	211.06
526.71	221.06
526.925	211.06
527.14	221.06
527.355	215.06
527.57	189.06
527.785	180.06
527.999	186.06
528.214	180.06
528.429	166.06
528.644	171.06
528.859	177.06
529.074	157.06
529.289	181.06
529.503	172.06
529.718	164.06
529.933	192.06
530.148	225.06
530.363	161.06
530.577	154.06
530.792	172.06
531.007	164.06
531.221	157.06
531.436	149.06
531.651	143.06
531.865	153.06
532.08	159.06
532.295	167.06
532.509	172.06
532.724	195.06
532.938	209.06
533.153	237.06
533.367	191.06
533.582	173.06
533.796	179.06
534.011	168.06
534.225	192.06
534.44	191.06
534.654	181.06
534.868	212.06
535.083	191.06
535.297	156.06
535.511	166.06
535.726	188.06
535.94	191.06
536.154	175.06
536.369	158.06
536.583	162.06
536.797	187.06
537.011	185.06
537.225	184.06
537.44	183.06
537.654	167.06
537.868	158.06
538.082	167.06
538.296	174.06
538.51	166.06
538.724	170.06
538.938	162.06
539.153	164.06
539.367	160.06
539.581	165.06
539.795	176.06
540.009	182.06
540.222	177.06
540.436	171.06
540.65	185.06
540.864	197.06
541.078	186.06
541.292	234.06
541.506	183.06
541.72	175.06
541.934	174.06
542.147	159.06
542.361	171.06
542.575	175.06
542.789	169.06
543.002	165.06
543.216	179.06
543.43	179.06
543.644	154.06
543.857	163.06
544.071	155.06
544.285	155.06
544.498	142.06
544.712	173.06
544.925	186.06
545.139	171.06
545.352	166.06
545.566	158.06
545.779	163.06
545.993	156.06
546.206	162.06
546.42	152.06
546.633	151.06
546.847	144.06
547.06	151.06
547.274	165.06
547.487	159.06
547.7	141.06
547.914	186.06
548.127	177.06
548.34	171.06
548.554	181.06
548.767	159.06
548.98	165.06
549.193	167.06
549.407	146.06
549.62	172.06
549.833	175.06
550.046	175.06
550.259	186.06
550.473	174.06
550.686	165.06
550.899	162.06
551.112	159.06
551.325	156.06
551.538	162.06
551.751	150.06
551.964	161.06
552.177	149.06
552.39	147.06
552.603	165.06
552.816	156.06
553.029	133.06
553.242	149.06
553.455	161.06
553.667	189.06
553.88	161.06
554.093	171.06
554.306	149.06
554.519	148.06
554.732	135.06
554.944	143.06
555.157	133.06
555.37	143.06
555.583	129.06
555.795	145.06
556.008	143.06
556.221	161.06
556.433	157.06
556.646	133.06
556.859	153.06
557.071	159.06
557.284	155.06
557.496	139.06
557.709	135.06
557.921	150.06
558.134	139.06
558.346	151.06
558.559	131.06
558.771	137.06
558.984	150.06
559.196	128.06
559.409	131.06
559.621	142.06
559.833	137.06
560.046	135.06
560.258	130.06
560.47	146.06
560.683	124.06
560.895	144.06
561.107	132.06
561.32	126.06
561.532	147.06
561.744	162.06
561.956	161.06
562.168	147.06
562.381	139.06
562.593	135.06
562.805	147.06
563.017	133.06
563.229	143.06
563.441	128.06
563.653	151.06
563.865	138.06
564.077	148.06
564.289	145.06
564.501	139.06
564.713	153.06
564.925	144.06
565.137	116.06
565.349	129.06
565.561	151.06
565.773	131.06
565.985	137.06
566.197	149.06
566.408	145.06
566.62	139.06
566.832	166.06
567.044	147.06
567.255	164.06
567.467	161.06
567.679	149.06
567.891	162.06
568.102	157.06
568.314	154.06
568.526	161.06
568.737	155.06
568.949	145.06
569.161	142.06
569.372	142.06
569.584	132.06
569.795	132.06
570.007	136.06
570.218	142.06
570.43	141.06
570.641	146.06
570.853	136.06
571.064	131.06
571.276	140.06
571.487	125.06
571.698	139.06
571.91	128.06
572.121	131.06
572.333	138.06
572.544	133.06
572.755	133.06
572.966	154.06
573.178	145.06
573.389	140.06
573.6	127.06
573.811	125.06
574.023	110.06
574.234	124.06
574.445	127.06
574.656	114.06
574.867	128.06
575.078	130.06
575.289	120.06
575.501	131.06
575.712	126.06
575.923	128.06
576.134	122.06
576.345	109.06
576.556	119.06
576.767	128.06
576.978	125.06
577.188	133.06
577.399	109.06
577.61	114.06
577.821	129.06
578.032	126.06
578.243	126.06
578.454	149.06
578.665	136.06
578.875	126.06
579.086	131.06
579.297	119.06
579.508	136.06
579.718	131.06
579.929	136.06
580.14	123.06
580.35	115.06
580.561	134.06
580.772	110.06
580.982	113.06
581.193	133.06
581.403	126.06
581.614	109.06
581.825	120.06
582.035	107.06
582.246	114.06
582.456	129.06
582.667	125.06
582.877	117.06
583.087	131.06
583.298	125.06
583.508	120.06
583.719	109.06
583.929	115.06
584.139	119.06
584.35	123.06
584.56	131.06
584.77	116.06
584.981	122.06
585.191	120.06
585.401	123.06
585.611	116.06
585.821	119.06
586.032	127.06
586.242	115.06
586.452	114.06
586.662	116.06
586.872	118.06
587.082	122.06
587.292	118.06
587.502	108.06
587.713	115.06
587.923	122.06
588.133	120.06
588.343	122.06
588.553	121.06
588.762	112.06
588.972	113.06
589.182	106.06
589.392	105.06
589.602	118.06
589.812	115.06
590.022	126.06
590.232	121.06
590.441	125.06
590.651	115.06
590.861	110.06
591.071	122.06
591.281	109.06
591.49	111.06
591.7	116.06
591.91	125.06
592.119	129.06
592.329	122.06
592.539	111.06
592.748	108.06
592.958	123.06
593.167	121.06
593.377	126.06
593.587	128.06
593.796	127.06
594.006	133.06
594.215	123.06
594.424	133.06
594.634	129.06
594.843	109.06
595.053	119.06
595.262	109.06
595.472	107.06
595.681	111.06
595.89	111.06
596.1	132.06
596.309	109.06
596.518	120.06
596.727	110.06
596.937	121.06
597.146	116.06
597.355	135.06
597.564	106.06
597.774	110.06
597.983	114.06
598.192	115.06
598.401	110.06
598.61	110.06
598.819	113.06
599.028	119.06
599.237	110.06
599.446	107.06
599.655	116.06
599.864	99.06
600.073	119.06
600.282	117.06
600.491	111.06
600.7	105.06
600.909	113.06
601.118	117.06
601.327	118.06
601.536	130.06
601.745	106.06
601.953	118.06
602.162	105.06
602.371	103.06
602.58	118.06
602.789	133.06
602.997	111.06
603.206	88.06
603.415	117.06
603.623	124.06
603.832	121.06
604.041	103.06
604.249	104.06
604.458	105.06
604.666	117.06
604.875	114.06
605.084	116.06
605.292	126.06
605.501	118.06
605.709	94.06
605.918	105.06
606.126	118.06
606.334	115.06
606.543	113.06
606.751	109.06
606.96	101.06
607.168	117.06
607.376	99.06
607.585	101.06
607.793	107.06
608.001	115.06
608.21	89.06
608.418	109.06
608.626	96.06
608.834	106.06
609.043	100.06
609.251	115.06
609.459	90.06
609.667	119.06
609.875	110.06
610.083	113.06
610.291	121.06
610.499	102.06
610.707	108.06
610.916	97.06
611.124	110.06
611.332	99.06
611.54	101.06
611.748	104.06
611.955	123.06
612.163	114.06
612.371	103.06
612.579	102.06
612.787	110.06
612.995	88.06
613.203	111.06
613.411	117.06
613.618	94.06
613.826	104.06
614.034	105.06
614.242	106.06
614.449	117.06
614.657	89.06
614.865	103.06
615.072	106.06
615.28	88.06
615.488	101.06
615.695	115.06
615.903	105.06
616.111	121.06
616.318	116.06
616.526	116.06
616.733	107.06
616.941	116.06
617.148	113.06
617.356	97.06
617.563	103.06
617.771	88.06
617.978	127.06
618.185	110.06
618.393	106.06
618.6	116.06
618.807	112.06
619.015	86.06
619.222	102.06
619.429	105.06
619.637	98.06
619.844	93.06
620.051	96.06
620.258	102.06
620.466	92.06
620.673	101.06
620.88	85.06
621.087	110.06
621.294	115.06
621.501	103.06
621.708	110.06
621.915	102.06
622.122	99.06
622.329	88.06
622.536	113.06
622.743	107.06
622.95	105.06
623.157	93.06
623.364	122.06
623.571	110.06
623.778	99.06
623.985	101.06
624.192	111.06
624.399	100.06
624.606	118.06
624.812	104.06
625.019	98.06
625.226	104.06
625.433	104.06
625.639	109.06
625.846	114.06
626.053	101.06
626.259	98.06
626.466	110.06
626.673	97.06
626.879	99.06
627.086	88.06
627.293	97.06
627.499	99.06
627.706	99.06
627.912	100.06
628.119	97.06
628.325	106.06
628.532	103.06
628.738	110.06
628.945	92.06
629.151	87.06
629.357	103.06
629.564	90.06
629.77	96.06
629.976	100.06
630.183	112.06
630.389	90.06
630.595	92.06
630.802	94.06
631.008	88.06
631.214	90.06
631.42	92.06
631.627	107.06
631.833	113.06
632.039	94.06
632.245	113.06
632.451	102.06
632.657	100.06
632.863	99.06
633.069	95.06
633.275	79.06
633.481	82.06
633.688	93.06
633.893	90.06
634.099	96.06
634.305	104.06
634.511	97.06
634.717	102.06
634.923	87.06
635.129	96.06
635.335	85.06
635.541	99.06
635.747	99.06
635.952	94.06
636.158	91.06
636.364	101.06
636.57	87.06
636.775	98.06
636.981	100.06
637.187	114.06
637.392	102.06
637.598	80.06
637.804	95.06
638.009	103.06
638.215	89.06
638.421	102.06
638.626	103.06
638.832	117.06
639.037	108.06
639.243	103.06
639.448	100.06
639.654	98.06
639.859	104.06
640.065	94.06
640.27	102.06
640.475	105.06
640.681	101.06
640.886	95.06
641.091	93.06
641.297	100.06
641.502	83.06
641.707	105.06
641.913	97.06
642.118	88.06
642.323	93.06
642.528	94.06
642.733	91.06
642.939	92.06
643.144	104.06
643.349	108.06
643.554	101.06
643.759	100.06
643.964	106.06
644.169	87.06
644.374	93.06
644.579	92.06
644.784	91.06
644.989	96.06
645.194	102.06
645.399	107.06
645.604	106.06
645.809	96.06
646.014	88.06
646.219	93.06
646.423	95.06
646.628	101.06
646.833	97.06
647.038	90.06
647.243	83.06
647.447	83.06
647.652	101.06
647.857	96.06
648.062	99.06
648.266	98.06
648.471	114.06
648.676	95.06
648.88	94.06
649.085	82.06
649.289	101.06
649.494	99.06
649.698	90.06
649.903	96.06
650.107	90.06
650.312	89.06
650.516	89.06
650.721	98.06
650.925	90.06
651.13	95.06
651.334	86.06
651.539	84.06
651.743	102.06
651.947	99.06
652.152	101.06
652.356	79.06
652.56	107.06
652.764	100.06
652.969	87.06
653.173	92.06
653.377	106.06
653.581	87.06
653.785	108.06
653.99	86.06
654.194	86.06
654.398	94.06
654.602	97.06
654.806	109.06
655.01	77.06
655.214	91.06
655.418	102.06
655.622	92.06
655.826	102.06
656.03	88.06
656.234	88.06
656.438	94.06
656.642	88.06
656.846	92.06
657.049	91.06
657.253	102.06
657.457	90.06
657.661	91.06
657.865	88.06
658.068	76.06
658.272	80.06
658.476	86.06
658.68	88.06
658.883	81.06
659.087	85.06
659.291	88.06
659.494	94.06
659.698	85.06
659.901	100.06
660.105	77.06
660.309	90.06
660.512	92.06
660.716	93.06
660.919	92.06
661.123	95.06
661.326	86.06
661.53	85.06
661.733	88.06
661.936	89.06
662.14	79.06
662.343	80.06
662.546	101.06
662.75	98.06
662.953	86.06
663.156	99.06
663.36	92.06
663.563	89.06
663.766	75.06
663.969	84.06
664.173	87.06
664.376	76.06
664.579	91.06
664.782	92.06
664.985	86.06
665.188	85.06
665.391	89.06
665.594	75.06
665.797	85.06
666	92.06
666.203	98.06
666.406	87.06
666.609	70.06
666.812	96.06
667.015	81.06
667.218	85.06
667.421	80.06
667.624	71.06
667.827	81.06
668.03	71.06
668.232	84.06
668.435	78.06
668.638	78.06
668.841	99.06
669.043	84.06
669.246	94.06
669.449	81.06
669.651	89.06
669.854	78.06
670.057	79.06
670.259	70.06
670.462	88.06
670.665	68.06
670.867	81.06
671.07	89.06
671.272	94.06
671.475	83.06
671.677	82.06
671.88	81.06
672.082	77.06
672.284	73.06
672.487	81.06
672.689	80.06
672.892	72.06
