Data from NickelSpatula.Lamp.E10.P2_HRD10591_11-57-06-533.txt Node
Date: Tue Jul 23 11:57:06 EDT 2019
User: cochatt
Spectrometer: HR+D1059
Trigger mode: 1
Integration Time (sec): 1.000000E-1
Scans to average: 1
Electric dark correction enabled: true
Nonlinearity correction enabled: false
Boxcar width: 0
XAxis mode: Wavelengths
Number of Pixels in Spectrum: 2048
>>>>>Begin Spectral Data<<<<<
223.165	-17.56
223.4	-17.56
223.635	-17.56
223.869	-22.56
224.104	-11.56
224.338	-21.56
224.573	-15.56
224.808	-8.56
225.042	-8.56
225.277	-4.56
225.511	-8.56
225.746	4.44
225.98	6.44
226.215	14.44
226.449	7.44
226.683	26.44
226.918	36.44
227.152	23.44
227.387	34.44
227.621	38.44
227.856	48.44
228.09	44.44
228.324	61.44
228.559	62.44
228.793	86.44
229.027	133.44
229.262	162.44
229.496	153.44
229.73	152.44
229.964	205.44
230.199	213.44
230.433	207.44
230.667	205.44
230.901	198.44
231.136	203.44
231.37	217.44
231.604	218.44
231.838	235.44
232.072	240.44
232.306	252.44
232.541	249.44
232.775	237.44
233.009	274.44
233.243	301.44
233.477	301.44
233.711	332.44
233.945	338.44
234.179	330.44
234.413	342.44
234.647	375.44
234.881	435.44
235.115	410.44
235.349	397.44
235.583	353.44
235.817	352.44
236.051	372.44
236.285	412.44
236.519	451.44
236.753	428.44
236.987	434.44
237.221	388.44
237.455	412.44
237.689	428.44
237.922	485.44
238.156	477.44
238.39	572.44
238.624	627.44
238.858	581.44
239.091	491.44
239.325	508.44
239.559	469.44
239.793	523.44
240.027	638.44
240.26	594.44
240.494	571.44
240.728	576.44
240.961	666.44
241.195	614.44
241.429	625.44
241.662	604.44
241.896	488.44
242.13	451.44
242.363	452.44
242.597	462.44
242.83	522.44
243.064	530.44
243.298	563.44
243.531	583.44
243.765	612.44
243.998	618.44
244.232	600.44
244.465	585.44
244.699	600.44
244.932	646.44
245.166	617.44
245.399	538.44
245.633	542.44
245.866	589.44
246.099	604.44
246.333	709.44
246.566	761.44
246.8	768.44
247.033	713.44
247.266	686.44
247.5	680.44
247.733	672.44
247.966	662.44
248.2	661.44
248.433	757.44
248.666	815.44
248.899	789.44
249.133	842.44
249.366	976.44
249.599	1030.44
249.832	893.44
250.066	819.44
250.299	832.44
250.532	800.44
250.765	791.44
250.998	711.44
251.231	696.44
251.465	748.44
251.698	803.44
251.931	776.44
252.164	826.44
252.397	911.44
252.63	1016.44
252.863	1133.44
253.096	1150.44
253.329	1121.44
253.562	1061.44
253.795	1220.44
254.028	1354.44
254.261	1345.44
254.494	1180.44
254.727	1118.44
254.96	1099.44
255.193	1159.44
255.426	1093.44
255.659	853.44
255.892	796.44
256.124	845.44
256.357	1005.44
256.59	1162.44
256.823	1106.44
257.056	942.44
257.289	902.44
257.521	972.44
257.754	1132.44
257.987	1248.44
258.22	1088.44
258.452	978.44
258.685	1142.44
258.918	1239.44
259.151	1220.44
259.383	1262.44
259.616	1460.44
259.849	1536.44
260.081	1679.44
260.314	1809.44
260.547	1440.44
260.779	1453.44
261.012	1672.44
261.244	1584.44
261.477	1621.44
261.71	1508.44
261.942	1280.44
262.175	1269.44
262.407	1176.44
262.64	1254.44
262.872	1456.44
263.105	1578.44
263.337	1670.44
263.57	1496.44
263.802	1040.44
264.035	907.44
264.267	877.44
264.499	788.44
264.732	694.44
264.964	697.44
265.197	726.44
265.429	795.44
265.661	798.44
265.894	832.44
266.126	908.44
266.358	985.44
266.591	1213.44
266.823	1466.44
267.055	1379.44
267.287	1212.44
267.52	1242.44
267.752	1310.44
267.984	1406.44
268.216	1332.44
268.448	1102.44
268.681	1093.44
268.913	1173.44
269.145	1257.44
269.377	1292.44
269.609	1274.44
269.841	1205.44
270.073	1241.44
270.306	1355.44
270.538	1399.44
270.77	1402.44
271.002	1406.44
271.234	1440.44
271.466	1501.44
271.698	1423.44
271.93	1371.44
272.162	1404.44
272.394	1378.44
272.626	1330.44
272.858	1410.44
273.09	1411.44
273.322	1300.44
273.553	1233.44
273.785	1477.44
274.017	1900.44
274.249	2300.44
274.481	2402.44
274.713	2632.44
274.945	2973.44
275.176	3150.44
275.408	2754.44
275.64	2473.44
275.872	2513.44
276.104	2154.44
276.335	1884.44
276.567	1834.44
276.799	1954.44
277.031	2000.44
277.262	1562.44
277.494	1203.44
277.726	1181.44
277.957	1296.44
278.189	1460.44
278.421	1438.44
278.652	1412.44
278.884	1315.44
279.115	1234.44
279.347	1198.44
279.579	1208.44
279.81	1193.44
280.042	1222.44
280.273	1229.44
280.505	1156.44
280.736	1005.44
280.968	975.44
281.199	1091.44
281.431	1239.44
281.662	1214.44
281.894	1140.44
282.125	1234.44
282.356	1334.44
282.588	1397.44
282.819	1235.44
283.051	1356.44
283.282	1643.44
283.513	1899.44
283.745	2133.44
283.976	2094.44
284.207	1975.44
284.439	2055.44
284.67	1961.44
284.901	1747.44
285.132	1863.44
285.364	1951.44
285.595	1798.44
285.826	1930.44
286.057	1967.44
286.288	1902.44
286.52	1959.44
286.751	2033.44
286.982	2048.44
287.213	1716.44
287.444	1723.44
287.675	1782.44
287.906	1796.44
288.138	1484.44
288.369	1320.44
288.6	1276.44
288.831	1317.44
289.062	1510.44
289.293	1668.44
289.524	1605.44
289.755	1568.44
289.986	1603.44
290.217	1429.44
290.448	1073.44
290.679	953.44
290.91	903.44
291.141	915.44
291.371	932.44
291.602	957.44
291.833	980.44
292.064	1074.44
292.295	1196.44
292.526	1356.44
292.757	1438.44
292.987	1538.44
293.218	1505.44
293.449	1576.44
293.68	1653.44
293.91	1600.44
294.141	1608.44
294.372	1529.44
294.603	1384.44
294.833	1576.44
295.064	1814.44
295.295	1708.44
295.525	1317.44
295.756	1121.44
295.987	972.44
296.217	1014.44
296.448	1002.44
296.679	1080.44
296.909	1192.44
297.14	1260.44
297.37	1375.44
297.601	1321.44
297.831	1131.44
298.062	1241.44
298.292	1402.44
298.523	1529.44
298.753	1727.44
298.984	1511.44
299.214	1231.44
299.445	1034.44
299.675	988.44
299.905	1035.44
300.136	1063.44
300.366	1157.44
300.597	1106.44
300.827	968.44
301.057	944.44
301.288	982.44
301.518	1089.44
301.748	1190.44
301.979	1284.44
302.209	1383.44
302.439	1380.44
302.669	1223.44
302.9	1216.44
303.13	1126.44
303.36	1062.44
303.59	1041.44
303.82	1070.44
304.051	1191.44
304.281	1306.44
304.511	1262.44
304.741	1136.44
304.971	1199.44
305.201	1270.44
305.431	1176.44
305.661	1048.44
305.891	1043.44
306.121	1034.44
306.352	960.44
306.582	866.44
306.812	860.44
307.042	862.44
307.272	800.44
307.502	800.44
307.731	884.44
307.961	890.44
308.191	848.44
308.421	812.44
308.651	780.44
308.881	741.44
309.111	768.44
309.341	802.44
309.571	889.44
309.8	908.44
310.03	918.44
310.26	979.44
310.49	934.44
310.72	838.44
310.949	837.44
311.179	874.44
311.409	897.44
311.639	1102.44
311.868	1338.44
312.098	1765.44
312.328	1860.44
312.557	1812.44
312.787	1796.44
313.017	1595.44
313.246	1781.44
313.476	1889.44
313.706	1565.44
313.935	1256.44
314.165	1048.44
314.394	948.44
314.624	948.44
314.853	989.44
315.083	1032.44
315.312	980.44
315.542	980.44
315.771	946.44
316.001	838.44
316.23	854.44
316.46	838.44
316.689	864.44
316.919	852.44
317.148	870.44
317.377	833.44
317.607	855.44
317.836	920.44
318.065	1091.44
318.295	1204.44
318.524	1118.44
318.753	963.44
318.983	946.44
319.212	900.44
319.441	996.44
319.67	1093.44
319.9	1148.44
320.129	1108.44
320.358	944.44
320.587	922.44
320.816	999.44
321.046	1136.44
321.275	1289.44
321.504	1269.44
321.733	1240.44
321.962	1186.44
322.191	1135.44
322.42	1048.44
322.649	1082.44
322.878	1159.44
323.108	1154.44
323.337	1086.44
323.566	1102.44
323.795	1051.44
324.024	985.44
324.253	940.44
324.482	956.44
324.71	1054.44
324.939	1180.44
325.168	1112.44
325.397	900.44
325.626	912.44
325.855	893.44
326.084	922.44
326.313	891.44
326.542	834.44
326.77	856.44
326.999	894.44
327.228	963.44
327.457	981.44
327.686	1005.44
327.914	859.44
328.143	830.44
328.372	838.44
328.6	846.44
328.829	875.44
329.058	877.44
329.287	888.44
329.515	904.44
329.744	856.44
329.972	812.44
330.201	787.44
330.43	834.44
330.658	941.44
330.887	1043.44
331.115	1020.44
331.344	981.44
331.572	948.44
331.801	900.44
332.03	848.44
332.258	862.44
332.486	941.44
332.715	963.44
332.943	930.44
333.172	898.44
333.4	925.44
333.629	1026.44
333.857	1095.44
334.085	1068.44
334.314	1105.44
334.542	1030.44
334.771	970.44
334.999	955.44
335.227	932.44
335.455	936.44
335.684	1044.44
335.912	1177.44
336.14	1282.44
336.369	1244.44
336.597	1172.44
336.825	1370.44
337.053	1487.44
337.281	1204.44
337.51	971.44
337.738	951.44
337.966	1044.44
338.194	1156.44
338.422	1084.44
338.65	923.44
338.878	866.44
339.106	936.44
339.334	1027.44
339.562	1031.44
339.79	962.44
340.018	960.44
340.246	1053.44
340.474	1172.44
340.702	1253.44
340.93	1285.44
341.158	1292.44
341.386	1111.44
341.614	1083.44
341.842	1093.44
342.07	1132.44
342.298	1300.44
342.526	1350.44
342.754	1164.44
342.981	1092.44
343.209	1034.44
343.437	1124.44
343.665	1177.44
343.893	1142.44
344.12	1339.44
344.348	1538.44
344.576	1389.44
344.804	1177.44
345.031	1015.44
345.259	965.44
345.487	972.44
345.714	1025.44
345.942	1088.44
346.17	1173.44
346.397	1097.44
346.625	970.44
346.853	940.44
347.08	932.44
347.308	982.44
347.535	1052.44
347.763	1108.44
347.99	967.44
348.218	906.44
348.445	962.44
348.673	987.44
348.9	948.44
349.128	1036.44
349.355	1076.44
349.583	1018.44
349.81	1017.44
350.037	940.44
350.265	837.44
350.492	808.44
350.72	788.44
350.947	828.44
351.174	892.44
351.402	930.44
351.629	935.44
351.856	918.44
352.083	872.44
352.311	950.44
352.538	1048.44
352.765	1115.44
352.992	1020.44
353.22	969.44
353.447	954.44
353.674	960.44
353.901	934.44
354.128	945.44
354.355	969.44
354.583	965.44
354.81	971.44
355.037	1025.44
355.264	978.44
355.491	1038.44
355.718	1124.44
355.945	1100.44
356.172	1080.44
356.399	1042.44
356.626	1300.44
356.853	1558.44
357.08	1632.44
357.307	1668.44
357.534	1341.44
357.761	1348.44
357.988	1666.44
358.215	1925.44
358.441	1861.44
358.668	1574.44
358.895	1445.44
359.122	1210.44
359.349	1173.44
359.576	1296.44
359.802	1033.44
360.029	922.44
360.256	1010.44
360.483	1230.44
360.709	1540.44
360.936	1593.44
361.163	1346.44
361.39	1094.44
361.616	1028.44
361.843	1163.44
362.07	1412.44
362.296	1305.44
362.523	1052.44
362.749	921.44
362.976	961.44
363.203	1152.44
363.429	1296.44
363.656	1018.44
363.882	918.44
364.109	980.44
364.335	981.44
364.562	951.44
364.788	1115.44
365.015	1247.44
365.241	1128.44
365.468	929.44
365.694	837.44
365.92	795.44
366.147	780.44
366.373	763.44
366.599	781.44
366.826	810.44
367.052	816.44
367.278	830.44
367.505	826.44
367.731	867.44
367.957	996.44
368.184	971.44
368.41	979.44
368.636	1000.44
368.862	986.44
369.089	1000.44
369.315	892.44
369.541	864.44
369.767	870.44
369.993	818.44
370.219	859.44
370.445	880.44
370.672	980.44
370.898	1058.44
371.124	1070.44
371.35	916.44
371.576	893.44
371.802	966.44
372.028	1114.44
372.254	1248.44
372.48	1113.44
372.706	999.44
372.932	1031.44
373.158	1123.44
373.384	1284.44
373.61	1682.44
373.835	1734.44
374.061	1305.44
374.287	1098.44
374.513	1334.44
374.739	1584.44
374.965	1637.44
375.191	1566.44
375.416	1093.44
375.642	966.44
375.868	1159.44
376.094	1278.44
376.319	1136.44
376.545	1209.44
376.771	1268.44
376.997	1127.44
377.222	860.44
377.448	764.44
377.674	721.44
377.899	757.44
378.125	752.44
378.35	749.44
378.576	776.44
378.802	851.44
379.027	912.44
379.253	868.44
379.478	886.44
379.704	1003.44
379.929	1055.44
380.155	1068.44
380.38	936.44
380.606	992.44
380.831	1061.44
381.057	978.44
381.282	943.44
381.507	1136.44
381.733	1407.44
381.958	1457.44
382.184	1560.44
382.409	1636.44
382.634	1584.44
382.86	1662.44
383.085	1368.44
383.31	1116.44
383.535	1171.44
383.761	1178.44
383.986	1152.44
384.211	1360.44
384.436	1311.44
384.662	1000.44
384.887	984.44
385.112	999.44
385.337	1036.44
385.562	978.44
385.787	1044.44
386.013	1169.44
386.238	1197.44
386.463	975.44
386.688	982.44
386.913	930.44
387.138	884.44
387.363	956.44
387.588	995.44
387.813	958.44
388.038	1072.44
388.263	982.44
388.488	980.44
388.713	1072.44
388.938	1176.44
389.163	978.44
389.387	904.44
389.612	934.44
389.837	945.44
390.062	968.44
390.287	982.44
390.512	1013.44
390.736	948.44
390.961	886.44
391.186	850.44
391.411	850.44
391.636	868.44
391.86	914.44
392.085	995.44
392.31	978.44
392.534	958.44
392.759	920.44
392.984	985.44
393.208	925.44
393.433	850.44
393.658	804.44
393.882	773.44
394.107	793.44
394.331	840.44
394.556	808.44
394.78	811.44
395.005	822.44
395.229	853.44
395.454	870.44
395.678	896.44
395.903	906.44
396.127	872.44
396.352	892.44
396.576	958.44
396.801	988.44
397.025	1058.44
397.249	1106.44
397.474	924.44
397.698	901.44
397.922	987.44
398.147	899.44
398.371	904.44
398.595	965.44
398.82	952.44
399.044	954.44
399.268	1015.44
399.492	1045.44
399.717	1054.44
399.941	1091.44
400.165	1080.44
400.389	1032.44
400.613	1044.44
400.837	1016.44
401.062	928.44
401.286	868.44
401.51	892.44
401.734	906.44
401.958	918.44
402.182	903.44
402.406	896.44
402.63	939.44
402.854	957.44
403.078	1054.44
403.302	1268.44
403.526	1359.44
403.75	1200.44
403.974	1035.44
404.198	1085.44
404.422	1227.44
404.645	1381.44
404.869	1524.44
405.093	1156.44
405.317	983.44
405.541	989.44
405.765	1001.44
405.988	1044.44
406.212	1094.44
406.436	1285.44
406.66	1398.44
406.883	1122.44
407.107	1161.44
407.331	1349.44
407.555	1287.44
407.778	1108.44
408.002	1074.44
408.226	1040.44
408.449	1031.44
408.673	1005.44
408.896	956.44
409.12	933.44
409.344	882.44
409.567	874.44
409.791	904.44
410.014	931.44
410.238	908.44
410.461	902.44
410.685	906.44
410.908	921.44
411.132	954.44
411.355	938.44
411.578	936.44
411.802	938.44
412.025	982.44
412.249	979.44
412.472	962.44
412.695	956.44
412.919	959.44
413.142	965.44
413.365	1026.44
413.589	1019.44
413.812	957.44
414.035	926.44
414.258	946.44
414.482	1052.44
414.705	1072.44
414.928	917.44
415.151	900.44
415.374	863.44
415.597	914.44
415.821	900.44
416.044	881.44
416.267	883.44
416.49	872.44
416.713	869.44
416.936	874.44
417.159	827.44
417.382	888.44
417.605	861.44
417.828	916.44
418.051	888.44
418.274	949.44
418.497	948.44
418.72	950.44
418.943	936.44
419.166	1020.44
419.389	1040.44
419.611	1020.44
419.834	982.44
420.057	1084.44
420.28	1086.44
420.503	1031.44
420.726	891.44
420.948	894.44
421.171	875.44
421.394	896.44
421.617	822.44
421.839	860.44
422.062	923.44
422.285	914.44
422.507	942.44
422.73	979.44
422.953	946.44
423.175	938.44
423.398	924.44
423.621	1012.44
423.843	1036.44
424.066	969.44
424.288	963.44
424.511	901.44
424.733	940.44
424.956	979.44
425.178	1059.44
425.401	1206.44
425.623	1338.44
425.846	1131.44
426.068	997.44
426.291	1097.44
426.513	1028.44
426.735	960.44
426.958	1012.44
427.18	1152.44
427.402	1435.44
427.625	1412.44
427.847	1160.44
428.069	912.44
428.292	896.44
428.514	893.44
428.736	849.44
428.958	952.44
429.181	1094.44
429.403	961.44
429.625	898.44
429.847	869.44
430.069	893.44
430.292	923.44
430.514	883.44
430.736	947.44
430.958	1181.44
431.18	1074.44
431.402	837.44
431.624	828.44
431.846	830.44
432.068	816.44
432.29	831.44
432.512	900.44
432.734	1213.44
432.956	1118.44
433.178	873.44
433.4	847.44
433.622	840.44
433.844	892.44
434.066	912.44
434.287	922.44
434.509	885.44
434.731	914.44
434.953	865.44
435.175	900.44
435.397	1024.44
435.618	898.44
435.84	839.44
436.062	828.44
436.284	834.44
436.505	801.44
436.727	790.44
436.949	772.44
437.17	837.44
437.392	832.44
437.614	856.44
437.835	797.44
438.057	851.44
438.278	976.44
438.5	1340.44
438.721	1353.44
438.943	938.44
439.165	796.44
439.386	795.44
439.608	797.44
439.829	789.44
440.05	793.44
440.272	862.44
440.493	1013.44
440.715	1197.44
440.936	986.44
441.158	854.44
441.379	897.44
441.6	988.44
441.822	999.44
442.043	866.44
442.264	893.44
442.486	881.44
442.707	859.44
442.928	884.44
443.149	880.44
443.371	916.44
443.592	924.44
443.813	923.44
444.034	926.44
444.255	925.44
444.476	943.44
444.698	954.44
444.919	984.44
445.14	1026.44
445.361	992.44
445.582	988.44
445.803	958.44
446.024	968.44
446.245	966.44
446.466	939.44
446.687	893.44
446.908	877.44
447.129	860.44
447.35	833.44
447.571	805.44
447.792	796.44
448.013	795.44
448.234	793.44
448.455	816.44
448.675	810.44
448.896	828.44
449.117	786.44
449.338	825.44
449.559	822.44
449.779	862.44
450	836.44
450.221	851.44
450.442	830.44
450.662	799.44
450.883	776.44
451.104	813.44
451.324	799.44
451.545	797.44
451.766	809.44
451.986	784.44
452.207	781.44
452.428	765.44
452.648	778.44
452.869	825.44
453.089	844.44
453.31	864.44
453.53	738.44
453.751	761.44
453.971	740.44
454.192	782.44
454.412	788.44
454.633	748.44
454.853	746.44
455.073	741.44
455.294	735.44
455.514	738.44
455.734	777.44
455.955	828.44
456.175	820.44
456.395	732.44
456.616	709.44
456.836	702.44
457.056	704.44
457.276	685.44
457.497	724.44
457.717	742.44
457.937	730.44
458.157	716.44
458.377	743.44
458.598	735.44
458.818	779.44
459.038	800.44
459.258	834.44
459.478	849.44
459.698	925.44
459.918	880.44
460.138	888.44
460.358	899.44
460.578	883.44
460.798	886.44
461.018	918.44
461.238	837.44
461.458	856.44
461.678	884.44
461.898	930.44
462.118	890.44
462.338	936.44
462.558	979.44
462.777	1032.44
462.997	993.44
463.217	993.44
463.437	1049.44
463.657	998.44
463.876	977.44
464.096	973.44
464.316	979.44
464.536	955.44
464.755	1021.44
464.975	1005.44
465.195	923.44
465.414	994.44
465.634	960.44
465.854	932.44
466.073	886.44
466.293	853.44
466.512	914.44
466.732	1000.44
466.951	1029.44
467.171	947.44
467.391	890.44
467.61	894.44
467.829	932.44
468.049	930.44
468.268	885.44
468.488	864.44
468.707	902.44
468.927	1042.44
469.146	1120.44
469.365	1031.44
469.585	946.44
469.804	1001.44
470.023	1079.44
470.243	975.44
470.462	916.44
470.681	925.44
470.901	899.44
471.12	965.44
471.339	988.44
471.558	902.44
471.777	913.44
471.997	998.44
472.216	1082.44
472.435	1033.44
472.654	972.44
472.873	933.44
473.092	994.44
473.311	1046.44
473.53	957.44
473.749	948.44
473.968	961.44
474.187	980.44
474.406	966.44
474.625	946.44
474.844	962.44
475.063	972.44
475.282	995.44
475.501	1072.44
475.72	1095.44
475.939	1084.44
476.158	1136.44
476.377	1265.44
476.596	1406.44
476.814	1474.44
477.033	1236.44
477.252	1052.44
477.471	1026.44
477.69	1003.44
477.908	1104.44
478.127	1172.44
478.346	1054.44
478.564	1156.44
478.783	1056.44
479.002	1127.44
479.22	1271.44
479.439	1422.44
479.658	1223.44
479.876	1125.44
480.095	1200.44
480.313	1255.44
480.532	1113.44
480.751	1087.44
480.969	1123.44
481.188	1260.44
481.406	1308.44
481.624	1228.44
481.843	1125.44
482.061	1067.44
482.28	1204.44
482.498	1444.44
482.717	1357.44
482.935	1216.44
483.153	1145.44
483.372	1094.44
483.59	1061.44
483.808	1060.44
484.027	1038.44
484.245	993.44
484.463	994.44
484.681	1015.44
484.9	1094.44
485.118	1225.44
485.336	1127.44
485.554	1024.44
485.772	1065.44
485.99	1164.44
486.209	1214.44
486.427	1214.44
486.645	1218.44
486.863	1227.44
487.081	1213.44
487.299	1354.44
487.517	1340.44
487.735	1186.44
487.953	1242.44
488.171	1226.44
488.389	1195.44
488.607	1103.44
488.825	1147.44
489.043	1258.44
489.261	1418.44
489.479	1503.44
489.696	1276.44
489.914	1177.44
490.132	1142.44
490.35	1156.44
490.568	1140.44
490.786	1101.44
491.003	1142.44
491.221	1164.44
491.439	1139.44
491.657	1113.44
491.874	1246.44
492.092	1442.44
492.31	1708.44
492.527	1703.44
492.745	1509.44
492.963	1341.44
493.18	1285.44
493.398	1278.44
493.615	1278.44
493.833	1230.44
494.05	1243.44
494.268	1255.44
494.485	1217.44
494.703	1212.44
494.92	1226.44
495.138	1188.44
495.355	1198.44
495.573	1221.44
495.79	1338.44
496.008	1759.44
496.225	1564.44
496.442	1358.44
496.66	1353.44
496.877	1387.44
497.094	1374.44
497.312	1291.44
497.529	1305.44
497.746	1334.44
497.963	1386.44
498.181	1472.44
498.398	1544.44
498.615	1620.44
498.832	1679.44
499.049	1682.44
499.267	1534.44
499.484	1556.44
499.701	1629.44
499.918	1721.44
500.135	1875.44
500.352	1882.44
500.569	1992.44
500.786	2034.44
501.003	1993.44
501.22	1811.44
501.437	1716.44
501.654	1633.44
501.871	1628.44
502.088	1614.44
502.305	1508.44
502.522	1529.44
502.739	1489.44
502.956	1403.44
503.172	1374.44
503.389	1301.44
503.606	1301.44
503.823	1286.44
504.04	1332.44
504.256	1362.44
504.473	1348.44
504.69	1341.44
504.907	1390.44
505.123	1369.44
505.34	1436.44
505.557	1399.44
505.773	1346.44
505.99	1283.44
506.207	1379.44
506.423	1258.44
506.64	1200.44
506.856	1251.44
507.073	1338.44
507.289	1318.44
507.506	1332.44
507.722	1378.44
507.939	1416.44
508.155	1446.44
508.372	1286.44
508.588	1275.44
508.805	1234.44
509.021	1208.44
509.238	1197.44
509.454	1169.44
509.67	1171.44
509.887	1208.44
510.103	1315.44
510.319	1302.44
510.536	1164.44
510.752	1092.44
510.968	1063.44
511.184	1016.44
511.401	1030.44
511.617	1035.44
511.833	1019.44
512.049	1090.44
512.265	1088.44
512.481	1101.44
512.698	1223.44
512.914	1332.44
513.13	1234.44
513.346	1149.44
513.562	1161.44
513.778	1166.44
513.994	1142.44
514.21	1226.44
514.426	1200.44
514.642	1136.44
514.858	1120.44
515.074	1187.44
515.29	1288.44
515.506	1397.44
515.721	1312.44
515.937	1248.44
516.153	1162.44
516.369	1171.44
516.585	1245.44
516.801	1361.44
517.016	1555.44
517.232	1530.44
517.448	1520.44
517.664	1385.44
517.879	1318.44
518.095	1280.44
518.311	1266.44
518.527	1304.44
518.742	1338.44
518.958	1445.44
519.173	1381.44
519.389	1364.44
519.605	1366.44
519.82	1476.44
520.036	1703.44
520.251	1654.44
520.467	1554.44
520.682	2352.44
520.898	2811.44
521.113	2695.44
521.329	1700.44
521.544	1553.44
521.76	1468.44
521.975	1334.44
522.19	1246.44
522.406	1298.44
522.621	1438.44
522.836	1516.44
523.052	1552.44
523.267	1270.44
523.482	1259.44
523.698	1372.44
523.913	1324.44
524.128	1213.44
524.343	1172.44
524.559	1161.44
524.774	1118.44
524.989	1138.44
525.204	1196.44
525.419	1320.44
525.634	1212.44
525.849	1258.44
526.064	1244.44
526.28	1238.44
526.495	1456.44
526.71	1487.44
526.925	1331.44
527.14	1379.44
527.355	1355.44
527.57	1132.44
527.785	1163.44
527.999	1133.44
528.214	1076.44
528.429	1061.44
528.644	1079.44
528.859	1012.44
529.074	1005.44
529.289	1006.44
529.503	999.44
529.718	1034.44
529.933	1190.44
530.148	1151.44
530.363	1043.44
530.577	1022.44
530.792	1005.44
531.007	977.44
531.221	969.44
531.436	995.44
531.651	989.44
531.865	989.44
532.08	1007.44
532.295	986.44
532.509	1028.44
532.724	1197.44
532.938	1302.44
533.153	1458.44
533.367	1204.44
533.582	1190.44
533.796	1089.44
534.011	1020.44
534.225	1037.44
534.44	1058.44
534.654	1093.44
534.868	1243.44
535.083	1097.44
535.297	1028.44
535.511	1005.44
535.726	1131.44
535.94	1061.44
536.154	1015.44
536.369	984.44
536.583	1000.44
536.797	994.44
537.011	1038.44
537.225	1115.44
537.44	1168.44
537.654	1020.44
537.868	1002.44
538.082	1005.44
538.296	1026.44
538.51	1056.44
538.724	1088.44
538.938	1028.44
539.153	989.44
539.367	972.44
539.581	981.44
539.795	998.44
540.009	1142.44
540.222	1065.44
540.436	1038.44
540.65	1130.44
540.864	1156.44
541.078	1204.44
541.292	1346.44
541.506	1134.44
541.72	1068.44
541.934	1029.44
542.147	1008.44
542.361	1024.44
542.575	1052.44
542.789	1021.44
543.002	972.44
543.216	1059.44
543.43	956.44
543.644	943.44
543.857	933.44
544.071	940.44
544.285	910.44
544.498	908.44
544.712	911.44
544.925	989.44
545.139	939.44
545.352	900.44
545.566	938.44
545.779	1034.44
545.993	966.44
546.206	892.44
546.42	904.44
546.633	878.44
546.847	853.44
547.06	859.44
547.274	867.44
547.487	887.44
547.7	975.44
547.914	1030.44
548.127	1071.44
548.34	1086.44
548.554	964.44
548.767	1001.44
548.98	1044.44
549.193	993.44
549.407	981.44
549.62	1172.44
549.833	1101.44
550.046	1174.44
550.259	1156.44
550.473	1009.44
550.686	962.44
550.899	1002.44
551.112	972.44
551.325	1049.44
551.538	1092.44
551.751	960.44
551.964	931.44
552.177	889.44
552.39	885.44
552.603	900.44
552.816	949.44
553.029	908.44
553.242	876.44
553.455	929.44
553.667	1024.44
553.88	982.44
554.093	898.44
554.306	851.44
554.519	804.44
554.732	808.44
554.944	792.44
555.157	786.44
555.37	748.44
555.583	786.44
555.795	814.44
556.008	828.44
556.221	825.44
556.433	788.44
556.646	765.44
556.859	784.44
557.071	802.44
557.284	823.44
557.496	814.44
557.709	813.44
557.921	796.44
558.134	729.44
558.346	717.44
558.559	733.44
558.771	766.44
558.984	796.44
559.196	784.44
559.409	772.44
559.621	734.44
559.833	707.44
560.046	755.44
560.258	731.44
560.47	761.44
560.683	725.44
560.895	685.44
561.107	667.44
561.32	698.44
561.532	693.44
561.744	754.44
561.956	790.44
562.168	717.44
562.381	698.44
562.593	715.44
562.805	741.44
563.017	712.44
563.229	699.44
563.441	676.44
563.653	698.44
563.865	686.44
564.077	724.44
564.289	691.44
564.501	682.44
564.713	757.44
564.925	723.44
565.137	714.44
565.349	700.44
565.561	719.44
565.773	711.44
565.985	750.44
566.197	761.44
566.408	828.44
566.62	837.44
566.832	847.44
567.044	860.44
567.255	894.44
567.467	978.44
567.679	880.44
567.891	874.44
568.102	864.44
568.314	909.44
568.526	838.44
568.737	830.44
568.949	887.44
569.161	753.44
569.372	705.44
569.584	696.44
569.795	722.44
570.007	692.44
570.218	739.44
570.43	754.44
570.641	714.44
570.853	662.44
571.064	638.44
571.276	690.44
571.487	709.44
571.698	665.44
571.91	660.44
572.121	661.44
572.333	636.44
572.544	632.44
572.755	624.44
572.966	603.44
573.178	608.44
573.389	629.44
573.6	634.44
573.811	635.44
574.023	587.44
574.234	574.44
574.445	574.44
574.656	596.44
574.867	607.44
575.078	590.44
575.289	580.44
575.501	644.44
575.712	583.44
575.923	569.44
576.134	563.44
576.345	550.44
576.556	552.44
576.767	550.44
576.978	534.44
577.188	527.44
577.399	552.44
577.61	545.44
577.821	533.44
578.032	542.44
578.243	596.44
578.454	562.44
578.665	576.44
578.875	549.44
579.086	560.44
579.297	566.44
579.508	573.44
579.718	572.44
579.929	547.44
580.14	560.44
580.35	508.44
580.561	472.44
580.772	493.44
580.982	480.44
581.193	494.44
581.403	477.44
581.614	461.44
581.825	489.44
582.035	484.44
582.246	475.44
582.456	471.44
582.667	485.44
582.877	467.44
583.087	486.44
583.298	453.44
583.508	488.44
583.719	459.44
583.929	456.44
584.139	454.44
584.35	481.44
584.56	475.44
584.77	484.44
584.981	479.44
585.191	470.44
585.401	463.44
585.611	483.44
585.821	496.44
586.032	504.44
586.242	501.44
586.452	482.44
586.662	476.44
586.872	475.44
587.082	505.44
587.292	493.44
587.502	477.44
587.713	461.44
587.923	482.44
588.133	515.44
588.343	486.44
588.553	462.44
588.762	458.44
588.972	466.44
589.182	461.44
589.392	471.44
589.602	443.44
589.812	478.44
590.022	513.44
590.232	502.44
590.441	473.44
590.651	466.44
590.861	471.44
591.071	478.44
591.281	443.44
591.49	448.44
591.7	470.44
591.91	451.44
592.119	445.44
592.329	459.44
592.539	501.44
592.748	492.44
592.958	476.44
593.167	471.44
593.377	477.44
593.587	491.44
593.796	473.44
594.006	496.44
594.215	497.44
594.424	465.44
594.634	490.44
594.843	482.44
595.053	482.44
595.262	448.44
595.472	432.44
595.681	449.44
595.89	426.44
596.1	439.44
596.309	442.44
596.518	443.44
596.727	433.44
596.937	425.44
597.146	440.44
597.355	453.44
597.564	452.44
597.774	428.44
597.983	416.44
598.192	417.44
598.401	410.44
598.61	397.44
598.819	401.44
599.028	418.44
599.237	402.44
599.446	416.44
599.655	386.44
599.864	386.44
600.073	380.44
600.282	398.44
600.491	377.44
600.7	369.44
600.909	377.44
601.118	388.44
601.327	385.44
601.536	399.44
601.745	427.44
601.953	437.44
602.162	390.44
602.371	404.44
602.58	407.44
602.789	391.44
602.997	381.44
603.206	380.44
603.415	377.44
603.623	376.44
603.832	363.44
604.041	368.44
604.249	376.44
604.458	393.44
604.666	358.44
604.875	368.44
605.084	363.44
605.292	361.44
605.501	385.44
605.709	356.44
605.918	368.44
606.126	362.44
606.334	370.44
606.543	372.44
606.751	371.44
606.96	366.44
607.168	346.44
607.376	364.44
607.585	359.44
607.793	358.44
608.001	340.44
608.21	361.44
608.418	354.44
608.626	370.44
608.834	372.44
609.043	349.44
609.251	358.44
609.459	349.44
609.667	349.44
609.875	331.44
610.083	341.44
610.291	349.44
610.499	357.44
610.707	334.44
610.916	341.44
611.124	350.44
611.332	334.44
611.54	337.44
611.748	340.44
611.955	344.44
612.163	357.44
612.371	345.44
612.579	340.44
612.787	343.44
612.995	344.44
613.203	340.44
613.411	349.44
613.618	341.44
613.826	380.44
614.034	351.44
614.242	326.44
614.449	351.44
614.657	325.44
614.865	336.44
615.072	343.44
615.28	323.44
615.488	334.44
615.695	329.44
615.903	327.44
616.111	350.44
616.318	328.44
616.526	325.44
616.733	322.44
616.941	334.44
617.148	319.44
617.356	330.44
617.563	334.44
617.771	317.44
617.978	322.44
618.185	326.44
618.393	317.44
618.6	329.44
618.807	323.44
619.015	322.44
619.222	340.44
619.429	345.44
619.637	324.44
619.844	308.44
620.051	293.44
620.258	306.44
620.466	308.44
620.673	320.44
620.88	298.44
621.087	298.44
621.294	300.44
621.501	305.44
621.708	311.44
621.915	300.44
622.122	302.44
622.329	318.44
622.536	275.44
622.743	323.44
622.95	296.44
623.157	315.44
623.364	306.44
623.571	303.44
623.778	293.44
623.985	320.44
624.192	315.44
624.399	315.44
624.606	293.44
624.812	296.44
625.019	308.44
625.226	319.44
625.433	310.44
625.639	289.44
625.846	294.44
626.053	284.44
626.259	281.44
626.466	293.44
626.673	301.44
626.879	274.44
627.086	278.44
627.293	307.44
627.499	276.44
627.706	273.44
627.912	269.44
628.119	275.44
628.325	277.44
628.532	275.44
628.738	282.44
628.945	274.44
629.151	269.44
629.357	276.44
629.564	276.44
629.77	284.44
629.976	258.44
630.183	269.44
630.389	268.44
630.595	251.44
630.802	273.44
631.008	264.44
631.214	240.44
631.42	267.44
631.627	260.44
631.833	276.44
632.039	267.44
632.245	271.44
632.451	262.44
632.657	267.44
632.863	257.44
633.069	248.44
633.275	264.44
633.481	255.44
633.688	258.44
633.893	261.44
634.099	232.44
634.305	244.44
634.511	242.44
634.717	218.44
634.923	236.44
635.129	242.44
635.335	233.44
635.541	253.44
635.747	235.44
635.952	230.44
636.158	237.44
636.364	260.44
636.57	245.44
636.775	229.44
636.981	232.44
637.187	232.44
637.392	218.44
637.598	233.44
637.804	225.44
638.009	233.44
638.215	224.44
638.421	243.44
638.626	216.44
638.832	225.44
639.037	228.44
639.243	223.44
639.448	237.44
639.654	249.44
639.859	229.44
640.065	228.44
640.27	257.44
640.475	244.44
640.681	235.44
640.886	238.44
641.091	234.44
641.297	251.44
641.502	219.44
641.707	222.44
641.913	235.44
642.118	234.44
642.323	221.44
642.528	224.44
642.733	223.44
642.939	236.44
643.144	226.44
643.349	223.44
643.554	230.44
643.759	226.44
643.964	201.44
644.169	211.44
644.374	225.44
644.579	218.44
644.784	203.44
644.989	209.44
645.194	210.44
645.399	208.44
645.604	212.44
645.809	218.44
646.014	207.44
646.219	222.44
646.423	211.44
646.628	193.44
646.833	234.44
647.038	209.44
647.243	217.44
647.447	212.44
647.652	224.44
647.857	206.44
648.062	210.44
648.266	231.44
648.471	208.44
648.676	227.44
648.88	208.44
649.085	204.44
649.289	198.44
649.494	220.44
649.698	229.44
649.903	216.44
650.107	229.44
650.312	202.44
650.516	193.44
650.721	201.44
650.925	208.44
651.13	188.44
651.334	202.44
651.539	192.44
651.743	193.44
651.947	188.44
652.152	182.44
652.356	189.44
652.56	178.44
652.764	202.44
652.969	180.44
653.173	183.44
653.377	172.44
653.581	176.44
653.785	161.44
653.99	168.44
654.194	178.44
654.398	165.44
654.602	162.44
654.806	146.44
655.01	152.44
655.214	167.44
655.418	161.44
655.622	164.44
655.826	160.44
656.03	171.44
656.234	161.44
656.438	158.44
656.642	166.44
656.846	155.44
657.049	156.44
657.253	142.44
657.457	146.44
657.661	144.44
657.865	140.44
658.068	137.44
658.272	126.44
658.476	131.44
658.68	123.44
658.883	113.44
659.087	114.44
659.291	112.44
659.494	126.44
659.698	126.44
659.901	118.44
660.105	108.44
660.309	108.44
660.512	101.44
660.716	89.44
660.919	106.44
661.123	114.44
661.326	103.44
661.53	113.44
661.733	90.44
661.936	87.44
662.14	81.44
662.343	85.44
662.546	98.44
662.75	101.44
662.953	86.44
663.156	97.44
663.36	86.44
663.563	90.44
663.766	97.44
663.969	84.44
664.173	79.44
664.376	85.44
664.579	92.44
664.782	86.44
664.985	75.44
665.188	83.44
665.391	90.44
665.594	88.44
665.797	83.44
666	80.44
666.203	77.44
666.406	83.44
666.609	89.44
666.812	85.44
667.015	77.44
667.218	89.44
667.421	76.44
667.624	80.44
667.827	79.44
668.03	74.44
668.232	88.44
668.435	84.44
668.638	94.44
668.841	86.44
669.043	83.44
669.246	98.44
669.449	83.44
669.651	89.44
669.854	82.44
670.057	79.44
670.259	90.44
670.462	84.44
670.665	83.44
670.867	84.44
671.07	91.44
671.272	86.44
671.475	101.44
671.677	88.44
671.88	89.44
672.082	81.44
672.284	92.44
672.487	84.44
672.689	76.44
672.892	81.44
