Data from NickelSpatula.Lamp.E10.P2_HRD10591_11-57-42-531.txt Node
Date: Tue Jul 23 11:57:42 EDT 2019
User: cochatt
Spectrometer: HR+D1059
Trigger mode: 1
Integration Time (sec): 1.000000E-1
Scans to average: 1
Electric dark correction enabled: true
Nonlinearity correction enabled: false
Boxcar width: 0
XAxis mode: Wavelengths
Number of Pixels in Spectrum: 2048
>>>>>Begin Spectral Data<<<<<
223.165	-24.31
223.4	-24.31
223.635	-24.31
223.869	-24.31
224.104	-19.31
224.338	-10.31
224.573	0.69
224.808	11.69
225.042	-15.31
225.277	0.69
225.511	-5.31
225.746	5.69
225.98	4.69
226.215	2.69
226.449	18.69
226.683	13.69
226.918	12.69
227.152	27.69
227.387	34.69
227.621	37.69
227.856	48.69
228.09	55.69
228.324	53.69
228.559	56.69
228.793	83.69
229.027	133.69
229.262	157.69
229.496	168.69
229.73	176.69
229.964	200.69
230.199	228.69
230.433	214.69
230.667	212.69
230.901	200.69
231.136	197.69
231.37	194.69
231.604	218.69
231.838	248.69
232.072	270.69
232.306	254.69
232.541	246.69
232.775	229.69
233.009	265.69
233.243	295.69
233.477	314.69
233.711	360.69
233.945	332.69
234.179	319.69
234.413	377.69
234.647	430.69
234.881	475.69
235.115	437.69
235.349	406.69
235.583	371.69
235.817	356.69
236.051	385.69
236.285	422.69
236.519	465.69
236.753	419.69
236.987	440.69
237.221	412.69
237.455	418.69
237.689	434.69
237.922	465.69
238.156	476.69
238.39	538.69
238.624	663.69
238.858	595.69
239.091	506.69
239.325	521.69
239.559	496.69
239.793	560.69
240.027	670.69
240.26	613.69
240.494	576.69
240.728	601.69
240.961	664.69
241.195	638.69
241.429	631.69
241.662	608.69
241.896	516.69
242.13	465.69
242.363	450.69
242.597	463.69
242.83	540.69
243.064	547.69
243.298	601.69
243.531	640.69
243.765	662.69
243.998	622.69
244.232	621.69
244.465	593.69
244.699	602.69
244.932	696.69
245.166	640.69
245.399	574.69
245.633	549.69
245.866	574.69
246.099	640.69
246.333	717.69
246.566	776.69
246.8	790.69
247.033	737.69
247.266	717.69
247.5	699.69
247.733	674.69
247.966	656.69
248.2	698.69
248.433	781.69
248.666	857.69
248.899	837.69
249.133	869.69
249.366	1013.69
249.599	1052.69
249.832	931.69
250.066	835.69
250.299	835.69
250.532	804.69
250.765	800.69
250.998	701.69
251.231	726.69
251.465	778.69
251.698	842.69
251.931	807.69
252.164	858.69
252.397	947.69
252.63	1056.69
252.863	1139.69
253.096	1232.69
253.329	1183.69
253.562	1130.69
253.795	1241.69
254.028	1385.69
254.261	1401.69
254.494	1269.69
254.727	1148.69
254.96	1144.69
255.193	1207.69
255.426	1127.69
255.659	889.69
255.892	802.69
256.124	873.69
256.357	1066.69
256.59	1212.69
256.823	1142.69
257.056	999.69
257.289	947.69
257.521	1009.69
257.754	1143.69
257.987	1327.69
258.22	1146.69
258.452	1036.69
258.685	1142.69
258.918	1282.69
259.151	1250.69
259.383	1331.69
259.616	1536.69
259.849	1583.69
260.081	1724.69
260.314	1918.69
260.547	1503.69
260.779	1477.69
261.012	1742.69
261.244	1640.69
261.477	1669.69
261.71	1565.69
261.942	1290.69
262.175	1287.69
262.407	1253.69
262.64	1278.69
262.872	1534.69
263.105	1667.69
263.337	1720.69
263.57	1566.69
263.802	1049.69
264.035	930.69
264.267	892.69
264.499	779.69
264.732	732.69
264.964	710.69
265.197	735.69
265.429	779.69
265.661	847.69
265.894	870.69
266.126	937.69
266.358	1032.69
266.591	1258.69
266.823	1530.69
267.055	1416.69
267.287	1258.69
267.52	1280.69
267.752	1330.69
267.984	1488.69
268.216	1402.69
268.448	1123.69
268.681	1140.69
268.913	1191.69
269.145	1317.69
269.377	1299.69
269.609	1300.69
269.841	1247.69
270.073	1349.69
270.306	1387.69
270.538	1388.69
270.77	1413.69
271.002	1441.69
271.234	1459.69
271.466	1512.69
271.698	1458.69
271.93	1424.69
272.162	1423.69
272.394	1424.69
272.626	1402.69
272.858	1469.69
273.09	1528.69
273.322	1330.69
273.553	1290.69
273.785	1538.69
274.017	1993.69
274.249	2445.69
274.481	2538.69
274.713	2820.69
274.945	3188.69
275.176	3311.69
275.408	2867.69
275.64	2624.69
275.872	2650.69
276.104	2259.69
276.335	1902.69
276.567	1946.69
276.799	2007.69
277.031	2121.69
277.262	1619.69
277.494	1267.69
277.726	1220.69
277.957	1342.69
278.189	1504.69
278.421	1460.69
278.652	1439.69
278.884	1386.69
279.115	1282.69
279.347	1196.69
279.579	1234.69
279.81	1222.69
280.042	1233.69
280.273	1256.69
280.505	1168.69
280.736	1026.69
280.968	1008.69
281.199	1115.69
281.431	1239.69
281.662	1263.69
281.894	1188.69
282.125	1268.69
282.356	1340.69
282.588	1416.69
282.819	1266.69
283.051	1384.69
283.282	1732.69
283.513	1994.69
283.745	2204.69
283.976	2224.69
284.207	2001.69
284.439	2119.69
284.67	2030.69
284.901	1816.69
285.132	1973.69
285.364	2084.69
285.595	1889.69
285.826	2023.69
286.057	2066.69
286.288	1968.69
286.52	2019.69
286.751	2151.69
286.982	2134.69
287.213	1830.69
287.444	1759.69
287.675	1892.69
287.906	1863.69
288.138	1564.69
288.369	1376.69
288.6	1296.69
288.831	1375.69
289.062	1583.69
289.293	1720.69
289.524	1649.69
289.755	1631.69
289.986	1665.69
290.217	1449.69
290.448	1141.69
290.679	962.69
290.91	933.69
291.141	942.69
291.371	985.69
291.602	971.69
291.833	1021.69
292.064	1062.69
292.295	1248.69
292.526	1401.69
292.757	1452.69
292.987	1542.69
293.218	1591.69
293.449	1625.69
293.68	1693.69
293.91	1610.69
294.141	1658.69
294.372	1559.69
294.603	1445.69
294.833	1608.69
295.064	1863.69
295.295	1733.69
295.525	1336.69
295.756	1179.69
295.987	974.69
296.217	996.69
296.448	1052.69
296.679	1117.69
296.909	1224.69
297.14	1312.69
297.37	1401.69
297.601	1344.69
297.831	1150.69
298.062	1250.69
298.292	1458.69
298.523	1574.69
298.753	1802.69
298.984	1581.69
299.214	1262.69
299.445	1125.69
299.675	1046.69
299.905	1043.69
300.136	1065.69
300.366	1152.69
300.597	1176.69
300.827	1038.69
301.057	979.69
301.288	993.69
301.518	1076.69
301.748	1234.69
301.979	1343.69
302.209	1399.69
302.439	1430.69
302.669	1241.69
302.9	1236.69
303.13	1158.69
303.36	1092.69
303.59	1046.69
303.82	1085.69
304.051	1233.69
304.281	1326.69
304.511	1324.69
304.741	1132.69
304.971	1214.69
305.201	1315.69
305.431	1203.69
305.661	1066.69
305.891	1046.69
306.121	1061.69
306.352	925.69
306.582	900.69
306.812	861.69
307.042	858.69
307.272	779.69
307.502	840.69
307.731	869.69
307.961	895.69
308.191	834.69
308.421	802.69
308.651	809.69
308.881	756.69
309.111	777.69
309.341	822.69
309.571	902.69
309.8	914.69
310.03	930.69
310.26	945.69
310.49	974.69
310.72	840.69
310.949	852.69
311.179	885.69
311.409	941.69
311.639	1078.69
311.868	1380.69
312.098	1842.69
312.328	2001.69
312.557	1848.69
312.787	1904.69
313.017	1700.69
313.246	1843.69
313.476	1986.69
313.706	1680.69
313.935	1298.69
314.165	1031.69
314.394	967.69
314.624	973.69
314.853	1025.69
315.083	1052.69
315.312	1042.69
315.542	973.69
315.771	944.69
316.001	850.69
316.23	836.69
316.46	843.69
316.689	848.69
316.919	896.69
317.148	891.69
317.377	870.69
317.607	908.69
317.836	955.69
318.065	1122.69
318.295	1222.69
318.524	1110.69
318.753	981.69
318.983	957.69
319.212	937.69
319.441	1009.69
319.67	1116.69
319.9	1206.69
320.129	1116.69
320.358	987.69
320.587	934.69
320.816	985.69
321.046	1169.69
321.275	1306.69
321.504	1331.69
321.733	1248.69
321.962	1207.69
322.191	1157.69
322.42	1122.69
322.649	1136.69
322.878	1215.69
323.108	1163.69
323.337	1135.69
323.566	1072.69
323.795	1065.69
324.024	1022.69
324.253	969.69
324.482	973.69
324.71	1080.69
324.939	1189.69
325.168	1136.69
325.397	900.69
325.626	908.69
325.855	910.69
326.084	948.69
326.313	886.69
326.542	810.69
326.77	871.69
326.999	909.69
327.228	953.69
327.457	1012.69
327.686	989.69
327.914	881.69
328.143	845.69
328.372	833.69
328.6	858.69
328.829	886.69
329.058	900.69
329.287	894.69
329.515	888.69
329.744	904.69
329.972	840.69
330.201	805.69
330.43	838.69
330.658	904.69
330.887	1052.69
331.115	1040.69
331.344	998.69
331.572	955.69
331.801	903.69
332.03	864.69
332.258	899.69
332.486	984.69
332.715	1009.69
332.943	913.69
333.172	899.69
333.4	948.69
333.629	1035.69
333.857	1149.69
334.085	1132.69
334.314	1114.69
334.542	1045.69
334.771	963.69
334.999	962.69
335.227	957.69
335.455	950.69
335.684	1031.69
335.912	1207.69
336.14	1308.69
336.369	1271.69
336.597	1216.69
336.825	1390.69
337.053	1526.69
337.281	1235.69
337.51	995.69
337.738	956.69
337.966	1063.69
338.194	1184.69
338.422	1095.69
338.65	974.69
338.878	872.69
339.106	916.69
339.334	1026.69
339.562	1086.69
339.79	978.69
340.018	970.69
340.246	1037.69
340.474	1180.69
340.702	1258.69
340.93	1280.69
341.158	1341.69
341.386	1109.69
341.614	1123.69
341.842	1093.69
342.07	1164.69
342.298	1331.69
342.526	1349.69
342.754	1191.69
342.981	1101.69
343.209	1058.69
343.437	1104.69
343.665	1198.69
343.893	1150.69
344.12	1324.69
344.348	1585.69
344.576	1436.69
344.804	1187.69
345.031	1038.69
345.259	947.69
345.487	995.69
345.714	1044.69
345.942	1102.69
346.17	1170.69
346.397	1124.69
346.625	990.69
346.853	998.69
347.08	938.69
347.308	1020.69
347.535	1120.69
347.763	1118.69
347.99	985.69
348.218	928.69
348.445	972.69
348.673	977.69
348.9	997.69
349.128	1034.69
349.355	1068.69
349.583	1020.69
349.81	1005.69
350.037	933.69
350.265	822.69
350.492	798.69
350.72	777.69
350.947	826.69
351.174	895.69
351.402	940.69
351.629	965.69
351.856	917.69
352.083	894.69
352.311	970.69
352.538	1078.69
352.765	1136.69
352.992	1048.69
353.22	950.69
353.447	960.69
353.674	934.69
353.901	950.69
354.128	954.69
354.355	976.69
354.583	975.69
354.81	969.69
355.037	1011.69
355.264	968.69
355.491	1055.69
355.718	1158.69
355.945	1120.69
356.172	1052.69
356.399	1072.69
356.626	1284.69
356.853	1575.69
357.08	1674.69
357.307	1720.69
357.534	1331.69
357.761	1376.69
357.988	1738.69
358.215	1998.69
358.441	1859.69
358.668	1601.69
358.895	1458.69
359.122	1203.69
359.349	1195.69
359.576	1295.69
359.802	1105.69
360.029	956.69
360.256	1038.69
360.483	1241.69
360.709	1575.69
360.936	1616.69
361.163	1416.69
361.39	1095.69
361.616	1042.69
361.843	1196.69
362.07	1488.69
362.296	1349.69
362.523	1055.69
362.749	934.69
362.976	991.69
363.203	1192.69
363.429	1344.69
363.656	1059.69
363.882	982.69
364.109	982.69
364.335	957.69
364.562	973.69
364.788	1101.69
365.015	1307.69
365.241	1154.69
365.468	945.69
365.694	808.69
365.92	794.69
366.147	789.69
366.373	788.69
366.599	793.69
366.826	801.69
367.052	809.69
367.278	825.69
367.505	816.69
367.731	874.69
367.957	982.69
368.184	1022.69
368.41	981.69
368.636	1038.69
368.862	1046.69
369.089	1002.69
369.315	918.69
369.541	887.69
369.767	890.69
369.993	838.69
370.219	868.69
370.445	896.69
370.672	990.69
370.898	1057.69
371.124	1059.69
371.35	941.69
371.576	891.69
371.802	996.69
372.028	1135.69
372.254	1312.69
372.48	1118.69
372.706	998.69
372.932	1083.69
373.158	1105.69
373.384	1324.69
373.61	1767.69
373.835	1807.69
374.061	1322.69
374.287	1162.69
374.513	1385.69
374.739	1617.69
374.965	1667.69
375.191	1635.69
375.416	1153.69
375.642	1033.69
375.868	1213.69
376.094	1331.69
376.319	1168.69
376.545	1245.69
376.771	1334.69
376.997	1140.69
377.222	839.69
377.448	761.69
377.674	763.69
377.899	771.69
378.125	718.69
378.35	768.69
378.576	781.69
378.802	848.69
379.027	915.69
379.253	917.69
379.478	911.69
379.704	1014.69
379.929	1099.69
380.155	1070.69
380.38	905.69
380.606	964.69
380.831	1067.69
381.057	1014.69
381.282	948.69
381.507	1155.69
381.733	1421.69
381.958	1486.69
382.184	1590.69
382.409	1675.69
382.634	1624.69
382.86	1700.69
383.085	1375.69
383.31	1088.69
383.535	1216.69
383.761	1200.69
383.986	1172.69
384.211	1362.69
384.436	1342.69
384.662	1030.69
384.887	991.69
385.112	1036.69
385.337	1022.69
385.562	975.69
385.787	1065.69
386.013	1192.69
386.238	1228.69
386.463	1034.69
386.688	1002.69
386.913	947.69
387.138	898.69
387.363	985.69
387.588	974.69
387.813	981.69
388.038	1081.69
388.263	983.69
388.488	944.69
388.713	1076.69
388.938	1214.69
389.163	1009.69
389.387	873.69
389.612	881.69
389.837	948.69
390.062	937.69
390.287	995.69
390.512	1020.69
390.736	939.69
390.961	883.69
391.186	870.69
391.411	825.69
391.636	841.69
391.86	941.69
392.085	1032.69
392.31	997.69
392.534	964.69
392.759	923.69
392.984	965.69
393.208	958.69
393.433	866.69
393.658	831.69
393.882	815.69
394.107	801.69
394.331	812.69
394.556	808.69
394.78	798.69
395.005	851.69
395.229	873.69
395.454	893.69
395.678	903.69
395.903	922.69
396.127	878.69
396.352	898.69
396.576	990.69
396.801	1029.69
397.025	1093.69
397.249	1138.69
397.474	940.69
397.698	921.69
397.922	998.69
398.147	924.69
398.371	922.69
398.595	942.69
398.82	948.69
399.044	960.69
399.268	1024.69
399.492	1063.69
399.717	1048.69
399.941	1102.69
400.165	1060.69
400.389	1013.69
400.613	1059.69
400.837	1024.69
401.062	918.69
401.286	924.69
401.51	903.69
401.734	903.69
401.958	936.69
402.182	918.69
402.406	899.69
402.63	910.69
402.854	942.69
403.078	1093.69
403.302	1344.69
403.526	1317.69
403.75	1187.69
403.974	1040.69
404.198	1079.69
404.422	1243.69
404.645	1434.69
404.869	1532.69
405.093	1161.69
405.317	1012.69
405.541	1020.69
405.765	1037.69
405.988	1024.69
406.212	1135.69
406.436	1252.69
406.66	1394.69
406.883	1168.69
407.107	1146.69
407.331	1337.69
407.555	1276.69
407.778	1097.69
408.002	1043.69
408.226	1031.69
408.449	1033.69
408.673	1010.69
408.896	974.69
409.12	931.69
409.344	932.69
409.567	895.69
409.791	905.69
410.014	907.69
410.238	898.69
410.461	918.69
410.685	913.69
410.908	908.69
411.132	918.69
411.355	905.69
411.578	923.69
411.802	940.69
412.025	977.69
412.249	972.69
412.472	976.69
412.695	959.69
412.919	946.69
413.142	992.69
413.365	1045.69
413.589	1084.69
413.812	950.69
414.035	905.69
414.258	928.69
414.482	1039.69
414.705	1059.69
414.928	923.69
415.151	882.69
415.374	873.69
415.597	927.69
415.821	932.69
416.044	914.69
416.267	869.69
416.49	876.69
416.713	852.69
416.936	867.69
417.159	842.69
417.382	887.69
417.605	887.69
417.828	926.69
418.051	918.69
418.274	960.69
418.497	937.69
418.72	942.69
418.943	948.69
419.166	1008.69
419.389	1026.69
419.611	994.69
419.834	1015.69
420.057	1134.69
420.28	1111.69
420.503	1018.69
420.726	927.69
420.948	895.69
421.171	882.69
421.394	875.69
421.617	885.69
421.839	892.69
422.062	945.69
422.285	927.69
422.507	931.69
422.73	962.69
422.953	975.69
423.175	930.69
423.398	921.69
423.621	1010.69
423.843	1036.69
424.066	960.69
424.288	948.69
424.511	910.69
424.733	919.69
424.956	935.69
425.178	1080.69
425.401	1201.69
425.623	1352.69
425.846	1167.69
426.068	1026.69
426.291	1104.69
426.513	1024.69
426.735	946.69
426.958	985.69
427.18	1177.69
427.402	1476.69
427.625	1486.69
427.847	1163.69
428.069	913.69
428.292	932.69
428.514	931.69
428.736	860.69
428.958	956.69
429.181	1101.69
429.403	1004.69
429.625	904.69
429.847	889.69
430.069	924.69
430.292	894.69
430.514	884.69
430.736	953.69
430.958	1167.69
431.18	1064.69
431.402	856.69
431.624	838.69
431.846	809.69
432.068	792.69
432.29	821.69
432.512	920.69
432.734	1218.69
432.956	1120.69
433.178	896.69
433.4	861.69
433.622	857.69
433.844	890.69
434.066	913.69
434.287	910.69
434.509	871.69
434.731	914.69
434.953	880.69
435.175	897.69
435.397	1012.69
435.618	888.69
435.84	849.69
436.062	822.69
436.284	843.69
436.505	804.69
436.727	795.69
436.949	804.69
437.17	848.69
437.392	863.69
437.614	846.69
437.835	824.69
438.057	844.69
438.278	960.69
438.5	1384.69
438.721	1357.69
438.943	970.69
439.165	813.69
439.386	790.69
439.608	772.69
439.829	819.69
440.05	796.69
440.272	855.69
440.493	994.69
440.715	1222.69
440.936	996.69
441.158	854.69
441.379	860.69
441.6	1010.69
441.822	1027.69
442.043	891.69
442.264	858.69
442.486	860.69
442.707	887.69
442.928	921.69
443.149	874.69
443.371	894.69
443.592	924.69
443.813	933.69
444.034	932.69
444.255	927.69
444.476	948.69
444.698	942.69
444.919	973.69
445.14	1040.69
445.361	1003.69
445.582	964.69
445.803	936.69
446.024	948.69
446.245	936.69
446.466	931.69
446.687	859.69
446.908	886.69
447.129	836.69
447.35	830.69
447.571	818.69
447.792	808.69
448.013	781.69
448.234	778.69
448.455	802.69
448.675	803.69
448.896	785.69
449.117	812.69
449.338	815.69
449.559	849.69
449.779	889.69
450	878.69
450.221	840.69
450.442	820.69
450.662	803.69
450.883	819.69
451.104	807.69
451.324	815.69
451.545	823.69
451.766	820.69
451.986	784.69
452.207	764.69
452.428	763.69
452.648	796.69
452.869	824.69
453.089	816.69
453.31	840.69
453.53	750.69
453.751	770.69
453.971	759.69
454.192	743.69
454.412	774.69
454.633	743.69
454.853	766.69
455.073	736.69
455.294	741.69
455.514	757.69
455.734	790.69
455.955	802.69
456.175	804.69
456.395	771.69
456.616	721.69
456.836	718.69
457.056	724.69
457.276	717.69
457.497	737.69
457.717	720.69
457.937	713.69
458.157	705.69
458.377	729.69
458.598	753.69
458.818	779.69
459.038	838.69
459.258	839.69
459.478	826.69
459.698	905.69
459.918	924.69
460.138	928.69
460.358	911.69
460.578	861.69
460.798	916.69
461.018	907.69
461.238	865.69
461.458	864.69
461.678	898.69
461.898	926.69
462.118	927.69
462.338	944.69
462.558	946.69
462.777	992.69
462.997	1035.69
463.217	1012.69
463.437	1031.69
463.657	1014.69
463.876	972.69
464.096	933.69
464.316	986.69
464.536	984.69
464.755	1000.69
464.975	1022.69
465.195	949.69
465.414	1020.69
465.634	984.69
465.854	952.69
466.073	891.69
466.293	889.69
466.512	934.69
466.732	1037.69
466.951	1024.69
467.171	941.69
467.391	885.69
467.61	871.69
467.829	934.69
468.049	906.69
468.268	915.69
468.488	889.69
468.707	908.69
468.927	1064.69
469.146	1176.69
469.365	1045.69
469.585	992.69
469.804	1033.69
470.023	1107.69
470.243	959.69
470.462	920.69
470.681	904.69
470.901	917.69
471.12	1015.69
471.339	973.69
471.558	927.69
471.777	930.69
471.997	1028.69
472.216	1136.69
472.435	1111.69
472.654	988.69
472.873	949.69
473.092	1023.69
473.311	1070.69
473.53	985.69
473.749	954.69
473.968	976.69
474.187	983.69
474.406	945.69
474.625	949.69
474.844	936.69
475.063	1018.69
475.282	1028.69
475.501	1089.69
475.72	1143.69
475.939	1098.69
476.158	1108.69
476.377	1244.69
476.596	1463.69
476.814	1484.69
477.033	1252.69
477.252	1055.69
477.471	988.69
477.69	1041.69
477.908	1134.69
478.127	1152.69
478.346	1046.69
478.564	1138.69
478.783	1056.69
479.002	1102.69
479.22	1282.69
479.439	1438.69
479.658	1260.69
479.876	1096.69
480.095	1238.69
480.313	1255.69
480.532	1180.69
480.751	1134.69
480.969	1113.69
481.188	1295.69
481.406	1336.69
481.624	1240.69
481.843	1128.69
482.061	1097.69
482.28	1201.69
482.498	1469.69
482.717	1389.69
482.935	1222.69
483.153	1152.69
483.372	1088.69
483.59	1092.69
483.808	1060.69
484.027	1073.69
484.245	1016.69
484.463	989.69
484.681	1007.69
484.9	1106.69
485.118	1205.69
485.336	1109.69
485.554	1072.69
485.772	1084.69
485.99	1155.69
486.209	1247.69
486.427	1218.69
486.645	1186.69
486.863	1255.69
487.081	1262.69
487.299	1368.69
487.517	1377.69
487.735	1217.69
487.953	1280.69
488.171	1275.69
488.389	1196.69
488.607	1126.69
488.825	1156.69
489.043	1284.69
489.261	1459.69
489.479	1568.69
489.696	1302.69
489.914	1215.69
490.132	1134.69
490.35	1118.69
490.568	1148.69
490.786	1123.69
491.003	1155.69
491.221	1169.69
491.439	1145.69
491.657	1149.69
491.874	1248.69
492.092	1468.69
492.31	1744.69
492.527	1764.69
492.745	1493.69
492.963	1336.69
493.18	1295.69
493.398	1313.69
493.615	1304.69
493.833	1284.69
494.05	1239.69
494.268	1280.69
494.485	1268.69
494.703	1212.69
494.92	1232.69
495.138	1208.69
495.355	1253.69
495.573	1241.69
495.79	1393.69
496.008	1794.69
496.225	1546.69
496.442	1397.69
496.66	1380.69
496.877	1428.69
497.094	1414.69
497.312	1332.69
497.529	1329.69
497.746	1365.69
497.963	1399.69
498.181	1480.69
498.398	1615.69
498.615	1638.69
498.832	1720.69
499.049	1705.69
499.267	1568.69
499.484	1570.69
499.701	1656.69
499.918	1762.69
500.135	1871.69
500.352	1884.69
500.569	1979.69
500.786	2056.69
501.003	2027.69
501.22	1852.69
501.437	1772.69
501.654	1689.69
501.871	1649.69
502.088	1636.69
502.305	1562.69
502.522	1561.69
502.739	1552.69
502.956	1349.69
503.172	1354.69
503.389	1317.69
503.606	1261.69
503.823	1300.69
504.04	1310.69
504.256	1324.69
504.473	1363.69
504.69	1402.69
504.907	1366.69
505.123	1374.69
505.34	1446.69
505.557	1445.69
505.773	1374.69
505.99	1336.69
506.207	1382.69
506.423	1251.69
506.64	1186.69
506.856	1289.69
507.073	1368.69
507.289	1302.69
507.506	1337.69
507.722	1442.69
507.939	1447.69
508.155	1443.69
508.372	1308.69
508.588	1282.69
508.805	1220.69
509.021	1241.69
509.238	1180.69
509.454	1160.69
509.67	1186.69
509.887	1182.69
510.103	1337.69
510.319	1332.69
510.536	1203.69
510.752	1105.69
510.968	1089.69
511.184	986.69
511.401	1059.69
511.617	1047.69
511.833	1063.69
512.049	1081.69
512.265	1091.69
512.481	1149.69
512.698	1246.69
512.914	1377.69
513.13	1259.69
513.346	1140.69
513.562	1208.69
513.778	1179.69
513.994	1148.69
514.21	1234.69
514.426	1206.69
514.642	1175.69
514.858	1152.69
515.074	1220.69
515.29	1294.69
515.506	1438.69
515.721	1362.69
515.937	1280.69
516.153	1168.69
516.369	1217.69
516.585	1233.69
516.801	1369.69
517.016	1600.69
517.232	1548.69
517.448	1549.69
517.664	1400.69
517.879	1260.69
518.095	1263.69
518.311	1293.69
518.527	1363.69
518.742	1421.69
518.958	1488.69
519.173	1438.69
519.389	1400.69
519.605	1418.69
519.82	1523.69
520.036	1734.69
520.251	1691.69
520.467	1637.69
520.682	2343.69
520.898	2836.69
521.113	2693.69
521.329	1744.69
521.544	1521.69
521.76	1502.69
521.975	1348.69
522.19	1311.69
522.406	1340.69
522.621	1466.69
522.836	1530.69
523.052	1569.69
523.267	1330.69
523.482	1284.69
523.698	1410.69
523.913	1353.69
524.128	1246.69
524.343	1181.69
524.559	1183.69
524.774	1114.69
524.989	1171.69
525.204	1177.69
525.419	1347.69
525.634	1215.69
525.849	1253.69
526.064	1246.69
526.28	1289.69
526.495	1501.69
526.71	1561.69
526.925	1322.69
527.14	1375.69
527.355	1325.69
527.57	1160.69
527.785	1234.69
527.999	1136.69
528.214	1096.69
528.429	1082.69
528.644	1075.69
528.859	1017.69
529.074	1015.69
529.289	960.69
529.503	1009.69
529.718	1014.69
529.933	1196.69
530.148	1202.69
530.363	1052.69
530.577	1013.69
530.792	1006.69
531.007	1004.69
531.221	996.69
531.436	985.69
531.651	988.69
531.865	1038.69
532.08	1043.69
532.295	1003.69
532.509	1031.69
532.724	1202.69
532.938	1318.69
533.153	1508.69
533.367	1248.69
533.582	1192.69
533.796	1068.69
534.011	1042.69
534.225	1066.69
534.44	1085.69
534.654	1078.69
534.868	1240.69
535.083	1137.69
535.297	1010.69
535.511	1038.69
535.726	1166.69
535.94	1092.69
536.154	1027.69
536.369	981.69
536.583	999.69
536.797	1050.69
537.011	1024.69
537.225	1142.69
537.44	1175.69
537.654	1036.69
537.868	1012.69
538.082	1018.69
538.296	1013.69
538.51	1106.69
538.724	1087.69
538.938	1028.69
539.153	1000.69
539.367	981.69
539.581	998.69
539.795	1042.69
540.009	1148.69
540.222	1047.69
540.436	1074.69
540.65	1135.69
540.864	1169.69
541.078	1207.69
541.292	1325.69
541.506	1116.69
541.72	1078.69
541.934	1053.69
542.147	1018.69
542.361	1025.69
542.575	1089.69
542.789	1021.69
543.002	959.69
543.216	1076.69
543.43	962.69
543.644	939.69
543.857	931.69
544.071	1001.69
544.285	946.69
544.498	955.69
544.712	931.69
544.925	1006.69
545.139	955.69
545.352	913.69
545.566	965.69
545.779	1031.69
545.993	968.69
546.206	884.69
546.42	874.69
546.633	914.69
546.847	885.69
547.06	889.69
547.274	870.69
547.487	927.69
547.7	988.69
547.914	1029.69
548.127	1128.69
548.34	1106.69
548.554	971.69
548.767	1014.69
548.98	1088.69
549.193	1001.69
549.407	1020.69
549.62	1207.69
549.833	1130.69
550.046	1149.69
550.259	1172.69
550.473	1045.69
550.686	967.69
550.899	1016.69
551.112	1017.69
551.325	1054.69
551.538	1093.69
551.751	924.69
551.964	898.69
552.177	913.69
552.39	909.69
552.603	920.69
552.816	965.69
553.029	875.69
553.242	872.69
553.455	948.69
553.667	1020.69
553.88	969.69
554.093	916.69
554.306	833.69
554.519	816.69
554.732	792.69
554.944	776.69
555.157	779.69
555.37	788.69
555.583	797.69
555.795	822.69
556.008	810.69
556.221	823.69
556.433	816.69
556.646	778.69
556.859	798.69
557.071	813.69
557.284	835.69
557.496	832.69
557.709	803.69
557.921	777.69
558.134	742.69
558.346	761.69
558.559	741.69
558.771	761.69
558.984	830.69
559.196	758.69
559.409	745.69
559.621	698.69
559.833	720.69
560.046	741.69
560.258	687.69
560.47	761.69
560.683	709.69
560.895	676.69
561.107	710.69
561.32	685.69
561.532	717.69
561.744	768.69
561.956	785.69
562.168	720.69
562.381	705.69
562.593	737.69
562.805	773.69
563.017	738.69
563.229	679.69
563.441	678.69
563.653	708.69
563.865	708.69
564.077	703.69
564.289	694.69
564.501	710.69
564.713	791.69
564.925	721.69
565.137	707.69
565.349	700.69
565.561	722.69
565.773	711.69
565.985	766.69
566.197	770.69
566.408	848.69
566.62	862.69
566.832	863.69
567.044	870.69
567.255	901.69
567.467	971.69
567.679	861.69
567.891	865.69
568.102	914.69
568.314	916.69
568.526	837.69
568.737	818.69
568.949	902.69
569.161	778.69
569.372	712.69
569.584	696.69
569.795	692.69
570.007	724.69
570.218	772.69
570.43	743.69
570.641	701.69
570.853	664.69
571.064	679.69
571.276	695.69
571.487	724.69
571.698	689.69
571.91	692.69
572.121	675.69
572.333	651.69
572.544	622.69
572.755	631.69
572.966	608.69
573.178	627.69
573.389	661.69
573.6	649.69
573.811	635.69
574.023	564.69
574.234	588.69
574.445	601.69
574.656	598.69
574.867	583.69
575.078	615.69
575.289	589.69
575.501	643.69
575.712	601.69
575.923	553.69
576.134	541.69
576.345	562.69
576.556	565.69
576.767	573.69
576.978	542.69
577.188	536.69
577.399	532.69
577.61	536.69
577.821	521.69
578.032	548.69
578.243	583.69
578.454	594.69
578.665	584.69
578.875	565.69
579.086	553.69
579.297	579.69
579.508	594.69
579.718	561.69
579.929	545.69
580.14	543.69
580.35	521.69
580.561	514.69
580.772	514.69
580.982	481.69
581.193	491.69
581.403	474.69
581.614	460.69
581.825	458.69
582.035	484.69
582.246	463.69
582.456	469.69
582.667	483.69
582.877	492.69
583.087	460.69
583.298	471.69
583.508	470.69
583.719	446.69
583.929	444.69
584.139	452.69
584.35	487.69
584.56	486.69
584.77	453.69
584.981	499.69
585.191	483.69
585.401	461.69
585.611	470.69
585.821	485.69
586.032	497.69
586.242	469.69
586.452	481.69
586.662	468.69
586.872	499.69
587.082	522.69
587.292	488.69
587.502	462.69
587.713	485.69
587.923	480.69
588.133	510.69
588.343	502.69
588.553	468.69
588.762	462.69
588.972	456.69
589.182	455.69
589.392	451.69
589.602	461.69
589.812	505.69
590.022	508.69
590.232	524.69
590.441	475.69
590.651	473.69
590.861	457.69
591.071	490.69
591.281	453.69
591.49	453.69
591.7	441.69
591.91	453.69
592.119	452.69
592.329	458.69
592.539	455.69
592.748	478.69
592.958	464.69
593.167	477.69
593.377	485.69
593.587	492.69
593.796	485.69
594.006	476.69
594.215	475.69
594.424	506.69
594.634	513.69
594.843	508.69
595.053	453.69
595.262	425.69
595.472	452.69
595.681	445.69
595.89	432.69
596.1	459.69
596.309	433.69
596.518	454.69
596.727	412.69
596.937	411.69
597.146	428.69
597.355	470.69
597.564	463.69
597.774	409.69
597.983	418.69
598.192	397.69
598.401	380.69
598.61	386.69
598.819	393.69
599.028	405.69
599.237	408.69
599.446	377.69
599.655	383.69
599.864	382.69
600.073	391.69
600.282	372.69
600.491	390.69
600.7	387.69
600.909	391.69
601.118	404.69
601.327	386.69
601.536	376.69
601.745	389.69
601.953	410.69
602.162	410.69
602.371	405.69
602.58	398.69
602.789	393.69
602.997	391.69
603.206	376.69
603.415	371.69
603.623	371.69
603.832	369.69
604.041	368.69
604.249	354.69
604.458	378.69
604.666	380.69
604.875	346.69
605.084	346.69
605.292	365.69
605.501	358.69
605.709	349.69
605.918	363.69
606.126	348.69
606.334	335.69
606.543	362.69
606.751	354.69
606.96	354.69
607.168	350.69
607.376	344.69
607.585	341.69
607.793	363.69
608.001	354.69
608.21	344.69
608.418	364.69
608.626	378.69
608.834	366.69
609.043	340.69
609.251	355.69
609.459	348.69
609.667	345.69
609.875	344.69
610.083	357.69
610.291	368.69
610.499	351.69
610.707	359.69
610.916	334.69
611.124	343.69
611.332	336.69
611.54	339.69
611.748	352.69
611.955	346.69
612.163	342.69
612.371	318.69
612.579	338.69
612.787	340.69
612.995	342.69
613.203	342.69
613.411	335.69
613.618	340.69
613.826	326.69
614.034	351.69
614.242	326.69
614.449	327.69
614.657	309.69
614.865	307.69
615.072	327.69
615.28	323.69
615.488	333.69
615.695	323.69
615.903	337.69
616.111	335.69
616.318	337.69
616.526	335.69
616.733	326.69
616.941	339.69
617.148	333.69
617.356	337.69
617.563	318.69
617.771	316.69
617.978	309.69
618.185	313.69
618.393	327.69
618.6	318.69
618.807	316.69
619.015	324.69
619.222	325.69
619.429	318.69
619.637	323.69
619.844	307.69
620.051	305.69
620.258	317.69
620.466	309.69
620.673	314.69
620.88	307.69
621.087	292.69
621.294	286.69
621.501	302.69
621.708	311.69
621.915	298.69
622.122	306.69
622.329	293.69
622.536	310.69
622.743	304.69
622.95	296.69
623.157	284.69
623.364	334.69
623.571	298.69
623.778	294.69
623.985	316.69
624.192	304.69
624.399	292.69
624.606	304.69
624.812	302.69
625.019	301.69
625.226	310.69
625.433	333.69
625.639	308.69
625.846	298.69
626.053	271.69
626.259	257.69
626.466	265.69
626.673	317.69
626.879	299.69
627.086	289.69
627.293	288.69
627.499	271.69
627.706	272.69
627.912	263.69
628.119	261.69
628.325	263.69
628.532	256.69
628.738	254.69
628.945	297.69
629.151	276.69
629.357	272.69
629.564	278.69
629.77	265.69
629.976	262.69
630.183	260.69
630.389	274.69
630.595	264.69
630.802	266.69
631.008	262.69
631.214	253.69
631.42	234.69
631.627	270.69
631.833	267.69
632.039	260.69
632.245	251.69
632.451	229.69
632.657	262.69
632.863	238.69
633.069	244.69
633.275	245.69
633.481	239.69
633.688	240.69
633.893	242.69
634.099	258.69
634.305	220.69
634.511	234.69
634.717	247.69
634.923	249.69
635.129	232.69
635.335	237.69
635.541	227.69
635.747	244.69
635.952	247.69
636.158	224.69
636.364	239.69
636.57	240.69
636.775	236.69
636.981	241.69
637.187	238.69
637.392	232.69
637.598	234.69
637.804	241.69
638.009	217.69
638.215	250.69
638.421	217.69
638.626	225.69
638.832	241.69
639.037	216.69
639.243	209.69
639.448	226.69
639.654	252.69
639.859	220.69
640.065	240.69
640.27	251.69
640.475	194.69
640.681	211.69
640.886	222.69
641.091	226.69
641.297	221.69
641.502	228.69
641.707	226.69
641.913	234.69
642.118	229.69
642.323	223.69
642.528	224.69
642.733	221.69
642.939	230.69
643.144	207.69
643.349	226.69
643.554	207.69
643.759	193.69
643.964	215.69
644.169	220.69
644.374	196.69
644.579	208.69
644.784	208.69
644.989	210.69
645.194	222.69
645.399	211.69
645.604	217.69
645.809	216.69
646.014	209.69
646.219	221.69
646.423	208.69
646.628	206.69
646.833	213.69
647.038	217.69
647.243	223.69
647.447	204.69
647.652	208.69
647.857	209.69
648.062	215.69
648.266	206.69
648.471	196.69
648.676	223.69
648.88	214.69
649.085	192.69
649.289	208.69
649.494	212.69
649.698	212.69
649.903	218.69
650.107	209.69
650.312	196.69
650.516	200.69
650.721	187.69
650.925	183.69
651.13	177.69
651.334	187.69
651.539	174.69
651.743	182.69
651.947	177.69
652.152	188.69
652.356	174.69
652.56	181.69
652.764	188.69
652.969	176.69
653.173	179.69
653.377	164.69
653.581	162.69
653.785	169.69
653.99	159.69
654.194	160.69
654.398	166.69
654.602	160.69
654.806	142.69
655.01	165.69
655.214	168.69
655.418	159.69
655.622	153.69
655.826	161.69
656.03	175.69
656.234	161.69
656.438	163.69
656.642	171.69
656.846	170.69
657.049	154.69
657.253	142.69
657.457	142.69
657.661	149.69
657.865	130.69
658.068	136.69
658.272	136.69
658.476	120.69
658.68	109.69
658.883	114.69
659.087	128.69
659.291	115.69
659.494	99.69
659.698	108.69
659.901	115.69
660.105	111.69
660.309	113.69
660.512	97.69
660.716	90.69
660.919	90.69
661.123	111.69
661.326	93.69
661.53	89.69
661.733	89.69
661.936	94.69
662.14	91.69
662.343	96.69
662.546	72.69
662.75	85.69
662.953	83.69
663.156	92.69
663.36	90.69
663.563	81.69
663.766	93.69
663.969	86.69
664.173	75.69
664.376	89.69
664.579	81.69
664.782	81.69
664.985	86.69
665.188	60.69
665.391	73.69
665.594	61.69
665.797	80.69
666	102.69
666.203	91.69
666.406	86.69
666.609	83.69
666.812	90.69
667.015	75.69
667.218	81.69
667.421	84.69
667.624	88.69
667.827	86.69
668.03	80.69
668.232	84.69
668.435	74.69
668.638	89.69
668.841	79.69
669.043	87.69
669.246	86.69
669.449	81.69
669.651	94.69
669.854	84.69
670.057	87.69
670.259	76.69
670.462	73.69
670.665	82.69
670.867	78.69
671.07	90.69
671.272	78.69
671.475	88.69
671.677	73.69
671.88	75.69
672.082	78.69
672.284	87.69
672.487	81.69
672.689	89.69
672.892	80.69
