Data from NickelSpatula.Lamp.E5.5.P2_HRD10591_11-51-09-562.txt Node
Date: Tue Jul 23 11:51:09 EDT 2019
User: cochatt
Spectrometer: HR+D1059
Trigger mode: 1
Integration Time (sec): 1.000000E-1
Scans to average: 1
Electric dark correction enabled: true
Nonlinearity correction enabled: false
Boxcar width: 0
XAxis mode: Wavelengths
Number of Pixels in Spectrum: 2048
>>>>>Begin Spectral Data<<<<<
223.165	-28.12
223.4	-28.12
223.635	-28.12
223.869	-15.12
224.104	-25.12
224.338	-14.12
224.573	-19.12
224.808	-12.12
225.042	18.88
225.277	6.88
225.511	-11.12
225.746	-6.12
225.98	0.88
226.215	8.88
226.449	18.88
226.683	10.88
226.918	34.88
227.152	30.88
227.387	40.88
227.621	37.88
227.856	46.88
228.09	41.88
228.324	44.88
228.559	61.88
228.793	66.88
229.027	63.88
229.262	69.88
229.496	91.88
229.73	77.88
229.964	84.88
230.199	87.88
230.433	79.88
230.667	82.88
230.901	97.88
231.136	104.88
231.37	99.88
231.604	97.88
231.838	103.88
232.072	105.88
232.306	97.88
232.541	97.88
232.775	111.88
233.009	119.88
233.243	110.88
233.477	114.88
233.711	108.88
233.945	121.88
234.179	96.88
234.413	103.88
234.647	123.88
234.881	123.88
235.115	130.88
235.349	135.88
235.583	105.88
235.817	107.88
236.051	116.88
236.285	134.88
236.519	141.88
236.753	108.88
236.987	120.88
237.221	117.88
237.455	114.88
237.689	122.88
237.922	126.88
238.156	114.88
238.39	144.88
238.624	154.88
238.858	139.88
239.091	142.88
239.325	135.88
239.559	132.88
239.793	134.88
240.027	149.88
240.26	145.88
240.494	149.88
240.728	142.88
240.961	159.88
241.195	135.88
241.429	148.88
241.662	135.88
241.896	135.88
242.13	134.88
242.363	138.88
242.597	130.88
242.83	143.88
243.064	131.88
243.298	144.88
243.531	148.88
243.765	146.88
243.998	150.88
244.232	158.88
244.465	151.88
244.699	149.88
244.932	159.88
245.166	162.88
245.399	149.88
245.633	153.88
245.866	138.88
246.099	147.88
246.333	156.88
246.566	177.88
246.8	155.88
247.033	161.88
247.266	159.88
247.5	175.88
247.733	156.88
247.966	166.88
248.2	144.88
248.433	171.88
248.666	176.88
248.899	172.88
249.133	177.88
249.366	209.88
249.599	194.88
249.832	205.88
250.066	174.88
250.299	186.88
250.532	204.88
250.765	192.88
250.998	161.88
251.231	174.88
251.465	174.88
251.698	194.88
251.931	184.88
252.164	176.88
252.397	197.88
252.63	214.88
252.863	242.88
253.096	222.88
253.329	238.88
253.562	227.88
253.795	225.88
254.028	258.88
254.261	272.88
254.494	244.88
254.727	230.88
254.96	221.88
255.193	230.88
255.426	224.88
255.659	184.88
255.892	181.88
256.124	179.88
256.357	215.88
256.59	232.88
256.823	238.88
257.056	195.88
257.289	182.88
257.521	222.88
257.754	237.88
257.987	280.88
258.22	252.88
258.452	229.88
258.685	237.88
258.918	246.88
259.151	254.88
259.383	263.88
259.616	303.88
259.849	289.88
260.081	311.88
260.314	338.88
260.547	291.88
260.779	302.88
261.012	329.88
261.244	315.88
261.477	308.88
261.71	281.88
261.942	241.88
262.175	250.88
262.407	231.88
262.64	253.88
262.872	286.88
263.105	301.88
263.337	310.88
263.57	300.88
263.802	213.88
264.035	197.88
264.267	196.88
264.499	211.88
264.732	161.88
264.964	166.88
265.197	167.88
265.429	201.88
265.661	181.88
265.894	182.88
266.126	224.88
266.358	212.88
266.591	250.88
266.823	296.88
267.055	281.88
267.287	246.88
267.52	259.88
267.752	254.88
267.984	277.88
268.216	284.88
268.448	240.88
268.681	236.88
268.913	251.88
269.145	266.88
269.377	266.88
269.609	274.88
269.841	253.88
270.073	279.88
270.306	279.88
270.538	273.88
270.77	271.88
271.002	284.88
271.234	293.88
271.466	280.88
271.698	283.88
271.93	249.88
272.162	288.88
272.394	264.88
272.626	257.88
272.858	270.88
273.09	284.88
273.322	246.88
273.553	211.88
273.785	252.88
274.017	344.88
274.249	407.88
274.481	408.88
274.713	447.88
274.945	504.88
275.176	512.88
275.408	463.88
275.64	456.88
275.872	436.88
276.104	401.88
276.335	336.88
276.567	328.88
276.799	352.88
277.031	355.88
277.262	306.88
277.494	246.88
277.726	242.88
277.957	259.88
278.189	295.88
278.421	274.88
278.652	281.88
278.884	269.88
279.115	249.88
279.347	248.88
279.579	269.88
279.81	251.88
280.042	249.88
280.273	243.88
280.505	230.88
280.736	228.88
280.968	218.88
281.199	234.88
281.431	264.88
281.662	260.88
281.894	227.88
282.125	266.88
282.356	277.88
282.588	277.88
282.819	237.88
283.051	283.88
283.282	333.88
283.513	360.88
283.745	391.88
283.976	386.88
284.207	370.88
284.439	369.88
284.67	353.88
284.901	321.88
285.132	343.88
285.364	355.88
285.595	351.88
285.826	347.88
286.057	357.88
286.288	348.88
286.52	349.88
286.751	383.88
286.982	378.88
287.213	336.88
287.444	343.88
287.675	329.88
287.906	349.88
288.138	308.88
288.369	272.88
288.6	269.88
288.831	266.88
289.062	325.88
289.293	328.88
289.524	302.88
289.755	314.88
289.986	336.88
290.217	291.88
290.448	230.88
290.679	203.88
290.91	200.88
291.141	210.88
291.371	210.88
291.602	226.88
291.833	218.88
292.064	216.88
292.295	249.88
292.526	277.88
292.757	285.88
292.987	281.88
293.218	305.88
293.449	335.88
293.68	352.88
293.91	324.88
294.141	329.88
294.372	310.88
294.603	294.88
294.833	308.88
295.064	350.88
295.295	362.88
295.525	280.88
295.756	236.88
295.987	214.88
296.217	218.88
296.448	206.88
296.679	223.88
296.909	238.88
297.14	261.88
297.37	272.88
297.601	268.88
297.831	253.88
298.062	255.88
298.292	295.88
298.523	294.88
298.753	326.88
298.984	320.88
299.214	267.88
299.445	234.88
299.675	225.88
299.905	225.88
300.136	232.88
300.366	250.88
300.597	239.88
300.827	209.88
301.057	234.88
301.288	244.88
301.518	224.88
301.748	248.88
301.979	276.88
302.209	278.88
302.439	278.88
302.669	247.88
302.9	256.88
303.13	236.88
303.36	244.88
303.59	230.88
303.82	250.88
304.051	234.88
304.281	276.88
304.511	275.88
304.741	245.88
304.971	235.88
305.201	255.88
305.431	254.88
305.661	228.88
305.891	230.88
306.121	245.88
306.352	209.88
306.582	212.88
306.812	204.88
307.042	189.88
307.272	203.88
307.502	186.88
307.731	214.88
307.961	194.88
308.191	190.88
308.421	225.88
308.651	186.88
308.881	185.88
309.111	183.88
309.341	207.88
309.571	216.88
309.8	180.88
310.03	193.88
310.26	208.88
310.49	206.88
310.72	193.88
310.949	195.88
311.179	215.88
311.409	206.88
311.639	239.88
311.868	265.88
312.098	328.88
312.328	366.88
312.557	330.88
312.787	359.88
313.017	343.88
313.246	321.88
313.476	361.88
313.706	316.88
313.935	268.88
314.165	231.88
314.394	197.88
314.624	202.88
314.853	225.88
315.083	218.88
315.312	210.88
315.542	197.88
315.771	193.88
316.001	201.88
316.23	180.88
316.46	176.88
316.689	195.88
316.919	188.88
317.148	203.88
317.377	195.88
317.607	188.88
317.836	215.88
318.065	226.88
318.295	249.88
318.524	227.88
318.753	212.88
318.983	189.88
319.212	217.88
319.441	213.88
319.67	255.88
319.9	236.88
320.129	226.88
320.358	215.88
320.587	203.88
320.816	209.88
321.046	224.88
321.275	240.88
321.504	250.88
321.733	247.88
321.962	243.88
322.191	230.88
322.42	209.88
322.649	215.88
322.878	233.88
323.108	244.88
323.337	228.88
323.566	226.88
323.795	215.88
324.024	220.88
324.253	211.88
324.482	206.88
324.71	240.88
324.939	240.88
325.168	227.88
325.397	212.88
325.626	203.88
325.855	206.88
326.084	207.88
326.313	207.88
326.542	212.88
326.77	209.88
326.999	221.88
327.228	205.88
327.457	212.88
327.686	225.88
327.914	204.88
328.143	180.88
328.372	193.88
328.6	192.88
328.829	195.88
329.058	204.88
329.287	196.88
329.515	182.88
329.744	199.88
329.972	201.88
330.201	197.88
330.43	209.88
330.658	203.88
330.887	231.88
331.115	233.88
331.344	232.88
331.572	225.88
331.801	215.88
332.03	193.88
332.258	215.88
332.486	218.88
332.715	209.88
332.943	209.88
333.172	228.88
333.4	235.88
333.629	257.88
333.857	243.88
334.085	236.88
334.314	238.88
334.542	245.88
334.771	225.88
334.999	219.88
335.227	201.88
335.455	226.88
335.684	220.88
335.912	248.88
336.14	263.88
336.369	269.88
336.597	258.88
336.825	278.88
337.053	293.88
337.281	266.88
337.51	199.88
337.738	217.88
337.966	227.88
338.194	225.88
338.422	236.88
338.65	231.88
338.878	202.88
339.106	216.88
339.334	223.88
339.562	211.88
339.79	201.88
340.018	220.88
340.246	220.88
340.474	226.88
340.702	247.88
340.93	268.88
341.158	258.88
341.386	232.88
341.614	223.88
341.842	227.88
342.07	228.88
342.298	258.88
342.526	272.88
342.754	233.88
342.981	238.88
343.209	225.88
343.437	248.88
343.665	255.88
343.893	265.88
344.12	302.88
344.348	323.88
344.576	314.88
344.804	255.88
345.031	227.88
345.259	219.88
345.487	225.88
345.714	225.88
345.942	229.88
346.17	271.88
346.397	249.88
346.625	223.88
346.853	213.88
347.08	216.88
347.308	222.88
347.535	251.88
347.763	244.88
347.99	225.88
348.218	215.88
348.445	225.88
348.673	229.88
348.9	226.88
349.128	242.88
349.355	253.88
349.583	221.88
349.81	209.88
350.037	216.88
350.265	197.88
350.492	194.88
350.72	184.88
350.947	213.88
351.174	210.88
351.402	214.88
351.629	211.88
351.856	224.88
352.083	197.88
352.311	231.88
352.538	224.88
352.765	233.88
352.992	217.88
353.22	210.88
353.447	206.88
353.674	213.88
353.901	217.88
354.128	223.88
354.355	201.88
354.583	214.88
354.81	224.88
355.037	235.88
355.264	235.88
355.491	210.88
355.718	220.88
355.945	239.88
356.172	234.88
356.399	244.88
356.626	271.88
356.853	323.88
357.08	309.88
357.307	325.88
357.534	288.88
357.761	282.88
357.988	342.88
358.215	362.88
358.441	337.88
358.668	303.88
358.895	285.88
359.122	259.88
359.349	261.88
359.576	279.88
359.802	230.88
360.029	222.88
360.256	233.88
360.483	271.88
360.709	300.88
360.936	316.88
361.163	284.88
361.39	236.88
361.616	223.88
361.843	241.88
362.07	304.88
362.296	282.88
362.523	227.88
362.749	228.88
362.976	213.88
363.203	243.88
363.429	258.88
363.656	243.88
363.882	220.88
364.109	217.88
364.335	210.88
364.562	228.88
364.788	228.88
365.015	265.88
365.241	239.88
365.468	220.88
365.694	191.88
365.92	186.88
366.147	191.88
366.373	177.88
366.599	179.88
366.826	189.88
367.052	198.88
367.278	194.88
367.505	181.88
367.731	194.88
367.957	211.88
368.184	215.88
368.41	211.88
368.636	224.88
368.862	214.88
369.089	229.88
369.315	216.88
369.541	203.88
369.767	211.88
369.993	198.88
370.219	196.88
370.445	220.88
370.672	217.88
370.898	241.88
371.124	236.88
371.35	223.88
371.576	204.88
371.802	211.88
372.028	239.88
372.254	287.88
372.48	240.88
372.706	217.88
372.932	225.88
373.158	232.88
373.384	244.88
373.61	320.88
373.835	337.88
374.061	283.88
374.287	254.88
374.513	271.88
374.739	337.88
374.965	327.88
375.191	328.88
375.416	258.88
375.642	218.88
375.868	260.88
376.094	272.88
376.319	253.88
376.545	260.88
376.771	279.88
376.997	256.88
377.222	204.88
377.448	189.88
377.674	194.88
377.899	183.88
378.125	179.88
378.35	192.88
378.576	202.88
378.802	208.88
379.027	218.88
379.253	217.88
379.478	208.88
379.704	226.88
379.929	240.88
380.155	230.88
380.38	216.88
380.606	227.88
380.831	248.88
381.057	250.88
381.282	215.88
381.507	237.88
381.733	258.88
381.958	297.88
382.184	333.88
382.409	321.88
382.634	332.88
382.86	316.88
383.085	296.88
383.31	260.88
383.535	240.88
383.761	258.88
383.986	266.88
384.211	285.88
384.436	288.88
384.662	251.88
384.887	252.88
385.112	241.88
385.337	244.88
385.562	216.88
385.787	242.88
386.013	263.88
386.238	262.88
386.463	227.88
386.688	234.88
386.913	203.88
387.138	222.88
387.363	223.88
387.588	243.88
387.813	238.88
388.038	241.88
388.263	236.88
388.488	240.88
388.713	260.88
388.938	265.88
389.163	216.88
389.387	212.88
389.612	217.88
389.837	220.88
390.062	216.88
390.287	231.88
390.512	241.88
390.736	236.88
390.961	218.88
391.186	206.88
391.411	206.88
391.636	226.88
391.86	217.88
392.085	230.88
392.31	256.88
392.534	246.88
392.759	217.88
392.984	222.88
393.208	240.88
393.433	215.88
393.658	185.88
393.882	202.88
394.107	201.88
394.331	209.88
394.556	202.88
394.78	200.88
395.005	202.88
395.229	206.88
395.454	202.88
395.678	221.88
395.903	219.88
396.127	229.88
396.352	217.88
396.576	241.88
396.801	223.88
397.025	233.88
397.249	268.88
397.474	236.88
397.698	226.88
397.922	227.88
398.147	212.88
398.371	228.88
398.595	234.88
398.82	248.88
399.044	240.88
399.268	271.88
399.492	269.88
399.717	302.88
399.941	291.88
400.165	251.88
400.389	260.88
400.613	253.88
400.837	226.88
401.062	224.88
401.286	229.88
401.51	239.88
401.734	242.88
401.958	217.88
402.182	229.88
402.406	240.88
402.63	227.88
402.854	233.88
403.078	274.88
403.302	341.88
403.526	356.88
403.75	312.88
403.974	279.88
404.198	284.88
404.422	290.88
404.645	314.88
404.869	344.88
405.093	277.88
405.317	245.88
405.541	258.88
405.765	260.88
405.988	264.88
406.212	252.88
406.436	282.88
406.66	329.88
406.883	274.88
407.107	285.88
407.331	304.88
407.555	312.88
407.778	263.88
408.002	276.88
408.226	279.88
408.449	271.88
408.673	257.88
408.896	241.88
409.12	241.88
409.344	250.88
409.567	239.88
409.791	236.88
410.014	245.88
410.238	240.88
410.461	236.88
410.685	221.88
410.908	244.88
411.132	238.88
411.355	232.88
411.578	252.88
411.802	232.88
412.025	238.88
412.249	238.88
412.472	241.88
412.695	224.88
412.919	229.88
413.142	232.88
413.365	243.88
413.589	252.88
413.812	220.88
414.035	230.88
414.258	229.88
414.482	263.88
414.705	265.88
414.928	258.88
415.151	221.88
415.374	215.88
415.597	221.88
415.821	221.88
416.044	226.88
416.267	239.88
416.49	226.88
416.713	218.88
416.936	220.88
417.159	221.88
417.382	236.88
417.605	242.88
417.828	213.88
418.051	226.88
418.274	239.88
418.497	238.88
418.72	227.88
418.943	232.88
419.166	249.88
419.389	249.88
419.611	249.88
419.834	262.88
420.057	266.88
420.28	267.88
420.503	239.88
420.726	219.88
420.948	218.88
421.171	238.88
421.394	228.88
421.617	224.88
421.839	235.88
422.062	236.88
422.285	246.88
422.507	228.88
422.73	237.88
422.953	246.88
423.175	225.88
423.398	246.88
423.621	252.88
423.843	254.88
424.066	256.88
424.288	245.88
424.511	238.88
424.733	240.88
424.956	234.88
425.178	260.88
425.401	308.88
425.623	347.88
425.846	294.88
426.068	259.88
426.291	265.88
426.513	245.88
426.735	237.88
426.958	234.88
427.18	254.88
427.402	292.88
427.625	332.88
427.847	292.88
428.069	236.88
428.292	235.88
428.514	218.88
428.736	229.88
428.958	231.88
429.181	296.88
429.403	252.88
429.625	225.88
429.847	220.88
430.069	251.88
430.292	220.88
430.514	228.88
430.736	243.88
430.958	261.88
431.18	248.88
431.402	225.88
431.624	210.88
431.846	214.88
432.068	225.88
432.29	232.88
432.512	234.88
432.734	269.88
432.956	267.88
433.178	204.88
433.4	196.88
433.622	204.88
433.844	219.88
434.066	244.88
434.287	244.88
434.509	228.88
434.731	255.88
434.953	242.88
435.175	249.88
435.397	274.88
435.618	228.88
435.84	229.88
436.062	224.88
436.284	216.88
436.505	221.88
436.727	239.88
436.949	223.88
437.17	225.88
437.392	210.88
437.614	220.88
437.835	209.88
438.057	206.88
438.278	242.88
438.5	291.88
438.721	298.88
438.943	230.88
439.165	213.88
439.386	221.88
439.608	218.88
439.829	218.88
440.05	227.88
440.272	200.88
440.493	240.88
440.715	261.88
440.936	218.88
441.158	214.88
441.379	219.88
441.6	257.88
441.822	267.88
442.043	247.88
442.264	215.88
442.486	218.88
442.707	223.88
442.928	229.88
443.149	226.88
443.371	229.88
443.592	256.88
443.813	241.88
444.034	229.88
444.255	234.88
444.476	244.88
444.698	260.88
444.919	265.88
445.14	385.88
445.361	305.88
445.582	270.88
445.803	247.88
446.024	229.88
446.245	232.88
446.466	249.88
446.687	219.88
446.908	225.88
447.129	217.88
447.35	225.88
447.571	221.88
447.792	205.88
448.013	210.88
448.234	215.88
448.455	202.88
448.675	211.88
448.896	192.88
449.117	214.88
449.338	194.88
449.559	218.88
449.779	231.88
450	211.88
450.221	197.88
450.442	209.88
450.662	213.88
450.883	199.88
451.104	207.88
451.324	210.88
451.545	218.88
451.766	228.88
451.986	204.88
452.207	201.88
452.428	212.88
452.648	215.88
452.869	208.88
453.089	217.88
453.31	242.88
453.53	192.88
453.751	209.88
453.971	206.88
454.192	185.88
454.412	201.88
454.633	200.88
454.853	197.88
455.073	209.88
455.294	203.88
455.514	192.88
455.734	207.88
455.955	225.88
456.175	210.88
456.395	196.88
456.616	198.88
456.836	187.88
457.056	199.88
457.276	181.88
457.497	188.88
457.717	202.88
457.937	207.88
458.157	186.88
458.377	196.88
458.598	195.88
458.818	205.88
459.038	217.88
459.258	228.88
459.478	232.88
459.698	230.88
459.918	231.88
460.138	217.88
460.358	225.88
460.578	230.88
460.798	243.88
461.018	241.88
461.238	234.88
461.458	230.88
461.678	228.88
461.898	261.88
462.118	242.88
462.338	241.88
462.558	250.88
462.777	264.88
462.997	297.88
463.217	306.88
463.437	292.88
463.657	264.88
463.876	264.88
464.096	268.88
464.316	272.88
464.536	270.88
464.755	280.88
464.975	280.88
465.195	254.88
465.414	257.88
465.634	238.88
465.854	224.88
466.073	210.88
466.293	224.88
466.512	254.88
466.732	241.88
466.951	240.88
467.171	225.88
467.391	222.88
467.61	227.88
467.829	223.88
468.049	220.88
468.268	230.88
468.488	198.88
468.707	230.88
468.927	241.88
469.146	252.88
469.365	240.88
469.585	226.88
469.804	240.88
470.023	241.88
470.243	226.88
470.462	236.88
470.681	235.88
470.901	240.88
471.12	225.88
471.339	224.88
471.558	200.88
471.777	218.88
471.997	237.88
472.216	244.88
472.435	242.88
472.654	237.88
472.873	236.88
473.092	229.88
473.311	244.88
473.53	231.88
473.749	237.88
473.968	211.88
474.187	220.88
474.406	219.88
474.625	229.88
474.844	241.88
475.063	242.88
475.282	246.88
475.501	245.88
475.72	278.88
475.939	261.88
476.158	259.88
476.377	290.88
476.596	304.88
476.814	327.88
477.033	282.88
477.252	259.88
477.471	224.88
477.69	262.88
477.908	258.88
478.127	264.88
478.346	285.88
478.564	291.88
478.783	278.88
479.002	270.88
479.22	313.88
479.439	310.88
479.658	270.88
479.876	266.88
480.095	278.88
480.313	277.88
480.532	279.88
480.751	267.88
480.969	264.88
481.188	278.88
481.406	295.88
481.624	277.88
481.843	251.88
482.061	243.88
482.28	268.88
482.498	310.88
482.717	307.88
482.935	278.88
483.153	277.88
483.372	240.88
483.59	245.88
483.808	257.88
484.027	230.88
484.245	239.88
484.463	242.88
484.681	241.88
484.9	253.88
485.118	272.88
485.336	276.88
485.554	246.88
485.772	257.88
485.99	274.88
486.209	291.88
486.427	281.88
486.645	242.88
486.863	272.88
487.081	283.88
487.299	288.88
487.517	305.88
487.735	260.88
487.953	258.88
488.171	286.88
488.389	264.88
488.607	256.88
488.825	253.88
489.043	288.88
489.261	311.88
489.479	316.88
489.696	294.88
489.914	267.88
490.132	250.88
490.35	267.88
490.568	262.88
490.786	270.88
491.003	261.88
491.221	250.88
491.439	260.88
491.657	267.88
491.874	292.88
492.092	296.88
492.31	335.88
492.527	344.88
492.745	310.88
492.963	277.88
493.18	279.88
493.398	319.88
493.615	292.88
493.833	277.88
494.05	289.88
494.268	256.88
494.485	276.88
494.703	286.88
494.92	275.88
495.138	260.88
495.355	281.88
495.573	294.88
495.79	303.88
496.008	363.88
496.225	310.88
496.442	291.88
496.66	285.88
496.877	313.88
497.094	302.88
497.312	279.88
497.529	291.88
497.746	286.88
497.963	291.88
498.181	296.88
498.398	322.88
498.615	354.88
498.832	378.88
499.049	372.88
499.267	356.88
499.484	362.88
499.701	414.88
499.918	441.88
500.135	478.88
500.352	523.88
500.569	533.88
500.786	531.88
501.003	536.88
501.22	472.88
501.437	416.88
501.654	370.88
501.871	367.88
502.088	360.88
502.305	340.88
502.522	329.88
502.739	340.88
502.956	307.88
503.172	323.88
503.389	294.88
503.606	284.88
503.823	270.88
504.04	295.88
504.256	304.88
504.473	296.88
504.69	325.88
504.907	328.88
505.123	303.88
505.34	310.88
505.557	304.88
505.773	298.88
505.99	303.88
506.207	286.88
506.423	261.88
506.64	264.88
506.856	277.88
507.073	297.88
507.289	290.88
507.506	279.88
507.722	294.88
507.939	297.88
508.155	316.88
508.372	280.88
508.588	270.88
508.805	262.88
509.021	273.88
509.238	280.88
509.454	274.88
509.67	265.88
509.887	274.88
510.103	292.88
510.319	270.88
510.536	263.88
510.752	248.88
510.968	231.88
511.184	240.88
511.401	261.88
511.617	252.88
511.833	242.88
512.049	248.88
512.265	266.88
512.481	255.88
512.698	259.88
512.914	276.88
513.13	261.88
513.346	246.88
513.562	246.88
513.778	258.88
513.994	252.88
514.21	259.88
514.426	262.88
514.642	259.88
514.858	249.88
515.074	271.88
515.29	290.88
515.506	305.88
515.721	301.88
515.937	272.88
516.153	256.88
516.369	271.88
516.585	275.88
516.801	287.88
517.016	353.88
517.232	333.88
517.448	335.88
517.664	311.88
517.879	316.88
518.095	326.88
518.311	315.88
518.527	318.88
518.742	329.88
518.958	325.88
519.173	319.88
519.389	304.88
519.605	293.88
519.82	334.88
520.036	349.88
520.251	342.88
520.467	364.88
520.682	536.88
520.898	656.88
521.113	631.88
521.329	399.88
521.544	324.88
521.76	303.88
521.975	294.88
522.19	284.88
522.406	281.88
522.621	313.88
522.836	333.88
523.052	316.88
523.267	276.88
523.482	279.88
523.698	281.88
523.913	282.88
524.128	268.88
524.343	260.88
524.559	261.88
524.774	269.88
524.989	276.88
525.204	282.88
525.419	267.88
525.634	280.88
525.849	277.88
526.064	262.88
526.28	274.88
526.495	308.88
526.71	334.88
526.925	279.88
527.14	299.88
527.355	286.88
527.57	250.88
527.785	268.88
527.999	254.88
528.214	256.88
528.429	258.88
528.644	253.88
528.859	240.88
529.074	239.88
529.289	240.88
529.503	224.88
529.718	236.88
529.933	294.88
530.148	304.88
530.363	283.88
530.577	256.88
530.792	252.88
531.007	233.88
531.221	247.88
531.436	243.88
531.651	244.88
531.865	241.88
532.08	250.88
532.295	239.88
532.509	248.88
532.724	258.88
532.938	294.88
533.153	323.88
533.367	272.88
533.582	273.88
533.796	262.88
534.011	254.88
534.225	251.88
534.44	258.88
534.654	264.88
534.868	303.88
535.083	269.88
535.297	249.88
535.511	253.88
535.726	250.88
535.94	253.88
536.154	245.88
536.369	246.88
536.583	254.88
536.797	253.88
537.011	236.88
537.225	258.88
537.44	284.88
537.654	233.88
537.868	238.88
538.082	238.88
538.296	252.88
538.51	265.88
538.724	255.88
538.938	256.88
539.153	216.88
539.367	225.88
539.581	228.88
539.795	237.88
540.009	258.88
540.222	253.88
540.436	260.88
540.65	265.88
540.864	260.88
541.078	286.88
541.292	318.88
541.506	245.88
541.72	248.88
541.934	230.88
542.147	226.88
542.361	252.88
542.575	250.88
542.789	264.88
543.002	221.88
543.216	249.88
543.43	230.88
543.644	234.88
543.857	231.88
544.071	240.88
544.285	229.88
544.498	230.88
544.712	219.88
544.925	239.88
545.139	215.88
545.352	222.88
545.566	228.88
545.779	238.88
545.993	239.88
546.206	221.88
546.42	222.88
546.633	221.88
546.847	222.88
547.06	217.88
547.274	228.88
547.487	228.88
547.7	248.88
547.914	238.88
548.127	272.88
548.34	254.88
548.554	222.88
548.767	233.88
548.98	254.88
549.193	236.88
549.407	222.88
549.62	274.88
549.833	254.88
550.046	265.88
550.259	257.88
550.473	242.88
550.686	226.88
550.899	237.88
551.112	227.88
551.325	260.88
551.538	243.88
551.751	233.88
551.964	228.88
552.177	234.88
552.39	216.88
552.603	217.88
552.816	230.88
553.029	221.88
553.242	210.88
553.455	238.88
553.667	260.88
553.88	256.88
554.093	240.88
554.306	215.88
554.519	215.88
554.732	213.88
554.944	217.88
555.157	198.88
555.37	213.88
555.583	192.88
555.795	212.88
556.008	212.88
556.221	225.88
556.433	209.88
556.646	184.88
556.859	200.88
557.071	208.88
557.284	213.88
557.496	202.88
557.709	195.88
557.921	209.88
558.134	198.88
558.346	198.88
558.559	205.88
558.771	191.88
558.984	182.88
559.196	222.88
559.409	208.88
559.621	193.88
559.833	188.88
560.046	200.88
560.258	195.88
560.47	189.88
560.683	200.88
560.895	184.88
561.107	176.88
561.32	178.88
561.532	189.88
561.744	218.88
561.956	217.88
562.168	191.88
562.381	191.88
562.593	197.88
562.805	216.88
563.017	203.88
563.229	190.88
563.441	192.88
563.653	192.88
563.865	192.88
564.077	196.88
564.289	198.88
564.501	195.88
564.713	214.88
564.925	220.88
565.137	199.88
565.349	202.88
565.561	212.88
565.773	210.88
565.985	208.88
566.197	220.88
566.408	241.88
566.62	240.88
566.832	236.88
567.044	256.88
567.255	264.88
567.467	264.88
567.679	272.88
567.891	275.88
568.102	288.88
568.314	282.88
568.526	265.88
568.737	243.88
568.949	244.88
569.161	209.88
569.372	208.88
569.584	208.88
569.795	206.88
570.007	190.88
570.218	210.88
570.43	207.88
570.641	202.88
570.853	208.88
571.064	198.88
571.276	197.88
571.487	203.88
571.698	183.88
571.91	183.88
572.121	199.88
572.333	180.88
572.544	201.88
572.755	180.88
572.966	175.88
573.178	176.88
573.389	177.88
573.6	186.88
573.811	177.88
574.023	183.88
574.234	189.88
574.445	182.88
574.656	188.88
574.867	182.88
575.078	170.88
575.289	180.88
575.501	190.88
575.712	177.88
575.923	169.88
576.134	180.88
576.345	178.88
576.556	178.88
576.767	161.88
576.978	159.88
577.188	162.88
577.399	169.88
577.61	172.88
577.821	180.88
578.032	177.88
578.243	189.88
578.454	192.88
578.665	184.88
578.875	180.88
579.086	181.88
579.297	164.88
579.508	170.88
579.718	157.88
579.929	167.88
580.14	180.88
580.35	168.88
580.561	154.88
580.772	157.88
580.982	182.88
581.193	158.88
581.403	151.88
581.614	167.88
581.825	167.88
582.035	155.88
582.246	157.88
582.456	141.88
582.667	159.88
582.877	148.88
583.087	150.88
583.298	157.88
583.508	159.88
583.719	162.88
583.929	167.88
584.139	149.88
584.35	151.88
584.56	161.88
584.77	161.88
584.981	176.88
585.191	166.88
585.401	148.88
585.611	164.88
585.821	164.88
586.032	179.88
586.242	160.88
586.452	162.88
586.662	161.88
586.872	164.88
587.082	146.88
587.292	188.88
587.502	156.88
587.713	162.88
587.923	161.88
588.133	165.88
588.343	152.88
588.553	163.88
588.762	173.88
588.972	166.88
589.182	150.88
589.392	162.88
589.602	139.88
589.812	139.88
590.022	173.88
590.232	164.88
590.441	146.88
590.651	157.88
590.861	156.88
591.071	155.88
591.281	152.88
591.49	143.88
591.7	159.88
591.91	180.88
592.119	143.88
592.329	156.88
592.539	160.88
592.748	154.88
592.958	169.88
593.167	173.88
593.377	172.88
593.587	196.88
593.796	186.88
594.006	162.88
594.215	180.88
594.424	184.88
594.634	175.88
594.843	158.88
595.053	178.88
595.262	175.88
595.472	177.88
595.681	167.88
595.89	150.88
596.1	150.88
596.309	159.88
596.518	163.88
596.727	141.88
596.937	158.88
597.146	144.88
597.355	160.88
597.564	155.88
597.774	146.88
597.983	132.88
598.192	140.88
598.401	140.88
598.61	161.88
598.819	143.88
599.028	151.88
599.237	145.88
599.446	134.88
599.655	145.88
599.864	146.88
600.073	156.88
600.282	174.88
600.491	148.88
600.7	141.88
600.909	136.88
601.118	148.88
601.327	129.88
601.536	126.88
601.745	143.88
601.953	158.88
602.162	149.88
602.371	165.88
602.58	150.88
602.789	139.88
602.997	158.88
603.206	148.88
603.415	149.88
603.623	138.88
603.832	133.88
604.041	149.88
604.249	165.88
604.458	158.88
604.666	161.88
604.875	130.88
605.084	137.88
605.292	144.88
605.501	143.88
605.709	139.88
605.918	141.88
606.126	132.88
606.334	140.88
606.543	130.88
606.751	130.88
606.96	139.88
607.168	135.88
607.376	140.88
607.585	135.88
607.793	132.88
608.001	134.88
608.21	135.88
608.418	130.88
608.626	137.88
608.834	142.88
609.043	133.88
609.251	144.88
609.459	130.88
609.667	152.88
609.875	124.88
610.083	126.88
610.291	138.88
610.499	137.88
610.707	134.88
610.916	130.88
611.124	142.88
611.332	142.88
611.54	139.88
611.748	126.88
611.955	138.88
612.163	134.88
612.371	143.88
612.579	138.88
612.787	132.88
612.995	135.88
613.203	141.88
613.411	127.88
613.618	122.88
613.826	130.88
614.034	127.88
614.242	130.88
614.449	127.88
614.657	128.88
614.865	127.88
615.072	135.88
615.28	129.88
615.488	130.88
615.695	134.88
615.903	121.88
616.111	110.88
616.318	134.88
616.526	129.88
616.733	145.88
616.941	132.88
617.148	142.88
617.356	151.88
617.563	120.88
617.771	135.88
617.978	139.88
618.185	134.88
618.393	132.88
618.6	138.88
618.807	132.88
619.015	136.88
619.222	137.88
619.429	146.88
619.637	142.88
619.844	127.88
620.051	121.88
620.258	132.88
620.466	129.88
620.673	132.88
620.88	118.88
621.087	123.88
621.294	123.88
621.501	132.88
621.708	130.88
621.915	122.88
622.122	127.88
622.329	122.88
622.536	127.88
622.743	127.88
622.95	127.88
623.157	115.88
623.364	141.88
623.571	138.88
623.778	130.88
623.985	129.88
624.192	123.88
624.399	139.88
624.606	127.88
624.812	105.88
625.019	134.88
625.226	132.88
625.433	143.88
625.639	129.88
625.846	119.88
626.053	125.88
626.259	116.88
626.466	114.88
626.673	128.88
626.879	108.88
627.086	140.88
627.293	124.88
627.499	111.88
627.706	127.88
627.912	122.88
628.119	137.88
628.325	119.88
628.532	126.88
628.738	111.88
628.945	124.88
629.151	128.88
629.357	124.88
629.564	117.88
629.77	113.88
629.976	130.88
630.183	128.88
630.389	122.88
630.595	129.88
630.802	135.88
631.008	126.88
631.214	106.88
631.42	104.88
631.627	119.88
631.833	122.88
632.039	122.88
632.245	109.88
632.451	128.88
632.657	116.88
632.863	120.88
633.069	108.88
633.275	124.88
633.481	128.88
633.688	121.88
633.893	132.88
634.099	126.88
634.305	111.88
634.511	115.88
634.717	112.88
634.923	113.88
635.129	117.88
635.335	111.88
635.541	104.88
635.747	124.88
635.952	127.88
636.158	107.88
636.364	108.88
636.57	117.88
636.775	108.88
636.981	136.88
637.187	121.88
637.392	113.88
637.598	125.88
637.804	125.88
638.009	97.88
638.215	114.88
638.421	108.88
638.626	113.88
638.832	113.88
639.037	114.88
639.243	101.88
639.448	106.88
639.654	127.88
639.859	117.88
640.065	108.88
640.27	120.88
640.475	112.88
640.681	103.88
640.886	128.88
641.091	98.88
641.297	122.88
641.502	115.88
641.707	104.88
641.913	105.88
642.118	115.88
642.323	119.88
642.528	125.88
642.733	129.88
642.939	105.88
643.144	95.88
643.349	113.88
643.554	114.88
643.759	108.88
643.964	120.88
644.169	94.88
644.374	115.88
644.579	113.88
644.784	112.88
644.989	105.88
645.194	98.88
645.399	113.88
645.604	100.88
645.809	108.88
646.014	103.88
646.219	113.88
646.423	103.88
646.628	110.88
646.833	120.88
647.038	111.88
647.243	86.88
647.447	110.88
647.652	107.88
647.857	119.88
648.062	111.88
648.266	118.88
648.471	116.88
648.676	116.88
648.88	113.88
649.085	101.88
649.289	108.88
649.494	100.88
649.698	97.88
649.903	102.88
650.107	109.88
650.312	131.88
650.516	110.88
650.721	126.88
650.925	101.88
651.13	93.88
651.334	98.88
651.539	117.88
651.743	119.88
651.947	97.88
652.152	120.88
652.356	100.88
652.56	94.88
652.764	98.88
652.969	116.88
653.173	105.88
653.377	99.88
653.581	89.88
653.785	111.88
653.99	104.88
654.194	78.88
654.398	96.88
654.602	102.88
654.806	100.88
655.01	95.88
655.214	106.88
655.418	91.88
655.622	96.88
655.826	101.88
656.03	87.88
656.234	90.88
656.438	96.88
656.642	101.88
656.846	99.88
657.049	96.88
657.253	93.88
657.457	89.88
657.661	93.88
657.865	100.88
658.068	87.88
658.272	87.88
658.476	88.88
658.68	93.88
658.883	97.88
659.087	86.88
659.291	94.88
659.494	82.88
659.698	96.88
659.901	80.88
660.105	97.88
660.309	74.88
660.512	88.88
660.716	88.88
660.919	89.88
661.123	88.88
661.326	87.88
661.53	94.88
661.733	98.88
661.936	91.88
662.14	73.88
662.343	77.88
662.546	84.88
662.75	82.88
662.953	89.88
663.156	77.88
663.36	80.88
663.563	76.88
663.766	74.88
663.969	74.88
664.173	86.88
664.376	84.88
664.579	87.88
664.782	81.88
664.985	79.88
665.188	83.88
665.391	73.88
665.594	81.88
665.797	81.88
666	76.88
666.203	69.88
666.406	81.88
666.609	90.88
666.812	74.88
667.015	87.88
667.218	71.88
667.421	90.88
667.624	79.88
667.827	79.88
668.03	87.88
668.232	85.88
668.435	79.88
668.638	84.88
668.841	86.88
669.043	89.88
669.246	82.88
669.449	76.88
669.651	76.88
669.854	86.88
670.057	82.88
670.259	82.88
670.462	86.88
670.665	79.88
670.867	82.88
671.07	83.88
671.272	82.88
671.475	80.88
671.677	93.88
671.88	85.88
672.082	78.88
672.284	90.88
672.487	72.88
672.689	75.88
672.892	94.88
