Data from NickelSpatula.Lamp.E10.P2_HRD10591_11-59-55-524.txt Node
Date: Tue Jul 23 11:59:55 EDT 2019
User: cochatt
Spectrometer: HR+D1059
Trigger mode: 1
Integration Time (sec): 1.000000E-1
Scans to average: 1
Electric dark correction enabled: true
Nonlinearity correction enabled: false
Boxcar width: 0
XAxis mode: Wavelengths
Number of Pixels in Spectrum: 2048
>>>>>Begin Spectral Data<<<<<
223.165	-17.88
223.4	-17.88
223.635	-17.88
223.869	-25.88
224.104	-23.88
224.338	-21.88
224.573	-12.88
224.808	-19.88
225.042	9.12
225.277	2.12
225.511	-0.88
225.746	17.12
225.98	2.12
226.215	0.12
226.449	6.12
226.683	18.12
226.918	28.12
227.152	40.12
227.387	40.12
227.621	36.12
227.856	42.12
228.09	22.12
228.324	34.12
228.559	52.12
228.793	85.12
229.027	145.12
229.262	162.12
229.496	147.12
229.73	171.12
229.964	187.12
230.199	232.12
230.433	196.12
230.667	198.12
230.901	215.12
231.136	188.12
231.37	212.12
231.604	217.12
231.838	241.12
232.072	257.12
232.306	242.12
232.541	238.12
232.775	258.12
233.009	270.12
233.243	314.12
233.477	308.12
233.711	354.12
233.945	314.12
234.179	312.12
234.413	341.12
234.647	401.12
234.881	465.12
235.115	427.12
235.349	424.12
235.583	355.12
235.817	345.12
236.051	383.12
236.285	441.12
236.519	466.12
236.753	450.12
236.987	431.12
237.221	408.12
237.455	420.12
237.689	441.12
237.922	468.12
238.156	482.12
238.39	579.12
238.624	644.12
238.858	595.12
239.091	523.12
239.325	498.12
239.559	501.12
239.793	554.12
240.027	646.12
240.26	630.12
240.494	592.12
240.728	604.12
240.961	709.12
241.195	667.12
241.429	678.12
241.662	637.12
241.896	539.12
242.13	484.12
242.363	472.12
242.597	477.12
242.83	528.12
243.064	553.12
243.298	604.12
243.531	617.12
243.765	642.12
243.998	639.12
244.232	611.12
244.465	575.12
244.699	590.12
244.932	674.12
245.166	632.12
245.399	554.12
245.633	529.12
245.866	565.12
246.099	612.12
246.333	704.12
246.566	772.12
246.8	773.12
247.033	758.12
247.266	694.12
247.5	694.12
247.733	680.12
247.966	681.12
248.2	703.12
248.433	793.12
248.666	849.12
248.899	837.12
249.133	903.12
249.366	1017.12
249.599	1064.12
249.832	953.12
250.066	844.12
250.299	865.12
250.532	831.12
250.765	799.12
250.998	739.12
251.231	715.12
251.465	824.12
251.698	848.12
251.931	811.12
252.164	836.12
252.397	941.12
252.63	1053.12
252.863	1141.12
253.096	1178.12
253.329	1189.12
253.562	1097.12
253.795	1266.12
254.028	1370.12
254.261	1443.12
254.494	1242.12
254.727	1139.12
254.96	1125.12
255.193	1190.12
255.426	1137.12
255.659	862.12
255.892	794.12
256.124	855.12
256.357	1045.12
256.59	1211.12
256.823	1188.12
257.056	1015.12
257.289	926.12
257.521	1000.12
257.754	1145.12
257.987	1288.12
258.22	1093.12
258.452	1045.12
258.685	1173.12
258.918	1322.12
259.151	1231.12
259.383	1305.12
259.616	1487.12
259.849	1585.12
260.081	1722.12
260.314	1888.12
260.547	1485.12
260.779	1449.12
261.012	1718.12
261.244	1609.12
261.477	1661.12
261.71	1571.12
261.942	1321.12
262.175	1289.12
262.407	1245.12
262.64	1311.12
262.872	1540.12
263.105	1655.12
263.337	1740.12
263.57	1547.12
263.802	1049.12
264.035	897.12
264.267	873.12
264.499	769.12
264.732	701.12
264.964	696.12
265.197	713.12
265.429	756.12
265.661	830.12
265.894	853.12
266.126	903.12
266.358	1015.12
266.591	1257.12
266.823	1509.12
267.055	1409.12
267.287	1263.12
267.52	1242.12
267.752	1313.12
267.984	1433.12
268.216	1364.12
268.448	1126.12
268.681	1119.12
268.913	1203.12
269.145	1249.12
269.377	1334.12
269.609	1321.12
269.841	1257.12
270.073	1341.12
270.306	1356.12
270.538	1363.12
270.77	1408.12
271.002	1429.12
271.234	1490.12
271.466	1482.12
271.698	1449.12
271.93	1424.12
272.162	1446.12
272.394	1412.12
272.626	1417.12
272.858	1461.12
273.09	1505.12
273.322	1349.12
273.553	1271.12
273.785	1518.12
274.017	1991.12
274.249	2473.12
274.481	2567.12
274.713	2825.12
274.945	3245.12
275.176	3344.12
275.408	2881.12
275.64	2627.12
275.872	2591.12
276.104	2282.12
276.335	1925.12
276.567	1932.12
276.799	2003.12
277.031	2089.12
277.262	1610.12
277.494	1274.12
277.726	1219.12
277.957	1339.12
278.189	1525.12
278.421	1484.12
278.652	1427.12
278.884	1405.12
279.115	1281.12
279.347	1203.12
279.579	1225.12
279.81	1226.12
280.042	1201.12
280.273	1231.12
280.505	1150.12
280.736	1025.12
280.968	1026.12
281.199	1087.12
281.431	1266.12
281.662	1215.12
281.894	1175.12
282.125	1248.12
282.356	1355.12
282.588	1397.12
282.819	1270.12
283.051	1372.12
283.282	1727.12
283.513	1982.12
283.745	2187.12
283.976	2145.12
284.207	1983.12
284.439	2109.12
284.67	2034.12
284.901	1813.12
285.132	1930.12
285.364	2012.12
285.595	1847.12
285.826	2008.12
286.057	2025.12
286.288	2014.12
286.52	1998.12
286.751	2120.12
286.982	2111.12
287.213	1811.12
287.444	1760.12
287.675	1871.12
287.906	1827.12
288.138	1581.12
288.369	1358.12
288.6	1282.12
288.831	1359.12
289.062	1555.12
289.293	1718.12
289.524	1615.12
289.755	1603.12
289.986	1657.12
290.217	1409.12
290.448	1102.12
290.679	965.12
290.91	929.12
291.141	945.12
291.371	959.12
291.602	982.12
291.833	986.12
292.064	1070.12
292.295	1226.12
292.526	1423.12
292.757	1457.12
292.987	1561.12
293.218	1570.12
293.449	1580.12
293.68	1681.12
293.91	1578.12
294.141	1633.12
294.372	1548.12
294.603	1418.12
294.833	1602.12
295.064	1856.12
295.295	1734.12
295.525	1315.12
295.756	1155.12
295.987	1011.12
296.217	1032.12
296.448	1033.12
296.679	1102.12
296.909	1242.12
297.14	1330.12
297.37	1434.12
297.601	1361.12
297.831	1147.12
298.062	1269.12
298.292	1416.12
298.523	1597.12
298.753	1827.12
298.984	1615.12
299.214	1267.12
299.445	1094.12
299.675	1071.12
299.905	1074.12
300.136	1089.12
300.366	1186.12
300.597	1179.12
300.827	1025.12
301.057	980.12
301.288	1035.12
301.518	1108.12
301.748	1246.12
301.979	1365.12
302.209	1469.12
302.439	1479.12
302.669	1257.12
302.9	1273.12
303.13	1163.12
303.36	1111.12
303.59	1060.12
303.82	1149.12
304.051	1281.12
304.281	1339.12
304.511	1330.12
304.741	1150.12
304.971	1182.12
305.201	1282.12
305.431	1194.12
305.661	1107.12
305.891	1074.12
306.121	1064.12
306.352	962.12
306.582	880.12
306.812	857.12
307.042	871.12
307.272	814.12
307.502	789.12
307.731	903.12
307.961	939.12
308.191	877.12
308.421	827.12
308.651	808.12
308.881	779.12
309.111	761.12
309.341	835.12
309.571	901.12
309.8	939.12
310.03	935.12
310.26	1029.12
310.49	975.12
310.72	831.12
310.949	858.12
311.179	863.12
311.409	954.12
311.639	1101.12
311.868	1402.12
312.098	1791.12
312.328	2000.12
312.557	1871.12
312.787	1925.12
313.017	1669.12
313.246	1828.12
313.476	1973.12
313.706	1628.12
313.935	1294.12
314.165	1062.12
314.394	954.12
314.624	949.12
314.853	1013.12
315.083	1030.12
315.312	1014.12
315.542	1021.12
315.771	970.12
316.001	877.12
316.23	847.12
316.46	835.12
316.689	864.12
316.919	861.12
317.148	888.12
317.377	882.12
317.607	862.12
317.836	961.12
318.065	1122.12
318.295	1272.12
318.524	1160.12
318.753	989.12
318.983	941.12
319.212	917.12
319.441	1017.12
319.67	1151.12
319.9	1233.12
320.129	1141.12
320.358	956.12
320.587	965.12
320.816	1034.12
321.046	1160.12
321.275	1339.12
321.504	1376.12
321.733	1320.12
321.962	1237.12
322.191	1193.12
322.42	1137.12
322.649	1152.12
322.878	1262.12
323.108	1225.12
323.337	1122.12
323.566	1091.12
323.795	1073.12
324.024	1033.12
324.253	998.12
324.482	977.12
324.71	1083.12
324.939	1190.12
325.168	1121.12
325.397	929.12
325.626	936.12
325.855	905.12
326.084	954.12
326.313	904.12
326.542	855.12
326.77	892.12
326.999	931.12
327.228	959.12
327.457	998.12
327.686	1031.12
327.914	913.12
328.143	866.12
328.372	854.12
328.6	854.12
328.829	894.12
329.058	920.12
329.287	891.12
329.515	898.12
329.744	878.12
329.972	825.12
330.201	800.12
330.43	847.12
330.658	929.12
330.887	1112.12
331.115	1056.12
331.344	1002.12
331.572	979.12
331.801	907.12
332.03	850.12
332.258	867.12
332.486	954.12
332.715	989.12
332.943	893.12
333.172	913.12
333.4	920.12
333.629	1024.12
333.857	1117.12
334.085	1105.12
334.314	1147.12
334.542	1061.12
334.771	973.12
334.999	950.12
335.227	924.12
335.455	936.12
335.684	1031.12
335.912	1201.12
336.14	1343.12
336.369	1247.12
336.597	1231.12
336.825	1378.12
337.053	1536.12
337.281	1248.12
337.51	1001.12
337.738	964.12
337.966	1070.12
338.194	1210.12
338.422	1136.12
338.65	954.12
338.878	905.12
339.106	926.12
339.334	995.12
339.562	1104.12
339.79	1011.12
340.018	987.12
340.246	1073.12
340.474	1187.12
340.702	1283.12
340.93	1326.12
341.158	1306.12
341.386	1110.12
341.614	1135.12
341.842	1117.12
342.07	1168.12
342.298	1323.12
342.526	1402.12
342.754	1207.12
342.981	1115.12
343.209	1045.12
343.437	1130.12
343.665	1184.12
343.893	1190.12
344.12	1397.12
344.348	1626.12
344.576	1446.12
344.804	1224.12
345.031	1055.12
345.259	984.12
345.487	998.12
345.714	1043.12
345.942	1119.12
346.17	1203.12
346.397	1152.12
346.625	999.12
346.853	958.12
347.08	938.12
347.308	984.12
347.535	1122.12
347.763	1163.12
347.99	1018.12
348.218	917.12
348.445	986.12
348.673	981.12
348.9	977.12
349.128	1035.12
349.355	1075.12
349.583	1075.12
349.81	982.12
350.037	949.12
350.265	842.12
350.492	823.12
350.72	825.12
350.947	808.12
351.174	916.12
351.402	965.12
351.629	1007.12
351.856	931.12
352.083	889.12
352.311	987.12
352.538	1123.12
352.765	1162.12
352.992	1071.12
353.22	989.12
353.447	989.12
353.674	978.12
353.901	972.12
354.128	983.12
354.355	1019.12
354.583	989.12
354.81	1005.12
355.037	1003.12
355.264	1034.12
355.491	1093.12
355.718	1210.12
355.945	1157.12
356.172	1101.12
356.399	1108.12
356.626	1342.12
356.853	1634.12
357.08	1767.12
357.307	1775.12
357.534	1389.12
357.761	1441.12
357.988	1773.12
358.215	2060.12
358.441	1982.12
358.668	1658.12
358.895	1546.12
359.122	1209.12
359.349	1246.12
359.576	1337.12
359.802	1133.12
360.029	960.12
360.256	1063.12
360.483	1299.12
360.709	1646.12
360.936	1751.12
361.163	1489.12
361.39	1133.12
361.616	1075.12
361.843	1245.12
362.07	1519.12
362.296	1390.12
362.523	1085.12
362.749	970.12
362.976	991.12
363.203	1207.12
363.429	1327.12
363.656	1118.12
363.882	968.12
364.109	1027.12
364.335	1008.12
364.562	966.12
364.788	1124.12
365.015	1331.12
365.241	1179.12
365.468	976.12
365.694	845.12
365.92	794.12
366.147	797.12
366.373	793.12
366.599	797.12
366.826	803.12
367.052	829.12
367.278	847.12
367.505	818.12
367.731	914.12
367.957	1003.12
368.184	1056.12
368.41	1011.12
368.636	1032.12
368.862	1072.12
369.089	1042.12
369.315	904.12
369.541	903.12
369.767	900.12
369.993	861.12
370.219	870.12
370.445	920.12
370.672	997.12
370.898	1092.12
371.124	1081.12
371.35	967.12
371.576	892.12
371.802	979.12
372.028	1178.12
372.254	1370.12
372.48	1157.12
372.706	1030.12
372.932	1061.12
373.158	1151.12
373.384	1380.12
373.61	1850.12
373.835	1901.12
374.061	1382.12
374.287	1166.12
374.513	1406.12
374.739	1687.12
374.965	1768.12
375.191	1719.12
375.416	1183.12
375.642	1000.12
375.868	1212.12
376.094	1375.12
376.319	1184.12
376.545	1292.12
376.771	1383.12
376.997	1158.12
377.222	878.12
377.448	767.12
377.674	755.12
377.899	765.12
378.125	766.12
378.35	753.12
378.576	792.12
378.802	862.12
379.027	935.12
379.253	939.12
379.478	936.12
379.704	1060.12
379.929	1071.12
380.155	1088.12
380.38	945.12
380.606	993.12
380.831	1129.12
381.057	1026.12
381.282	959.12
381.507	1216.12
381.733	1432.12
381.958	1573.12
382.184	1686.12
382.409	1718.12
382.634	1707.12
382.86	1807.12
383.085	1501.12
383.31	1161.12
383.535	1235.12
383.761	1211.12
383.986	1185.12
384.211	1444.12
384.436	1373.12
384.662	1056.12
384.887	1038.12
385.112	1026.12
385.337	1090.12
385.562	990.12
385.787	1135.12
386.013	1240.12
386.238	1272.12
386.463	1042.12
386.688	977.12
386.913	978.12
387.138	900.12
387.363	960.12
387.588	1011.12
387.813	1027.12
388.038	1123.12
388.263	1025.12
388.488	993.12
388.713	1144.12
388.938	1228.12
389.163	1034.12
389.387	895.12
389.612	919.12
389.837	971.12
390.062	978.12
390.287	987.12
390.512	1026.12
390.736	943.12
390.961	901.12
391.186	853.12
391.411	816.12
391.636	846.12
391.86	957.12
392.085	1031.12
392.31	1007.12
392.534	951.12
392.759	947.12
392.984	976.12
393.208	976.12
393.433	870.12
393.658	807.12
393.882	779.12
394.107	798.12
394.331	805.12
394.556	786.12
394.78	798.12
395.005	846.12
395.229	862.12
395.454	881.12
395.678	899.12
395.903	915.12
396.127	882.12
396.352	891.12
396.576	990.12
396.801	1001.12
397.025	1133.12
397.249	1135.12
397.474	936.12
397.698	938.12
397.922	979.12
398.147	920.12
398.371	936.12
398.595	976.12
398.82	961.12
399.044	975.12
399.268	1011.12
399.492	1040.12
399.717	1063.12
399.941	1071.12
400.165	1063.12
400.389	1023.12
400.613	1073.12
400.837	1057.12
401.062	906.12
401.286	899.12
401.51	917.12
401.734	889.12
401.958	927.12
402.182	893.12
402.406	921.12
402.63	912.12
402.854	946.12
403.078	1086.12
403.302	1304.12
403.526	1373.12
403.75	1215.12
403.974	1064.12
404.198	1075.12
404.422	1238.12
404.645	1450.12
404.869	1610.12
405.093	1184.12
405.317	989.12
405.541	978.12
405.765	1023.12
405.988	1025.12
406.212	1054.12
406.436	1343.12
406.66	1418.12
406.883	1129.12
407.107	1198.12
407.331	1392.12
407.555	1343.12
407.778	1105.12
408.002	1103.12
408.226	1069.12
408.449	1035.12
408.673	994.12
408.896	988.12
409.12	919.12
409.344	917.12
409.567	897.12
409.791	880.12
410.014	879.12
410.238	901.12
410.461	923.12
410.685	929.12
410.908	919.12
411.132	928.12
411.355	921.12
411.578	959.12
411.802	947.12
412.025	997.12
412.249	1008.12
412.472	991.12
412.695	942.12
412.919	969.12
413.142	976.12
413.365	1074.12
413.589	1054.12
413.812	975.12
414.035	926.12
414.258	954.12
414.482	1054.12
414.705	1071.12
414.928	897.12
415.151	883.12
415.374	886.12
415.597	933.12
415.821	935.12
416.044	922.12
416.267	858.12
416.49	847.12
416.713	870.12
416.936	890.12
417.159	883.12
417.382	910.12
417.605	915.12
417.828	916.12
418.051	905.12
418.274	934.12
418.497	935.12
418.72	925.12
418.943	948.12
419.166	1005.12
419.389	1038.12
419.611	1030.12
419.834	1059.12
420.057	1135.12
420.28	1125.12
420.503	1039.12
420.726	936.12
420.948	862.12
421.171	904.12
421.394	909.12
421.617	856.12
421.839	904.12
422.062	919.12
422.285	941.12
422.507	946.12
422.73	965.12
422.953	979.12
423.175	959.12
423.398	932.12
423.621	1006.12
423.843	1051.12
424.066	962.12
424.288	944.12
424.511	889.12
424.733	924.12
424.956	942.12
425.178	1090.12
425.401	1253.12
425.623	1400.12
425.846	1145.12
426.068	1031.12
426.291	1157.12
426.513	1009.12
426.735	926.12
426.958	979.12
427.18	1191.12
427.402	1543.12
427.625	1469.12
427.847	1203.12
428.069	916.12
428.292	905.12
428.514	907.12
428.736	857.12
428.958	941.12
429.181	1149.12
429.403	976.12
429.625	869.12
429.847	880.12
430.069	889.12
430.292	928.12
430.514	889.12
430.736	952.12
430.958	1192.12
431.18	1111.12
431.402	847.12
431.624	818.12
431.846	804.12
432.068	797.12
432.29	797.12
432.512	912.12
432.734	1226.12
432.956	1151.12
433.178	894.12
433.4	855.12
433.622	849.12
433.844	900.12
434.066	946.12
434.287	932.12
434.509	898.12
434.731	933.12
434.953	882.12
435.175	935.12
435.397	1036.12
435.618	912.12
435.84	806.12
436.062	831.12
436.284	836.12
436.505	816.12
436.727	777.12
436.949	815.12
437.17	833.12
437.392	874.12
437.614	831.12
437.835	817.12
438.057	810.12
438.278	1000.12
438.5	1405.12
438.721	1413.12
438.943	964.12
439.165	798.12
439.386	789.12
439.608	797.12
439.829	784.12
440.05	799.12
440.272	871.12
440.493	977.12
440.715	1241.12
440.936	979.12
441.158	877.12
441.379	854.12
441.6	959.12
441.822	1051.12
442.043	889.12
442.264	890.12
442.486	885.12
442.707	874.12
442.928	865.12
443.149	894.12
443.371	934.12
443.592	966.12
443.813	924.12
444.034	900.12
444.255	908.12
444.476	951.12
444.698	943.12
444.919	933.12
445.14	1029.12
445.361	1029.12
445.582	932.12
445.803	942.12
446.024	931.12
446.245	952.12
446.466	903.12
446.687	870.12
446.908	871.12
447.129	844.12
447.35	856.12
447.571	824.12
447.792	818.12
448.013	800.12
448.234	785.12
448.455	843.12
448.675	787.12
448.896	799.12
449.117	818.12
449.338	816.12
449.559	805.12
449.779	868.12
450	856.12
450.221	854.12
450.442	818.12
450.662	796.12
450.883	806.12
451.104	820.12
451.324	799.12
451.545	825.12
451.766	777.12
451.986	802.12
452.207	767.12
452.428	763.12
452.648	769.12
452.869	842.12
453.089	858.12
453.31	850.12
453.53	731.12
453.751	747.12
453.971	750.12
454.192	787.12
454.412	806.12
454.633	772.12
454.853	747.12
455.073	728.12
455.294	753.12
455.514	745.12
455.734	796.12
455.955	818.12
456.175	833.12
456.395	759.12
456.616	701.12
456.836	685.12
457.056	707.12
457.276	711.12
457.497	740.12
457.717	739.12
457.937	735.12
458.157	725.12
458.377	738.12
458.598	754.12
458.818	783.12
459.038	819.12
459.258	866.12
459.478	860.12
459.698	894.12
459.918	888.12
460.138	870.12
460.358	920.12
460.578	883.12
460.798	902.12
461.018	902.12
461.238	862.12
461.458	857.12
461.678	909.12
461.898	919.12
462.118	902.12
462.338	905.12
462.558	955.12
462.777	998.12
462.997	1001.12
463.217	1004.12
463.437	1041.12
463.657	1009.12
463.876	933.12
464.096	957.12
464.316	975.12
464.536	961.12
464.755	1040.12
464.975	1019.12
465.195	968.12
465.414	994.12
465.634	933.12
465.854	902.12
466.073	880.12
466.293	857.12
466.512	920.12
466.732	992.12
466.951	1078.12
467.171	926.12
467.391	875.12
467.61	873.12
467.829	917.12
468.049	937.12
468.268	878.12
468.488	861.12
468.707	921.12
468.927	1080.12
469.146	1138.12
469.365	1032.12
469.585	976.12
469.804	1029.12
470.023	1120.12
470.243	1001.12
470.462	915.12
470.681	925.12
470.901	929.12
471.12	961.12
471.339	980.12
471.558	914.12
471.777	928.12
471.997	1015.12
472.216	1128.12
472.435	1071.12
472.654	978.12
472.873	952.12
473.092	1031.12
473.311	1075.12
473.53	967.12
473.749	929.12
473.968	990.12
474.187	985.12
474.406	971.12
474.625	948.12
474.844	971.12
475.063	1006.12
475.282	996.12
475.501	1056.12
475.72	1131.12
475.939	1109.12
476.158	1099.12
476.377	1242.12
476.596	1446.12
476.814	1501.12
477.033	1258.12
477.252	1077.12
477.471	1027.12
477.69	1002.12
477.908	1120.12
478.127	1150.12
478.346	1050.12
478.564	1175.12
478.783	1094.12
479.002	1113.12
479.22	1239.12
479.439	1421.12
479.658	1247.12
479.876	1105.12
480.095	1217.12
480.313	1252.12
480.532	1145.12
480.751	1103.12
480.969	1138.12
481.188	1298.12
481.406	1324.12
481.624	1235.12
481.843	1117.12
482.061	1067.12
482.28	1214.12
482.498	1473.12
482.717	1401.12
482.935	1209.12
483.153	1118.12
483.372	1089.12
483.59	1069.12
483.808	1048.12
484.027	1052.12
484.245	1014.12
484.463	978.12
484.681	1039.12
484.9	1098.12
485.118	1164.12
485.336	1091.12
485.554	1057.12
485.772	1083.12
485.99	1183.12
486.209	1231.12
486.427	1231.12
486.645	1207.12
486.863	1253.12
487.081	1239.12
487.299	1385.12
487.517	1348.12
487.735	1231.12
487.953	1214.12
488.171	1267.12
488.389	1210.12
488.607	1121.12
488.825	1161.12
489.043	1271.12
489.261	1467.12
489.479	1583.12
489.696	1329.12
489.914	1205.12
490.132	1122.12
490.35	1137.12
490.568	1147.12
490.786	1121.12
491.003	1113.12
491.221	1152.12
491.439	1100.12
491.657	1144.12
491.874	1224.12
492.092	1527.12
492.31	1811.12
492.527	1753.12
492.745	1537.12
492.963	1325.12
493.18	1296.12
493.398	1311.12
493.615	1278.12
493.833	1248.12
494.05	1236.12
494.268	1296.12
494.485	1264.12
494.703	1195.12
494.92	1245.12
495.138	1205.12
495.355	1221.12
495.573	1250.12
495.79	1383.12
496.008	1886.12
496.225	1600.12
496.442	1385.12
496.66	1378.12
496.877	1417.12
497.094	1432.12
497.312	1308.12
497.529	1360.12
497.746	1371.12
497.963	1371.12
498.181	1471.12
498.398	1621.12
498.615	1637.12
498.832	1697.12
499.049	1706.12
499.267	1520.12
499.484	1523.12
499.701	1647.12
499.918	1797.12
500.135	1902.12
500.352	1901.12
500.569	1997.12
500.786	2017.12
501.003	2015.12
501.22	1859.12
501.437	1713.12
501.654	1653.12
501.871	1630.12
502.088	1662.12
502.305	1497.12
502.522	1518.12
502.739	1502.12
502.956	1387.12
503.172	1377.12
503.389	1330.12
503.606	1295.12
503.823	1331.12
504.04	1339.12
504.256	1321.12
504.473	1354.12
504.69	1395.12
504.907	1397.12
505.123	1382.12
505.34	1503.12
505.557	1446.12
505.773	1352.12
505.99	1303.12
506.207	1383.12
506.423	1267.12
506.64	1222.12
506.856	1244.12
507.073	1406.12
507.289	1362.12
507.506	1384.12
507.722	1450.12
507.939	1454.12
508.155	1495.12
508.372	1314.12
508.588	1278.12
508.805	1225.12
509.021	1214.12
509.238	1166.12
509.454	1169.12
509.67	1190.12
509.887	1177.12
510.103	1318.12
510.319	1325.12
510.536	1175.12
510.752	1083.12
510.968	1068.12
511.184	1030.12
511.401	1055.12
511.617	1036.12
511.833	1042.12
512.049	1065.12
512.265	1093.12
512.481	1120.12
512.698	1253.12
512.914	1410.12
513.13	1273.12
513.346	1127.12
513.562	1205.12
513.778	1206.12
513.994	1166.12
514.21	1255.12
514.426	1226.12
514.642	1128.12
514.858	1151.12
515.074	1207.12
515.29	1286.12
515.506	1407.12
515.721	1360.12
515.937	1236.12
516.153	1189.12
516.369	1162.12
516.585	1220.12
516.801	1419.12
517.016	1641.12
517.232	1574.12
517.448	1556.12
517.664	1347.12
517.879	1281.12
518.095	1298.12
518.311	1289.12
518.527	1318.12
518.742	1380.12
518.958	1485.12
519.173	1400.12
519.389	1374.12
519.605	1377.12
519.82	1485.12
520.036	1792.12
520.251	1673.12
520.467	1610.12
520.682	2426.12
520.898	3016.12
521.113	2773.12
521.329	1747.12
521.544	1525.12
521.76	1478.12
521.975	1358.12
522.19	1270.12
522.406	1316.12
522.621	1502.12
522.836	1575.12
523.052	1609.12
523.267	1313.12
523.482	1302.12
523.698	1394.12
523.913	1364.12
524.128	1205.12
524.343	1161.12
524.559	1177.12
524.774	1143.12
524.989	1146.12
525.204	1177.12
525.419	1323.12
525.634	1241.12
525.849	1254.12
526.064	1258.12
526.28	1275.12
526.495	1504.12
526.71	1587.12
526.925	1399.12
527.14	1428.12
527.355	1376.12
527.57	1142.12
527.785	1212.12
527.999	1139.12
528.214	1089.12
528.429	1095.12
528.644	1085.12
528.859	1025.12
529.074	990.12
529.289	1005.12
529.503	988.12
529.718	1027.12
529.933	1176.12
530.148	1237.12
530.363	1086.12
530.577	997.12
530.792	1013.12
531.007	1021.12
531.221	995.12
531.436	978.12
531.651	1016.12
531.865	1017.12
532.08	1047.12
532.295	985.12
532.509	1039.12
532.724	1141.12
532.938	1327.12
533.153	1542.12
533.367	1227.12
533.582	1210.12
533.796	1084.12
534.011	1056.12
534.225	1058.12
534.44	1087.12
534.654	1087.12
534.868	1268.12
535.083	1155.12
535.297	1025.12
535.511	1020.12
535.726	1139.12
535.94	1085.12
536.154	1027.12
536.369	977.12
536.583	1021.12
536.797	1034.12
537.011	1053.12
537.225	1133.12
537.44	1237.12
537.654	1041.12
537.868	1024.12
538.082	1022.12
538.296	1011.12
538.51	1096.12
538.724	1109.12
538.938	1072.12
539.153	1000.12
539.367	977.12
539.581	971.12
539.795	1050.12
540.009	1177.12
540.222	1048.12
540.436	1055.12
540.65	1162.12
540.864	1214.12
541.078	1209.12
541.292	1340.12
541.506	1154.12
541.72	1109.12
541.934	1062.12
542.147	1046.12
542.361	1046.12
542.575	1066.12
542.789	1021.12
543.002	945.12
543.216	1081.12
543.43	939.12
543.644	933.12
543.857	946.12
544.071	947.12
544.285	913.12
544.498	891.12
544.712	919.12
544.925	999.12
545.139	970.12
545.352	898.12
545.566	915.12
545.779	1076.12
545.993	969.12
546.206	900.12
546.42	911.12
546.633	887.12
546.847	857.12
547.06	882.12
547.274	863.12
547.487	889.12
547.7	977.12
547.914	1004.12
548.127	1128.12
548.34	1112.12
548.554	968.12
548.767	999.12
548.98	1049.12
549.193	989.12
549.407	1019.12
549.62	1192.12
549.833	1118.12
550.046	1181.12
550.259	1146.12
550.473	1050.12
550.686	978.12
550.899	985.12
551.112	1005.12
551.325	1075.12
551.538	1107.12
551.751	956.12
551.964	878.12
552.177	889.12
552.39	877.12
552.603	891.12
552.816	954.12
553.029	874.12
553.242	885.12
553.455	959.12
553.667	1021.12
553.88	985.12
554.093	879.12
554.306	837.12
554.519	805.12
554.732	793.12
554.944	801.12
555.157	755.12
555.37	771.12
555.583	813.12
555.795	791.12
556.008	814.12
556.221	842.12
556.433	809.12
556.646	770.12
556.859	777.12
557.071	805.12
557.284	825.12
557.496	844.12
557.709	833.12
557.921	817.12
558.134	754.12
558.346	730.12
558.559	736.12
558.771	766.12
558.984	845.12
559.196	785.12
559.409	767.12
559.621	701.12
559.833	706.12
560.046	736.12
560.258	728.12
560.47	765.12
560.683	719.12
560.895	677.12
561.107	673.12
561.32	689.12
561.532	699.12
561.744	776.12
561.956	781.12
562.168	718.12
562.381	687.12
562.593	711.12
562.805	754.12
563.017	722.12
563.229	709.12
563.441	669.12
563.653	687.12
563.865	697.12
564.077	727.12
564.289	671.12
564.501	685.12
564.713	738.12
564.925	712.12
565.137	687.12
565.349	699.12
565.561	714.12
565.773	720.12
565.985	745.12
566.197	795.12
566.408	857.12
566.62	885.12
566.832	855.12
567.044	852.12
567.255	914.12
567.467	951.12
567.679	881.12
567.891	884.12
568.102	905.12
568.314	912.12
568.526	852.12
568.737	832.12
568.949	841.12
569.161	747.12
569.372	688.12
569.584	701.12
569.795	701.12
570.007	698.12
570.218	742.12
570.43	719.12
570.641	693.12
570.853	663.12
571.064	663.12
571.276	694.12
571.487	699.12
571.698	666.12
571.91	679.12
572.121	689.12
572.333	632.12
572.544	608.12
572.755	633.12
572.966	635.12
573.178	590.12
573.389	657.12
573.6	624.12
573.811	647.12
574.023	583.12
574.234	590.12
574.445	579.12
574.656	565.12
574.867	592.12
575.078	579.12
575.289	609.12
575.501	653.12
575.712	615.12
575.923	571.12
576.134	551.12
576.345	549.12
576.556	559.12
576.767	530.12
576.978	519.12
577.188	527.12
577.399	523.12
577.61	521.12
577.821	534.12
578.032	529.12
578.243	581.12
578.454	569.12
578.665	559.12
578.875	550.12
579.086	557.12
579.297	558.12
579.508	574.12
579.718	566.12
579.929	566.12
580.14	555.12
580.35	482.12
580.561	497.12
580.772	490.12
580.982	484.12
581.193	477.12
581.403	462.12
581.614	486.12
581.825	475.12
582.035	494.12
582.246	461.12
582.456	476.12
582.667	465.12
582.877	460.12
583.087	464.12
583.298	449.12
583.508	457.12
583.719	456.12
583.929	466.12
584.139	468.12
584.35	452.12
584.56	477.12
584.77	485.12
584.981	480.12
585.191	449.12
585.401	457.12
585.611	479.12
585.821	490.12
586.032	493.12
586.242	465.12
586.452	482.12
586.662	467.12
586.872	484.12
587.082	511.12
587.292	485.12
587.502	484.12
587.713	479.12
587.923	454.12
588.133	519.12
588.343	480.12
588.553	447.12
588.762	448.12
588.972	466.12
589.182	461.12
589.392	468.12
589.602	480.12
589.812	495.12
590.022	521.12
590.232	516.12
590.441	469.12
590.651	463.12
590.861	470.12
591.071	458.12
591.281	449.12
591.49	455.12
591.7	450.12
591.91	458.12
592.119	441.12
592.329	461.12
592.539	446.12
592.748	467.12
592.958	474.12
593.167	474.12
593.377	503.12
593.587	494.12
593.796	471.12
594.006	476.12
594.215	493.12
594.424	507.12
594.634	514.12
594.843	467.12
595.053	455.12
595.262	450.12
595.472	443.12
595.681	447.12
595.89	446.12
596.1	458.12
596.309	440.12
596.518	429.12
596.727	419.12
596.937	421.12
597.146	443.12
597.355	465.12
597.564	464.12
597.774	405.12
597.983	415.12
598.192	414.12
598.401	392.12
598.61	393.12
598.819	411.12
599.028	392.12
599.237	391.12
599.446	375.12
599.655	384.12
599.864	392.12
600.073	382.12
600.282	408.12
600.491	385.12
600.7	379.12
600.909	392.12
601.118	376.12
601.327	386.12
601.536	386.12
601.745	379.12
601.953	405.12
602.162	397.12
602.371	414.12
602.58	411.12
602.789	374.12
602.997	380.12
603.206	372.12
603.415	376.12
603.623	362.12
603.832	365.12
604.041	369.12
604.249	379.12
604.458	376.12
604.666	382.12
604.875	348.12
605.084	355.12
605.292	346.12
605.501	373.12
605.709	358.12
605.918	350.12
606.126	347.12
606.334	367.12
606.543	357.12
606.751	369.12
606.96	355.12
607.168	346.12
607.376	338.12
607.585	352.12
607.793	368.12
608.001	349.12
608.21	360.12
608.418	371.12
608.626	352.12
608.834	360.12
609.043	349.12
609.251	344.12
609.459	325.12
609.667	341.12
609.875	355.12
610.083	347.12
610.291	360.12
610.499	375.12
610.707	361.12
610.916	334.12
611.124	344.12
611.332	311.12
611.54	320.12
611.748	350.12
611.955	346.12
612.163	328.12
612.371	327.12
612.579	331.12
612.787	339.12
612.995	354.12
613.203	331.12
613.411	339.12
613.618	327.12
613.826	353.12
614.034	355.12
614.242	335.12
614.449	306.12
614.657	324.12
614.865	341.12
615.072	351.12
615.28	328.12
615.488	331.12
615.695	334.12
615.903	338.12
616.111	322.12
616.318	316.12
616.526	327.12
616.733	349.12
616.941	326.12
617.148	303.12
617.356	325.12
617.563	316.12
617.771	319.12
617.978	310.12
618.185	302.12
618.393	287.12
618.6	317.12
618.807	318.12
619.015	306.12
619.222	295.12
619.429	319.12
619.637	313.12
619.844	294.12
620.051	302.12
620.258	307.12
620.466	298.12
620.673	279.12
620.88	289.12
621.087	305.12
621.294	298.12
621.501	295.12
621.708	293.12
621.915	297.12
622.122	296.12
622.329	298.12
622.536	280.12
622.743	301.12
622.95	305.12
623.157	294.12
623.364	309.12
623.571	312.12
623.778	294.12
623.985	328.12
624.192	305.12
624.399	314.12
624.606	295.12
624.812	297.12
625.019	297.12
625.226	311.12
625.433	318.12
625.639	283.12
625.846	274.12
626.053	278.12
626.259	273.12
626.466	282.12
626.673	315.12
626.879	275.12
627.086	268.12
627.293	277.12
627.499	274.12
627.706	288.12
627.912	276.12
628.119	258.12
628.325	265.12
628.532	267.12
628.738	273.12
628.945	261.12
629.151	266.12
629.357	274.12
629.564	265.12
629.77	271.12
629.976	243.12
630.183	251.12
630.389	264.12
630.595	279.12
630.802	265.12
631.008	256.12
631.214	264.12
631.42	260.12
631.627	242.12
631.833	254.12
632.039	256.12
632.245	246.12
632.451	231.12
632.657	249.12
632.863	233.12
633.069	231.12
633.275	263.12
633.481	241.12
633.688	255.12
633.893	241.12
634.099	255.12
634.305	216.12
634.511	239.12
634.717	237.12
634.923	254.12
635.129	232.12
635.335	235.12
635.541	233.12
635.747	247.12
635.952	264.12
636.158	240.12
636.364	240.12
636.57	237.12
636.775	255.12
636.981	233.12
637.187	219.12
637.392	214.12
637.598	226.12
637.804	246.12
638.009	233.12
638.215	223.12
638.421	223.12
638.626	233.12
638.832	228.12
639.037	213.12
639.243	230.12
639.448	219.12
639.654	250.12
639.859	243.12
640.065	238.12
640.27	245.12
640.475	237.12
640.681	225.12
640.886	220.12
641.091	237.12
641.297	230.12
641.502	221.12
641.707	219.12
641.913	225.12
642.118	230.12
642.323	245.12
642.528	242.12
642.733	222.12
642.939	216.12
643.144	218.12
643.349	223.12
643.554	216.12
643.759	206.12
643.964	216.12
644.169	211.12
644.374	215.12
644.579	223.12
644.784	218.12
644.989	215.12
645.194	219.12
645.399	222.12
645.604	230.12
645.809	208.12
646.014	209.12
646.219	221.12
646.423	206.12
646.628	210.12
646.833	219.12
647.038	211.12
647.243	195.12
647.447	202.12
647.652	209.12
647.857	217.12
648.062	215.12
648.266	209.12
648.471	211.12
648.676	209.12
648.88	209.12
649.085	218.12
649.289	201.12
649.494	213.12
649.698	218.12
649.903	215.12
650.107	210.12
650.312	202.12
650.516	198.12
650.721	200.12
650.925	197.12
651.13	187.12
651.334	183.12
651.539	203.12
651.743	197.12
651.947	181.12
652.152	190.12
652.356	184.12
652.56	186.12
652.764	186.12
652.969	186.12
653.173	168.12
653.377	174.12
653.581	170.12
653.785	180.12
653.99	173.12
654.194	170.12
654.398	170.12
654.602	160.12
654.806	171.12
655.01	162.12
655.214	162.12
655.418	160.12
655.622	144.12
655.826	150.12
656.03	154.12
656.234	165.12
656.438	170.12
656.642	182.12
656.846	153.12
657.049	142.12
657.253	159.12
657.457	140.12
657.661	120.12
657.865	140.12
658.068	141.12
658.272	141.12
658.476	136.12
658.68	119.12
658.883	131.12
659.087	121.12
659.291	104.12
659.494	102.12
659.698	103.12
659.901	119.12
660.105	104.12
660.309	103.12
660.512	94.12
660.716	111.12
660.919	106.12
661.123	90.12
661.326	103.12
661.53	90.12
661.733	99.12
661.936	110.12
662.14	97.12
662.343	96.12
662.546	98.12
662.75	99.12
662.953	71.12
663.156	84.12
663.36	76.12
663.563	86.12
663.766	96.12
663.969	87.12
664.173	83.12
664.376	97.12
664.579	97.12
664.782	83.12
664.985	90.12
665.188	81.12
665.391	83.12
665.594	81.12
665.797	89.12
666	82.12
666.203	91.12
666.406	95.12
666.609	73.12
666.812	86.12
667.015	87.12
667.218	90.12
667.421	89.12
667.624	94.12
667.827	84.12
668.03	85.12
668.232	80.12
668.435	81.12
668.638	75.12
668.841	89.12
669.043	89.12
669.246	93.12
669.449	91.12
669.651	83.12
669.854	81.12
670.057	87.12
670.259	90.12
670.462	93.12
670.665	77.12
670.867	74.12
671.07	87.12
671.272	80.12
671.475	87.12
671.677	78.12
671.88	82.12
672.082	71.12
672.284	83.12
672.487	77.12
672.689	83.12
672.892	79.12
