Data from NickelSpatula.Lamp.E10.P2_HRD10591_11-59-19-525.txt Node
Date: Tue Jul 23 11:59:19 EDT 2019
User: cochatt
Spectrometer: HR+D1059
Trigger mode: 1
Integration Time (sec): 1.000000E-1
Scans to average: 1
Electric dark correction enabled: true
Nonlinearity correction enabled: false
Boxcar width: 0
XAxis mode: Wavelengths
Number of Pixels in Spectrum: 2048
>>>>>Begin Spectral Data<<<<<
223.165	-17.5
223.4	-17.5
223.635	-17.5
223.869	-18.5
224.104	-16.5
224.338	-13.5
224.573	-10.5
224.808	-21.5
225.042	-8.5
225.277	-19.5
225.511	3.5
225.746	0.5
225.98	7.5
226.215	21.5
226.449	22.5
226.683	18.5
226.918	27.5
227.152	24.5
227.387	33.5
227.621	43.5
227.856	36.5
228.09	50.5
228.324	68.5
228.559	61.5
228.793	60.5
229.027	134.5
229.262	157.5
229.496	155.5
229.73	162.5
229.964	170.5
230.199	215.5
230.433	220.5
230.667	202.5
230.901	196.5
231.136	195.5
231.37	222.5
231.604	237.5
231.838	244.5
232.072	248.5
232.306	229.5
232.541	237.5
232.775	236.5
233.009	269.5
233.243	312.5
233.477	306.5
233.711	366.5
233.945	357.5
234.179	328.5
234.413	338.5
234.647	385.5
234.881	478.5
235.115	427.5
235.349	386.5
235.583	372.5
235.817	337.5
236.051	378.5
236.285	406.5
236.519	470.5
236.753	420.5
236.987	427.5
237.221	420.5
237.455	408.5
237.689	435.5
237.922	471.5
238.156	464.5
238.39	564.5
238.624	676.5
238.858	587.5
239.091	470.5
239.325	487.5
239.559	474.5
239.793	538.5
240.027	644.5
240.26	609.5
240.494	554.5
240.728	579.5
240.961	714.5
241.195	624.5
241.429	628.5
241.662	631.5
241.896	519.5
242.13	494.5
242.363	444.5
242.597	461.5
242.83	524.5
243.064	539.5
243.298	614.5
243.531	612.5
243.765	632.5
243.998	613.5
244.232	600.5
244.465	597.5
244.699	548.5
244.932	642.5
245.166	618.5
245.399	537.5
245.633	532.5
245.866	580.5
246.099	605.5
246.333	691.5
246.566	775.5
246.8	776.5
247.033	734.5
247.266	687.5
247.5	684.5
247.733	658.5
247.966	654.5
248.2	683.5
248.433	762.5
248.666	818.5
248.899	829.5
249.133	874.5
249.366	964.5
249.599	1060.5
249.832	954.5
250.066	828.5
250.299	808.5
250.532	819.5
250.765	817.5
250.998	748.5
251.231	711.5
251.465	788.5
251.698	832.5
251.931	796.5
252.164	837.5
252.397	924.5
252.63	1057.5
252.863	1209.5
253.096	1199.5
253.329	1154.5
253.562	1116.5
253.795	1232.5
254.028	1366.5
254.261	1379.5
254.494	1254.5
254.727	1128.5
254.96	1127.5
255.193	1185.5
255.426	1126.5
255.659	838.5
255.892	799.5
256.124	871.5
256.357	1003.5
256.59	1218.5
256.823	1171.5
257.056	983.5
257.289	896.5
257.521	950.5
257.754	1122.5
257.987	1294.5
258.22	1100.5
258.452	972.5
258.685	1141.5
258.918	1298.5
259.151	1228.5
259.383	1292.5
259.616	1493.5
259.849	1565.5
260.081	1706.5
260.314	1900.5
260.547	1423.5
260.779	1493.5
261.012	1690.5
261.244	1601.5
261.477	1653.5
261.71	1523.5
261.942	1284.5
262.175	1262.5
262.407	1218.5
262.64	1266.5
262.872	1492.5
263.105	1632.5
263.337	1746.5
263.57	1517.5
263.802	1012.5
264.035	886.5
264.267	869.5
264.499	742.5
264.732	685.5
264.964	706.5
265.197	724.5
265.429	771.5
265.661	815.5
265.894	840.5
266.126	917.5
266.358	1016.5
266.591	1242.5
266.823	1466.5
267.055	1392.5
267.287	1231.5
267.52	1225.5
267.752	1292.5
267.984	1440.5
268.216	1366.5
268.448	1118.5
268.681	1086.5
268.913	1152.5
269.145	1254.5
269.377	1266.5
269.609	1317.5
269.841	1198.5
270.073	1339.5
270.306	1340.5
270.538	1354.5
270.77	1368.5
271.002	1389.5
271.234	1452.5
271.466	1491.5
271.698	1452.5
271.93	1413.5
272.162	1428.5
272.394	1380.5
272.626	1386.5
272.858	1452.5
273.09	1478.5
273.322	1296.5
273.553	1266.5
273.785	1496.5
274.017	1959.5
274.249	2430.5
274.481	2513.5
274.713	2752.5
274.945	3127.5
275.176	3255.5
275.408	2870.5
275.64	2636.5
275.872	2586.5
276.104	2206.5
276.335	1909.5
276.567	1907.5
276.799	1964.5
277.031	2057.5
277.262	1621.5
277.494	1248.5
277.726	1200.5
277.957	1318.5
278.189	1451.5
278.421	1478.5
278.652	1429.5
278.884	1341.5
279.115	1256.5
279.347	1206.5
279.579	1149.5
279.81	1204.5
280.042	1186.5
280.273	1228.5
280.505	1154.5
280.736	989.5
280.968	1032.5
281.199	1080.5
281.431	1213.5
281.662	1211.5
281.894	1169.5
282.125	1231.5
282.356	1337.5
282.588	1360.5
282.819	1233.5
283.051	1365.5
283.282	1685.5
283.513	1928.5
283.745	2170.5
283.976	2119.5
284.207	2002.5
284.439	2093.5
284.67	1988.5
284.901	1784.5
285.132	1905.5
285.364	1974.5
285.595	1852.5
285.826	1953.5
286.057	2051.5
286.288	1953.5
286.52	1995.5
286.751	2094.5
286.982	2096.5
287.213	1755.5
287.444	1744.5
287.675	1786.5
287.906	1807.5
288.138	1532.5
288.369	1325.5
288.6	1287.5
288.831	1324.5
289.062	1504.5
289.293	1664.5
289.524	1566.5
289.755	1577.5
289.986	1591.5
290.217	1403.5
290.448	1074.5
290.679	935.5
290.91	894.5
291.141	908.5
291.371	962.5
291.602	991.5
291.833	964.5
292.064	1058.5
292.295	1171.5
292.526	1399.5
292.757	1419.5
292.987	1543.5
293.218	1545.5
293.449	1597.5
293.68	1655.5
293.91	1587.5
294.141	1616.5
294.372	1458.5
294.603	1388.5
294.833	1551.5
295.064	1774.5
295.295	1722.5
295.525	1301.5
295.756	1146.5
295.987	978.5
296.217	1010.5
296.448	1050.5
296.679	1093.5
296.909	1185.5
297.14	1307.5
297.37	1442.5
297.601	1362.5
297.831	1154.5
298.062	1248.5
298.292	1427.5
298.523	1538.5
298.753	1766.5
298.984	1632.5
299.214	1245.5
299.445	1090.5
299.675	1028.5
299.905	1034.5
300.136	1057.5
300.366	1149.5
300.597	1143.5
300.827	996.5
301.057	944.5
301.288	984.5
301.518	1063.5
301.748	1206.5
301.979	1308.5
302.209	1458.5
302.439	1418.5
302.669	1216.5
302.9	1197.5
303.13	1164.5
303.36	1132.5
303.59	1051.5
303.82	1088.5
304.051	1246.5
304.281	1327.5
304.511	1302.5
304.741	1126.5
304.971	1185.5
305.201	1258.5
305.431	1194.5
305.661	1050.5
305.891	1067.5
306.121	1072.5
306.352	960.5
306.582	885.5
306.812	835.5
307.042	846.5
307.272	789.5
307.502	789.5
307.731	887.5
307.961	907.5
308.191	838.5
308.421	778.5
308.651	775.5
308.881	747.5
309.111	770.5
309.341	817.5
309.571	890.5
309.8	910.5
310.03	926.5
310.26	990.5
310.49	966.5
310.72	852.5
310.949	853.5
311.179	863.5
311.409	911.5
311.639	1087.5
311.868	1379.5
312.098	1755.5
312.328	1940.5
312.557	1830.5
312.787	1885.5
313.017	1630.5
313.246	1787.5
313.476	1946.5
313.706	1582.5
313.935	1253.5
314.165	1032.5
314.394	954.5
314.624	935.5
314.853	1011.5
315.083	1040.5
315.312	1015.5
315.542	991.5
315.771	935.5
316.001	859.5
316.23	818.5
316.46	839.5
316.689	870.5
316.919	880.5
317.148	898.5
317.377	863.5
317.607	864.5
317.836	914.5
318.065	1090.5
318.295	1218.5
318.524	1103.5
318.753	984.5
318.983	926.5
319.212	942.5
319.441	996.5
319.67	1129.5
319.9	1162.5
320.129	1105.5
320.358	962.5
320.587	922.5
320.816	976.5
321.046	1144.5
321.275	1296.5
321.504	1338.5
321.733	1284.5
321.962	1207.5
322.191	1159.5
322.42	1102.5
322.649	1110.5
322.878	1221.5
323.108	1178.5
323.337	1079.5
323.566	1066.5
323.795	1021.5
324.024	1039.5
324.253	964.5
324.482	958.5
324.71	1069.5
324.939	1183.5
325.168	1098.5
325.397	886.5
325.626	898.5
325.855	916.5
326.084	893.5
326.313	874.5
326.542	825.5
326.77	846.5
326.999	890.5
327.228	951.5
327.457	986.5
327.686	1020.5
327.914	867.5
328.143	804.5
328.372	837.5
328.6	820.5
328.829	892.5
329.058	856.5
329.287	880.5
329.515	861.5
329.744	861.5
329.972	830.5
330.201	787.5
330.43	828.5
330.658	935.5
330.887	1042.5
331.115	1016.5
331.344	976.5
331.572	957.5
331.801	886.5
332.03	844.5
332.258	855.5
332.486	944.5
332.715	999.5
332.943	916.5
333.172	893.5
333.4	916.5
333.629	1019.5
333.857	1091.5
334.085	1059.5
334.314	1091.5
334.542	1029.5
334.771	947.5
334.999	943.5
335.227	920.5
335.455	934.5
335.684	1026.5
335.912	1162.5
336.14	1300.5
336.369	1250.5
336.597	1229.5
336.825	1364.5
337.053	1535.5
337.281	1179.5
337.51	966.5
337.738	959.5
337.966	1052.5
338.194	1174.5
338.422	1075.5
338.65	934.5
338.878	858.5
339.106	893.5
339.334	1006.5
339.562	1067.5
339.79	964.5
340.018	959.5
340.246	1004.5
340.474	1183.5
340.702	1271.5
340.93	1312.5
341.158	1294.5
341.386	1101.5
341.614	1091.5
341.842	1100.5
342.07	1148.5
342.298	1297.5
342.526	1374.5
342.754	1180.5
342.981	1122.5
343.209	1030.5
343.437	1115.5
343.665	1187.5
343.893	1162.5
344.12	1348.5
344.348	1584.5
344.576	1399.5
344.804	1175.5
345.031	1063.5
345.259	939.5
345.487	980.5
345.714	1005.5
345.942	1088.5
346.17	1168.5
346.397	1104.5
346.625	991.5
346.853	945.5
347.08	933.5
347.308	997.5
347.535	1112.5
347.763	1119.5
347.99	1007.5
348.218	899.5
348.445	946.5
348.673	973.5
348.9	942.5
349.128	1047.5
349.355	1046.5
349.583	1018.5
349.81	986.5
350.037	943.5
350.265	841.5
350.492	788.5
350.72	764.5
350.947	830.5
351.174	894.5
351.402	933.5
351.629	973.5
351.856	946.5
352.083	864.5
352.311	954.5
352.538	1055.5
352.765	1156.5
352.992	1031.5
353.22	971.5
353.447	983.5
353.674	928.5
353.901	967.5
354.128	966.5
354.355	985.5
354.583	972.5
354.81	966.5
355.037	986.5
355.264	990.5
355.491	1104.5
355.718	1153.5
355.945	1107.5
356.172	1100.5
356.399	1070.5
356.626	1313.5
356.853	1578.5
357.08	1688.5
357.307	1726.5
357.534	1340.5
357.761	1393.5
357.988	1764.5
358.215	2013.5
358.441	1927.5
358.668	1615.5
358.895	1490.5
359.122	1181.5
359.349	1188.5
359.576	1273.5
359.802	1064.5
360.029	940.5
360.256	1031.5
360.483	1246.5
360.709	1639.5
360.936	1608.5
361.163	1427.5
361.39	1106.5
361.616	1060.5
361.843	1212.5
362.07	1499.5
362.296	1353.5
362.523	1054.5
362.749	927.5
362.976	973.5
363.203	1201.5
363.429	1357.5
363.656	1031.5
363.882	959.5
364.109	960.5
364.335	989.5
364.562	958.5
364.788	1097.5
365.015	1286.5
365.241	1142.5
365.468	947.5
365.694	818.5
365.92	795.5
366.147	779.5
366.373	768.5
366.599	782.5
366.826	770.5
367.052	814.5
367.278	823.5
367.505	804.5
367.731	887.5
367.957	996.5
368.184	1025.5
368.41	978.5
368.636	1024.5
368.862	1045.5
369.089	995.5
369.315	898.5
369.541	868.5
369.767	866.5
369.993	845.5
370.219	842.5
370.445	890.5
370.672	964.5
370.898	1073.5
371.124	1061.5
371.35	918.5
371.576	888.5
371.802	974.5
372.028	1171.5
372.254	1312.5
372.48	1158.5
372.706	1031.5
372.932	1087.5
373.158	1129.5
373.384	1353.5
373.61	1816.5
373.835	1848.5
374.061	1371.5
374.287	1130.5
374.513	1369.5
374.739	1636.5
374.965	1702.5
375.191	1670.5
375.416	1158.5
375.642	1024.5
375.868	1194.5
376.094	1307.5
376.319	1144.5
376.545	1270.5
376.771	1320.5
376.997	1139.5
377.222	868.5
377.448	749.5
377.674	780.5
377.899	764.5
378.125	744.5
378.35	732.5
378.576	786.5
378.802	859.5
379.027	914.5
379.253	892.5
379.478	898.5
379.704	995.5
379.929	1110.5
380.155	1068.5
380.38	932.5
380.606	972.5
380.831	1080.5
381.057	1005.5
381.282	960.5
381.507	1150.5
381.733	1403.5
381.958	1510.5
382.184	1614.5
382.409	1651.5
382.634	1603.5
382.86	1732.5
383.085	1431.5
383.31	1124.5
383.535	1205.5
383.761	1221.5
383.986	1132.5
384.211	1388.5
384.436	1314.5
384.662	1028.5
384.887	1004.5
385.112	1045.5
385.337	1028.5
385.562	978.5
385.787	1046.5
386.013	1235.5
386.238	1222.5
386.463	1020.5
386.688	973.5
386.913	950.5
387.138	898.5
387.363	958.5
387.588	974.5
387.813	962.5
388.038	1106.5
388.263	955.5
388.488	967.5
388.713	1131.5
388.938	1210.5
389.163	997.5
389.387	894.5
389.612	928.5
389.837	925.5
390.062	968.5
390.287	980.5
390.512	1006.5
390.736	943.5
390.961	874.5
391.186	864.5
391.411	823.5
391.636	850.5
391.86	922.5
392.085	1006.5
392.31	987.5
392.534	959.5
392.759	943.5
392.984	968.5
393.208	957.5
393.433	853.5
393.658	808.5
393.882	775.5
394.107	784.5
394.331	786.5
394.556	802.5
394.78	802.5
395.005	860.5
395.229	855.5
395.454	864.5
395.678	871.5
395.903	910.5
396.127	867.5
396.352	858.5
396.576	963.5
396.801	988.5
397.025	1077.5
397.249	1112.5
397.474	944.5
397.698	916.5
397.922	941.5
398.147	878.5
398.371	893.5
398.595	967.5
398.82	949.5
399.044	972.5
399.268	1018.5
399.492	1046.5
399.717	1061.5
399.941	1063.5
400.165	1041.5
400.389	1031.5
400.613	1034.5
400.837	1028.5
401.062	926.5
401.286	893.5
401.51	888.5
401.734	885.5
401.958	914.5
402.182	896.5
402.406	898.5
402.63	913.5
402.854	929.5
403.078	1040.5
403.302	1261.5
403.526	1340.5
403.75	1183.5
403.974	1056.5
404.198	1051.5
404.422	1223.5
404.645	1411.5
404.869	1570.5
405.093	1154.5
405.317	986.5
405.541	994.5
405.765	992.5
405.988	991.5
406.212	1082.5
406.436	1296.5
406.66	1402.5
406.883	1140.5
407.107	1180.5
407.331	1343.5
407.555	1294.5
407.778	1085.5
408.002	1031.5
408.226	1024.5
408.449	1029.5
408.673	1013.5
408.896	915.5
409.12	909.5
409.344	902.5
409.567	883.5
409.791	867.5
410.014	876.5
410.238	872.5
410.461	858.5
410.685	895.5
410.908	914.5
411.132	911.5
411.355	932.5
411.578	936.5
411.802	948.5
412.025	949.5
412.249	970.5
412.472	956.5
412.695	947.5
412.919	933.5
413.142	968.5
413.365	1063.5
413.589	1042.5
413.812	924.5
414.035	903.5
414.258	931.5
414.482	1034.5
414.705	1074.5
414.928	893.5
415.151	868.5
415.374	877.5
415.597	902.5
415.821	891.5
416.044	883.5
416.267	846.5
416.49	828.5
416.713	865.5
416.936	851.5
417.159	865.5
417.382	880.5
417.605	890.5
417.828	916.5
418.051	894.5
418.274	930.5
418.497	932.5
418.72	926.5
418.943	955.5
419.166	989.5
419.389	1033.5
419.611	998.5
419.834	1006.5
420.057	1115.5
420.28	1092.5
420.503	1024.5
420.726	900.5
420.948	862.5
421.171	871.5
421.394	876.5
421.617	856.5
421.839	884.5
422.062	926.5
422.285	919.5
422.507	931.5
422.73	950.5
422.953	967.5
423.175	942.5
423.398	958.5
423.621	989.5
423.843	1049.5
424.066	991.5
424.288	907.5
424.511	901.5
424.733	943.5
424.956	955.5
425.178	1067.5
425.401	1203.5
425.623	1388.5
425.846	1166.5
426.068	1006.5
426.291	1082.5
426.513	1021.5
426.735	933.5
426.958	982.5
427.18	1144.5
427.402	1491.5
427.625	1475.5
427.847	1174.5
428.069	924.5
428.292	894.5
428.514	890.5
428.736	842.5
428.958	924.5
429.181	1128.5
429.403	966.5
429.625	888.5
429.847	848.5
430.069	924.5
430.292	894.5
430.514	849.5
430.736	944.5
430.958	1196.5
431.18	1031.5
431.402	842.5
431.624	820.5
431.846	789.5
432.068	797.5
432.29	827.5
432.512	926.5
432.734	1226.5
432.956	1116.5
433.178	863.5
433.4	845.5
433.622	863.5
433.844	858.5
434.066	922.5
434.287	909.5
434.509	890.5
434.731	902.5
434.953	846.5
435.175	896.5
435.397	1034.5
435.618	884.5
435.84	826.5
436.062	809.5
436.284	833.5
436.505	779.5
436.727	790.5
436.949	795.5
437.17	795.5
437.392	836.5
437.614	805.5
437.835	814.5
438.057	859.5
438.278	952.5
438.5	1336.5
438.721	1353.5
438.943	951.5
439.165	817.5
439.386	779.5
439.608	773.5
439.829	762.5
440.05	813.5
440.272	832.5
440.493	995.5
440.715	1237.5
440.936	944.5
441.158	867.5
441.379	844.5
441.6	956.5
441.822	1025.5
442.043	872.5
442.264	840.5
442.486	883.5
442.707	856.5
442.928	850.5
443.149	901.5
443.371	884.5
443.592	933.5
443.813	916.5
444.034	890.5
444.255	900.5
444.476	931.5
444.698	922.5
444.919	940.5
445.14	1071.5
445.361	1022.5
445.582	959.5
445.803	916.5
446.024	933.5
446.245	925.5
446.466	887.5
446.687	854.5
446.908	886.5
447.129	822.5
447.35	802.5
447.571	819.5
447.792	791.5
448.013	787.5
448.234	773.5
448.455	789.5
448.675	780.5
448.896	795.5
449.117	808.5
449.338	822.5
449.559	831.5
449.779	848.5
450	856.5
450.221	840.5
450.442	819.5
450.662	788.5
450.883	808.5
451.104	800.5
451.324	810.5
451.545	815.5
451.766	782.5
451.986	776.5
452.207	767.5
452.428	768.5
452.648	767.5
452.869	836.5
453.089	846.5
453.31	811.5
453.53	740.5
453.751	751.5
453.971	750.5
454.192	774.5
454.412	794.5
454.633	742.5
454.853	731.5
455.073	704.5
455.294	731.5
455.514	725.5
455.734	755.5
455.955	794.5
456.175	834.5
456.395	749.5
456.616	716.5
456.836	692.5
457.056	697.5
457.276	700.5
457.497	727.5
457.717	721.5
457.937	715.5
458.157	747.5
458.377	735.5
458.598	753.5
458.818	756.5
459.038	818.5
459.258	812.5
459.478	861.5
459.698	909.5
459.918	890.5
460.138	851.5
460.358	872.5
460.578	834.5
460.798	884.5
461.018	894.5
461.238	867.5
461.458	864.5
461.678	898.5
461.898	953.5
462.118	924.5
462.338	931.5
462.558	940.5
462.777	964.5
462.997	1011.5
463.217	990.5
463.437	1020.5
463.657	973.5
463.876	942.5
464.096	947.5
464.316	935.5
464.536	974.5
464.755	996.5
464.975	984.5
465.195	959.5
465.414	997.5
465.634	987.5
465.854	945.5
466.073	880.5
466.293	858.5
466.512	932.5
466.732	1022.5
466.951	1035.5
467.171	920.5
467.391	844.5
467.61	874.5
467.829	923.5
468.049	920.5
468.268	870.5
468.488	860.5
468.707	897.5
468.927	1070.5
469.146	1168.5
469.365	1040.5
469.585	951.5
469.804	1032.5
470.023	1093.5
470.243	979.5
470.462	923.5
470.681	894.5
470.901	924.5
471.12	949.5
471.339	949.5
471.558	923.5
471.777	945.5
471.997	985.5
472.216	1108.5
472.435	1062.5
472.654	975.5
472.873	938.5
473.092	992.5
473.311	1058.5
473.53	940.5
473.749	916.5
473.968	981.5
474.187	975.5
474.406	970.5
474.625	930.5
474.844	961.5
475.063	1039.5
475.282	1038.5
475.501	1060.5
475.72	1135.5
475.939	1082.5
476.158	1074.5
476.377	1271.5
476.596	1429.5
476.814	1479.5
477.033	1234.5
477.252	1042.5
477.471	984.5
477.69	1005.5
477.908	1056.5
478.127	1148.5
478.346	1040.5
478.564	1119.5
478.783	1094.5
479.002	1114.5
479.22	1282.5
479.439	1422.5
479.658	1190.5
479.876	1119.5
480.095	1206.5
480.313	1203.5
480.532	1100.5
480.751	1074.5
480.969	1092.5
481.188	1277.5
481.406	1313.5
481.624	1228.5
481.843	1108.5
482.061	1062.5
482.28	1221.5
482.498	1452.5
482.717	1351.5
482.935	1212.5
483.153	1104.5
483.372	1056.5
483.59	1067.5
483.808	1063.5
484.027	1020.5
484.245	995.5
484.463	943.5
484.681	1030.5
484.9	1135.5
485.118	1178.5
485.336	1104.5
485.554	1031.5
485.772	1085.5
485.99	1161.5
486.209	1214.5
486.427	1238.5
486.645	1175.5
486.863	1234.5
487.081	1212.5
487.299	1375.5
487.517	1322.5
487.735	1184.5
487.953	1215.5
488.171	1239.5
488.389	1175.5
488.607	1089.5
488.825	1148.5
489.043	1254.5
489.261	1463.5
489.479	1536.5
489.696	1252.5
489.914	1163.5
490.132	1098.5
490.35	1109.5
490.568	1127.5
490.786	1152.5
491.003	1144.5
491.221	1201.5
491.439	1113.5
491.657	1140.5
491.874	1234.5
492.092	1489.5
492.31	1789.5
492.527	1752.5
492.745	1519.5
492.963	1286.5
493.18	1268.5
493.398	1306.5
493.615	1260.5
493.833	1229.5
494.05	1234.5
494.268	1254.5
494.485	1217.5
494.703	1185.5
494.92	1194.5
495.138	1204.5
495.355	1180.5
495.573	1232.5
495.79	1361.5
496.008	1802.5
496.225	1578.5
496.442	1386.5
496.66	1326.5
496.877	1449.5
497.094	1400.5
497.312	1316.5
497.529	1311.5
497.746	1306.5
497.963	1383.5
498.181	1479.5
498.398	1622.5
498.615	1634.5
498.832	1702.5
499.049	1727.5
499.267	1536.5
499.484	1555.5
499.701	1610.5
499.918	1724.5
500.135	1850.5
500.352	1884.5
500.569	1938.5
500.786	2040.5
501.003	1982.5
501.22	1786.5
501.437	1702.5
501.654	1647.5
501.871	1616.5
502.088	1634.5
502.305	1495.5
502.522	1478.5
502.739	1482.5
502.956	1358.5
503.172	1354.5
503.389	1289.5
503.606	1258.5
503.823	1284.5
504.04	1287.5
504.256	1311.5
504.473	1345.5
504.69	1354.5
504.907	1394.5
505.123	1361.5
505.34	1466.5
505.557	1432.5
505.773	1351.5
505.99	1297.5
506.207	1358.5
506.423	1251.5
506.64	1186.5
506.856	1238.5
507.073	1351.5
507.289	1332.5
507.506	1344.5
507.722	1432.5
507.939	1404.5
508.155	1445.5
508.372	1294.5
508.588	1243.5
508.805	1261.5
509.021	1232.5
509.238	1204.5
509.454	1165.5
509.67	1173.5
509.887	1189.5
510.103	1317.5
510.319	1296.5
510.536	1215.5
510.752	1086.5
510.968	1053.5
511.184	1026.5
511.401	1034.5
511.617	1047.5
511.833	1044.5
512.049	1045.5
512.265	1066.5
512.481	1116.5
512.698	1243.5
512.914	1349.5
513.13	1250.5
513.346	1136.5
513.562	1211.5
513.778	1172.5
513.994	1141.5
514.21	1241.5
514.426	1178.5
514.642	1137.5
514.858	1126.5
515.074	1198.5
515.29	1264.5
515.506	1433.5
515.721	1368.5
515.937	1227.5
516.153	1158.5
516.369	1173.5
516.585	1201.5
516.801	1370.5
517.016	1619.5
517.232	1544.5
517.448	1580.5
517.664	1380.5
517.879	1311.5
518.095	1250.5
518.311	1234.5
518.527	1278.5
518.742	1400.5
518.958	1463.5
519.173	1410.5
519.389	1350.5
519.605	1406.5
519.82	1517.5
520.036	1741.5
520.251	1698.5
520.467	1608.5
520.682	2354.5
520.898	2902.5
521.113	2696.5
521.329	1684.5
521.544	1519.5
521.76	1474.5
521.975	1347.5
522.19	1234.5
522.406	1286.5
522.621	1434.5
522.836	1479.5
523.052	1552.5
523.267	1284.5
523.482	1321.5
523.698	1349.5
523.913	1331.5
524.128	1210.5
524.343	1152.5
524.559	1176.5
524.774	1135.5
524.989	1167.5
525.204	1168.5
525.419	1265.5
525.634	1180.5
525.849	1231.5
526.064	1274.5
526.28	1255.5
526.495	1480.5
526.71	1466.5
526.925	1304.5
527.14	1412.5
527.355	1328.5
527.57	1150.5
527.785	1207.5
527.999	1124.5
528.214	1100.5
528.429	1033.5
528.644	1083.5
528.859	1011.5
529.074	1004.5
529.289	985.5
529.503	979.5
529.718	1008.5
529.933	1169.5
530.148	1191.5
530.363	1032.5
530.577	1040.5
530.792	1027.5
531.007	1005.5
531.221	961.5
531.436	941.5
531.651	992.5
531.865	970.5
532.08	1020.5
532.295	993.5
532.509	1022.5
532.724	1178.5
532.938	1332.5
533.153	1501.5
533.367	1184.5
533.582	1175.5
533.796	1075.5
534.011	1015.5
534.225	1069.5
534.44	1048.5
534.654	1075.5
534.868	1253.5
535.083	1092.5
535.297	986.5
535.511	1015.5
535.726	1123.5
535.94	1084.5
536.154	994.5
536.369	962.5
536.583	1017.5
536.797	998.5
537.011	1020.5
537.225	1106.5
537.44	1145.5
537.654	1037.5
537.868	996.5
538.082	1002.5
538.296	1018.5
538.51	1049.5
538.724	1095.5
538.938	1045.5
539.153	986.5
539.367	980.5
539.581	981.5
539.795	1050.5
540.009	1131.5
540.222	1042.5
540.436	1062.5
540.65	1134.5
540.864	1160.5
541.078	1188.5
541.292	1334.5
541.506	1083.5
541.72	1053.5
541.934	1031.5
542.147	1028.5
542.361	1008.5
542.575	1056.5
542.789	1026.5
543.002	962.5
543.216	1047.5
543.43	922.5
543.644	922.5
543.857	934.5
544.071	935.5
544.285	964.5
544.498	929.5
544.712	915.5
544.925	983.5
545.139	921.5
545.352	902.5
545.566	935.5
545.779	1055.5
545.993	983.5
546.206	869.5
546.42	869.5
546.633	882.5
546.847	854.5
547.06	824.5
547.274	843.5
547.487	884.5
547.7	979.5
547.914	1005.5
548.127	1072.5
548.34	1061.5
548.554	946.5
548.767	1002.5
548.98	1038.5
549.193	981.5
549.407	974.5
549.62	1167.5
549.833	1093.5
550.046	1162.5
550.259	1168.5
550.473	992.5
550.686	974.5
550.899	982.5
551.112	964.5
551.325	1031.5
551.538	1082.5
551.751	943.5
551.964	891.5
552.177	876.5
552.39	875.5
552.603	864.5
552.816	942.5
553.029	870.5
553.242	848.5
553.455	914.5
553.667	1019.5
553.88	966.5
554.093	892.5
554.306	848.5
554.519	790.5
554.732	788.5
554.944	781.5
555.157	773.5
555.37	758.5
555.583	757.5
555.795	806.5
556.008	802.5
556.221	787.5
556.433	773.5
556.646	775.5
556.859	797.5
557.071	818.5
557.284	817.5
557.496	817.5
557.709	805.5
557.921	796.5
558.134	733.5
558.346	716.5
558.559	720.5
558.771	746.5
558.984	826.5
559.196	760.5
559.409	721.5
559.621	717.5
559.833	689.5
560.046	717.5
560.258	712.5
560.47	738.5
560.683	693.5
560.895	666.5
561.107	661.5
561.32	659.5
561.532	686.5
561.744	744.5
561.956	779.5
562.168	707.5
562.381	703.5
562.593	715.5
562.805	741.5
563.017	700.5
563.229	661.5
563.441	660.5
563.653	675.5
563.865	691.5
564.077	689.5
564.289	660.5
564.501	708.5
564.713	741.5
564.925	710.5
565.137	695.5
565.349	697.5
565.561	706.5
565.773	691.5
565.985	736.5
566.197	765.5
566.408	822.5
566.62	852.5
566.832	843.5
567.044	835.5
567.255	871.5
567.467	936.5
567.679	872.5
567.891	868.5
568.102	887.5
568.314	890.5
568.526	824.5
568.737	804.5
568.949	862.5
569.161	778.5
569.372	701.5
569.584	673.5
569.795	653.5
570.007	695.5
570.218	738.5
570.43	714.5
570.641	689.5
570.853	684.5
571.064	641.5
571.276	681.5
571.487	740.5
571.698	648.5
571.91	652.5
572.121	656.5
572.333	601.5
572.544	616.5
572.755	625.5
572.966	604.5
573.178	633.5
573.389	640.5
573.6	636.5
573.811	614.5
574.023	567.5
574.234	558.5
574.445	567.5
574.656	575.5
574.867	590.5
575.078	603.5
575.289	569.5
575.501	619.5
575.712	592.5
575.923	562.5
576.134	507.5
576.345	542.5
576.556	559.5
576.767	524.5
576.978	516.5
577.188	519.5
577.399	492.5
577.61	514.5
577.821	526.5
578.032	544.5
578.243	583.5
578.454	571.5
578.665	565.5
578.875	552.5
579.086	520.5
579.297	567.5
579.508	570.5
579.718	570.5
579.929	544.5
580.14	542.5
580.35	486.5
580.561	498.5
580.772	485.5
580.982	480.5
581.193	464.5
581.403	467.5
581.614	459.5
581.825	455.5
582.035	449.5
582.246	439.5
582.456	467.5
582.667	466.5
582.877	476.5
583.087	474.5
583.298	452.5
583.508	465.5
583.719	427.5
583.929	443.5
584.139	451.5
584.35	438.5
584.56	456.5
584.77	479.5
584.981	460.5
585.191	462.5
585.401	454.5
585.611	465.5
585.821	500.5
586.032	485.5
586.242	466.5
586.452	452.5
586.662	470.5
586.872	498.5
587.082	480.5
587.292	485.5
587.502	474.5
587.713	450.5
587.923	451.5
588.133	493.5
588.343	480.5
588.553	452.5
588.762	447.5
588.972	438.5
589.182	452.5
589.392	453.5
589.602	463.5
589.812	476.5
590.022	515.5
590.232	511.5
590.441	468.5
590.651	434.5
590.861	443.5
591.071	461.5
591.281	450.5
591.49	468.5
591.7	447.5
591.91	437.5
592.119	450.5
592.329	450.5
592.539	467.5
592.748	461.5
592.958	454.5
593.167	470.5
593.377	476.5
593.587	470.5
593.796	475.5
594.006	474.5
594.215	502.5
594.424	483.5
594.634	497.5
594.843	485.5
595.053	468.5
595.262	446.5
595.472	441.5
595.681	423.5
595.89	409.5
596.1	445.5
596.309	448.5
596.518	444.5
596.727	422.5
596.937	404.5
597.146	450.5
597.355	471.5
597.564	453.5
597.774	406.5
597.983	412.5
598.192	407.5
598.401	402.5
598.61	387.5
598.819	380.5
599.028	388.5
599.237	384.5
599.446	403.5
599.655	390.5
599.864	369.5
600.073	363.5
600.282	381.5
600.491	383.5
600.7	382.5
600.909	389.5
601.118	399.5
601.327	374.5
601.536	372.5
601.745	394.5
601.953	410.5
602.162	390.5
602.371	399.5
602.58	408.5
602.789	387.5
602.997	366.5
603.206	379.5
603.415	384.5
603.623	371.5
603.832	376.5
604.041	359.5
604.249	368.5
604.458	386.5
604.666	354.5
604.875	339.5
605.084	348.5
605.292	357.5
605.501	374.5
605.709	378.5
605.918	355.5
606.126	349.5
606.334	350.5
606.543	348.5
606.751	344.5
606.96	348.5
607.168	352.5
607.376	340.5
607.585	343.5
607.793	360.5
608.001	352.5
608.21	345.5
608.418	344.5
608.626	346.5
608.834	337.5
609.043	349.5
609.251	324.5
609.459	333.5
609.667	337.5
609.875	329.5
610.083	313.5
610.291	341.5
610.499	356.5
610.707	335.5
610.916	340.5
611.124	322.5
611.332	312.5
611.54	325.5
611.748	328.5
611.955	335.5
612.163	330.5
612.371	328.5
612.579	329.5
612.787	326.5
612.995	324.5
613.203	328.5
613.411	309.5
613.618	335.5
613.826	339.5
614.034	362.5
614.242	343.5
614.449	330.5
614.657	309.5
614.865	302.5
615.072	330.5
615.28	317.5
615.488	313.5
615.695	304.5
615.903	323.5
616.111	317.5
616.318	321.5
616.526	315.5
616.733	315.5
616.941	309.5
617.148	320.5
617.356	323.5
617.563	306.5
617.771	315.5
617.978	318.5
618.185	322.5
618.393	315.5
618.6	300.5
618.807	312.5
619.015	300.5
619.222	315.5
619.429	303.5
619.637	303.5
619.844	289.5
620.051	303.5
620.258	295.5
620.466	289.5
620.673	291.5
620.88	267.5
621.087	291.5
621.294	288.5
621.501	290.5
621.708	309.5
621.915	275.5
622.122	286.5
622.329	273.5
622.536	293.5
622.743	289.5
622.95	281.5
623.157	291.5
623.364	287.5
623.571	282.5
623.778	308.5
623.985	303.5
624.192	319.5
624.399	312.5
624.606	308.5
624.812	302.5
625.019	284.5
625.226	302.5
625.433	291.5
625.639	294.5
625.846	248.5
626.053	261.5
626.259	263.5
626.466	298.5
626.673	295.5
626.879	295.5
627.086	290.5
627.293	293.5
627.499	272.5
627.706	291.5
627.912	274.5
628.119	275.5
628.325	252.5
628.532	258.5
628.738	267.5
628.945	271.5
629.151	274.5
629.357	258.5
629.564	236.5
629.77	244.5
629.976	256.5
630.183	244.5
630.389	264.5
630.595	257.5
630.802	265.5
631.008	237.5
631.214	261.5
631.42	229.5
631.627	228.5
631.833	262.5
632.039	252.5
632.245	248.5
632.451	235.5
632.657	250.5
632.863	261.5
633.069	225.5
633.275	229.5
633.481	218.5
633.688	224.5
633.893	240.5
634.099	235.5
634.305	221.5
634.511	219.5
634.717	240.5
634.923	228.5
635.129	241.5
635.335	231.5
635.541	243.5
635.747	225.5
635.952	246.5
636.158	235.5
636.364	242.5
636.57	238.5
636.775	236.5
636.981	228.5
637.187	221.5
637.392	223.5
637.598	242.5
637.804	216.5
638.009	227.5
638.215	229.5
638.421	227.5
638.626	214.5
638.832	235.5
639.037	211.5
639.243	217.5
639.448	227.5
639.654	225.5
639.859	230.5
640.065	228.5
640.27	238.5
640.475	224.5
640.681	209.5
640.886	224.5
641.091	228.5
641.297	214.5
641.502	230.5
641.707	224.5
641.913	221.5
642.118	226.5
642.323	226.5
642.528	211.5
642.733	224.5
642.939	224.5
643.144	215.5
643.349	215.5
643.554	214.5
643.759	212.5
643.964	207.5
644.169	206.5
644.374	204.5
644.579	218.5
644.784	218.5
644.989	202.5
645.194	200.5
645.399	215.5
645.604	206.5
645.809	205.5
646.014	203.5
646.219	206.5
646.423	202.5
646.628	218.5
646.833	204.5
647.038	212.5
647.243	215.5
647.447	209.5
647.652	198.5
647.857	204.5
648.062	210.5
648.266	204.5
648.471	207.5
648.676	225.5
648.88	219.5
649.085	203.5
649.289	200.5
649.494	199.5
649.698	198.5
649.903	215.5
650.107	209.5
650.312	180.5
650.516	199.5
650.721	196.5
650.925	192.5
651.13	193.5
651.334	191.5
651.539	185.5
651.743	193.5
651.947	159.5
652.152	158.5
652.356	174.5
652.56	167.5
652.764	162.5
652.969	182.5
653.173	150.5
653.377	181.5
653.581	164.5
653.785	162.5
653.99	175.5
654.194	161.5
654.398	150.5
654.602	171.5
654.806	156.5
655.01	171.5
655.214	148.5
655.418	149.5
655.622	151.5
655.826	164.5
656.03	155.5
656.234	154.5
656.438	160.5
656.642	162.5
656.846	164.5
657.049	144.5
657.253	150.5
657.457	147.5
657.661	149.5
657.865	127.5
658.068	116.5
658.272	118.5
658.476	119.5
658.68	121.5
658.883	110.5
659.087	111.5
659.291	115.5
659.494	111.5
659.698	106.5
659.901	115.5
660.105	99.5
660.309	95.5
660.512	102.5
660.716	90.5
660.919	99.5
661.123	115.5
661.326	85.5
661.53	96.5
661.733	80.5
661.936	88.5
662.14	85.5
662.343	103.5
662.546	82.5
662.75	90.5
662.953	93.5
663.156	91.5
663.36	98.5
663.563	90.5
663.766	83.5
663.969	76.5
664.173	78.5
664.376	86.5
664.579	86.5
664.782	79.5
664.985	74.5
665.188	75.5
665.391	68.5
665.594	71.5
665.797	83.5
666	62.5
666.203	72.5
666.406	77.5
666.609	71.5
666.812	78.5
667.015	77.5
667.218	86.5
667.421	89.5
667.624	99.5
667.827	67.5
668.03	101.5
668.232	85.5
668.435	87.5
668.638	65.5
668.841	76.5
669.043	80.5
669.246	83.5
669.449	84.5
669.651	79.5
669.854	85.5
670.057	87.5
670.259	76.5
670.462	76.5
670.665	73.5
670.867	74.5
671.07	96.5
671.272	89.5
671.475	85.5
671.677	83.5
671.88	91.5
672.082	84.5
672.284	67.5
672.487	78.5
672.689	86.5
672.892	76.5
