Data from NickelSpatula.Lamp.E5.5.P2_HRD10591_11-51-14-562.txt Node
Date: Tue Jul 23 11:51:14 EDT 2019
User: cochatt
Spectrometer: HR+D1059
Trigger mode: 1
Integration Time (sec): 1.000000E-1
Scans to average: 1
Electric dark correction enabled: true
Nonlinearity correction enabled: false
Boxcar width: 0
XAxis mode: Wavelengths
Number of Pixels in Spectrum: 2048
>>>>>Begin Spectral Data<<<<<
223.165	-19.62
223.4	-19.62
223.635	-19.62
223.869	-29.62
224.104	-17.62
224.338	-15.62
224.573	-6.62
224.808	3.38
225.042	-1.62
225.277	-9.62
225.511	-8.62
225.746	-3.62
225.98	3.38
226.215	9.38
226.449	23.38
226.683	22.38
226.918	25.38
227.152	25.38
227.387	45.38
227.621	24.38
227.856	43.38
228.09	38.38
228.324	47.38
228.559	48.38
228.793	68.38
229.027	69.38
229.262	83.38
229.496	92.38
229.73	86.38
229.964	83.38
230.199	89.38
230.433	92.38
230.667	95.38
230.901	97.38
231.136	95.38
231.37	94.38
231.604	94.38
231.838	115.38
232.072	103.38
232.306	105.38
232.541	90.38
232.775	102.38
233.009	121.38
233.243	97.38
233.477	117.38
233.711	130.38
233.945	110.38
234.179	114.38
234.413	109.38
234.647	120.38
234.881	128.38
235.115	128.38
235.349	121.38
235.583	119.38
235.817	128.38
236.051	134.38
236.285	117.38
236.519	141.38
236.753	121.38
236.987	118.38
237.221	122.38
237.455	108.38
237.689	134.38
237.922	108.38
238.156	137.38
238.39	128.38
238.624	138.38
238.858	154.38
239.091	138.38
239.325	133.38
239.559	131.38
239.793	138.38
240.027	150.38
240.26	159.38
240.494	156.38
240.728	146.38
240.961	157.38
241.195	143.38
241.429	150.38
241.662	144.38
241.896	130.38
242.13	134.38
242.363	115.38
242.597	120.38
242.83	132.38
243.064	150.38
243.298	152.38
243.531	160.38
243.765	163.38
243.998	144.38
244.232	157.38
244.465	145.38
244.699	145.38
244.932	157.38
245.166	149.38
245.399	146.38
245.633	147.38
245.866	152.38
246.099	154.38
246.333	134.38
246.566	186.38
246.8	160.38
247.033	169.38
247.266	168.38
247.5	167.38
247.733	169.38
247.966	149.38
248.2	160.38
248.433	157.38
248.666	173.38
248.899	164.38
249.133	176.38
249.366	190.38
249.599	213.38
249.832	183.38
250.066	159.38
250.299	186.38
250.532	178.38
250.765	181.38
250.998	168.38
251.231	163.38
251.465	164.38
251.698	189.38
251.931	176.38
252.164	169.38
252.397	197.38
252.63	217.38
252.863	221.38
253.096	230.38
253.329	215.38
253.562	205.38
253.795	252.38
254.028	259.38
254.261	266.38
254.494	237.38
254.727	223.38
254.96	210.38
255.193	224.38
255.426	223.38
255.659	194.38
255.892	204.38
256.124	177.38
256.357	220.38
256.59	229.38
256.823	232.38
257.056	214.38
257.289	190.38
257.521	201.38
257.754	225.38
257.987	235.38
258.22	238.38
258.452	204.38
258.685	225.38
258.918	245.38
259.151	242.38
259.383	241.38
259.616	292.38
259.849	292.38
260.081	302.38
260.314	329.38
260.547	264.38
260.779	293.38
261.012	334.38
261.244	297.38
261.477	306.38
261.71	310.38
261.942	251.38
262.175	250.38
262.407	252.38
262.64	267.38
262.872	278.38
263.105	296.38
263.337	297.38
263.57	291.38
263.802	226.38
264.035	194.38
264.267	197.38
264.499	186.38
264.732	163.38
264.964	174.38
265.197	170.38
265.429	176.38
265.661	198.38
265.894	193.38
266.126	196.38
266.358	215.38
266.591	232.38
266.823	286.38
267.055	276.38
267.287	242.38
267.52	255.38
267.752	257.38
267.984	269.38
268.216	278.38
268.448	242.38
268.681	232.38
268.913	244.38
269.145	257.38
269.377	288.38
269.609	265.38
269.841	245.38
270.073	255.38
270.306	270.38
270.538	282.38
270.77	290.38
271.002	295.38
271.234	317.38
271.466	296.38
271.698	266.38
271.93	261.38
272.162	298.38
272.394	274.38
272.626	271.38
272.858	291.38
273.09	274.38
273.322	238.38
273.553	234.38
273.785	248.38
274.017	319.38
274.249	388.38
274.481	385.38
274.713	413.38
274.945	493.38
275.176	497.38
275.408	468.38
275.64	459.38
275.872	419.38
276.104	374.38
276.335	355.38
276.567	357.38
276.799	364.38
277.031	353.38
277.262	292.38
277.494	254.38
277.726	242.38
277.957	257.38
278.189	290.38
278.421	274.38
278.652	269.38
278.884	250.38
279.115	267.38
279.347	243.38
279.579	252.38
279.81	265.38
280.042	234.38
280.273	246.38
280.505	234.38
280.736	229.38
280.968	228.38
281.199	232.38
281.431	256.38
281.662	256.38
281.894	241.38
282.125	257.38
282.356	284.38
282.588	275.38
282.819	272.38
283.051	276.38
283.282	325.38
283.513	354.38
283.745	364.38
283.976	378.38
284.207	342.38
284.439	360.38
284.67	348.38
284.901	323.38
285.132	338.38
285.364	355.38
285.595	335.38
285.826	346.38
286.057	369.38
286.288	348.38
286.52	354.38
286.751	370.38
286.982	407.38
287.213	337.38
287.444	313.38
287.675	327.38
287.906	341.38
288.138	303.38
288.369	281.38
288.6	258.38
288.831	284.38
289.062	317.38
289.293	336.38
289.524	318.38
289.755	323.38
289.986	321.38
290.217	287.38
290.448	240.38
290.679	212.38
290.91	212.38
291.141	218.38
291.371	214.38
291.602	204.38
291.833	212.38
292.064	232.38
292.295	259.38
292.526	284.38
292.757	270.38
292.987	306.38
293.218	304.38
293.449	316.38
293.68	338.38
293.91	334.38
294.141	335.38
294.372	306.38
294.603	290.38
294.833	307.38
295.064	333.38
295.295	324.38
295.525	276.38
295.756	227.38
295.987	214.38
296.217	208.38
296.448	214.38
296.679	220.38
296.909	244.38
297.14	250.38
297.37	293.38
297.601	277.38
297.831	277.38
298.062	260.38
298.292	258.38
298.523	305.38
298.753	328.38
298.984	304.38
299.214	258.38
299.445	223.38
299.675	215.38
299.905	223.38
300.136	227.38
300.366	237.38
300.597	244.38
300.827	225.38
301.057	208.38
301.288	229.38
301.518	244.38
301.748	262.38
301.979	278.38
302.209	284.38
302.439	281.38
302.669	260.38
302.9	238.38
303.13	268.38
303.36	248.38
303.59	238.38
303.82	241.38
304.051	255.38
304.281	289.38
304.511	251.38
304.741	239.38
304.971	252.38
305.201	242.38
305.431	264.38
305.661	234.38
305.891	249.38
306.121	229.38
306.352	211.38
306.582	196.38
306.812	216.38
307.042	197.38
307.272	167.38
307.502	184.38
307.731	204.38
307.961	204.38
308.191	197.38
308.421	180.38
308.651	190.38
308.881	198.38
309.111	186.38
309.341	192.38
309.571	208.38
309.8	210.38
310.03	212.38
310.26	214.38
310.49	222.38
310.72	193.38
310.949	200.38
311.179	194.38
311.409	200.38
311.639	233.38
311.868	284.38
312.098	320.38
312.328	359.38
312.557	340.38
312.787	350.38
313.017	328.38
313.246	342.38
313.476	340.38
313.706	308.38
313.935	272.38
314.165	219.38
314.394	226.38
314.624	222.38
314.853	230.38
315.083	219.38
315.312	201.38
315.542	217.38
315.771	210.38
316.001	193.38
316.23	194.38
316.46	184.38
316.689	196.38
316.919	204.38
317.148	188.38
317.377	191.38
317.607	212.38
317.836	205.38
318.065	219.38
318.295	236.38
318.524	244.38
318.753	212.38
318.983	209.38
319.212	201.38
319.441	207.38
319.67	218.38
319.9	251.38
320.129	236.38
320.358	201.38
320.587	204.38
320.816	207.38
321.046	236.38
321.275	232.38
321.504	257.38
321.733	236.38
321.962	236.38
322.191	221.38
322.42	221.38
322.649	215.38
322.878	236.38
323.108	233.38
323.337	249.38
323.566	238.38
323.795	238.38
324.024	220.38
324.253	233.38
324.482	208.38
324.71	219.38
324.939	242.38
325.168	223.38
325.397	197.38
325.626	207.38
325.855	216.38
326.084	216.38
326.313	224.38
326.542	194.38
326.77	185.38
326.999	221.38
327.228	215.38
327.457	220.38
327.686	209.38
327.914	210.38
328.143	184.38
328.372	189.38
328.6	184.38
328.829	206.38
329.058	206.38
329.287	194.38
329.515	198.38
329.744	200.38
329.972	197.38
330.201	179.38
330.43	197.38
330.658	206.38
330.887	231.38
331.115	230.38
331.344	212.38
331.572	200.38
331.801	209.38
332.03	196.38
332.258	228.38
332.486	217.38
332.715	221.38
332.943	214.38
333.172	210.38
333.4	215.38
333.629	218.38
333.857	231.38
334.085	237.38
334.314	250.38
334.542	237.38
334.771	208.38
334.999	209.38
335.227	230.38
335.455	221.38
335.684	228.38
335.912	250.38
336.14	269.38
336.369	249.38
336.597	239.38
336.825	265.38
337.053	276.38
337.281	242.38
337.51	225.38
337.738	219.38
337.966	230.38
338.194	242.38
338.422	224.38
338.65	216.38
338.878	200.38
339.106	207.38
339.334	202.38
339.562	224.38
339.79	230.38
340.018	226.38
340.246	211.38
340.474	256.38
340.702	269.38
340.93	256.38
341.158	260.38
341.386	240.38
341.614	240.38
341.842	222.38
342.07	243.38
342.298	264.38
342.526	263.38
342.754	228.38
342.981	222.38
343.209	203.38
343.437	236.38
343.665	266.38
343.893	250.38
344.12	280.38
344.348	324.38
344.576	304.38
344.804	238.38
345.031	238.38
345.259	199.38
345.487	213.38
345.714	224.38
345.942	228.38
346.17	257.38
346.397	252.38
346.625	216.38
346.853	215.38
347.08	225.38
347.308	232.38
347.535	254.38
347.763	249.38
347.99	221.38
348.218	206.38
348.445	238.38
348.673	232.38
348.9	213.38
349.128	216.38
349.355	225.38
349.583	223.38
349.81	216.38
350.037	223.38
350.265	201.38
350.492	195.38
350.72	185.38
350.947	204.38
351.174	196.38
351.402	205.38
351.629	217.38
351.856	211.38
352.083	184.38
352.311	224.38
352.538	223.38
352.765	234.38
352.992	233.38
353.22	205.38
353.447	221.38
353.674	217.38
353.901	217.38
354.128	206.38
354.355	217.38
354.583	208.38
354.81	228.38
355.037	244.38
355.264	212.38
355.491	226.38
355.718	238.38
355.945	228.38
356.172	238.38
356.399	242.38
356.626	269.38
356.853	308.38
357.08	315.38
357.307	336.38
357.534	279.38
357.761	288.38
357.988	356.38
358.215	379.38
358.441	367.38
358.668	305.38
358.895	290.38
359.122	272.38
359.349	257.38
359.576	293.38
359.802	243.38
360.029	206.38
360.256	224.38
360.483	264.38
360.709	312.38
360.936	324.38
361.163	293.38
361.39	222.38
361.616	214.38
361.843	241.38
362.07	296.38
362.296	254.38
362.523	250.38
362.749	202.38
362.976	212.38
363.203	229.38
363.429	261.38
363.656	231.38
363.882	217.38
364.109	230.38
364.335	224.38
364.562	226.38
364.788	239.38
365.015	256.38
365.241	256.38
365.468	219.38
365.694	196.38
365.92	182.38
366.147	187.38
366.373	200.38
366.599	188.38
366.826	197.38
367.052	200.38
367.278	193.38
367.505	198.38
367.731	209.38
367.957	224.38
368.184	216.38
368.41	229.38
368.636	225.38
368.862	217.38
369.089	226.38
369.315	206.38
369.541	212.38
369.767	219.38
369.993	205.38
370.219	197.38
370.445	208.38
370.672	225.38
370.898	225.38
371.124	237.38
371.35	226.38
371.576	217.38
371.802	218.38
372.028	256.38
372.254	274.38
372.48	222.38
372.706	227.38
372.932	237.38
373.158	239.38
373.384	259.38
373.61	315.38
373.835	345.38
374.061	289.38
374.287	251.38
374.513	292.38
374.739	328.38
374.965	334.38
375.191	313.38
375.416	251.38
375.642	217.38
375.868	245.38
376.094	274.38
376.319	245.38
376.545	264.38
376.771	266.38
376.997	239.38
377.222	204.38
377.448	193.38
377.674	188.38
377.899	202.38
378.125	186.38
378.35	189.38
378.576	182.38
378.802	196.38
379.027	236.38
379.253	212.38
379.478	221.38
379.704	232.38
379.929	232.38
380.155	241.38
380.38	216.38
380.606	217.38
380.831	225.38
381.057	246.38
381.282	209.38
381.507	259.38
381.733	280.38
381.958	292.38
382.184	308.38
382.409	339.38
382.634	327.38
382.86	342.38
383.085	283.38
383.31	254.38
383.535	256.38
383.761	260.38
383.986	243.38
384.211	307.38
384.436	289.38
384.662	234.38
384.887	228.38
385.112	252.38
385.337	246.38
385.562	244.38
385.787	256.38
386.013	270.38
386.238	276.38
386.463	229.38
386.688	249.38
386.913	229.38
387.138	215.38
387.363	226.38
387.588	229.38
387.813	234.38
388.038	257.38
388.263	237.38
388.488	209.38
388.713	250.38
388.938	266.38
389.163	211.38
389.387	204.38
389.612	212.38
389.837	209.38
390.062	216.38
390.287	217.38
390.512	240.38
390.736	235.38
390.961	206.38
391.186	210.38
391.411	207.38
391.636	206.38
391.86	223.38
392.085	239.38
392.31	263.38
392.534	234.38
392.759	228.38
392.984	228.38
393.208	229.38
393.433	222.38
393.658	190.38
393.882	205.38
394.107	208.38
394.331	193.38
394.556	219.38
394.78	203.38
395.005	193.38
395.229	217.38
395.454	209.38
395.678	205.38
395.903	215.38
396.127	204.38
396.352	215.38
396.576	237.38
396.801	247.38
397.025	258.38
397.249	246.38
397.474	222.38
397.698	225.38
397.922	228.38
398.147	223.38
398.371	222.38
398.595	232.38
398.82	241.38
399.044	230.38
399.268	240.38
399.492	264.38
399.717	283.38
399.941	285.38
400.165	259.38
400.389	242.38
400.613	252.38
400.837	230.38
401.062	214.38
401.286	198.38
401.51	222.38
401.734	211.38
401.958	241.38
402.182	228.38
402.406	214.38
402.63	239.38
402.854	245.38
403.078	281.38
403.302	338.38
403.526	356.38
403.75	315.38
403.974	273.38
404.198	268.38
404.422	297.38
404.645	318.38
404.869	339.38
405.093	277.38
405.317	242.38
405.541	232.38
405.765	260.38
405.988	240.38
406.212	261.38
406.436	290.38
406.66	310.38
406.883	246.38
407.107	264.38
407.331	300.38
407.555	300.38
407.778	265.38
408.002	260.38
408.226	267.38
408.449	256.38
408.673	253.38
408.896	228.38
409.12	224.38
409.344	236.38
409.567	261.38
409.791	242.38
410.014	231.38
410.238	228.38
410.461	241.38
410.685	223.38
410.908	233.38
411.132	238.38
411.355	216.38
411.578	232.38
411.802	224.38
412.025	239.38
412.249	236.38
412.472	250.38
412.695	222.38
412.919	228.38
413.142	237.38
413.365	244.38
413.589	221.38
413.812	239.38
414.035	228.38
414.258	227.38
414.482	238.38
414.705	230.38
414.928	212.38
415.151	229.38
415.374	210.38
415.597	214.38
415.821	210.38
416.044	216.38
416.267	213.38
416.49	240.38
416.713	209.38
416.936	223.38
417.159	225.38
417.382	220.38
417.605	214.38
417.828	243.38
418.051	224.38
418.274	236.38
418.497	244.38
418.72	216.38
418.943	229.38
419.166	248.38
419.389	260.38
419.611	244.38
419.834	246.38
420.057	250.38
420.28	244.38
420.503	241.38
420.726	228.38
420.948	205.38
421.171	212.38
421.394	227.38
421.617	215.38
421.839	219.38
422.062	227.38
422.285	227.38
422.507	233.38
422.73	222.38
422.953	240.38
423.175	243.38
423.398	225.38
423.621	254.38
423.843	253.38
424.066	233.38
424.288	240.38
424.511	236.38
424.733	221.38
424.956	233.38
425.178	245.38
425.401	277.38
425.623	335.38
425.846	288.38
426.068	240.38
426.291	255.38
426.513	250.38
426.735	247.38
426.958	231.38
427.18	280.38
427.402	314.38
427.625	340.38
427.847	303.38
428.069	231.38
428.292	241.38
428.514	227.38
428.736	225.38
428.958	242.38
429.181	289.38
429.403	257.38
429.625	233.38
429.847	210.38
430.069	233.38
430.292	224.38
430.514	217.38
430.736	219.38
430.958	244.38
431.18	238.38
431.402	220.38
431.624	204.38
431.846	212.38
432.068	207.38
432.29	202.38
432.512	227.38
432.734	264.38
432.956	266.38
433.178	221.38
433.4	215.38
433.622	222.38
433.844	227.38
434.066	246.38
434.287	246.38
434.509	236.38
434.731	253.38
434.953	236.38
435.175	255.38
435.397	267.38
435.618	236.38
435.84	201.38
436.062	220.38
436.284	201.38
436.505	199.38
436.727	220.38
436.949	208.38
437.17	215.38
437.392	238.38
437.614	199.38
437.835	230.38
438.057	214.38
438.278	248.38
438.5	297.38
438.721	322.38
438.943	233.38
439.165	211.38
439.386	213.38
439.608	204.38
439.829	207.38
440.05	222.38
440.272	221.38
440.493	227.38
440.715	275.38
440.936	233.38
441.158	227.38
441.379	225.38
441.6	252.38
441.822	248.38
442.043	231.38
442.264	213.38
442.486	207.38
442.707	208.38
442.928	231.38
443.149	222.38
443.371	232.38
443.592	237.38
443.813	224.38
444.034	240.38
444.255	233.38
444.476	240.38
444.698	265.38
444.919	260.38
445.14	348.38
445.361	293.38
445.582	269.38
445.803	227.38
446.024	242.38
446.245	220.38
446.466	233.38
446.687	227.38
446.908	220.38
447.129	229.38
447.35	216.38
447.571	203.38
447.792	212.38
448.013	217.38
448.234	206.38
448.455	195.38
448.675	190.38
448.896	197.38
449.117	208.38
449.338	203.38
449.559	221.38
449.779	218.38
450	220.38
450.221	206.38
450.442	217.38
450.662	206.38
450.883	192.38
451.104	224.38
451.324	209.38
451.545	198.38
451.766	214.38
451.986	199.38
452.207	202.38
452.428	206.38
452.648	192.38
452.869	217.38
453.089	223.38
453.31	220.38
453.53	201.38
453.751	201.38
453.971	187.38
454.192	197.38
454.412	218.38
454.633	206.38
454.853	194.38
455.073	188.38
455.294	196.38
455.514	202.38
455.734	210.38
455.955	210.38
456.175	210.38
456.395	177.38
456.616	188.38
456.836	184.38
457.056	183.38
457.276	189.38
457.497	196.38
457.717	189.38
457.937	199.38
458.157	192.38
458.377	201.38
458.598	204.38
458.818	195.38
459.038	216.38
459.258	229.38
459.478	226.38
459.698	231.38
459.918	214.38
460.138	220.38
460.358	256.38
460.578	245.38
460.798	220.38
461.018	240.38
461.238	244.38
461.458	227.38
461.678	249.38
461.898	240.38
462.118	225.38
462.338	238.38
462.558	248.38
462.777	272.38
462.997	276.38
463.217	306.38
463.437	286.38
463.657	248.38
463.876	249.38
464.096	228.38
464.316	254.38
464.536	261.38
464.755	273.38
464.975	273.38
465.195	251.38
465.414	263.38
465.634	238.38
465.854	214.38
466.073	230.38
466.293	230.38
466.512	222.38
466.732	232.38
466.951	244.38
467.171	229.38
467.391	220.38
467.61	212.38
467.829	230.38
468.049	228.38
468.268	206.38
468.488	201.38
468.707	216.38
468.927	233.38
469.146	273.38
469.365	231.38
469.585	207.38
469.804	245.38
470.023	254.38
470.243	230.38
470.462	233.38
470.681	228.38
470.901	250.38
471.12	244.38
471.339	231.38
471.558	221.38
471.777	230.38
471.997	236.38
472.216	246.38
472.435	227.38
472.654	223.38
472.873	224.38
473.092	229.38
473.311	241.38
473.53	214.38
473.749	228.38
473.968	236.38
474.187	227.38
474.406	211.38
474.625	227.38
474.844	207.38
475.063	238.38
475.282	248.38
475.501	245.38
475.72	293.38
475.939	252.38
476.158	246.38
476.377	290.38
476.596	309.38
476.814	309.38
477.033	266.38
477.252	239.38
477.471	242.38
477.69	233.38
477.908	261.38
478.127	256.38
478.346	246.38
478.564	276.38
478.783	267.38
479.002	266.38
479.22	275.38
479.439	304.38
479.658	268.38
479.876	261.38
480.095	260.38
480.313	298.38
480.532	248.38
480.751	274.38
480.969	259.38
481.188	276.38
481.406	284.38
481.624	281.38
481.843	250.38
482.061	251.38
482.28	268.38
482.498	313.38
482.717	304.38
482.935	260.38
483.153	267.38
483.372	238.38
483.59	249.38
483.808	252.38
484.027	248.38
484.245	232.38
484.463	239.38
484.681	256.38
484.9	250.38
485.118	270.38
485.336	274.38
485.554	236.38
485.772	261.38
485.99	268.38
486.209	284.38
486.427	303.38
486.645	266.38
486.863	288.38
487.081	284.38
487.299	272.38
487.517	273.38
487.735	279.38
487.953	272.38
488.171	285.38
488.389	273.38
488.607	252.38
488.825	263.38
489.043	267.38
489.261	309.38
489.479	318.38
489.696	270.38
489.914	273.38
490.132	250.38
490.35	264.38
490.568	244.38
490.786	264.38
491.003	244.38
491.221	267.38
491.439	233.38
491.657	248.38
491.874	268.38
492.092	304.38
492.31	348.38
492.527	347.38
492.745	322.38
492.963	278.38
493.18	258.38
493.398	267.38
493.615	287.38
493.833	285.38
494.05	275.38
494.268	277.38
494.485	280.38
494.703	260.38
494.92	270.38
495.138	280.38
495.355	266.38
495.573	286.38
495.79	292.38
496.008	363.38
496.225	294.38
496.442	281.38
496.66	290.38
496.877	302.38
497.094	280.38
497.312	264.38
497.529	283.38
497.746	282.38
497.963	309.38
498.181	321.38
498.398	328.38
498.615	345.38
498.832	354.38
499.049	373.38
499.267	361.38
499.484	372.38
499.701	412.38
499.918	405.38
500.135	473.38
500.352	533.38
500.569	534.38
500.786	545.38
501.003	515.38
501.22	462.38
501.437	404.38
501.654	392.38
501.871	368.38
502.088	354.38
502.305	348.38
502.522	333.38
502.739	325.38
502.956	308.38
503.172	298.38
503.389	286.38
503.606	306.38
503.823	284.38
504.04	312.38
504.256	309.38
504.473	305.38
504.69	304.38
504.907	306.38
505.123	284.38
505.34	298.38
505.557	280.38
505.773	273.38
505.99	274.38
506.207	303.38
506.423	265.38
506.64	255.38
506.856	254.38
507.073	295.38
507.289	281.38
507.506	269.38
507.722	286.38
507.939	304.38
508.155	308.38
508.372	277.38
508.588	270.38
508.805	271.38
509.021	266.38
509.238	246.38
509.454	268.38
509.67	245.38
509.887	265.38
510.103	264.38
510.319	270.38
510.536	255.38
510.752	245.38
510.968	236.38
511.184	237.38
511.401	243.38
511.617	228.38
511.833	244.38
512.049	242.38
512.265	232.38
512.481	263.38
512.698	274.38
512.914	286.38
513.13	262.38
513.346	266.38
513.562	260.38
513.778	253.38
513.994	260.38
514.21	288.38
514.426	265.38
514.642	259.38
514.858	251.38
515.074	274.38
515.29	271.38
515.506	286.38
515.721	269.38
515.937	262.38
516.153	258.38
516.369	280.38
516.585	275.38
516.801	307.38
517.016	341.38
517.232	336.38
517.448	330.38
517.664	322.38
517.879	289.38
518.095	292.38
518.311	298.38
518.527	306.38
518.742	312.38
518.958	332.38
519.173	306.38
519.389	298.38
519.605	312.38
519.82	305.38
520.036	337.38
520.251	326.38
520.467	346.38
520.682	569.38
520.898	680.38
521.113	645.38
521.329	378.38
521.544	324.38
521.76	304.38
521.975	298.38
522.19	290.38
522.406	273.38
522.621	299.38
522.836	306.38
523.052	316.38
523.267	278.38
523.482	282.38
523.698	293.38
523.913	288.38
524.128	269.38
524.343	244.38
524.559	274.38
524.774	255.38
524.989	255.38
525.204	247.38
525.419	284.38
525.634	282.38
525.849	282.38
526.064	263.38
526.28	259.38
526.495	301.38
526.71	333.38
526.925	315.38
527.14	312.38
527.355	301.38
527.57	283.38
527.785	267.38
527.999	266.38
528.214	240.38
528.429	265.38
528.644	257.38
528.859	241.38
529.074	240.38
529.289	258.38
529.503	236.38
529.718	240.38
529.933	294.38
530.148	304.38
530.363	236.38
530.577	238.38
530.792	239.38
531.007	246.38
531.221	246.38
531.436	233.38
531.651	239.38
531.865	240.38
532.08	258.38
532.295	266.38
532.509	256.38
532.724	280.38
532.938	307.38
533.153	348.38
533.367	267.38
533.582	272.38
533.796	263.38
534.011	252.38
534.225	266.38
534.44	260.38
534.654	250.38
534.868	326.38
535.083	283.38
535.297	246.38
535.511	232.38
535.726	252.38
535.94	250.38
536.154	240.38
536.369	218.38
536.583	226.38
536.797	250.38
537.011	232.38
537.225	255.38
537.44	282.38
537.654	243.38
537.868	223.38
538.082	238.38
538.296	252.38
538.51	243.38
538.724	262.38
538.938	241.38
539.153	221.38
539.367	231.38
539.581	237.38
539.795	237.38
540.009	272.38
540.222	252.38
540.436	256.38
540.65	256.38
540.864	259.38
541.078	292.38
541.292	331.38
541.506	257.38
541.72	250.38
541.934	232.38
542.147	226.38
542.361	253.38
542.575	238.38
542.789	246.38
543.002	225.38
543.216	250.38
543.43	243.38
543.644	226.38
543.857	220.38
544.071	212.38
544.285	221.38
544.498	226.38
544.712	218.38
544.925	232.38
545.139	220.38
545.352	215.38
545.566	226.38
545.779	252.38
545.993	238.38
546.206	218.38
546.42	214.38
546.633	216.38
546.847	195.38
547.06	229.38
547.274	212.38
547.487	213.38
547.7	231.38
547.914	216.38
548.127	265.38
548.34	254.38
548.554	233.38
548.767	231.38
548.98	242.38
549.193	221.38
549.407	233.38
549.62	262.38
549.833	248.38
550.046	249.38
550.259	255.38
550.473	236.38
550.686	230.38
550.899	236.38
551.112	242.38
551.325	233.38
551.538	248.38
551.751	248.38
551.964	210.38
552.177	218.38
552.39	208.38
552.603	213.38
552.816	241.38
553.029	234.38
553.242	223.38
553.455	235.38
553.667	238.38
553.88	232.38
554.093	223.38
554.306	222.38
554.519	216.38
554.732	193.38
554.944	197.38
555.157	225.38
555.37	204.38
555.583	200.38
555.795	200.38
556.008	199.38
556.221	205.38
556.433	209.38
556.646	187.38
556.859	205.38
557.071	208.38
557.284	188.38
557.496	208.38
557.709	199.38
557.921	208.38
558.134	190.38
558.346	205.38
558.559	197.38
558.771	213.38
558.984	200.38
559.196	214.38
559.409	189.38
559.621	200.38
559.833	196.38
560.046	207.38
560.258	197.38
560.47	201.38
560.683	175.38
560.895	192.38
561.107	188.38
561.32	182.38
561.532	195.38
561.744	204.38
561.956	208.38
562.168	193.38
562.381	194.38
562.593	200.38
562.805	195.38
563.017	205.38
563.229	188.38
563.441	182.38
563.653	208.38
563.865	190.38
564.077	197.38
564.289	183.38
564.501	178.38
564.713	208.38
564.925	193.38
565.137	206.38
565.349	204.38
565.561	194.38
565.773	214.38
565.985	196.38
566.197	206.38
566.408	217.38
566.62	241.38
566.832	250.38
567.044	247.38
567.255	253.38
567.467	272.38
567.679	268.38
567.891	260.38
568.102	291.38
568.314	287.38
568.526	248.38
568.737	241.38
568.949	236.38
569.161	228.38
569.372	200.38
569.584	198.38
569.795	215.38
570.007	202.38
570.218	198.38
570.43	207.38
570.641	199.38
570.853	198.38
571.064	189.38
571.276	204.38
571.487	216.38
571.698	195.38
571.91	188.38
572.121	199.38
572.333	181.38
572.544	188.38
572.755	184.38
572.966	192.38
573.178	188.38
573.389	190.38
573.6	184.38
573.811	174.38
574.023	180.38
574.234	160.38
574.445	184.38
574.656	178.38
574.867	178.38
575.078	189.38
575.289	173.38
575.501	168.38
575.712	170.38
575.923	174.38
576.134	177.38
576.345	152.38
576.556	166.38
576.767	155.38
576.978	169.38
577.188	173.38
577.399	164.38
577.61	154.38
577.821	172.38
578.032	163.38
578.243	169.38
578.454	162.38
578.665	180.38
578.875	185.38
579.086	191.38
579.297	174.38
579.508	186.38
579.718	173.38
579.929	159.38
580.14	163.38
580.35	166.38
580.561	148.38
580.772	149.38
580.982	152.38
581.193	147.38
581.403	160.38
581.614	154.38
581.825	161.38
582.035	152.38
582.246	156.38
582.456	170.38
582.667	163.38
582.877	154.38
583.087	160.38
583.298	159.38
583.508	158.38
583.719	160.38
583.929	163.38
584.139	138.38
584.35	152.38
584.56	156.38
584.77	172.38
584.981	165.38
585.191	150.38
585.401	143.38
585.611	166.38
585.821	164.38
586.032	173.38
586.242	166.38
586.452	169.38
586.662	163.38
586.872	174.38
587.082	162.38
587.292	162.38
587.502	165.38
587.713	154.38
587.923	157.38
588.133	164.38
588.343	150.38
588.553	166.38
588.762	151.38
588.972	162.38
589.182	154.38
589.392	152.38
589.602	152.38
589.812	161.38
590.022	176.38
590.232	168.38
590.441	149.38
590.651	163.38
590.861	140.38
591.071	171.38
591.281	152.38
591.49	148.38
591.7	162.38
591.91	152.38
592.119	159.38
592.329	153.38
592.539	168.38
592.748	169.38
592.958	156.38
593.167	162.38
593.377	165.38
593.587	191.38
593.796	178.38
594.006	187.38
594.215	183.38
594.424	172.38
594.634	173.38
594.843	175.38
595.053	166.38
595.262	172.38
595.472	169.38
595.681	152.38
595.89	148.38
596.1	161.38
596.309	153.38
596.518	139.38
596.727	165.38
596.937	138.38
597.146	163.38
597.355	171.38
597.564	152.38
597.774	155.38
597.983	153.38
598.192	151.38
598.401	136.38
598.61	143.38
598.819	138.38
599.028	149.38
599.237	125.38
599.446	149.38
599.655	153.38
599.864	139.38
600.073	158.38
600.282	148.38
600.491	144.38
600.7	146.38
600.909	137.38
601.118	135.38
601.327	135.38
601.536	148.38
601.745	145.38
601.953	156.38
602.162	144.38
602.371	159.38
602.58	143.38
602.789	145.38
602.997	145.38
603.206	139.38
603.415	151.38
603.623	125.38
603.832	139.38
604.041	145.38
604.249	139.38
604.458	143.38
604.666	126.38
604.875	120.38
605.084	115.38
605.292	144.38
605.501	146.38
605.709	137.38
605.918	148.38
606.126	136.38
606.334	137.38
606.543	145.38
606.751	151.38
606.96	135.38
607.168	127.38
607.376	125.38
607.585	142.38
607.793	144.38
608.001	129.38
608.21	113.38
608.418	130.38
608.626	156.38
608.834	138.38
609.043	135.38
609.251	145.38
609.459	151.38
609.667	135.38
609.875	132.38
610.083	144.38
610.291	147.38
610.499	128.38
610.707	147.38
610.916	141.38
611.124	138.38
611.332	138.38
611.54	137.38
611.748	129.38
611.955	115.38
612.163	143.38
612.371	124.38
612.579	128.38
612.787	141.38
612.995	121.38
613.203	136.38
613.411	148.38
613.618	142.38
613.826	137.38
614.034	130.38
614.242	140.38
614.449	126.38
614.657	132.38
614.865	131.38
615.072	129.38
615.28	128.38
615.488	136.38
615.695	135.38
615.903	139.38
616.111	139.38
616.318	140.38
616.526	124.38
616.733	122.38
616.941	114.38
617.148	134.38
617.356	122.38
617.563	128.38
617.771	123.38
617.978	131.38
618.185	135.38
618.393	128.38
618.6	130.38
618.807	141.38
619.015	127.38
619.222	128.38
619.429	128.38
619.637	139.38
619.844	137.38
620.051	134.38
620.258	108.38
620.466	110.38
620.673	124.38
620.88	133.38
621.087	132.38
621.294	132.38
621.501	142.38
621.708	130.38
621.915	123.38
622.122	128.38
622.329	129.38
622.536	114.38
622.743	126.38
622.95	125.38
623.157	110.38
623.364	131.38
623.571	120.38
623.778	126.38
623.985	128.38
624.192	112.38
624.399	121.38
624.606	128.38
624.812	120.38
625.019	102.38
625.226	118.38
625.433	128.38
625.639	132.38
625.846	116.38
626.053	114.38
626.259	120.38
626.466	130.38
626.673	115.38
626.879	124.38
627.086	122.38
627.293	121.38
627.499	120.38
627.706	111.38
627.912	110.38
628.119	109.38
628.325	125.38
628.532	123.38
628.738	118.38
628.945	112.38
629.151	120.38
629.357	126.38
629.564	106.38
629.77	133.38
629.976	129.38
630.183	117.38
630.389	120.38
630.595	121.38
630.802	113.38
631.008	112.38
631.214	132.38
631.42	114.38
631.627	131.38
631.833	114.38
632.039	119.38
632.245	120.38
632.451	117.38
632.657	122.38
632.863	103.38
633.069	118.38
633.275	122.38
633.481	116.38
633.688	116.38
633.893	125.38
634.099	120.38
634.305	121.38
634.511	119.38
634.717	128.38
634.923	122.38
635.129	120.38
635.335	111.38
635.541	100.38
635.747	110.38
635.952	110.38
636.158	107.38
636.364	123.38
636.57	110.38
636.775	116.38
636.981	104.38
637.187	114.38
637.392	127.38
637.598	114.38
637.804	129.38
638.009	129.38
638.215	114.38
638.421	117.38
638.626	100.38
638.832	102.38
639.037	96.38
639.243	122.38
639.448	110.38
639.654	126.38
639.859	117.38
640.065	104.38
640.27	136.38
640.475	114.38
640.681	109.38
640.886	117.38
641.091	115.38
641.297	112.38
641.502	110.38
641.707	100.38
641.913	116.38
642.118	122.38
642.323	112.38
642.528	113.38
642.733	127.38
642.939	113.38
643.144	95.38
643.349	100.38
643.554	119.38
643.759	121.38
643.964	105.38
644.169	120.38
644.374	107.38
644.579	109.38
644.784	111.38
644.989	112.38
645.194	110.38
645.399	100.38
645.604	105.38
645.809	104.38
646.014	97.38
646.219	120.38
646.423	105.38
646.628	107.38
646.833	90.38
647.038	115.38
647.243	105.38
647.447	111.38
647.652	117.38
647.857	110.38
648.062	104.38
648.266	116.38
648.471	105.38
648.676	121.38
648.88	105.38
649.085	102.38
649.289	100.38
649.494	105.38
649.698	109.38
649.903	126.38
650.107	107.38
650.312	100.38
650.516	93.38
650.721	98.38
650.925	103.38
651.13	111.38
651.334	85.38
651.539	116.38
651.743	101.38
651.947	102.38
652.152	110.38
652.356	109.38
652.56	108.38
652.764	110.38
652.969	108.38
653.173	85.38
653.377	98.38
653.581	99.38
653.785	99.38
653.99	108.38
654.194	112.38
654.398	98.38
654.602	101.38
654.806	102.38
655.01	96.38
655.214	97.38
655.418	100.38
655.622	102.38
655.826	86.38
656.03	98.38
656.234	103.38
656.438	93.38
656.642	89.38
656.846	89.38
657.049	94.38
657.253	99.38
657.457	92.38
657.661	95.38
657.865	90.38
658.068	89.38
658.272	94.38
658.476	90.38
658.68	80.38
658.883	86.38
659.087	97.38
659.291	89.38
659.494	77.38
659.698	92.38
659.901	95.38
660.105	89.38
660.309	93.38
660.512	77.38
660.716	75.38
660.919	87.38
661.123	84.38
661.326	74.38
661.53	90.38
661.733	83.38
661.936	93.38
662.14	85.38
662.343	78.38
662.546	92.38
662.75	70.38
662.953	80.38
663.156	73.38
663.36	78.38
663.563	76.38
663.766	79.38
663.969	94.38
664.173	76.38
664.376	85.38
664.579	78.38
664.782	72.38
664.985	78.38
665.188	81.38
665.391	65.38
665.594	71.38
665.797	84.38
666	85.38
666.203	73.38
666.406	73.38
666.609	82.38
666.812	88.38
667.015	79.38
667.218	87.38
667.421	79.38
667.624	83.38
667.827	82.38
668.03	81.38
668.232	77.38
668.435	79.38
668.638	98.38
668.841	88.38
669.043	67.38
669.246	72.38
669.449	83.38
669.651	93.38
669.854	81.38
670.057	82.38
670.259	73.38
670.462	82.38
670.665	82.38
670.867	83.38
671.07	78.38
671.272	83.38
671.475	79.38
671.677	90.38
671.88	86.38
672.082	70.38
672.284	82.38
672.487	84.38
672.689	81.38
672.892	80.38
