Data from NickelSpatula.Lamp.E10.P2_HRD10591_11-58-27-528.txt Node
Date: Tue Jul 23 11:58:27 EDT 2019
User: cochatt
Spectrometer: HR+D1059
Trigger mode: 1
Integration Time (sec): 1.000000E-1
Scans to average: 1
Electric dark correction enabled: true
Nonlinearity correction enabled: false
Boxcar width: 0
XAxis mode: Wavelengths
Number of Pixels in Spectrum: 2048
>>>>>Begin Spectral Data<<<<<
223.165	-5.38
223.4	-5.38
223.635	-5.38
223.869	-8.38
224.104	-13.38
224.338	-8.38
224.573	-23.38
224.808	-12.38
225.042	-5.38
225.277	-0.38
225.511	-2.38
225.746	-0.38
225.98	2.62
226.215	10.62
226.449	15.62
226.683	11.62
226.918	19.62
227.152	19.62
227.387	37.62
227.621	36.62
227.856	42.62
228.09	50.62
228.324	51.62
228.559	46.62
228.793	83.62
229.027	135.62
229.262	170.62
229.496	159.62
229.73	162.62
229.964	178.62
230.199	219.62
230.433	216.62
230.667	211.62
230.901	197.62
231.136	198.62
231.37	212.62
231.604	217.62
231.838	238.62
232.072	248.62
232.306	246.62
232.541	221.62
232.775	231.62
233.009	264.62
233.243	293.62
233.477	292.62
233.711	347.62
233.945	310.62
234.179	314.62
234.413	346.62
234.647	390.62
234.881	453.62
235.115	418.62
235.349	401.62
235.583	330.62
235.817	334.62
236.051	382.62
236.285	415.62
236.519	460.62
236.753	442.62
236.987	424.62
237.221	401.62
237.455	414.62
237.689	422.62
237.922	464.62
238.156	476.62
238.39	533.62
238.624	648.62
238.858	571.62
239.091	482.62
239.325	498.62
239.559	466.62
239.793	522.62
240.027	634.62
240.26	601.62
240.494	595.62
240.728	603.62
240.961	686.62
241.195	632.62
241.429	640.62
241.662	623.62
241.896	511.62
242.13	470.62
242.363	429.62
242.597	479.62
242.83	534.62
243.064	528.62
243.298	581.62
243.531	620.62
243.765	644.62
243.998	606.62
244.232	600.62
244.465	573.62
244.699	568.62
244.932	632.62
245.166	623.62
245.399	544.62
245.633	534.62
245.866	551.62
246.099	618.62
246.333	689.62
246.566	734.62
246.8	754.62
247.033	745.62
247.266	692.62
247.5	686.62
247.733	667.62
247.966	670.62
248.2	689.62
248.433	741.62
248.666	840.62
248.899	866.62
249.133	853.62
249.366	955.62
249.599	1040.62
249.832	928.62
250.066	822.62
250.299	826.62
250.532	792.62
250.765	784.62
250.998	730.62
251.231	724.62
251.465	767.62
251.698	834.62
251.931	774.62
252.164	820.62
252.397	915.62
252.63	1032.62
252.863	1161.62
253.096	1187.62
253.329	1143.62
253.562	1094.62
253.795	1212.62
254.028	1354.62
254.261	1398.62
254.494	1238.62
254.727	1119.62
254.96	1095.62
255.193	1166.62
255.426	1090.62
255.659	834.62
255.892	754.62
256.124	858.62
256.357	1013.62
256.59	1153.62
256.823	1172.62
257.056	966.62
257.289	880.62
257.521	961.62
257.754	1110.62
257.987	1237.62
258.22	1077.62
258.452	995.62
258.685	1146.62
258.918	1258.62
259.151	1224.62
259.383	1283.62
259.616	1470.62
259.849	1520.62
260.081	1716.62
260.314	1852.62
260.547	1458.62
260.779	1470.62
261.012	1711.62
261.244	1578.62
261.477	1630.62
261.71	1507.62
261.942	1247.62
262.175	1268.62
262.407	1225.62
262.64	1266.62
262.872	1452.62
263.105	1626.62
263.337	1695.62
263.57	1543.62
263.802	1023.62
264.035	876.62
264.267	855.62
264.499	746.62
264.732	686.62
264.964	691.62
265.197	694.62
265.429	765.62
265.661	806.62
265.894	840.62
266.126	885.62
266.358	999.62
266.591	1245.62
266.823	1480.62
267.055	1407.62
267.287	1208.62
267.52	1260.62
267.752	1300.62
267.984	1462.62
268.216	1325.62
268.448	1101.62
268.681	1084.62
268.913	1182.62
269.145	1236.62
269.377	1300.62
269.609	1259.62
269.841	1208.62
270.073	1271.62
270.306	1304.62
270.538	1355.62
270.77	1374.62
271.002	1390.62
271.234	1460.62
271.466	1472.62
271.698	1423.62
271.93	1420.62
272.162	1436.62
272.394	1427.62
272.626	1372.62
272.858	1431.62
273.09	1484.62
273.322	1294.62
273.553	1231.62
273.785	1464.62
274.017	1962.62
274.249	2394.62
274.481	2444.62
274.713	2742.62
274.945	3070.62
275.176	3210.62
275.408	2857.62
275.64	2557.62
275.872	2588.62
276.104	2147.62
276.335	1886.62
276.567	1887.62
276.799	1938.62
277.031	2057.62
277.262	1551.62
277.494	1230.62
277.726	1164.62
277.957	1284.62
278.189	1458.62
278.421	1410.62
278.652	1420.62
278.884	1337.62
279.115	1245.62
279.347	1154.62
279.579	1172.62
279.81	1174.62
280.042	1199.62
280.273	1198.62
280.505	1081.62
280.736	980.62
280.968	984.62
281.199	1097.62
281.431	1206.62
281.662	1160.62
281.894	1153.62
282.125	1212.62
282.356	1335.62
282.588	1348.62
282.819	1228.62
283.051	1328.62
283.282	1671.62
283.513	1934.62
283.745	2119.62
283.976	2118.62
284.207	1947.62
284.439	2066.62
284.67	1962.62
284.901	1767.62
285.132	1890.62
285.364	1988.62
285.595	1857.62
285.826	1924.62
286.057	1994.62
286.288	1942.62
286.52	1987.62
286.751	2051.62
286.982	2028.62
287.213	1794.62
287.444	1723.62
287.675	1820.62
287.906	1803.62
288.138	1527.62
288.369	1331.62
288.6	1262.62
288.831	1316.62
289.062	1502.62
289.293	1669.62
289.524	1576.62
289.755	1591.62
289.986	1580.62
290.217	1431.62
290.448	1090.62
290.679	933.62
290.91	898.62
291.141	934.62
291.371	938.62
291.602	956.62
291.833	972.62
292.064	1021.62
292.295	1172.62
292.526	1372.62
292.757	1395.62
292.987	1522.62
293.218	1536.62
293.449	1567.62
293.68	1646.62
293.91	1586.62
294.141	1620.62
294.372	1476.62
294.603	1395.62
294.833	1493.62
295.064	1816.62
295.295	1698.62
295.525	1292.62
295.756	1133.62
295.987	975.62
296.217	974.62
296.448	1026.62
296.679	1060.62
296.909	1198.62
297.14	1300.62
297.37	1416.62
297.601	1321.62
297.831	1125.62
298.062	1239.62
298.292	1411.62
298.523	1530.62
298.753	1754.62
298.984	1539.62
299.214	1278.62
299.445	1062.62
299.675	1031.62
299.905	1022.62
300.136	1031.62
300.366	1180.62
300.597	1103.62
300.827	1031.62
301.057	956.62
301.288	1029.62
301.518	1046.62
301.748	1204.62
301.979	1280.62
302.209	1398.62
302.439	1390.62
302.669	1181.62
302.9	1208.62
303.13	1122.62
303.36	1064.62
303.59	1012.62
303.82	1067.62
304.051	1207.62
304.281	1282.62
304.511	1288.62
304.741	1120.62
304.971	1165.62
305.201	1264.62
305.431	1198.62
305.661	1048.62
305.891	1046.62
306.121	1047.62
306.352	958.62
306.582	876.62
306.812	806.62
307.042	852.62
307.272	776.62
307.502	768.62
307.731	846.62
307.961	882.62
308.191	867.62
308.421	772.62
308.651	790.62
308.881	756.62
309.111	746.62
309.341	824.62
309.571	862.62
309.8	891.62
310.03	911.62
310.26	948.62
310.49	954.62
310.72	838.62
310.949	832.62
311.179	875.62
311.409	933.62
311.639	1094.62
311.868	1395.62
312.098	1724.62
312.328	1876.62
312.557	1783.62
312.787	1850.62
313.017	1654.62
313.246	1788.62
313.476	1930.62
313.706	1569.62
313.935	1255.62
314.165	1046.62
314.394	950.62
314.624	920.62
314.853	978.62
315.083	1020.62
315.312	980.62
315.542	997.62
315.771	926.62
316.001	847.62
316.23	810.62
316.46	837.62
316.689	834.62
316.919	863.62
317.148	875.62
317.377	861.62
317.607	871.62
317.836	935.62
318.065	1096.62
318.295	1210.62
318.524	1097.62
318.753	972.62
318.983	887.62
319.212	911.62
319.441	967.62
319.67	1085.62
319.9	1177.62
320.129	1124.62
320.358	952.62
320.587	909.62
320.816	982.62
321.046	1170.62
321.275	1258.62
321.504	1298.62
321.733	1229.62
321.962	1178.62
322.191	1129.62
322.42	1079.62
322.649	1111.62
322.878	1183.62
323.108	1172.62
323.337	1104.62
323.566	1029.62
323.795	1022.62
324.024	1006.62
324.253	931.62
324.482	936.62
324.71	1052.62
324.939	1152.62
325.168	1092.62
325.397	900.62
325.626	915.62
325.855	899.62
326.084	920.62
326.313	874.62
326.542	830.62
326.77	854.62
326.999	894.62
327.228	941.62
327.457	974.62
327.686	981.62
327.914	838.62
328.143	826.62
328.372	810.62
328.6	827.62
328.829	866.62
329.058	869.62
329.287	878.62
329.515	879.62
329.744	867.62
329.972	822.62
330.201	780.62
330.43	782.62
330.658	904.62
330.887	1055.62
331.115	1018.62
331.344	974.62
331.572	944.62
331.801	874.62
332.03	832.62
332.258	854.62
332.486	951.62
332.715	948.62
332.943	883.62
333.172	899.62
333.4	894.62
333.629	988.62
333.857	1115.62
334.085	1093.62
334.314	1061.62
334.542	991.62
334.771	955.62
334.999	920.62
335.227	883.62
335.455	921.62
335.684	1011.62
335.912	1168.62
336.14	1304.62
336.369	1213.62
336.597	1178.62
336.825	1330.62
337.053	1506.62
337.281	1202.62
337.51	984.62
337.738	912.62
337.966	1030.62
338.194	1166.62
338.422	1072.62
338.65	940.62
338.878	854.62
339.106	902.62
339.334	967.62
339.562	1037.62
339.79	992.62
340.018	978.62
340.246	1040.62
340.474	1141.62
340.702	1233.62
340.93	1286.62
341.158	1283.62
341.386	1079.62
341.614	1064.62
341.842	1102.62
342.07	1115.62
342.298	1282.62
342.526	1337.62
342.754	1125.62
342.981	1080.62
343.209	1045.62
343.437	1109.62
343.665	1164.62
343.893	1184.62
344.12	1334.62
344.348	1563.62
344.576	1370.62
344.804	1150.62
345.031	1015.62
345.259	976.62
345.487	950.62
345.714	1018.62
345.942	1072.62
346.17	1182.62
346.397	1078.62
346.625	987.62
346.853	932.62
347.08	894.62
347.308	966.62
347.535	1102.62
347.763	1119.62
347.99	984.62
348.218	888.62
348.445	920.62
348.673	933.62
348.9	957.62
349.128	1042.62
349.355	1070.62
349.583	1049.62
349.81	967.62
350.037	908.62
350.265	797.62
350.492	795.62
350.72	782.62
350.947	792.62
351.174	835.62
351.402	903.62
351.629	951.62
351.856	939.62
352.083	842.62
352.311	928.62
352.538	1038.62
352.765	1095.62
352.992	990.62
353.22	922.62
353.447	958.62
353.674	922.62
353.901	931.62
354.128	950.62
354.355	926.62
354.583	946.62
354.81	925.62
355.037	986.62
355.264	957.62
355.491	1044.62
355.718	1135.62
355.945	1084.62
356.172	1073.62
356.399	1080.62
356.626	1294.62
356.853	1550.62
357.08	1679.62
357.307	1661.62
357.534	1290.62
357.761	1338.62
357.988	1698.62
358.215	1978.62
358.441	1864.62
358.668	1576.62
358.895	1422.62
359.122	1188.62
359.349	1174.62
359.576	1253.62
359.802	1042.62
360.029	919.62
360.256	1008.62
360.483	1242.62
360.709	1512.62
360.936	1556.62
361.163	1391.62
361.39	1087.62
361.616	1043.62
361.843	1161.62
362.07	1456.62
362.296	1320.62
362.523	1028.62
362.749	883.62
362.976	960.62
363.203	1174.62
363.429	1237.62
363.656	1039.62
363.882	939.62
364.109	969.62
364.335	962.62
364.562	974.62
364.788	1076.62
365.015	1260.62
365.241	1126.62
365.468	922.62
365.694	846.62
365.92	796.62
366.147	739.62
366.373	764.62
366.599	774.62
366.826	787.62
367.052	804.62
367.278	818.62
367.505	793.62
367.731	858.62
367.957	979.62
368.184	1022.62
368.41	999.62
368.636	995.62
368.862	1020.62
369.089	956.62
369.315	887.62
369.541	857.62
369.767	864.62
369.993	836.62
370.219	819.62
370.445	902.62
370.672	988.62
370.898	1045.62
371.124	1042.62
371.35	916.62
371.576	878.62
371.802	946.62
372.028	1107.62
372.254	1289.62
372.48	1078.62
372.706	979.62
372.932	1060.62
373.158	1125.62
373.384	1336.62
373.61	1762.62
373.835	1808.62
374.061	1309.62
374.287	1151.62
374.513	1360.62
374.739	1590.62
374.965	1642.62
375.191	1603.62
375.416	1138.62
375.642	971.62
375.868	1181.62
376.094	1328.62
376.319	1132.62
376.545	1250.62
376.771	1314.62
376.997	1111.62
377.222	824.62
377.448	743.62
377.674	732.62
377.899	742.62
378.125	758.62
378.35	745.62
378.576	761.62
378.802	821.62
379.027	895.62
379.253	850.62
379.478	892.62
379.704	1002.62
379.929	1057.62
380.155	1059.62
380.38	963.62
380.606	970.62
380.831	1100.62
381.057	995.62
381.282	948.62
381.507	1160.62
381.733	1382.62
381.958	1429.62
382.184	1548.62
382.409	1601.62
382.634	1611.62
382.86	1669.62
383.085	1378.62
383.31	1100.62
383.535	1194.62
383.761	1198.62
383.986	1098.62
384.211	1379.62
384.436	1307.62
384.662	1001.62
384.887	990.62
385.112	1003.62
385.337	989.62
385.562	966.62
385.787	1060.62
386.013	1168.62
386.238	1223.62
386.463	983.62
386.688	963.62
386.913	919.62
387.138	856.62
387.363	924.62
387.588	953.62
387.813	953.62
388.038	1043.62
388.263	950.62
388.488	926.62
388.713	1072.62
388.938	1164.62
389.163	1004.62
389.387	881.62
389.612	879.62
389.837	934.62
390.062	914.62
390.287	961.62
390.512	980.62
390.736	911.62
390.961	851.62
391.186	816.62
391.411	823.62
391.636	821.62
391.86	923.62
392.085	981.62
392.31	974.62
392.534	916.62
392.759	930.62
392.984	936.62
393.208	908.62
393.433	835.62
393.658	794.62
393.882	770.62
394.107	747.62
394.331	790.62
394.556	772.62
394.78	787.62
395.005	814.62
395.229	858.62
395.454	838.62
395.678	885.62
395.903	882.62
396.127	852.62
396.352	855.62
396.576	954.62
396.801	959.62
397.025	1106.62
397.249	1114.62
397.474	910.62
397.698	898.62
397.922	936.62
398.147	883.62
398.371	905.62
398.595	930.62
398.82	913.62
399.044	898.62
399.268	987.62
399.492	1020.62
399.717	1075.62
399.941	1076.62
400.165	1015.62
400.389	1015.62
400.613	1036.62
400.837	1000.62
401.062	899.62
401.286	886.62
401.51	902.62
401.734	884.62
401.958	871.62
402.182	888.62
402.406	876.62
402.63	891.62
402.854	946.62
403.078	1053.62
403.302	1262.62
403.526	1311.62
403.75	1159.62
403.974	1024.62
404.198	1083.62
404.422	1209.62
404.645	1423.62
404.869	1544.62
405.093	1157.62
405.317	952.62
405.541	958.62
405.765	989.62
405.988	998.62
406.212	1058.62
406.436	1264.62
406.66	1392.62
406.883	1081.62
407.107	1139.62
407.331	1334.62
407.555	1237.62
407.778	1045.62
408.002	1053.62
408.226	1023.62
408.449	1010.62
408.673	1008.62
408.896	948.62
409.12	905.62
409.344	892.62
409.567	886.62
409.791	907.62
410.014	870.62
410.238	842.62
410.461	857.62
410.685	882.62
410.908	886.62
411.132	903.62
411.355	908.62
411.578	941.62
411.802	939.62
412.025	959.62
412.249	959.62
412.472	942.62
412.695	917.62
412.919	940.62
413.142	952.62
413.365	1028.62
413.589	1030.62
413.812	912.62
414.035	892.62
414.258	899.62
414.482	1028.62
414.705	1048.62
414.928	895.62
415.151	860.62
415.374	864.62
415.597	896.62
415.821	892.62
416.044	887.62
416.267	847.62
416.49	848.62
416.713	842.62
416.936	847.62
417.159	862.62
417.382	864.62
417.605	869.62
417.828	900.62
418.051	896.62
418.274	926.62
418.497	949.62
418.72	912.62
418.943	935.62
419.166	949.62
419.389	986.62
419.611	968.62
419.834	1019.62
420.057	1092.62
420.28	1091.62
420.503	1007.62
420.726	902.62
420.948	897.62
421.171	868.62
421.394	846.62
421.617	820.62
421.839	887.62
422.062	924.62
422.285	911.62
422.507	921.62
422.73	933.62
422.953	954.62
423.175	932.62
423.398	930.62
423.621	1005.62
423.843	1005.62
424.066	959.62
424.288	915.62
424.511	894.62
424.733	910.62
424.956	925.62
425.178	1040.62
425.401	1188.62
425.623	1335.62
425.846	1140.62
426.068	978.62
426.291	1127.62
426.513	1007.62
426.735	921.62
426.958	971.62
427.18	1103.62
427.402	1460.62
427.625	1383.62
427.847	1187.62
428.069	912.62
428.292	878.62
428.514	892.62
428.736	847.62
428.958	942.62
429.181	1104.62
429.403	947.62
429.625	876.62
429.847	834.62
430.069	842.62
430.292	881.62
430.514	853.62
430.736	957.62
430.958	1162.62
431.18	1084.62
431.402	844.62
431.624	830.62
431.846	794.62
432.068	795.62
432.29	801.62
432.512	884.62
432.734	1194.62
432.956	1100.62
433.178	869.62
433.4	837.62
433.622	849.62
433.844	880.62
434.066	924.62
434.287	898.62
434.509	870.62
434.731	914.62
434.953	848.62
435.175	903.62
435.397	996.62
435.618	869.62
435.84	836.62
436.062	815.62
436.284	839.62
436.505	796.62
436.727	775.62
436.949	778.62
437.17	822.62
437.392	840.62
437.614	806.62
437.835	811.62
438.057	823.62
438.278	965.62
438.5	1332.62
438.721	1359.62
438.943	938.62
439.165	791.62
439.386	773.62
439.608	817.62
439.829	775.62
440.05	779.62
440.272	853.62
440.493	974.62
440.715	1184.62
440.936	967.62
441.158	854.62
441.379	834.62
441.6	982.62
441.822	1009.62
442.043	874.62
442.264	860.62
442.486	856.62
442.707	839.62
442.928	853.62
443.149	882.62
443.371	873.62
443.592	900.62
443.813	900.62
444.034	897.62
444.255	887.62
444.476	910.62
444.698	904.62
444.919	887.62
445.14	1030.62
445.361	995.62
445.582	940.62
445.803	924.62
446.024	912.62
446.245	894.62
446.466	882.62
446.687	856.62
446.908	883.62
447.129	797.62
447.35	813.62
447.571	777.62
447.792	806.62
448.013	809.62
448.234	756.62
448.455	756.62
448.675	784.62
448.896	806.62
449.117	779.62
449.338	832.62
449.559	823.62
449.779	839.62
450	843.62
450.221	834.62
450.442	822.62
450.662	787.62
450.883	812.62
451.104	795.62
451.324	772.62
451.545	817.62
451.766	799.62
451.986	762.62
452.207	754.62
452.428	744.62
452.648	753.62
452.869	790.62
453.089	829.62
453.31	835.62
453.53	741.62
453.751	746.62
453.971	730.62
454.192	742.62
454.412	776.62
454.633	735.62
454.853	742.62
455.073	702.62
455.294	720.62
455.514	727.62
455.734	755.62
455.955	802.62
456.175	806.62
456.395	721.62
456.616	708.62
456.836	696.62
457.056	706.62
457.276	684.62
457.497	715.62
457.717	705.62
457.937	726.62
458.157	709.62
458.377	717.62
458.598	737.62
458.818	753.62
459.038	820.62
459.258	831.62
459.478	826.62
459.698	886.62
459.918	886.62
460.138	866.62
460.358	871.62
460.578	850.62
460.798	868.62
461.018	879.62
461.238	848.62
461.458	848.62
461.678	870.62
461.898	918.62
462.118	917.62
462.338	902.62
462.558	954.62
462.777	972.62
462.997	997.62
463.217	999.62
463.437	1035.62
463.657	992.62
463.876	949.62
464.096	955.62
464.316	944.62
464.536	974.62
464.755	987.62
464.975	977.62
465.195	945.62
465.414	995.62
465.634	960.62
465.854	936.62
466.073	863.62
466.293	841.62
466.512	924.62
466.732	999.62
466.951	1024.62
467.171	947.62
467.391	883.62
467.61	868.62
467.829	924.62
468.049	924.62
468.268	895.62
468.488	875.62
468.707	891.62
468.927	1063.62
469.146	1146.62
469.365	999.62
469.585	944.62
469.804	1003.62
470.023	1074.62
470.243	965.62
470.462	895.62
470.681	890.62
470.901	906.62
471.12	965.62
471.339	926.62
471.558	894.62
471.777	899.62
471.997	966.62
472.216	1122.62
472.435	1055.62
472.654	967.62
472.873	920.62
473.092	964.62
473.311	1046.62
473.53	934.62
473.749	905.62
473.968	979.62
474.187	976.62
474.406	941.62
474.625	926.62
474.844	933.62
475.063	995.62
475.282	997.62
475.501	1026.62
475.72	1106.62
475.939	1063.62
476.158	1046.62
476.377	1195.62
476.596	1418.62
476.814	1473.62
477.033	1231.62
477.252	1022.62
477.471	972.62
477.69	984.62
477.908	1078.62
478.127	1095.62
478.346	1046.62
478.564	1103.62
478.783	1083.62
479.002	1115.62
479.22	1261.62
479.439	1386.62
479.658	1197.62
479.876	1112.62
480.095	1180.62
480.313	1214.62
480.532	1113.62
480.751	1069.62
480.969	1100.62
481.188	1228.62
481.406	1253.62
481.624	1240.62
481.843	1093.62
482.061	1079.62
482.28	1202.62
482.498	1402.62
482.717	1379.62
482.935	1185.62
483.153	1111.62
483.372	1055.62
483.59	1069.62
483.808	1023.62
484.027	994.62
484.245	1002.62
484.463	979.62
484.681	1002.62
484.9	1117.62
485.118	1148.62
485.336	1084.62
485.554	1011.62
485.772	1069.62
485.99	1156.62
486.209	1231.62
486.427	1200.62
486.645	1183.62
486.863	1210.62
487.081	1191.62
487.299	1299.62
487.517	1282.62
487.735	1183.62
487.953	1224.62
488.171	1253.62
488.389	1174.62
488.607	1099.62
488.825	1150.62
489.043	1210.62
489.261	1409.62
489.479	1518.62
489.696	1274.62
489.914	1184.62
490.132	1074.62
490.35	1109.62
490.568	1092.62
490.786	1087.62
491.003	1109.62
491.221	1149.62
491.439	1104.62
491.657	1139.62
491.874	1194.62
492.092	1495.62
492.31	1710.62
492.527	1748.62
492.745	1510.62
492.963	1280.62
493.18	1281.62
493.398	1280.62
493.615	1270.62
493.833	1249.62
494.05	1252.62
494.268	1241.62
494.485	1232.62
494.703	1162.62
494.92	1210.62
495.138	1184.62
495.355	1182.62
495.573	1213.62
495.79	1375.62
496.008	1734.62
496.225	1527.62
496.442	1332.62
496.66	1320.62
496.877	1429.62
497.094	1354.62
497.312	1306.62
497.529	1308.62
497.746	1314.62
497.963	1368.62
498.181	1484.62
498.398	1562.62
498.615	1614.62
498.832	1644.62
499.049	1693.62
499.267	1532.62
499.484	1507.62
499.701	1602.62
499.918	1744.62
500.135	1822.62
500.352	1845.62
500.569	1929.62
500.786	1998.62
501.003	1997.62
501.22	1800.62
501.437	1701.62
501.654	1631.62
501.871	1604.62
502.088	1598.62
502.305	1477.62
502.522	1528.62
502.739	1460.62
502.956	1353.62
503.172	1356.62
503.389	1301.62
503.606	1264.62
503.823	1296.62
504.04	1315.62
504.256	1276.62
504.473	1317.62
504.69	1356.62
504.907	1360.62
505.123	1343.62
505.34	1427.62
505.557	1373.62
505.773	1335.62
505.99	1267.62
506.207	1341.62
506.423	1247.62
506.64	1188.62
506.856	1246.62
507.073	1364.62
507.289	1357.62
507.506	1317.62
507.722	1388.62
507.939	1408.62
508.155	1444.62
508.372	1281.62
508.588	1240.62
508.805	1241.62
509.021	1204.62
509.238	1184.62
509.454	1186.62
509.67	1170.62
509.887	1152.62
510.103	1310.62
510.319	1307.62
510.536	1146.62
510.752	1078.62
510.968	1046.62
511.184	1020.62
511.401	1043.62
511.617	1002.62
511.833	1050.62
512.049	1045.62
512.265	1078.62
512.481	1120.62
512.698	1218.62
512.914	1347.62
513.13	1221.62
513.346	1119.62
513.562	1142.62
513.778	1158.62
513.994	1119.62
514.21	1235.62
514.426	1190.62
514.642	1148.62
514.858	1119.62
515.074	1182.62
515.29	1240.62
515.506	1414.62
515.721	1318.62
515.937	1222.62
516.153	1152.62
516.369	1143.62
516.585	1199.62
516.801	1381.62
517.016	1576.62
517.232	1540.62
517.448	1491.62
517.664	1353.62
517.879	1272.62
518.095	1248.62
518.311	1220.62
518.527	1299.62
518.742	1369.62
518.958	1467.62
519.173	1346.62
519.389	1338.62
519.605	1386.62
519.82	1466.62
520.036	1697.62
520.251	1667.62
520.467	1565.62
520.682	2285.62
520.898	2794.62
521.113	2638.62
521.329	1681.62
521.544	1492.62
521.76	1476.62
521.975	1323.62
522.19	1284.62
522.406	1294.62
522.621	1434.62
522.836	1471.62
523.052	1509.62
523.267	1261.62
523.482	1265.62
523.698	1365.62
523.913	1299.62
524.128	1183.62
524.343	1136.62
524.559	1204.62
524.774	1132.62
524.989	1154.62
525.204	1159.62
525.419	1306.62
525.634	1187.62
525.849	1223.62
526.064	1224.62
526.28	1271.62
526.495	1471.62
526.71	1482.62
526.925	1313.62
527.14	1376.62
527.355	1326.62
527.57	1110.62
527.785	1165.62
527.999	1119.62
528.214	1070.62
528.429	1084.62
528.644	1056.62
528.859	1003.62
529.074	979.62
529.289	970.62
529.503	975.62
529.718	1018.62
529.933	1130.62
530.148	1194.62
530.363	1047.62
530.577	986.62
530.792	1003.62
531.007	996.62
531.221	956.62
531.436	966.62
531.651	964.62
531.865	985.62
532.08	1018.62
532.295	986.62
532.509	1019.62
532.724	1167.62
532.938	1259.62
533.153	1442.62
533.367	1204.62
533.582	1169.62
533.796	1076.62
534.011	1056.62
534.225	1023.62
534.44	1047.62
534.654	1070.62
534.868	1224.62
535.083	1073.62
535.297	1008.62
535.511	988.62
535.726	1127.62
535.94	1039.62
536.154	1000.62
536.369	961.62
536.583	978.62
536.797	1015.62
537.011	1015.62
537.225	1108.62
537.44	1162.62
537.654	1011.62
537.868	998.62
538.082	1002.62
538.296	973.62
538.51	1074.62
538.724	1066.62
538.938	1028.62
539.153	945.62
539.367	963.62
539.581	987.62
539.795	1023.62
540.009	1168.62
540.222	1029.62
540.436	1046.62
540.65	1122.62
540.864	1131.62
541.078	1182.62
541.292	1336.62
541.506	1060.62
541.72	1049.62
541.934	1004.62
542.147	1042.62
542.361	1041.62
542.575	1063.62
542.789	1003.62
543.002	952.62
543.216	1044.62
543.43	920.62
543.644	930.62
543.857	937.62
544.071	932.62
544.285	897.62
544.498	884.62
544.712	904.62
544.925	990.62
545.139	954.62
545.352	875.62
545.566	894.62
545.779	1028.62
545.993	946.62
546.206	883.62
546.42	894.62
546.633	887.62
546.847	855.62
547.06	835.62
547.274	861.62
547.487	837.62
547.7	938.62
547.914	958.62
548.127	1097.62
548.34	1057.62
548.554	926.62
548.767	972.62
548.98	1059.62
549.193	968.62
549.407	983.62
549.62	1158.62
549.833	1103.62
550.046	1140.62
550.259	1171.62
550.473	1036.62
550.686	940.62
550.899	1014.62
551.112	1002.62
551.325	1045.62
551.538	1088.62
551.751	931.62
551.964	884.62
552.177	882.62
552.39	879.62
552.603	890.62
552.816	916.62
553.029	887.62
553.242	847.62
553.455	922.62
553.667	991.62
553.88	979.62
554.093	887.62
554.306	835.62
554.519	800.62
554.732	782.62
554.944	767.62
555.157	779.62
555.37	782.62
555.583	771.62
555.795	770.62
556.008	792.62
556.221	786.62
556.433	790.62
556.646	739.62
556.859	786.62
557.071	798.62
557.284	803.62
557.496	799.62
557.709	781.62
557.921	786.62
558.134	730.62
558.346	705.62
558.559	714.62
558.771	757.62
558.984	799.62
559.196	790.62
559.409	746.62
559.621	697.62
559.833	742.62
560.046	717.62
560.258	715.62
560.47	726.62
560.683	688.62
560.895	675.62
561.107	643.62
561.32	644.62
561.532	658.62
561.744	749.62
561.956	796.62
562.168	720.62
562.381	715.62
562.593	707.62
562.805	722.62
563.017	654.62
563.229	663.62
563.441	642.62
563.653	676.62
563.865	669.62
564.077	693.62
564.289	652.62
564.501	677.62
564.713	762.62
564.925	712.62
565.137	677.62
565.349	683.62
565.561	706.62
565.773	699.62
565.985	723.62
566.197	783.62
566.408	823.62
566.62	836.62
566.832	822.62
567.044	838.62
567.255	887.62
567.467	955.62
567.679	880.62
567.891	878.62
568.102	903.62
568.314	896.62
568.526	834.62
568.737	832.62
568.949	861.62
569.161	796.62
569.372	686.62
569.584	683.62
569.795	658.62
570.007	689.62
570.218	743.62
570.43	701.62
570.641	691.62
570.853	627.62
571.064	644.62
571.276	667.62
571.487	704.62
571.698	673.62
571.91	656.62
572.121	674.62
572.333	624.62
572.544	618.62
572.755	631.62
572.966	600.62
573.178	597.62
573.389	626.62
573.6	638.62
573.811	632.62
574.023	599.62
574.234	591.62
574.445	605.62
574.656	574.62
574.867	586.62
575.078	561.62
575.289	575.62
575.501	632.62
575.712	590.62
575.923	554.62
576.134	530.62
576.345	549.62
576.556	552.62
576.767	544.62
576.978	518.62
577.188	517.62
577.399	504.62
577.61	526.62
577.821	493.62
578.032	551.62
578.243	552.62
578.454	554.62
578.665	576.62
578.875	552.62
579.086	559.62
579.297	553.62
579.508	563.62
579.718	536.62
579.929	539.62
580.14	514.62
580.35	486.62
580.561	474.62
580.772	490.62
580.982	482.62
581.193	474.62
581.403	470.62
581.614	439.62
581.825	469.62
582.035	474.62
582.246	451.62
582.456	476.62
582.667	467.62
582.877	455.62
583.087	481.62
583.298	476.62
583.508	444.62
583.719	446.62
583.929	451.62
584.139	453.62
584.35	448.62
584.56	476.62
584.77	479.62
584.981	458.62
585.191	461.62
585.401	432.62
585.611	454.62
585.821	490.62
586.032	487.62
586.242	453.62
586.452	476.62
586.662	471.62
586.872	482.62
587.082	479.62
587.292	448.62
587.502	446.62
587.713	442.62
587.923	462.62
588.133	469.62
588.343	456.62
588.553	456.62
588.762	449.62
588.972	454.62
589.182	429.62
589.392	466.62
589.602	450.62
589.812	470.62
590.022	506.62
590.232	479.62
590.441	455.62
590.651	449.62
590.861	443.62
591.071	453.62
591.281	448.62
591.49	438.62
591.7	447.62
591.91	429.62
592.119	451.62
592.329	456.62
592.539	461.62
592.748	467.62
592.958	435.62
593.167	471.62
593.377	459.62
593.587	462.62
593.796	485.62
594.006	464.62
594.215	467.62
594.424	474.62
594.634	494.62
594.843	500.62
595.053	453.62
595.262	430.62
595.472	430.62
595.681	437.62
595.89	416.62
596.1	450.62
596.309	457.62
596.518	436.62
596.727	401.62
596.937	400.62
597.146	419.62
597.355	438.62
597.564	444.62
597.774	396.62
597.983	414.62
598.192	394.62
598.401	400.62
598.61	379.62
598.819	388.62
599.028	382.62
599.237	386.62
599.446	373.62
599.655	359.62
599.864	351.62
600.073	359.62
600.282	366.62
600.491	376.62
600.7	377.62
600.909	372.62
601.118	389.62
601.327	366.62
601.536	374.62
601.745	371.62
601.953	384.62
602.162	374.62
602.371	391.62
602.58	404.62
602.789	382.62
602.997	384.62
603.206	367.62
603.415	352.62
603.623	372.62
603.832	366.62
604.041	349.62
604.249	367.62
604.458	378.62
604.666	360.62
604.875	339.62
605.084	346.62
605.292	346.62
605.501	353.62
605.709	351.62
605.918	341.62
606.126	335.62
606.334	355.62
606.543	340.62
606.751	339.62
606.96	357.62
607.168	341.62
607.376	347.62
607.585	323.62
607.793	352.62
608.001	355.62
608.21	332.62
608.418	349.62
608.626	346.62
608.834	329.62
609.043	349.62
609.251	346.62
609.459	331.62
609.667	333.62
609.875	357.62
610.083	318.62
610.291	371.62
610.499	358.62
610.707	314.62
610.916	331.62
611.124	328.62
611.332	326.62
611.54	341.62
611.748	348.62
611.955	333.62
612.163	332.62
612.371	320.62
612.579	325.62
612.787	343.62
612.995	322.62
613.203	341.62
613.411	318.62
613.618	325.62
613.826	344.62
614.034	362.62
614.242	324.62
614.449	328.62
614.657	325.62
614.865	297.62
615.072	317.62
615.28	311.62
615.488	337.62
615.695	330.62
615.903	318.62
616.111	316.62
616.318	317.62
616.526	295.62
616.733	315.62
616.941	334.62
617.148	322.62
617.356	312.62
617.563	310.62
617.771	313.62
617.978	310.62
618.185	320.62
618.393	288.62
618.6	327.62
618.807	310.62
619.015	302.62
619.222	319.62
619.429	321.62
619.637	292.62
619.844	292.62
620.051	287.62
620.258	292.62
620.466	303.62
620.673	288.62
620.88	290.62
621.087	281.62
621.294	268.62
621.501	272.62
621.708	304.62
621.915	280.62
622.122	293.62
622.329	289.62
622.536	277.62
622.743	279.62
622.95	280.62
623.157	288.62
623.364	293.62
623.571	304.62
623.778	282.62
623.985	315.62
624.192	305.62
624.399	304.62
624.606	287.62
624.812	282.62
625.019	295.62
625.226	307.62
625.433	306.62
625.639	282.62
625.846	278.62
626.053	278.62
626.259	280.62
626.466	285.62
626.673	281.62
626.879	271.62
627.086	273.62
627.293	287.62
627.499	259.62
627.706	281.62
627.912	254.62
628.119	243.62
628.325	258.62
628.532	235.62
628.738	260.62
628.945	260.62
629.151	242.62
629.357	277.62
629.564	262.62
629.77	256.62
629.976	257.62
630.183	266.62
630.389	256.62
630.595	262.62
630.802	244.62
631.008	238.62
631.214	244.62
631.42	256.62
631.627	254.62
631.833	236.62
632.039	254.62
632.245	254.62
632.451	245.62
632.657	239.62
632.863	248.62
633.069	253.62
633.275	235.62
633.481	243.62
633.688	252.62
633.893	243.62
634.099	250.62
634.305	238.62
634.511	231.62
634.717	225.62
634.923	228.62
635.129	235.62
635.335	228.62
635.541	226.62
635.747	243.62
635.952	214.62
636.158	225.62
636.364	225.62
636.57	224.62
636.775	215.62
636.981	223.62
637.187	228.62
637.392	225.62
637.598	235.62
637.804	238.62
638.009	217.62
638.215	222.62
638.421	217.62
638.626	222.62
638.832	229.62
639.037	207.62
639.243	216.62
639.448	213.62
639.654	221.62
639.859	227.62
640.065	238.62
640.27	239.62
640.475	220.62
640.681	228.62
640.886	197.62
641.091	220.62
641.297	230.62
641.502	224.62
641.707	207.62
641.913	207.62
642.118	218.62
642.323	216.62
642.528	238.62
642.733	203.62
642.939	204.62
643.144	208.62
643.349	220.62
643.554	204.62
643.759	199.62
643.964	207.62
644.169	207.62
644.374	191.62
644.579	197.62
644.784	200.62
644.989	202.62
645.194	214.62
645.399	198.62
645.604	200.62
645.809	207.62
646.014	205.62
646.219	204.62
646.423	208.62
646.628	205.62
646.833	197.62
647.038	202.62
647.243	194.62
647.447	202.62
647.652	218.62
647.857	209.62
648.062	221.62
648.266	202.62
648.471	203.62
648.676	208.62
648.88	190.62
649.085	195.62
649.289	198.62
649.494	203.62
649.698	197.62
649.903	214.62
650.107	205.62
650.312	202.62
650.516	186.62
650.721	184.62
650.925	188.62
651.13	207.62
651.334	183.62
651.539	184.62
651.743	173.62
651.947	174.62
652.152	160.62
652.356	173.62
652.56	166.62
652.764	160.62
652.969	183.62
653.173	166.62
653.377	142.62
653.581	175.62
653.785	169.62
653.99	160.62
654.194	159.62
654.398	150.62
654.602	145.62
654.806	169.62
655.01	165.62
655.214	150.62
655.418	142.62
655.622	154.62
655.826	155.62
656.03	150.62
656.234	148.62
656.438	158.62
656.642	162.62
656.846	170.62
657.049	159.62
657.253	140.62
657.457	142.62
657.661	133.62
657.865	128.62
658.068	122.62
658.272	113.62
658.476	116.62
658.68	112.62
658.883	115.62
659.087	112.62
659.291	113.62
659.494	109.62
659.698	115.62
659.901	101.62
660.105	106.62
660.309	106.62
660.512	107.62
660.716	102.62
660.919	106.62
661.123	90.62
661.326	85.62
661.53	88.62
661.733	91.62
661.936	92.62
662.14	69.62
662.343	85.62
662.546	92.62
662.75	76.62
662.953	90.62
663.156	92.62
663.36	84.62
663.563	78.62
663.766	70.62
663.969	96.62
664.173	92.62
664.376	84.62
664.579	83.62
664.782	79.62
664.985	86.62
665.188	95.62
665.391	92.62
665.594	93.62
665.797	90.62
666	87.62
666.203	71.62
666.406	75.62
666.609	78.62
666.812	78.62
667.015	74.62
667.218	82.62
667.421	75.62
667.624	70.62
667.827	81.62
668.03	86.62
668.232	77.62
668.435	80.62
668.638	86.62
668.841	81.62
669.043	78.62
669.246	82.62
669.449	69.62
669.651	84.62
669.854	81.62
670.057	83.62
670.259	89.62
670.462	84.62
670.665	79.62
670.867	86.62
671.07	70.62
671.272	75.62
671.475	96.62
671.677	66.62
671.88	74.62
672.082	66.62
672.284	82.62
672.487	104.62
672.689	76.62
672.892	83.62
