Data from NickelSpatula.Lamp.E10.P2_HRD10591_11-59-33-525.txt Node
Date: Tue Jul 23 11:59:33 EDT 2019
User: cochatt
Spectrometer: HR+D1059
Trigger mode: 1
Integration Time (sec): 1.000000E-1
Scans to average: 1
Electric dark correction enabled: true
Nonlinearity correction enabled: false
Boxcar width: 0
XAxis mode: Wavelengths
Number of Pixels in Spectrum: 2048
>>>>>Begin Spectral Data<<<<<
223.165	-14.62
223.4	-14.62
223.635	-14.62
223.869	-21.62
224.104	-18.62
224.338	-12.62
224.573	-8.62
224.808	-14.62
225.042	-11.62
225.277	-14.62
225.511	5.38
225.746	8.38
225.98	7.38
226.215	24.38
226.449	23.38
226.683	15.38
226.918	10.38
227.152	22.38
227.387	32.38
227.621	38.38
227.856	53.38
228.09	44.38
228.324	39.38
228.559	51.38
228.793	80.38
229.027	165.38
229.262	157.38
229.496	157.38
229.73	167.38
229.964	176.38
230.199	202.38
230.433	217.38
230.667	207.38
230.901	209.38
231.136	196.38
231.37	208.38
231.604	230.38
231.838	245.38
232.072	251.38
232.306	247.38
232.541	263.38
232.775	253.38
233.009	272.38
233.243	301.38
233.477	317.38
233.711	363.38
233.945	335.38
234.179	342.38
234.413	348.38
234.647	385.38
234.881	451.38
235.115	439.38
235.349	403.38
235.583	353.38
235.817	361.38
236.051	380.38
236.285	389.38
236.519	465.38
236.753	424.38
236.987	414.38
237.221	407.38
237.455	424.38
237.689	439.38
237.922	469.38
238.156	489.38
238.39	565.38
238.624	667.38
238.858	613.38
239.091	489.38
239.325	493.38
239.559	493.38
239.793	547.38
240.027	655.38
240.26	617.38
240.494	592.38
240.728	599.38
240.961	685.38
241.195	647.38
241.429	633.38
241.662	644.38
241.896	529.38
242.13	486.38
242.363	447.38
242.597	473.38
242.83	536.38
243.064	533.38
243.298	595.38
243.531	649.38
243.765	633.38
243.998	608.38
244.232	607.38
244.465	627.38
244.699	581.38
244.932	655.38
245.166	638.38
245.399	562.38
245.633	553.38
245.866	601.38
246.099	614.38
246.333	708.38
246.566	791.38
246.8	789.38
247.033	756.38
247.266	717.38
247.5	700.38
247.733	702.38
247.966	642.38
248.2	693.38
248.433	767.38
248.666	841.38
248.899	853.38
249.133	891.38
249.366	998.38
249.599	1057.38
249.832	943.38
250.066	793.38
250.299	844.38
250.532	822.38
250.765	819.38
250.998	742.38
251.231	740.38
251.465	803.38
251.698	835.38
251.931	787.38
252.164	854.38
252.397	973.38
252.63	1050.38
252.863	1192.38
253.096	1233.38
253.329	1174.38
253.562	1119.38
253.795	1267.38
254.028	1381.38
254.261	1404.38
254.494	1263.38
254.727	1151.38
254.96	1136.38
255.193	1190.38
255.426	1150.38
255.659	849.38
255.892	785.38
256.124	884.38
256.357	1031.38
256.59	1212.38
256.823	1143.38
257.056	1003.38
257.289	929.38
257.521	976.38
257.754	1129.38
257.987	1310.38
258.22	1119.38
258.452	992.38
258.685	1141.38
258.918	1279.38
259.151	1264.38
259.383	1310.38
259.616	1461.38
259.849	1613.38
260.081	1709.38
260.314	1897.38
260.547	1505.38
260.779	1473.38
261.012	1753.38
261.244	1645.38
261.477	1650.38
261.71	1581.38
261.942	1305.38
262.175	1279.38
262.407	1214.38
262.64	1296.38
262.872	1511.38
263.105	1661.38
263.337	1741.38
263.57	1549.38
263.802	1071.38
264.035	927.38
264.267	867.38
264.499	786.38
264.732	718.38
264.964	703.38
265.197	693.38
265.429	786.38
265.661	821.38
265.894	833.38
266.126	911.38
266.358	1007.38
266.591	1249.38
266.823	1470.38
267.055	1414.38
267.287	1218.38
267.52	1241.38
267.752	1330.38
267.984	1463.38
268.216	1400.38
268.448	1117.38
268.681	1112.38
268.913	1212.38
269.145	1284.38
269.377	1272.38
269.609	1297.38
269.841	1229.38
270.073	1298.38
270.306	1366.38
270.538	1350.38
270.77	1379.38
271.002	1421.38
271.234	1489.38
271.466	1518.38
271.698	1460.38
271.93	1422.38
272.162	1473.38
272.394	1420.38
272.626	1425.38
272.858	1489.38
273.09	1519.38
273.322	1315.38
273.553	1271.38
273.785	1521.38
274.017	2020.38
274.249	2437.38
274.481	2523.38
274.713	2767.38
274.945	3150.38
275.176	3294.38
275.408	2863.38
275.64	2640.38
275.872	2632.38
276.104	2231.38
276.335	1919.38
276.567	1912.38
276.799	1972.38
277.031	2039.38
277.262	1632.38
277.494	1231.38
277.726	1216.38
277.957	1328.38
278.189	1485.38
278.421	1447.38
278.652	1450.38
278.884	1353.38
279.115	1251.38
279.347	1180.38
279.579	1209.38
279.81	1211.38
280.042	1234.38
280.273	1234.38
280.505	1115.38
280.736	1012.38
280.968	1012.38
281.199	1102.38
281.431	1235.38
281.662	1215.38
281.894	1191.38
282.125	1266.38
282.356	1363.38
282.588	1369.38
282.819	1293.38
283.051	1400.38
283.282	1683.38
283.513	1965.38
283.745	2205.38
283.976	2156.38
284.207	2046.38
284.439	2099.38
284.67	2022.38
284.901	1801.38
285.132	1939.38
285.364	2029.38
285.595	1936.38
285.826	1980.38
286.057	2002.38
286.288	1957.38
286.52	2018.38
286.751	2099.38
286.982	2121.38
287.213	1843.38
287.444	1755.38
287.675	1850.38
287.906	1838.38
288.138	1544.38
288.369	1391.38
288.6	1303.38
288.831	1337.38
289.062	1526.38
289.293	1691.38
289.524	1618.38
289.755	1598.38
289.986	1657.38
290.217	1453.38
290.448	1109.38
290.679	997.38
290.91	942.38
291.141	931.38
291.371	987.38
291.602	975.38
291.833	993.38
292.064	1074.38
292.295	1227.38
292.526	1403.38
292.757	1465.38
292.987	1581.38
293.218	1537.38
293.449	1616.38
293.68	1701.38
293.91	1599.38
294.141	1645.38
294.372	1524.38
294.603	1408.38
294.833	1591.38
295.064	1814.38
295.295	1758.38
295.525	1329.38
295.756	1157.38
295.987	1004.38
296.217	1025.38
296.448	1032.38
296.679	1094.38
296.909	1197.38
297.14	1311.38
297.37	1454.38
297.601	1380.38
297.831	1155.38
298.062	1267.38
298.292	1470.38
298.523	1557.38
298.753	1800.38
298.984	1576.38
299.214	1256.38
299.445	1091.38
299.675	1049.38
299.905	1029.38
300.136	1068.38
300.366	1228.38
300.597	1168.38
300.827	1010.38
301.057	1006.38
301.288	1031.38
301.518	1071.38
301.748	1227.38
301.979	1342.38
302.209	1494.38
302.439	1465.38
302.669	1256.38
302.9	1275.38
303.13	1139.38
303.36	1116.38
303.59	1073.38
303.82	1112.38
304.051	1261.38
304.281	1357.38
304.511	1325.38
304.741	1130.38
304.971	1184.38
305.201	1259.38
305.431	1181.38
305.661	1094.38
305.891	1085.38
306.121	1110.38
306.352	939.38
306.582	889.38
306.812	853.38
307.042	879.38
307.272	821.38
307.502	808.38
307.731	885.38
307.961	905.38
308.191	876.38
308.421	796.38
308.651	815.38
308.881	767.38
309.111	783.38
309.341	784.38
309.571	859.38
309.8	892.38
310.03	955.38
310.26	1032.38
310.49	982.38
310.72	867.38
310.949	879.38
311.179	887.38
311.409	952.38
311.639	1078.38
311.868	1383.38
312.098	1805.38
312.328	1939.38
312.557	1861.38
312.787	1901.38
313.017	1664.38
313.246	1848.38
313.476	2006.38
313.706	1657.38
313.935	1285.38
314.165	1019.38
314.394	959.38
314.624	991.38
314.853	1017.38
315.083	1065.38
315.312	1034.38
315.542	1037.38
315.771	957.38
316.001	878.38
316.23	841.38
316.46	848.38
316.689	863.38
316.919	868.38
317.148	878.38
317.377	856.38
317.607	887.38
317.836	969.38
318.065	1075.38
318.295	1237.38
318.524	1159.38
318.753	995.38
318.983	915.38
319.212	930.38
319.441	1014.38
319.67	1129.38
319.9	1207.38
320.129	1135.38
320.358	991.38
320.587	949.38
320.816	1033.38
321.046	1161.38
321.275	1330.38
321.504	1350.38
321.733	1277.38
321.962	1205.38
322.191	1205.38
322.42	1143.38
322.649	1135.38
322.878	1239.38
323.108	1244.38
323.337	1097.38
323.566	1078.38
323.795	1051.38
324.024	1047.38
324.253	1016.38
324.482	984.38
324.71	1102.38
324.939	1216.38
325.168	1154.38
325.397	953.38
325.626	939.38
325.855	912.38
326.084	931.38
326.313	872.38
326.542	847.38
326.77	891.38
326.999	923.38
327.228	995.38
327.457	997.38
327.686	990.38
327.914	899.38
328.143	812.38
328.372	823.38
328.6	850.38
328.829	873.38
329.058	900.38
329.287	883.38
329.515	902.38
329.744	879.38
329.972	820.38
330.201	785.38
330.43	840.38
330.658	963.38
330.887	1100.38
331.115	1029.38
331.344	991.38
331.572	996.38
331.801	888.38
332.03	872.38
332.258	891.38
332.486	942.38
332.715	979.38
332.943	887.38
333.172	882.38
333.4	914.38
333.629	1010.38
333.857	1119.38
334.085	1108.38
334.314	1121.38
334.542	1041.38
334.771	984.38
334.999	915.38
335.227	947.38
335.455	964.38
335.684	1017.38
335.912	1208.38
336.14	1320.38
336.369	1242.38
336.597	1236.38
336.825	1400.38
337.053	1555.38
337.281	1224.38
337.51	971.38
337.738	973.38
337.966	1100.38
338.194	1200.38
338.422	1123.38
338.65	947.38
338.878	876.38
339.106	911.38
339.334	1015.38
339.562	1085.38
339.79	1025.38
340.018	959.38
340.246	1048.38
340.474	1214.38
340.702	1301.38
340.93	1347.38
341.158	1336.38
341.386	1112.38
341.614	1103.38
341.842	1112.38
342.07	1127.38
342.298	1368.38
342.526	1420.38
342.754	1203.38
342.981	1101.38
343.209	1064.38
343.437	1140.38
343.665	1223.38
343.893	1204.38
344.12	1393.38
344.348	1623.38
344.576	1445.38
344.804	1175.38
345.031	1040.38
345.259	975.38
345.487	1032.38
345.714	1042.38
345.942	1121.38
346.17	1185.38
346.397	1155.38
346.625	1007.38
346.853	988.38
347.08	942.38
347.308	1008.38
347.535	1150.38
347.763	1149.38
347.99	1004.38
348.218	927.38
348.445	980.38
348.673	977.38
348.9	984.38
349.128	1064.38
349.355	1097.38
349.583	1036.38
349.81	997.38
350.037	963.38
350.265	840.38
350.492	800.38
350.72	804.38
350.947	837.38
351.174	879.38
351.402	971.38
351.629	1005.38
351.856	935.38
352.083	902.38
352.311	980.38
352.538	1090.38
352.765	1148.38
352.992	1035.38
353.22	992.38
353.447	1003.38
353.674	967.38
353.901	962.38
354.128	979.38
354.355	1011.38
354.583	981.38
354.81	1001.38
355.037	1047.38
355.264	1032.38
355.491	1080.38
355.718	1201.38
355.945	1160.38
356.172	1105.38
356.399	1115.38
356.626	1362.38
356.853	1651.38
357.08	1776.38
357.307	1797.38
357.534	1400.38
357.761	1471.38
357.988	1780.38
358.215	2084.38
358.441	1932.38
358.668	1651.38
358.895	1545.38
359.122	1215.38
359.349	1233.38
359.576	1364.38
359.802	1091.38
360.029	965.38
360.256	1025.38
360.483	1294.38
360.709	1651.38
360.936	1700.38
361.163	1519.38
361.39	1160.38
361.616	1067.38
361.843	1250.38
362.07	1504.38
362.296	1384.38
362.523	1088.38
362.749	976.38
362.976	1006.38
363.203	1239.38
363.429	1385.38
363.656	1088.38
363.882	1003.38
364.109	1009.38
364.335	1007.38
364.562	1006.38
364.788	1140.38
365.015	1341.38
365.241	1172.38
365.468	969.38
365.694	829.38
365.92	808.38
366.147	815.38
366.373	785.38
366.599	810.38
366.826	806.38
367.052	832.38
367.278	857.38
367.505	840.38
367.731	916.38
367.957	1041.38
368.184	1070.38
368.41	1019.38
368.636	1018.38
368.862	1084.38
369.089	1044.38
369.315	919.38
369.541	883.38
369.767	903.38
369.993	880.38
370.219	875.38
370.445	930.38
370.672	1037.38
370.898	1115.38
371.124	1102.38
371.35	956.38
371.576	901.38
371.802	993.38
372.028	1175.38
372.254	1360.38
372.48	1138.38
372.706	1062.38
372.932	1121.38
373.158	1142.38
373.384	1401.38
373.61	1893.38
373.835	1914.38
374.061	1381.38
374.287	1175.38
374.513	1385.38
374.739	1672.38
374.965	1731.38
375.191	1711.38
375.416	1175.38
375.642	1021.38
375.868	1235.38
376.094	1359.38
376.319	1184.38
376.545	1312.38
376.771	1372.38
376.997	1189.38
377.222	875.38
377.448	749.38
377.674	785.38
377.899	730.38
378.125	739.38
378.35	762.38
378.576	769.38
378.802	883.38
379.027	923.38
379.253	922.38
379.478	912.38
379.704	1072.38
379.929	1103.38
380.155	1135.38
380.38	957.38
380.606	982.38
380.831	1097.38
381.057	1031.38
381.282	1019.38
381.507	1218.38
381.733	1486.38
381.958	1575.38
382.184	1665.38
382.409	1744.38
382.634	1715.38
382.86	1823.38
383.085	1455.38
383.31	1168.38
383.535	1269.38
383.761	1241.38
383.986	1167.38
384.211	1455.38
384.436	1356.38
384.662	1065.38
384.887	1033.38
385.112	1050.38
385.337	1074.38
385.562	1011.38
385.787	1100.38
386.013	1216.38
386.238	1255.38
386.463	1049.38
386.688	1005.38
386.913	966.38
387.138	906.38
387.363	987.38
387.588	1005.38
387.813	1002.38
388.038	1100.38
388.263	989.38
388.488	974.38
388.713	1135.38
388.938	1243.38
389.163	1075.38
389.387	965.38
389.612	918.38
389.837	976.38
390.062	991.38
390.287	1007.38
390.512	1030.38
390.736	961.38
390.961	884.38
391.186	881.38
391.411	832.38
391.636	859.38
391.86	950.38
392.085	1015.38
392.31	1032.38
392.534	949.38
392.759	925.38
392.984	1007.38
393.208	998.38
393.433	877.38
393.658	808.38
393.882	784.38
394.107	779.38
394.331	807.38
394.556	839.38
394.78	823.38
395.005	863.38
395.229	882.38
395.454	895.38
395.678	899.38
395.903	909.38
396.127	883.38
396.352	888.38
396.576	995.38
396.801	1008.38
397.025	1123.38
397.249	1171.38
397.474	948.38
397.698	934.38
397.922	971.38
398.147	923.38
398.371	918.38
398.595	979.38
398.82	966.38
399.044	949.38
399.268	1013.38
399.492	1048.38
399.717	1056.38
399.941	1088.38
400.165	1053.38
400.389	1021.38
400.613	1061.38
400.837	1047.38
401.062	945.38
401.286	912.38
401.51	911.38
401.734	894.38
401.958	935.38
402.182	913.38
402.406	935.38
402.63	926.38
402.854	968.38
403.078	1083.38
403.302	1297.38
403.526	1349.38
403.75	1203.38
403.974	1031.38
404.198	1080.38
404.422	1237.38
404.645	1429.38
404.869	1621.38
405.093	1174.38
405.317	1019.38
405.541	1000.38
405.765	1000.38
405.988	1016.38
406.212	1115.38
406.436	1325.38
406.66	1471.38
406.883	1153.38
407.107	1206.38
407.331	1405.38
407.555	1309.38
407.778	1123.38
408.002	1069.38
408.226	1037.38
408.449	1041.38
408.673	1036.38
408.896	916.38
409.12	914.38
409.344	929.38
409.567	911.38
409.791	887.38
410.014	892.38
410.238	895.38
410.461	871.38
410.685	917.38
410.908	925.38
411.132	930.38
411.355	943.38
411.578	937.38
411.802	934.38
412.025	1009.38
412.249	1010.38
412.472	954.38
412.695	968.38
412.919	949.38
413.142	966.38
413.365	1048.38
413.589	1050.38
413.812	953.38
414.035	904.38
414.258	960.38
414.482	1071.38
414.705	1033.38
414.928	918.38
415.151	900.38
415.374	876.38
415.597	949.38
415.821	920.38
416.044	904.38
416.267	874.38
416.49	875.38
416.713	869.38
416.936	864.38
417.159	850.38
417.382	886.38
417.605	895.38
417.828	924.38
418.051	923.38
418.274	935.38
418.497	953.38
418.72	949.38
418.943	969.38
419.166	1014.38
419.389	1033.38
419.611	1009.38
419.834	1013.38
420.057	1126.38
420.28	1144.38
420.503	1047.38
420.726	917.38
420.948	888.38
421.171	885.38
421.394	857.38
421.617	871.38
421.839	900.38
422.062	937.38
422.285	929.38
422.507	940.38
422.73	953.38
422.953	1000.38
423.175	955.38
423.398	969.38
423.621	1037.38
423.843	1090.38
424.066	1000.38
424.288	952.38
424.511	924.38
424.733	911.38
424.956	979.38
425.178	1104.38
425.401	1251.38
425.623	1425.38
425.846	1173.38
426.068	1016.38
426.291	1141.38
426.513	1049.38
426.735	928.38
426.958	1012.38
427.18	1197.38
427.402	1551.38
427.625	1489.38
427.847	1219.38
428.069	907.38
428.292	909.38
428.514	916.38
428.736	881.38
428.958	985.38
429.181	1149.38
429.403	984.38
429.625	890.38
429.847	886.38
430.069	895.38
430.292	902.38
430.514	885.38
430.736	960.38
430.958	1223.38
431.18	1083.38
431.402	859.38
431.624	807.38
431.846	837.38
432.068	795.38
432.29	824.38
432.512	921.38
432.734	1247.38
432.956	1154.38
433.178	868.38
433.4	852.38
433.622	860.38
433.844	866.38
434.066	930.38
434.287	927.38
434.509	907.38
434.731	921.38
434.953	879.38
435.175	899.38
435.397	1048.38
435.618	896.38
435.84	826.38
436.062	822.38
436.284	846.38
436.505	822.38
436.727	788.38
436.949	786.38
437.17	833.38
437.392	838.38
437.614	825.38
437.835	819.38
438.057	822.38
438.278	964.38
438.5	1387.38
438.721	1431.38
438.943	941.38
439.165	833.38
439.386	783.38
439.608	783.38
439.829	792.38
440.05	806.38
440.272	877.38
440.493	996.38
440.715	1238.38
440.936	992.38
441.158	867.38
441.379	865.38
441.6	974.38
441.822	1045.38
442.043	892.38
442.264	891.38
442.486	891.38
442.707	890.38
442.928	884.38
443.149	867.38
443.371	879.38
443.592	942.38
443.813	932.38
444.034	877.38
444.255	907.38
444.476	935.38
444.698	927.38
444.919	933.38
445.14	1072.38
445.361	1028.38
445.582	965.38
445.803	935.38
446.024	962.38
446.245	895.38
446.466	885.38
446.687	876.38
446.908	913.38
447.129	846.38
447.35	796.38
447.571	811.38
447.792	790.38
448.013	811.38
448.234	790.38
448.455	785.38
448.675	789.38
448.896	791.38
449.117	795.38
449.338	818.38
449.559	833.38
449.779	869.38
450	856.38
450.221	843.38
450.442	788.38
450.662	803.38
450.883	807.38
451.104	811.38
451.324	805.38
451.545	807.38
451.766	788.38
451.986	775.38
452.207	761.38
452.428	769.38
452.648	763.38
452.869	827.38
453.089	836.38
453.31	841.38
453.53	752.38
453.751	761.38
453.971	744.38
454.192	766.38
454.412	793.38
454.633	732.38
454.853	749.38
455.073	735.38
455.294	741.38
455.514	727.38
455.734	783.38
455.955	795.38
456.175	847.38
456.395	750.38
456.616	717.38
456.836	730.38
457.056	706.38
457.276	679.38
457.497	705.38
457.717	719.38
457.937	753.38
458.157	721.38
458.377	719.38
458.598	728.38
458.818	786.38
459.038	824.38
459.258	852.38
459.478	852.38
459.698	881.38
459.918	889.38
460.138	897.38
460.358	892.38
460.578	880.38
460.798	889.38
461.018	899.38
461.238	860.38
461.458	874.38
461.678	895.38
461.898	918.38
462.118	885.38
462.338	914.38
462.558	956.38
462.777	992.38
462.997	1034.38
463.217	984.38
463.437	1038.38
463.657	1030.38
463.876	937.38
464.096	961.38
464.316	975.38
464.536	963.38
464.755	1027.38
464.975	1007.38
465.195	965.38
465.414	1012.38
465.634	937.38
465.854	932.38
466.073	863.38
466.293	866.38
466.512	936.38
466.732	1043.38
466.951	1035.38
467.171	928.38
467.391	885.38
467.61	885.38
467.829	898.38
468.049	927.38
468.268	887.38
468.488	858.38
468.707	897.38
468.927	1052.38
469.146	1153.38
469.365	1025.38
469.585	960.38
469.804	1039.38
470.023	1106.38
470.243	961.38
470.462	909.38
470.681	904.38
470.901	928.38
471.12	999.38
471.339	989.38
471.558	940.38
471.777	943.38
471.997	1001.38
472.216	1135.38
472.435	1080.38
472.654	974.38
472.873	975.38
473.092	1017.38
473.311	1028.38
473.53	933.38
473.749	946.38
473.968	1019.38
474.187	958.38
474.406	920.38
474.625	949.38
474.844	946.38
475.063	1037.38
475.282	1057.38
475.501	1092.38
475.72	1169.38
475.939	1126.38
476.158	1111.38
476.377	1266.38
476.596	1432.38
476.814	1490.38
477.033	1245.38
477.252	1056.38
477.471	985.38
477.69	1021.38
477.908	1093.38
478.127	1152.38
478.346	1058.38
478.564	1157.38
478.783	1110.38
479.002	1120.38
479.22	1304.38
479.439	1460.38
479.658	1237.38
479.876	1130.38
480.095	1224.38
480.313	1210.38
480.532	1149.38
480.751	1057.38
480.969	1112.38
481.188	1265.38
481.406	1312.38
481.624	1237.38
481.843	1109.38
482.061	1079.38
482.28	1209.38
482.498	1487.38
482.717	1387.38
482.935	1215.38
483.153	1119.38
483.372	1068.38
483.59	1079.38
483.808	1037.38
484.027	1015.38
484.245	975.38
484.463	979.38
484.681	996.38
484.9	1094.38
485.118	1240.38
485.336	1162.38
485.554	1080.38
485.772	1101.38
485.99	1161.38
486.209	1251.38
486.427	1225.38
486.645	1231.38
486.863	1264.38
487.081	1269.38
487.299	1409.38
487.517	1332.38
487.735	1227.38
487.953	1266.38
488.171	1280.38
488.389	1199.38
488.607	1115.38
488.825	1183.38
489.043	1282.38
489.261	1434.38
489.479	1582.38
489.696	1293.38
489.914	1199.38
490.132	1131.38
490.35	1137.38
490.568	1167.38
490.786	1127.38
491.003	1155.38
491.221	1175.38
491.439	1136.38
491.657	1162.38
491.874	1240.38
492.092	1518.38
492.31	1796.38
492.527	1782.38
492.745	1520.38
492.963	1331.38
493.18	1293.38
493.398	1282.38
493.615	1295.38
493.833	1213.38
494.05	1236.38
494.268	1265.38
494.485	1247.38
494.703	1204.38
494.92	1264.38
495.138	1238.38
495.355	1209.38
495.573	1255.38
495.79	1408.38
496.008	1871.38
496.225	1604.38
496.442	1385.38
496.66	1371.38
496.877	1441.38
497.094	1401.38
497.312	1318.38
497.529	1317.38
497.746	1307.38
497.963	1390.38
498.181	1513.38
498.398	1627.38
498.615	1684.38
498.832	1709.38
499.049	1725.38
499.267	1552.38
499.484	1563.38
499.701	1618.38
499.918	1733.38
500.135	1877.38
500.352	1939.38
500.569	1980.38
500.786	2074.38
501.003	2056.38
501.22	1843.38
501.437	1727.38
501.654	1656.38
501.871	1671.38
502.088	1652.38
502.305	1520.38
502.522	1526.38
502.739	1492.38
502.956	1370.38
503.172	1342.38
503.389	1314.38
503.606	1283.38
503.823	1267.38
504.04	1321.38
504.256	1345.38
504.473	1339.38
504.69	1355.38
504.907	1412.38
505.123	1379.38
505.34	1462.38
505.557	1461.38
505.773	1326.38
505.99	1286.38
506.207	1355.38
506.423	1285.38
506.64	1186.38
506.856	1280.38
507.073	1393.38
507.289	1375.38
507.506	1332.38
507.722	1456.38
507.939	1448.38
508.155	1508.38
508.372	1298.38
508.588	1250.38
508.805	1223.38
509.021	1208.38
509.238	1175.38
509.454	1181.38
509.67	1199.38
509.887	1195.38
510.103	1323.38
510.319	1323.38
510.536	1204.38
510.752	1112.38
510.968	1056.38
511.184	1019.38
511.401	1040.38
511.617	1041.38
511.833	1038.38
512.049	1032.38
512.265	1091.38
512.481	1141.38
512.698	1248.38
512.914	1396.38
513.13	1245.38
513.346	1136.38
513.562	1228.38
513.778	1170.38
513.994	1165.38
514.21	1259.38
514.426	1249.38
514.642	1149.38
514.858	1147.38
515.074	1203.38
515.29	1289.38
515.506	1425.38
515.721	1339.38
515.937	1234.38
516.153	1167.38
516.369	1179.38
516.585	1251.38
516.801	1402.38
517.016	1640.38
517.232	1557.38
517.448	1545.38
517.664	1376.38
517.879	1295.38
518.095	1295.38
518.311	1285.38
518.527	1339.38
518.742	1377.38
518.958	1479.38
519.173	1353.38
519.389	1393.38
519.605	1461.38
519.82	1505.38
520.036	1737.38
520.251	1736.38
520.467	1557.38
520.682	2427.38
520.898	2946.38
521.113	2757.38
521.329	1752.38
521.544	1511.38
521.76	1505.38
521.975	1363.38
522.19	1267.38
522.406	1358.38
522.621	1489.38
522.836	1534.38
523.052	1592.38
523.267	1282.38
523.482	1334.38
523.698	1371.38
523.913	1371.38
524.128	1213.38
524.343	1182.38
524.559	1185.38
524.774	1121.38
524.989	1163.38
525.204	1211.38
525.419	1351.38
525.634	1246.38
525.849	1271.38
526.064	1274.38
526.28	1323.38
526.495	1479.38
526.71	1547.38
526.925	1352.38
527.14	1433.38
527.355	1409.38
527.57	1137.38
527.785	1181.38
527.999	1175.38
528.214	1079.38
528.429	1065.38
528.644	1085.38
528.859	1025.38
529.074	977.38
529.289	999.38
529.503	998.38
529.718	1051.38
529.933	1184.38
530.148	1201.38
530.363	1057.38
530.577	1017.38
530.792	1000.38
531.007	1025.38
531.221	983.38
531.436	958.38
531.651	1008.38
531.865	1012.38
532.08	1032.38
532.295	979.38
532.509	1043.38
532.724	1197.38
532.938	1315.38
533.153	1521.38
533.367	1241.38
533.582	1180.38
533.796	1068.38
534.011	1062.38
534.225	1092.38
534.44	1086.38
534.654	1119.38
534.868	1240.38
535.083	1139.38
535.297	1017.38
535.511	1015.38
535.726	1180.38
535.94	1057.38
536.154	999.38
536.369	1000.38
536.583	1011.38
536.797	1060.38
537.011	1054.38
537.225	1133.38
537.44	1168.38
537.654	1022.38
537.868	1022.38
538.082	1037.38
538.296	1009.38
538.51	1092.38
538.724	1101.38
538.938	1038.38
539.153	963.38
539.367	953.38
539.581	999.38
539.795	1038.38
540.009	1131.38
540.222	1052.38
540.436	1103.38
540.65	1163.38
540.864	1179.38
541.078	1200.38
541.292	1373.38
541.506	1125.38
541.72	1067.38
541.934	1004.38
542.147	1033.38
542.361	1051.38
542.575	1062.38
542.789	1032.38
543.002	980.38
543.216	1071.38
543.43	981.38
543.644	953.38
543.857	927.38
544.071	951.38
544.285	963.38
544.498	901.38
544.712	931.38
544.925	1005.38
545.139	968.38
545.352	912.38
545.566	959.38
545.779	1075.38
545.993	985.38
546.206	893.38
546.42	892.38
546.633	880.38
546.847	868.38
547.06	884.38
547.274	853.38
547.487	892.38
547.7	980.38
547.914	1037.38
548.127	1136.38
548.34	1093.38
548.554	937.38
548.767	1001.38
548.98	1096.38
549.193	968.38
549.407	1019.38
549.62	1157.38
549.833	1118.38
550.046	1179.38
550.259	1153.38
550.473	1047.38
550.686	965.38
550.899	995.38
551.112	996.38
551.325	1068.38
551.538	1086.38
551.751	961.38
551.964	905.38
552.177	894.38
552.39	862.38
552.603	898.38
552.816	945.38
553.029	860.38
553.242	872.38
553.455	936.38
553.667	1026.38
553.88	1002.38
554.093	902.38
554.306	843.38
554.519	788.38
554.732	783.38
554.944	765.38
555.157	774.38
555.37	774.38
555.583	776.38
555.795	780.38
556.008	804.38
556.221	830.38
556.433	781.38
556.646	767.38
556.859	777.38
557.071	826.38
557.284	828.38
557.496	840.38
557.709	829.38
557.921	792.38
558.134	741.38
558.346	738.38
558.559	743.38
558.771	783.38
558.984	811.38
559.196	785.38
559.409	742.38
559.621	695.38
559.833	729.38
560.046	735.38
560.258	735.38
560.47	747.38
560.683	698.38
560.895	684.38
561.107	689.38
561.32	672.38
561.532	669.38
561.744	781.38
561.956	783.38
562.168	697.38
562.381	710.38
562.593	708.38
562.805	748.38
563.017	717.38
563.229	672.38
563.441	651.38
563.653	661.38
563.865	694.38
564.077	687.38
564.289	659.38
564.501	703.38
564.713	737.38
564.925	719.38
565.137	705.38
565.349	707.38
565.561	712.38
565.773	747.38
565.985	763.38
566.197	783.38
566.408	856.38
566.62	856.38
566.832	834.38
567.044	847.38
567.255	904.38
567.467	984.38
567.679	891.38
567.891	884.38
568.102	882.38
568.314	883.38
568.526	828.38
568.737	807.38
568.949	861.38
569.161	772.38
569.372	696.38
569.584	715.38
569.795	683.38
570.007	707.38
570.218	772.38
570.43	731.38
570.641	665.38
570.853	651.38
571.064	656.38
571.276	690.38
571.487	706.38
571.698	675.38
571.91	670.38
572.121	679.38
572.333	627.38
572.544	631.38
572.755	626.38
572.966	600.38
573.178	609.38
573.389	630.38
573.6	625.38
573.811	624.38
574.023	568.38
574.234	576.38
574.445	591.38
574.656	570.38
574.867	596.38
575.078	596.38
575.289	592.38
575.501	638.38
575.712	580.38
575.923	557.38
576.134	546.38
576.345	567.38
576.556	567.38
576.767	540.38
576.978	526.38
577.188	531.38
577.399	531.38
577.61	515.38
577.821	540.38
578.032	553.38
578.243	580.38
578.454	568.38
578.665	585.38
578.875	562.38
579.086	552.38
579.297	547.38
579.508	572.38
579.718	550.38
579.929	543.38
580.14	536.38
580.35	515.38
580.561	474.38
580.772	486.38
580.982	462.38
581.193	484.38
581.403	486.38
581.614	457.38
581.825	483.38
582.035	461.38
582.246	468.38
582.456	489.38
582.667	464.38
582.877	451.38
583.087	447.38
583.298	479.38
583.508	456.38
583.719	436.38
583.929	488.38
584.139	452.38
584.35	435.38
584.56	488.38
584.77	464.38
584.981	485.38
585.191	470.38
585.401	455.38
585.611	464.38
585.821	491.38
586.032	505.38
586.242	480.38
586.452	479.38
586.662	460.38
586.872	484.38
587.082	484.38
587.292	477.38
587.502	461.38
587.713	453.38
587.923	469.38
588.133	503.38
588.343	493.38
588.553	464.38
588.762	451.38
588.972	452.38
589.182	443.38
589.392	445.38
589.602	472.38
589.812	491.38
590.022	492.38
590.232	497.38
590.441	466.38
590.651	462.38
590.861	461.38
591.071	492.38
591.281	432.38
591.49	462.38
591.7	469.38
591.91	449.38
592.119	460.38
592.329	449.38
592.539	461.38
592.748	463.38
592.958	475.38
593.167	469.38
593.377	475.38
593.587	493.38
593.796	500.38
594.006	478.38
594.215	493.38
594.424	509.38
594.634	494.38
594.843	477.38
595.053	445.38
595.262	434.38
595.472	470.38
595.681	437.38
595.89	413.38
596.1	433.38
596.309	440.38
596.518	424.38
596.727	431.38
596.937	425.38
597.146	439.38
597.355	490.38
597.564	456.38
597.774	420.38
597.983	403.38
598.192	417.38
598.401	402.38
598.61	397.38
598.819	403.38
599.028	388.38
599.237	380.38
599.446	370.38
599.655	376.38
599.864	368.38
600.073	359.38
600.282	383.38
600.491	390.38
600.7	384.38
600.909	406.38
601.118	399.38
601.327	374.38
601.536	387.38
601.745	399.38
601.953	413.38
602.162	381.38
602.371	419.38
602.58	424.38
602.789	384.38
602.997	364.38
603.206	392.38
603.415	372.38
603.623	360.38
603.832	363.38
604.041	359.38
604.249	365.38
604.458	369.38
604.666	379.38
604.875	347.38
605.084	350.38
605.292	363.38
605.501	375.38
605.709	384.38
605.918	350.38
606.126	356.38
606.334	360.38
606.543	326.38
606.751	337.38
606.96	352.38
607.168	346.38
607.376	346.38
607.585	340.38
607.793	364.38
608.001	364.38
608.21	364.38
608.418	370.38
608.626	373.38
608.834	354.38
609.043	339.38
609.251	337.38
609.459	341.38
609.667	344.38
609.875	355.38
610.083	329.38
610.291	344.38
610.499	358.38
610.707	336.38
610.916	312.38
611.124	319.38
611.332	310.38
611.54	328.38
611.748	348.38
611.955	333.38
612.163	345.38
612.371	328.38
612.579	327.38
612.787	320.38
612.995	344.38
613.203	324.38
613.411	341.38
613.618	335.38
613.826	359.38
614.034	363.38
614.242	329.38
614.449	317.38
614.657	331.38
614.865	318.38
615.072	325.38
615.28	316.38
615.488	326.38
615.695	338.38
615.903	335.38
616.111	333.38
616.318	321.38
616.526	332.38
616.733	306.38
616.941	308.38
617.148	327.38
617.356	315.38
617.563	315.38
617.771	334.38
617.978	316.38
618.185	319.38
618.393	310.38
618.6	303.38
618.807	309.38
619.015	333.38
619.222	295.38
619.429	328.38
619.637	306.38
619.844	299.38
620.051	281.38
620.258	295.38
620.466	288.38
620.673	290.38
620.88	277.38
621.087	295.38
621.294	303.38
621.501	283.38
621.708	297.38
621.915	311.38
622.122	280.38
622.329	283.38
622.536	310.38
622.743	295.38
622.95	284.38
623.157	293.38
623.364	309.38
623.571	303.38
623.778	290.38
623.985	320.38
624.192	317.38
624.399	325.38
624.606	293.38
624.812	288.38
625.019	301.38
625.226	322.38
625.433	319.38
625.639	297.38
625.846	274.38
626.053	281.38
626.259	278.38
626.466	283.38
626.673	300.38
626.879	275.38
627.086	275.38
627.293	276.38
627.499	271.38
627.706	273.38
627.912	269.38
628.119	264.38
628.325	265.38
628.532	269.38
628.738	271.38
628.945	258.38
629.151	246.38
629.357	255.38
629.564	269.38
629.77	267.38
629.976	238.38
630.183	254.38
630.389	266.38
630.595	268.38
630.802	255.38
631.008	253.38
631.214	258.38
631.42	256.38
631.627	263.38
631.833	247.38
632.039	252.38
632.245	237.38
632.451	246.38
632.657	230.38
632.863	238.38
633.069	255.38
633.275	250.38
633.481	257.38
633.688	253.38
633.893	245.38
634.099	257.38
634.305	245.38
634.511	238.38
634.717	225.38
634.923	228.38
635.129	238.38
635.335	241.38
635.541	230.38
635.747	240.38
635.952	235.38
636.158	249.38
636.364	235.38
636.57	247.38
636.775	243.38
636.981	245.38
637.187	217.38
637.392	224.38
637.598	231.38
637.804	231.38
638.009	232.38
638.215	217.38
638.421	200.38
638.626	235.38
638.832	240.38
639.037	233.38
639.243	220.38
639.448	232.38
639.654	240.38
639.859	231.38
640.065	210.38
640.27	244.38
640.475	240.38
640.681	228.38
640.886	223.38
641.091	230.38
641.297	251.38
641.502	219.38
641.707	204.38
641.913	217.38
642.118	214.38
642.323	214.38
642.528	238.38
642.733	219.38
642.939	205.38
643.144	205.38
643.349	222.38
643.554	211.38
643.759	215.38
643.964	227.38
644.169	209.38
644.374	224.38
644.579	204.38
644.784	213.38
644.989	214.38
645.194	221.38
645.399	204.38
645.604	198.38
645.809	229.38
646.014	227.38
646.219	214.38
646.423	187.38
646.628	203.38
646.833	197.38
647.038	199.38
647.243	201.38
647.447	220.38
647.652	215.38
647.857	216.38
648.062	212.38
648.266	215.38
648.471	210.38
648.676	202.38
648.88	222.38
649.085	222.38
649.289	216.38
649.494	200.38
649.698	224.38
649.903	221.38
650.107	193.38
650.312	208.38
650.516	201.38
650.721	179.38
650.925	192.38
651.13	192.38
651.334	192.38
651.539	176.38
651.743	187.38
651.947	182.38
652.152	171.38
652.356	170.38
652.56	176.38
652.764	175.38
652.969	180.38
653.173	153.38
653.377	169.38
653.581	162.38
653.785	173.38
653.99	175.38
654.194	180.38
654.398	161.38
654.602	167.38
654.806	175.38
655.01	141.38
655.214	152.38
655.418	163.38
655.622	160.38
655.826	171.38
656.03	169.38
656.234	148.38
656.438	147.38
656.642	177.38
656.846	153.38
657.049	152.38
657.253	134.38
657.457	138.38
657.661	133.38
657.865	127.38
658.068	127.38
658.272	104.38
658.476	121.38
658.68	126.38
658.883	111.38
659.087	118.38
659.291	114.38
659.494	103.38
659.698	105.38
659.901	108.38
660.105	103.38
660.309	119.38
660.512	108.38
660.716	101.38
660.919	104.38
661.123	100.38
661.326	97.38
661.53	104.38
661.733	104.38
661.936	75.38
662.14	89.38
662.343	104.38
662.546	82.38
662.75	95.38
662.953	84.38
663.156	87.38
663.36	77.38
663.563	90.38
663.766	75.38
663.969	86.38
664.173	79.38
664.376	89.38
664.579	87.38
664.782	79.38
664.985	84.38
665.188	83.38
665.391	82.38
665.594	78.38
665.797	86.38
666	89.38
666.203	74.38
666.406	75.38
666.609	70.38
666.812	85.38
667.015	70.38
667.218	59.38
667.421	87.38
667.624	83.38
667.827	79.38
668.03	81.38
668.232	72.38
668.435	78.38
668.638	98.38
668.841	85.38
669.043	95.38
669.246	97.38
669.449	98.38
669.651	89.38
669.854	90.38
670.057	87.38
670.259	84.38
670.462	88.38
670.665	71.38
670.867	87.38
671.07	83.38
671.272	82.38
671.475	99.38
671.677	93.38
671.88	74.38
672.082	73.38
672.284	84.38
672.487	94.38
672.689	76.38
672.892	94.38
