Data from NickelSpatula_HRD10591_16-34-09-126.txt Node
Date: Mon Jul 22 16:34:09 EDT 2019
User: cochatt
Spectrometer: HR+D1059
Trigger mode: 1
Integration Time (sec): 1.000000E-1
Scans to average: 1
Electric dark correction enabled: true
Nonlinearity correction enabled: false
Boxcar width: 0
XAxis mode: Wavelengths
Number of Pixels in Spectrum: 2048
>>>>>Begin Spectral Data<<<<<
223.165	-15.12
223.4	-15.12
223.635	-15.12
223.869	-24.12
224.104	-21.12
224.338	-4.12
224.573	-26.12
224.808	-2.12
225.042	-14.12
225.277	-17.12
225.511	-7.12
225.746	-9.12
225.98	8.88
226.215	8.88
226.449	13.88
226.683	34.88
226.918	35.88
227.152	37.88
227.387	31.88
227.621	52.88
227.856	42.88
228.09	48.88
228.324	32.88
228.559	59.88
228.793	58.88
229.027	71.88
229.262	76.88
229.496	59.88
229.73	72.88
229.964	87.88
230.199	79.88
230.433	107.88
230.667	100.88
230.901	93.88
231.136	84.88
231.37	85.88
231.604	88.88
231.838	90.88
232.072	88.88
232.306	104.88
232.541	101.88
232.775	95.88
233.009	111.88
233.243	97.88
233.477	123.88
233.711	125.88
233.945	120.88
234.179	112.88
234.413	123.88
234.647	119.88
234.881	137.88
235.115	123.88
235.349	121.88
235.583	120.88
235.817	120.88
236.051	125.88
236.285	126.88
236.519	140.88
236.753	133.88
236.987	121.88
237.221	105.88
237.455	125.88
237.689	120.88
237.922	135.88
238.156	152.88
238.39	146.88
238.624	163.88
238.858	165.88
239.091	137.88
239.325	132.88
239.559	133.88
239.793	126.88
240.027	148.88
240.26	163.88
240.494	152.88
240.728	149.88
240.961	177.88
241.195	181.88
241.429	155.88
241.662	155.88
241.896	144.88
242.13	138.88
242.363	136.88
242.597	139.88
242.83	157.88
243.064	141.88
243.298	153.88
243.531	163.88
243.765	163.88
243.998	164.88
244.232	159.88
244.465	139.88
244.699	156.88
244.932	165.88
245.166	162.88
245.399	152.88
245.633	157.88
245.866	161.88
246.099	171.88
246.333	186.88
246.566	174.88
246.8	173.88
247.033	184.88
247.266	175.88
247.5	167.88
247.733	185.88
247.966	170.88
248.2	175.88
248.433	182.88
248.666	185.88
248.899	200.88
249.133	196.88
249.366	215.88
249.599	218.88
249.832	199.88
250.066	202.88
250.299	189.88
250.532	200.88
250.765	205.88
250.998	175.88
251.231	170.88
251.465	189.88
251.698	208.88
251.931	198.88
252.164	193.88
252.397	208.88
252.63	228.88
252.863	262.88
253.096	270.88
253.329	254.88
253.562	231.88
253.795	267.88
254.028	280.88
254.261	289.88
254.494	277.88
254.727	268.88
254.96	243.88
255.193	261.88
255.426	257.88
255.659	191.88
255.892	190.88
256.124	201.88
256.357	220.88
256.59	254.88
256.823	255.88
257.056	229.88
257.289	217.88
257.521	242.88
257.754	267.88
257.987	283.88
258.22	262.88
258.452	229.88
258.685	234.88
258.918	279.88
259.151	271.88
259.383	295.88
259.616	325.88
259.849	333.88
260.081	351.88
260.314	360.88
260.547	322.88
260.779	333.88
261.012	383.88
261.244	344.88
261.477	340.88
261.71	310.88
261.942	268.88
262.175	269.88
262.407	256.88
262.64	269.88
262.872	328.88
263.105	332.88
263.337	346.88
263.57	339.88
263.802	243.88
264.035	216.88
264.267	224.88
264.499	195.88
264.732	172.88
264.964	180.88
265.197	184.88
265.429	193.88
265.661	189.88
265.894	210.88
266.126	215.88
266.358	254.88
266.591	285.88
266.823	314.88
267.055	309.88
267.287	274.88
267.52	294.88
267.752	296.88
267.984	316.88
268.216	306.88
268.448	266.88
268.681	255.88
268.913	272.88
269.145	298.88
269.377	282.88
269.609	289.88
269.841	276.88
270.073	291.88
270.306	313.88
270.538	321.88
270.77	314.88
271.002	314.88
271.234	331.88
271.466	326.88
271.698	317.88
271.93	298.88
272.162	294.88
272.394	306.88
272.626	299.88
272.858	316.88
273.09	313.88
273.322	278.88
273.553	265.88
273.785	281.88
274.017	374.88
274.249	455.88
274.481	456.88
274.713	501.88
274.945	563.88
275.176	581.88
275.408	559.88
275.64	523.88
275.872	495.88
276.104	455.88
276.335	389.88
276.567	402.88
276.799	390.88
277.031	424.88
277.262	333.88
277.494	281.88
277.726	277.88
277.957	271.88
278.189	304.88
278.421	312.88
278.652	305.88
278.884	291.88
279.115	256.88
279.347	277.88
279.579	250.88
279.81	262.88
280.042	263.88
280.273	280.88
280.505	259.88
280.736	229.88
280.968	226.88
281.199	249.88
281.431	273.88
281.662	272.88
281.894	258.88
282.125	281.88
282.356	295.88
282.588	303.88
282.819	271.88
283.051	295.88
283.282	339.88
283.513	367.88
283.745	426.88
283.976	413.88
284.207	391.88
284.439	394.88
284.67	414.88
284.901	349.88
285.132	377.88
285.364	386.88
285.595	381.88
285.826	403.88
286.057	430.88
286.288	388.88
286.52	414.88
286.751	437.88
286.982	434.88
287.213	374.88
287.444	347.88
287.675	376.88
287.906	389.88
288.138	365.88
288.369	306.88
288.6	285.88
288.831	295.88
289.062	323.88
289.293	359.88
289.524	327.88
289.755	321.88
289.986	348.88
290.217	340.88
290.448	254.88
290.679	213.88
290.91	215.88
291.141	219.88
291.371	219.88
291.602	234.88
291.833	229.88
292.064	241.88
292.295	257.88
292.526	303.88
292.757	299.88
292.987	338.88
293.218	331.88
293.449	354.88
293.68	371.88
293.91	337.88
294.141	365.88
294.372	345.88
294.603	312.88
294.833	326.88
295.064	374.88
295.295	391.88
295.525	288.88
295.756	241.88
295.987	234.88
296.217	218.88
296.448	231.88
296.679	246.88
296.909	258.88
297.14	282.88
297.37	298.88
297.601	288.88
297.831	257.88
298.062	258.88
298.292	303.88
298.523	312.88
298.753	360.88
298.984	324.88
299.214	285.88
299.445	244.88
299.675	211.88
299.905	227.88
300.136	223.88
300.366	264.88
300.597	252.88
300.827	222.88
301.057	194.88
301.288	218.88
301.518	235.88
301.748	267.88
301.979	279.88
302.209	286.88
302.439	282.88
302.669	255.88
302.9	278.88
303.13	258.88
303.36	246.88
303.59	254.88
303.82	243.88
304.051	263.88
304.281	283.88
304.511	277.88
304.741	263.88
304.971	262.88
305.201	258.88
305.431	265.88
305.661	230.88
305.891	219.88
306.121	226.88
306.352	218.88
306.582	190.88
306.812	201.88
307.042	205.88
307.272	181.88
307.502	186.88
307.731	186.88
307.961	213.88
308.191	203.88
308.421	188.88
308.651	189.88
308.881	190.88
309.111	186.88
309.341	190.88
309.571	197.88
309.8	201.88
310.03	206.88
310.26	201.88
310.49	209.88
310.72	189.88
310.949	196.88
311.179	201.88
311.409	200.88
311.639	245.88
311.868	296.88
312.098	343.88
312.328	379.88
312.557	353.88
312.787	391.88
313.017	353.88
313.246	357.88
313.476	391.88
313.706	344.88
313.935	279.88
314.165	199.88
314.394	222.88
314.624	204.88
314.853	222.88
315.083	215.88
315.312	200.88
315.542	217.88
315.771	214.88
316.001	194.88
316.23	184.88
316.46	184.88
316.689	182.88
316.919	192.88
317.148	199.88
317.377	200.88
317.607	189.88
317.836	200.88
318.065	234.88
318.295	257.88
318.524	244.88
318.753	205.88
318.983	201.88
319.212	199.88
319.441	207.88
319.67	229.88
319.9	258.88
320.129	245.88
320.358	195.88
320.587	209.88
320.816	206.88
321.046	253.88
321.275	264.88
321.504	273.88
321.733	265.88
321.962	266.88
322.191	249.88
322.42	232.88
322.649	233.88
322.878	249.88
323.108	263.88
323.337	241.88
323.566	245.88
323.795	239.88
324.024	214.88
324.253	215.88
324.482	222.88
324.71	230.88
324.939	235.88
325.168	232.88
325.397	202.88
325.626	209.88
325.855	199.88
326.084	199.88
326.313	215.88
326.542	185.88
326.77	215.88
326.999	212.88
327.228	204.88
327.457	220.88
327.686	223.88
327.914	191.88
328.143	182.88
328.372	197.88
328.6	192.88
328.829	196.88
329.058	189.88
329.287	179.88
329.515	205.88
329.744	214.88
329.972	198.88
330.201	187.88
330.43	184.88
330.658	190.88
330.887	228.88
331.115	209.88
331.344	214.88
331.572	211.88
331.801	181.88
332.03	198.88
332.258	205.88
332.486	209.88
332.715	210.88
332.943	217.88
333.172	206.88
333.4	192.88
333.629	229.88
333.857	263.88
334.085	247.88
334.314	246.88
334.542	242.88
334.771	230.88
334.999	210.88
335.227	216.88
335.455	202.88
335.684	218.88
335.912	232.88
336.14	272.88
336.369	267.88
336.597	266.88
336.825	275.88
337.053	321.88
337.281	254.88
337.51	211.88
337.738	210.88
337.966	218.88
338.194	259.88
338.422	234.88
338.65	193.88
338.878	192.88
339.106	192.88
339.334	233.88
339.562	236.88
339.79	219.88
340.018	217.88
340.246	209.88
340.474	228.88
340.702	273.88
340.93	261.88
341.158	262.88
341.386	249.88
341.614	218.88
341.842	216.88
342.07	225.88
342.298	271.88
342.526	271.88
342.754	246.88
342.981	230.88
343.209	231.88
343.437	242.88
343.665	266.88
343.893	261.88
344.12	291.88
344.348	323.88
344.576	308.88
344.804	260.88
345.031	210.88
345.259	203.88
345.487	223.88
345.714	229.88
345.942	229.88
346.17	252.88
346.397	237.88
346.625	206.88
346.853	213.88
347.08	182.88
347.308	196.88
347.535	227.88
347.763	257.88
347.99	216.88
348.218	207.88
348.445	222.88
348.673	208.88
348.9	215.88
349.128	229.88
349.355	245.88
349.583	217.88
349.81	214.88
350.037	196.88
350.265	183.88
350.492	187.88
350.72	188.88
350.947	174.88
351.174	195.88
351.402	208.88
351.629	198.88
351.856	198.88
352.083	180.88
352.311	199.88
352.538	210.88
352.765	232.88
352.992	220.88
353.22	216.88
353.447	219.88
353.674	229.88
353.901	213.88
354.128	195.88
354.355	213.88
354.583	210.88
354.81	221.88
355.037	234.88
355.264	216.88
355.491	208.88
355.718	233.88
355.945	214.88
356.172	225.88
356.399	208.88
356.626	272.88
356.853	308.88
357.08	347.88
357.307	339.88
357.534	266.88
357.761	289.88
357.988	360.88
358.215	375.88
358.441	338.88
358.668	318.88
358.895	295.88
359.122	262.88
359.349	263.88
359.576	290.88
359.802	221.88
360.029	206.88
360.256	214.88
360.483	244.88
360.709	319.88
360.936	346.88
361.163	280.88
361.39	226.88
361.616	219.88
361.843	224.88
362.07	287.88
362.296	280.88
362.523	225.88
362.749	189.88
362.976	206.88
363.203	238.88
363.429	246.88
363.656	218.88
363.882	204.88
364.109	201.88
364.335	222.88
364.562	185.88
364.788	217.88
365.015	257.88
365.241	253.88
365.468	202.88
365.694	193.88
365.92	175.88
366.147	168.88
366.373	173.88
366.599	168.88
366.826	181.88
367.052	187.88
367.278	177.88
367.505	173.88
367.731	191.88
367.957	191.88
368.184	213.88
368.41	207.88
368.636	209.88
368.862	224.88
369.089	215.88
369.315	191.88
369.541	185.88
369.767	187.88
369.993	177.88
370.219	179.88
370.445	199.88
370.672	203.88
370.898	229.88
371.124	226.88
371.35	208.88
371.576	208.88
371.802	205.88
372.028	213.88
372.254	265.88
372.48	246.88
372.706	216.88
372.932	227.88
373.158	249.88
373.384	255.88
373.61	325.88
373.835	331.88
374.061	275.88
374.287	239.88
374.513	284.88
374.739	290.88
374.965	315.88
375.191	317.88
375.416	232.88
375.642	221.88
375.868	242.88
376.094	271.88
376.319	218.88
376.545	243.88
376.771	264.88
376.997	239.88
377.222	193.88
377.448	179.88
377.674	161.88
377.899	162.88
378.125	184.88
378.35	167.88
378.576	166.88
378.802	171.88
379.027	210.88
379.253	208.88
379.478	201.88
379.704	213.88
379.929	230.88
380.155	229.88
380.38	204.88
380.606	207.88
380.831	251.88
381.057	214.88
381.282	208.88
381.507	228.88
381.733	267.88
381.958	279.88
382.184	289.88
382.409	321.88
382.634	313.88
382.86	321.88
383.085	279.88
383.31	228.88
383.535	250.88
383.761	260.88
383.986	234.88
384.211	269.88
384.436	284.88
384.662	212.88
384.887	208.88
385.112	225.88
385.337	232.88
385.562	207.88
385.787	223.88
386.013	265.88
386.238	234.88
386.463	214.88
386.688	215.88
386.913	204.88
387.138	193.88
387.363	200.88
387.588	217.88
387.813	213.88
388.038	248.88
388.263	212.88
388.488	200.88
388.713	243.88
388.938	256.88
389.163	202.88
389.387	197.88
389.612	201.88
389.837	207.88
390.062	216.88
390.287	194.88
390.512	218.88
390.736	214.88
390.961	183.88
391.186	186.88
391.411	194.88
391.636	193.88
391.86	195.88
392.085	231.88
392.31	238.88
392.534	216.88
392.759	212.88
392.984	214.88
393.208	202.88
393.433	207.88
393.658	199.88
393.882	195.88
394.107	162.88
394.331	175.88
394.556	171.88
394.78	181.88
395.005	194.88
395.229	187.88
395.454	199.88
395.678	212.88
395.903	213.88
396.127	202.88
396.352	183.88
396.576	221.88
396.801	217.88
397.025	240.88
397.249	247.88
397.474	205.88
397.698	207.88
397.922	210.88
398.147	212.88
398.371	200.88
398.595	213.88
398.82	226.88
399.044	215.88
399.268	236.88
399.492	248.88
399.717	233.88
399.941	241.88
400.165	212.88
400.389	226.88
400.613	216.88
400.837	238.88
401.062	205.88
401.286	210.88
401.51	190.88
401.734	189.88
401.958	218.88
402.182	211.88
402.406	203.88
402.63	202.88
402.854	220.88
403.078	253.88
403.302	307.88
403.526	317.88
403.75	314.88
403.974	245.88
404.198	240.88
404.422	264.88
404.645	275.88
404.869	305.88
405.093	267.88
405.317	222.88
405.541	230.88
405.765	233.88
405.988	229.88
406.212	229.88
406.436	262.88
406.66	275.88
406.883	248.88
407.107	261.88
407.331	291.88
407.555	260.88
407.778	246.88
408.002	235.88
408.226	253.88
408.449	259.88
408.673	239.88
408.896	209.88
409.12	198.88
409.344	214.88
409.567	200.88
409.791	210.88
410.014	209.88
410.238	198.88
410.461	211.88
410.685	201.88
410.908	198.88
411.132	197.88
411.355	200.88
411.578	204.88
411.802	207.88
412.025	221.88
412.249	212.88
412.472	210.88
412.695	213.88
412.919	215.88
413.142	213.88
413.365	230.88
413.589	225.88
413.812	217.88
414.035	214.88
414.258	201.88
414.482	245.88
414.705	223.88
414.928	198.88
415.151	197.88
415.374	179.88
415.597	207.88
415.821	199.88
416.044	193.88
416.267	198.88
416.49	180.88
416.713	187.88
416.936	197.88
417.159	209.88
417.382	202.88
417.605	202.88
417.828	198.88
418.051	197.88
418.274	193.88
418.497	194.88
418.72	190.88
418.943	202.88
419.166	219.88
419.389	220.88
419.611	241.88
419.834	215.88
420.057	227.88
420.28	226.88
420.503	228.88
420.726	217.88
420.948	191.88
421.171	192.88
421.394	189.88
421.617	196.88
421.839	206.88
422.062	198.88
422.285	195.88
422.507	205.88
422.73	207.88
422.953	225.88
423.175	208.88
423.398	215.88
423.621	217.88
423.843	229.88
424.066	203.88
424.288	200.88
424.511	209.88
424.733	201.88
424.956	199.88
425.178	232.88
425.401	259.88
425.623	298.88
425.846	256.88
426.068	205.88
426.291	231.88
426.513	232.88
426.735	204.88
426.958	206.88
427.18	239.88
427.402	292.88
427.625	315.88
427.847	272.88
428.069	209.88
428.292	192.88
428.514	203.88
428.736	186.88
428.958	217.88
429.181	266.88
429.403	212.88
429.625	196.88
429.847	195.88
430.069	193.88
430.292	198.88
430.514	181.88
430.736	197.88
430.958	247.88
431.18	254.88
431.402	200.88
431.624	194.88
431.846	183.88
432.068	193.88
432.29	175.88
432.512	193.88
432.734	232.88
432.956	246.88
433.178	195.88
433.4	177.88
433.622	171.88
433.844	195.88
434.066	232.88
434.287	210.88
434.509	191.88
434.731	225.88
434.953	197.88
435.175	209.88
435.397	243.88
435.618	200.88
435.84	180.88
436.062	191.88
436.284	193.88
436.505	173.88
436.727	183.88
436.949	183.88
437.17	209.88
437.392	199.88
437.614	199.88
437.835	196.88
438.057	160.88
438.278	197.88
438.5	261.88
438.721	275.88
438.943	203.88
439.165	183.88
439.386	182.88
439.608	186.88
439.829	170.88
440.05	174.88
440.272	193.88
440.493	209.88
440.715	252.88
440.936	207.88
441.158	184.88
441.379	194.88
441.6	223.88
441.822	223.88
442.043	187.88
442.264	189.88
442.486	178.88
442.707	187.88
442.928	193.88
443.149	181.88
443.371	214.88
443.592	196.88
443.813	214.88
444.034	200.88
444.255	200.88
444.476	209.88
444.698	195.88
444.919	216.88
445.14	341.88
445.361	277.88
445.582	226.88
445.803	201.88
446.024	209.88
446.245	202.88
446.466	210.88
446.687	204.88
446.908	182.88
447.129	170.88
447.35	178.88
447.571	170.88
447.792	161.88
448.013	174.88
448.234	173.88
448.455	184.88
448.675	181.88
448.896	168.88
449.117	188.88
449.338	182.88
449.559	189.88
449.779	169.88
450	204.88
450.221	199.88
450.442	182.88
450.662	188.88
450.883	181.88
451.104	173.88
451.324	191.88
451.545	185.88
451.766	167.88
451.986	174.88
452.207	191.88
452.428	203.88
452.648	188.88
452.869	198.88
453.089	191.88
453.31	202.88
453.53	186.88
453.751	174.88
453.971	161.88
454.192	173.88
454.412	186.88
454.633	177.88
454.853	180.88
455.073	181.88
455.294	168.88
455.514	177.88
455.734	183.88
455.955	179.88
456.175	194.88
456.395	165.88
456.616	167.88
456.836	165.88
457.056	166.88
457.276	168.88
457.497	166.88
457.717	163.88
457.937	180.88
458.157	164.88
458.377	170.88
458.598	184.88
458.818	180.88
459.038	187.88
459.258	185.88
459.478	206.88
459.698	206.88
459.918	207.88
460.138	202.88
460.358	193.88
460.578	197.88
460.798	200.88
461.018	202.88
461.238	194.88
461.458	202.88
461.678	194.88
461.898	214.88
462.118	212.88
462.338	196.88
462.558	219.88
462.777	215.88
462.997	220.88
463.217	224.88
463.437	237.88
463.657	230.88
463.876	220.88
464.096	211.88
464.316	222.88
464.536	229.88
464.755	220.88
464.975	255.88
465.195	231.88
465.414	237.88
465.634	222.88
465.854	206.88
466.073	196.88
466.293	174.88
466.512	194.88
466.732	214.88
466.951	222.88
467.171	203.88
467.391	186.88
467.61	197.88
467.829	193.88
468.049	194.88
468.268	186.88
468.488	192.88
468.707	191.88
468.927	213.88
469.146	234.88
469.365	211.88
469.585	211.88
469.804	199.88
470.023	233.88
470.243	194.88
470.462	190.88
470.681	206.88
470.901	207.88
471.12	213.88
471.339	221.88
471.558	186.88
471.777	200.88
471.997	206.88
472.216	231.88
472.435	217.88
472.654	230.88
472.873	197.88
473.092	210.88
473.311	225.88
473.53	205.88
473.749	216.88
473.968	217.88
474.187	213.88
474.406	202.88
474.625	186.88
474.844	212.88
475.063	211.88
475.282	214.88
475.501	233.88
475.72	248.88
475.939	244.88
476.158	231.88
476.377	271.88
476.596	307.88
476.814	298.88
477.033	268.88
477.252	223.88
477.471	207.88
477.69	218.88
477.908	216.88
478.127	217.88
478.346	212.88
478.564	272.88
478.783	232.88
479.002	221.88
479.22	251.88
479.439	265.88
479.658	244.88
479.876	222.88
480.095	241.88
480.313	254.88
480.532	255.88
480.751	247.88
480.969	242.88
481.188	256.88
481.406	281.88
481.624	242.88
481.843	223.88
482.061	212.88
482.28	229.88
482.498	314.88
482.717	315.88
482.935	238.88
483.153	227.88
483.372	222.88
483.59	210.88
483.808	221.88
484.027	226.88
484.245	222.88
484.463	215.88
484.681	213.88
484.9	207.88
485.118	253.88
485.336	223.88
485.554	224.88
485.772	223.88
485.99	224.88
486.209	246.88
486.427	258.88
486.645	239.88
486.863	252.88
487.081	233.88
487.299	281.88
487.517	293.88
487.735	242.88
487.953	258.88
488.171	258.88
488.389	232.88
488.607	214.88
488.825	224.88
489.043	261.88
489.261	279.88
489.479	306.88
489.696	253.88
489.914	237.88
490.132	206.88
490.35	227.88
490.568	213.88
490.786	215.88
491.003	230.88
491.221	228.88
491.439	219.88
491.657	226.88
491.874	249.88
492.092	301.88
492.31	338.88
492.527	337.88
492.745	278.88
492.963	242.88
493.18	250.88
493.398	242.88
493.615	256.88
493.833	257.88
494.05	228.88
494.268	239.88
494.485	230.88
494.703	245.88
494.92	263.88
495.138	223.88
495.355	244.88
495.573	243.88
495.79	275.88
496.008	369.88
496.225	293.88
496.442	243.88
496.66	250.88
496.877	263.88
497.094	266.88
497.312	236.88
497.529	253.88
497.746	255.88
497.963	254.88
498.181	290.88
498.398	299.88
498.615	342.88
498.832	329.88
499.049	341.88
499.267	343.88
499.484	309.88
499.701	334.88
499.918	365.88
500.135	411.88
500.352	413.88
500.569	433.88
500.786	450.88
501.003	425.88
501.22	391.88
501.437	358.88
501.654	335.88
501.871	324.88
502.088	330.88
502.305	295.88
502.522	294.88
502.739	306.88
502.956	264.88
503.172	280.88
503.389	270.88
503.606	256.88
503.823	269.88
504.04	274.88
504.256	259.88
504.473	272.88
504.69	263.88
504.907	269.88
505.123	283.88
505.34	303.88
505.557	289.88
505.773	273.88
505.99	256.88
506.207	267.88
506.423	261.88
506.64	241.88
506.856	233.88
507.073	273.88
507.289	260.88
507.506	270.88
507.722	281.88
507.939	273.88
508.155	277.88
508.372	265.88
508.588	265.88
508.805	241.88
509.021	241.88
509.238	241.88
509.454	240.88
509.67	236.88
509.887	251.88
510.103	270.88
510.319	239.88
510.536	244.88
510.752	232.88
510.968	217.88
511.184	212.88
511.401	212.88
511.617	241.88
511.833	208.88
512.049	225.88
512.265	209.88
512.481	221.88
512.698	249.88
512.914	271.88
513.13	246.88
513.346	238.88
513.562	250.88
513.778	257.88
513.994	217.88
514.21	246.88
514.426	257.88
514.642	235.88
514.858	240.88
515.074	237.88
515.29	270.88
515.506	295.88
515.721	271.88
515.937	233.88
516.153	247.88
516.369	239.88
516.585	242.88
516.801	282.88
517.016	326.88
517.232	307.88
517.448	313.88
517.664	279.88
517.879	253.88
518.095	273.88
518.311	275.88
518.527	265.88
518.742	297.88
518.958	293.88
519.173	297.88
519.389	294.88
519.605	281.88
519.82	290.88
520.036	335.88
520.251	325.88
520.467	326.88
520.682	501.88
520.898	641.88
521.113	605.88
521.329	378.88
521.544	311.88
521.76	304.88
521.975	278.88
522.19	255.88
522.406	262.88
522.621	312.88
522.836	308.88
523.052	305.88
523.267	237.88
523.482	258.88
523.698	277.88
523.913	278.88
524.128	217.88
524.343	232.88
524.559	241.88
524.774	216.88
524.989	243.88
525.204	239.88
525.419	271.88
525.634	255.88
525.849	251.88
526.064	248.88
526.28	265.88
526.495	312.88
526.71	329.88
526.925	282.88
527.14	289.88
527.355	277.88
527.57	233.88
527.785	277.88
527.999	240.88
528.214	227.88
528.429	226.88
528.644	230.88
528.859	215.88
529.074	212.88
529.289	217.88
529.503	210.88
529.718	215.88
529.933	303.88
530.148	304.88
530.363	245.88
530.577	222.88
530.792	215.88
531.007	209.88
531.221	203.88
531.436	214.88
531.651	215.88
531.865	217.88
532.08	219.88
532.295	213.88
532.509	231.88
532.724	265.88
532.938	290.88
533.153	350.88
533.367	241.88
533.582	225.88
533.796	233.88
534.011	222.88
534.225	251.88
534.44	225.88
534.654	245.88
534.868	311.88
535.083	256.88
535.297	209.88
535.511	238.88
535.726	248.88
535.94	225.88
536.154	222.88
536.369	226.88
536.583	213.88
536.797	213.88
537.011	225.88
537.225	239.88
537.44	246.88
537.654	206.88
537.868	214.88
538.082	226.88
538.296	213.88
538.51	242.88
538.724	217.88
538.938	228.88
539.153	223.88
539.367	213.88
539.581	209.88
539.795	214.88
540.009	238.88
540.222	219.88
540.436	234.88
540.65	244.88
540.864	253.88
541.078	267.88
541.292	324.88
541.506	245.88
541.72	249.88
541.934	230.88
542.147	212.88
542.361	216.88
542.575	242.88
542.789	216.88
543.002	201.88
543.216	249.88
543.43	200.88
543.644	205.88
543.857	223.88
544.071	217.88
544.285	201.88
544.498	192.88
544.712	190.88
544.925	216.88
545.139	198.88
545.352	218.88
545.566	208.88
545.779	225.88
545.993	212.88
546.206	193.88
546.42	186.88
546.633	199.88
546.847	194.88
547.06	194.88
547.274	186.88
547.487	203.88
547.7	197.88
547.914	203.88
548.127	244.88
548.34	215.88
548.554	193.88
548.767	226.88
548.98	240.88
549.193	206.88
549.407	223.88
549.62	235.88
549.833	240.88
550.046	228.88
550.259	246.88
550.473	215.88
550.686	225.88
550.899	210.88
551.112	217.88
551.325	224.88
551.538	225.88
551.751	196.88
551.964	198.88
552.177	183.88
552.39	194.88
552.603	185.88
552.816	216.88
553.029	193.88
553.242	187.88
553.455	194.88
553.667	234.88
553.88	208.88
554.093	197.88
554.306	203.88
554.519	186.88
554.732	186.88
554.944	179.88
555.157	175.88
555.37	163.88
555.583	181.88
555.795	187.88
556.008	182.88
556.221	185.88
556.433	195.88
556.646	183.88
556.859	177.88
557.071	183.88
557.284	189.88
557.496	186.88
557.709	189.88
557.921	194.88
558.134	159.88
558.346	188.88
558.559	165.88
558.771	182.88
558.984	193.88
559.196	168.88
559.409	156.88
559.621	187.88
559.833	167.88
560.046	175.88
560.258	180.88
560.47	174.88
560.683	181.88
560.895	173.88
561.107	173.88
561.32	162.88
561.532	153.88
561.744	190.88
561.956	209.88
562.168	153.88
562.381	173.88
562.593	178.88
562.805	176.88
563.017	169.88
563.229	167.88
563.441	174.88
563.653	191.88
563.865	173.88
564.077	174.88
564.289	157.88
564.501	177.88
564.713	179.88
564.925	178.88
565.137	164.88
565.349	165.88
565.561	177.88
565.773	178.88
565.985	177.88
566.197	186.88
566.408	209.88
566.62	195.88
566.832	202.88
567.044	197.88
567.255	203.88
567.467	215.88
567.679	214.88
567.891	222.88
568.102	225.88
568.314	244.88
568.526	203.88
568.737	195.88
568.949	209.88
569.161	190.88
569.372	197.88
569.584	192.88
569.795	179.88
570.007	159.88
570.218	195.88
570.43	181.88
570.641	165.88
570.853	174.88
571.064	163.88
571.276	193.88
571.487	176.88
571.698	180.88
571.91	162.88
572.121	173.88
572.333	150.88
572.544	160.88
572.755	163.88
572.966	163.88
573.178	152.88
573.389	189.88
573.6	167.88
573.811	157.88
574.023	151.88
574.234	155.88
574.445	165.88
574.656	153.88
574.867	145.88
575.078	149.88
575.289	146.88
575.501	168.88
575.712	158.88
575.923	166.88
576.134	154.88
576.345	149.88
576.556	158.88
576.767	149.88
576.978	146.88
577.188	154.88
577.399	149.88
577.61	136.88
577.821	144.88
578.032	146.88
578.243	135.88
578.454	152.88
578.665	166.88
578.875	157.88
579.086	155.88
579.297	157.88
579.508	158.88
579.718	149.88
579.929	147.88
580.14	151.88
580.35	142.88
580.561	134.88
580.772	136.88
580.982	141.88
581.193	115.88
581.403	121.88
581.614	141.88
581.825	136.88
582.035	122.88
582.246	130.88
582.456	146.88
582.667	127.88
582.877	121.88
583.087	138.88
583.298	127.88
583.508	134.88
583.719	138.88
583.929	132.88
584.139	150.88
584.35	133.88
584.56	147.88
584.77	138.88
584.981	139.88
585.191	149.88
585.401	133.88
585.611	130.88
585.821	153.88
586.032	125.88
586.242	133.88
586.452	138.88
586.662	153.88
586.872	135.88
587.082	126.88
587.292	139.88
587.502	139.88
587.713	130.88
587.923	135.88
588.133	146.88
588.343	132.88
588.553	126.88
588.762	147.88
588.972	134.88
589.182	123.88
589.392	139.88
589.602	128.88
589.812	122.88
590.022	154.88
590.232	142.88
590.441	142.88
590.651	148.88
590.861	120.88
591.071	138.88
591.281	141.88
591.49	125.88
591.7	144.88
591.91	123.88
592.119	130.88
592.329	137.88
592.539	139.88
592.748	133.88
592.958	143.88
593.167	139.88
593.377	134.88
593.587	149.88
593.796	149.88
594.006	141.88
594.215	136.88
594.424	168.88
594.634	166.88
594.843	147.88
595.053	145.88
595.262	133.88
595.472	138.88
595.681	141.88
595.89	127.88
596.1	128.88
596.309	133.88
596.518	127.88
596.727	129.88
596.937	118.88
597.146	137.88
597.355	129.88
597.564	136.88
597.774	125.88
597.983	140.88
598.192	143.88
598.401	122.88
598.61	121.88
598.819	132.88
599.028	124.88
599.237	120.88
599.446	129.88
599.655	111.88
599.864	132.88
600.073	133.88
600.282	115.88
600.491	112.88
600.7	136.88
600.909	131.88
601.118	133.88
601.327	148.88
601.536	126.88
601.745	125.88
601.953	148.88
602.162	128.88
602.371	133.88
602.58	127.88
602.789	114.88
602.997	122.88
603.206	121.88
603.415	125.88
603.623	104.88
603.832	117.88
604.041	117.88
604.249	114.88
604.458	125.88
604.666	111.88
604.875	111.88
605.084	123.88
605.292	117.88
605.501	131.88
605.709	117.88
605.918	124.88
606.126	107.88
606.334	102.88
606.543	121.88
606.751	123.88
606.96	122.88
607.168	130.88
607.376	118.88
607.585	133.88
607.793	108.88
608.001	103.88
608.21	121.88
608.418	111.88
608.626	121.88
608.834	112.88
609.043	116.88
609.251	121.88
609.459	115.88
609.667	115.88
609.875	124.88
610.083	117.88
610.291	129.88
610.499	118.88
610.707	122.88
610.916	124.88
611.124	120.88
611.332	118.88
611.54	125.88
611.748	116.88
611.955	120.88
612.163	107.88
612.371	125.88
612.579	129.88
612.787	112.88
612.995	122.88
613.203	115.88
613.411	111.88
613.618	110.88
613.826	122.88
614.034	126.88
614.242	111.88
614.449	103.88
614.657	119.88
614.865	119.88
615.072	103.88
615.28	114.88
615.488	111.88
615.695	111.88
615.903	107.88
616.111	103.88
616.318	130.88
616.526	118.88
616.733	118.88
616.941	110.88
617.148	115.88
617.356	113.88
617.563	103.88
617.771	107.88
617.978	116.88
618.185	123.88
618.393	119.88
618.6	113.88
618.807	114.88
619.015	127.88
619.222	95.88
619.429	123.88
619.637	120.88
619.844	118.88
620.051	115.88
620.258	114.88
620.466	100.88
620.673	108.88
620.88	111.88
621.087	102.88
621.294	97.88
621.501	100.88
621.708	104.88
621.915	121.88
622.122	103.88
622.329	118.88
622.536	102.88
622.743	111.88
622.95	127.88
623.157	103.88
623.364	117.88
623.571	112.88
623.778	95.88
623.985	105.88
624.192	103.88
624.399	120.88
624.606	119.88
624.812	121.88
625.019	115.88
625.226	120.88
625.433	125.88
625.639	105.88
625.846	123.88
626.053	115.88
626.259	118.88
626.466	119.88
626.673	113.88
626.879	117.88
627.086	117.88
627.293	111.88
627.499	94.88
627.706	113.88
627.912	117.88
628.119	99.88
628.325	107.88
628.532	93.88
628.738	111.88
628.945	116.88
629.151	112.88
629.357	94.88
629.564	113.88
629.77	104.88
629.976	113.88
630.183	114.88
630.389	106.88
630.595	102.88
630.802	107.88
631.008	93.88
631.214	111.88
631.42	109.88
631.627	118.88
631.833	103.88
632.039	93.88
632.245	101.88
632.451	105.88
632.657	112.88
632.863	102.88
633.069	104.88
633.275	100.88
633.481	106.88
633.688	86.88
633.893	109.88
634.099	108.88
634.305	93.88
634.511	103.88
634.717	111.88
634.923	86.88
635.129	97.88
635.335	106.88
635.541	111.88
635.747	109.88
635.952	102.88
636.158	101.88
636.364	101.88
636.57	101.88
636.775	113.88
636.981	112.88
637.187	114.88
637.392	93.88
637.598	100.88
637.804	94.88
638.009	98.88
638.215	93.88
638.421	99.88
638.626	95.88
638.832	100.88
639.037	99.88
639.243	106.88
639.448	119.88
639.654	112.88
639.859	96.88
640.065	85.88
640.27	111.88
640.475	110.88
640.681	99.88
640.886	98.88
641.091	98.88
641.297	106.88
641.502	108.88
641.707	87.88
641.913	109.88
642.118	103.88
642.323	81.88
642.528	115.88
642.733	88.88
642.939	102.88
643.144	98.88
643.349	91.88
643.554	101.88
643.759	98.88
643.964	97.88
644.169	109.88
644.374	100.88
644.579	98.88
644.784	92.88
644.989	77.88
645.194	94.88
645.399	97.88
645.604	91.88
645.809	98.88
646.014	90.88
646.219	97.88
646.423	94.88
646.628	92.88
646.833	102.88
647.038	100.88
647.243	92.88
647.447	92.88
647.652	90.88
647.857	91.88
648.062	101.88
648.266	100.88
648.471	101.88
648.676	92.88
648.88	110.88
649.085	89.88
649.289	103.88
649.494	98.88
649.698	97.88
649.903	99.88
650.107	96.88
650.312	95.88
650.516	97.88
650.721	89.88
650.925	93.88
651.13	97.88
651.334	83.88
651.539	109.88
651.743	93.88
651.947	102.88
652.152	101.88
652.356	95.88
652.56	93.88
652.764	101.88
652.969	105.88
653.173	91.88
653.377	75.88
653.581	89.88
653.785	91.88
653.99	101.88
654.194	88.88
654.398	86.88
654.602	99.88
654.806	105.88
655.01	91.88
655.214	87.88
655.418	92.88
655.622	100.88
655.826	90.88
656.03	105.88
656.234	81.88
656.438	107.88
656.642	100.88
656.846	90.88
657.049	93.88
657.253	82.88
657.457	79.88
657.661	89.88
657.865	86.88
658.068	85.88
658.272	87.88
658.476	83.88
658.68	97.88
658.883	85.88
659.087	74.88
659.291	91.88
659.494	82.88
659.698	82.88
659.901	94.88
660.105	85.88
660.309	89.88
660.512	103.88
660.716	88.88
660.919	72.88
661.123	69.88
661.326	79.88
661.53	90.88
661.733	82.88
661.936	75.88
662.14	75.88
662.343	85.88
662.546	80.88
662.75	91.88
662.953	83.88
663.156	83.88
663.36	83.88
663.563	81.88
663.766	81.88
663.969	81.88
664.173	67.88
664.376	94.88
664.579	74.88
664.782	65.88
664.985	79.88
665.188	90.88
665.391	79.88
665.594	96.88
665.797	96.88
666	63.88
666.203	87.88
666.406	65.88
666.609	94.88
666.812	85.88
667.015	84.88
667.218	84.88
667.421	70.88
667.624	89.88
667.827	89.88
668.03	92.88
668.232	81.88
668.435	82.88
668.638	68.88
668.841	97.88
669.043	63.88
669.246	73.88
669.449	72.88
669.651	82.88
669.854	74.88
670.057	92.88
670.259	70.88
670.462	76.88
670.665	80.88
670.867	76.88
671.07	85.88
671.272	89.88
671.475	78.88
671.677	78.88
671.88	82.88
672.082	84.88
672.284	87.88
672.487	84.88
672.689	78.88
672.892	87.88
