Data from NickelSpatula.Lamp.E10.P2_HRD10591_11-56-53-535.txt Node
Date: Tue Jul 23 11:56:53 EDT 2019
User: cochatt
Spectrometer: HR+D1059
Trigger mode: 1
Integration Time (sec): 1.000000E-1
Scans to average: 1
Electric dark correction enabled: true
Nonlinearity correction enabled: false
Boxcar width: 0
XAxis mode: Wavelengths
Number of Pixels in Spectrum: 2048
>>>>>Begin Spectral Data<<<<<
223.165	-7.5
223.4	-7.5
223.635	-7.5
223.869	-3.5
224.104	-14.5
224.338	-14.5
224.573	-3.5
224.808	-23.5
225.042	-6.5
225.277	7.5
225.511	-9.5
225.746	-12.5
225.98	-0.5
226.215	7.5
226.449	16.5
226.683	10.5
226.918	35.5
227.152	18.5
227.387	29.5
227.621	36.5
227.856	36.5
228.09	43.5
228.324	53.5
228.559	53.5
228.793	73.5
229.027	132.5
229.262	139.5
229.496	138.5
229.73	150.5
229.964	187.5
230.199	203.5
230.433	191.5
230.667	195.5
230.901	183.5
231.136	184.5
231.37	187.5
231.604	213.5
231.838	218.5
232.072	242.5
232.306	244.5
232.541	218.5
232.775	232.5
233.009	235.5
233.243	257.5
233.477	293.5
233.711	314.5
233.945	307.5
234.179	284.5
234.413	337.5
234.647	340.5
234.881	404.5
235.115	385.5
235.349	378.5
235.583	340.5
235.817	311.5
236.051	329.5
236.285	374.5
236.519	395.5
236.753	384.5
236.987	403.5
237.221	375.5
237.455	379.5
237.689	391.5
237.922	409.5
238.156	423.5
238.39	525.5
238.624	588.5
238.858	515.5
239.091	441.5
239.325	455.5
239.559	450.5
239.793	490.5
240.027	579.5
240.26	535.5
240.494	514.5
240.728	552.5
240.961	631.5
241.195	582.5
241.429	540.5
241.662	537.5
241.896	471.5
242.13	443.5
242.363	406.5
242.597	432.5
242.83	488.5
243.064	495.5
243.298	522.5
243.531	568.5
243.765	579.5
243.998	573.5
244.232	578.5
244.465	541.5
244.699	543.5
244.932	607.5
245.166	596.5
245.399	511.5
245.633	491.5
245.866	529.5
246.099	549.5
246.333	658.5
246.566	685.5
246.8	676.5
247.033	667.5
247.266	628.5
247.5	617.5
247.733	583.5
247.966	597.5
248.2	585.5
248.433	679.5
248.666	752.5
248.899	736.5
249.133	753.5
249.366	837.5
249.599	923.5
249.832	833.5
250.066	723.5
250.299	751.5
250.532	713.5
250.765	727.5
250.998	633.5
251.231	659.5
251.465	722.5
251.698	745.5
251.931	724.5
252.164	748.5
252.397	856.5
252.63	925.5
252.863	1006.5
253.096	1049.5
253.329	1014.5
253.562	988.5
253.795	1075.5
254.028	1185.5
254.261	1203.5
254.494	1093.5
254.727	997.5
254.96	983.5
255.193	1042.5
255.426	984.5
255.659	753.5
255.892	730.5
256.124	801.5
256.357	945.5
256.59	1083.5
256.823	1028.5
257.056	851.5
257.289	850.5
257.521	866.5
257.754	1062.5
257.987	1163.5
258.22	1031.5
258.452	921.5
258.685	1018.5
258.918	1132.5
259.151	1139.5
259.383	1194.5
259.616	1365.5
259.849	1419.5
260.081	1539.5
260.314	1693.5
260.547	1336.5
260.779	1339.5
261.012	1517.5
261.244	1449.5
261.477	1430.5
261.71	1368.5
261.942	1179.5
262.175	1155.5
262.407	1106.5
262.64	1118.5
262.872	1329.5
263.105	1447.5
263.337	1499.5
263.57	1348.5
263.802	959.5
264.035	834.5
264.267	830.5
264.499	740.5
264.732	664.5
264.964	639.5
265.197	671.5
265.429	740.5
265.661	748.5
265.894	790.5
266.126	855.5
266.358	920.5
266.591	1130.5
266.823	1386.5
267.055	1297.5
267.287	1146.5
267.52	1172.5
267.752	1213.5
267.984	1324.5
268.216	1285.5
268.448	1067.5
268.681	1065.5
268.913	1098.5
269.145	1191.5
269.377	1203.5
269.609	1201.5
269.841	1132.5
270.073	1207.5
270.306	1240.5
270.538	1304.5
270.77	1292.5
271.002	1310.5
271.234	1348.5
271.466	1366.5
271.698	1267.5
271.93	1257.5
272.162	1259.5
272.394	1252.5
272.626	1228.5
272.858	1278.5
273.09	1307.5
273.322	1153.5
273.553	1117.5
273.785	1275.5
274.017	1704.5
274.249	2116.5
274.481	2155.5
274.713	2337.5
274.945	2724.5
275.176	2799.5
275.408	2437.5
275.64	2283.5
275.872	2289.5
276.104	1953.5
276.335	1736.5
276.567	1710.5
276.799	1776.5
277.031	1837.5
277.262	1463.5
277.494	1151.5
277.726	1101.5
277.957	1196.5
278.189	1352.5
278.421	1312.5
278.652	1300.5
278.884	1248.5
279.115	1147.5
279.347	1075.5
279.579	1093.5
279.81	1127.5
280.042	1123.5
280.273	1149.5
280.505	1050.5
280.736	944.5
280.968	953.5
281.199	1040.5
281.431	1172.5
281.662	1131.5
281.894	1102.5
282.125	1158.5
282.356	1274.5
282.588	1277.5
282.819	1165.5
283.051	1259.5
283.282	1524.5
283.513	1765.5
283.745	1960.5
283.976	1944.5
284.207	1821.5
284.439	1919.5
284.67	1814.5
284.901	1645.5
285.132	1746.5
285.364	1805.5
285.595	1669.5
285.826	1739.5
286.057	1796.5
286.288	1768.5
286.52	1809.5
286.751	1897.5
286.982	1898.5
287.213	1654.5
287.444	1592.5
287.675	1691.5
287.906	1661.5
288.138	1416.5
288.369	1285.5
288.6	1212.5
288.831	1273.5
289.062	1460.5
289.293	1599.5
289.524	1499.5
289.755	1458.5
289.986	1532.5
290.217	1349.5
290.448	1046.5
290.679	925.5
290.91	846.5
291.141	849.5
291.371	875.5
291.602	905.5
291.833	929.5
292.064	960.5
292.295	1139.5
292.526	1289.5
292.757	1340.5
292.987	1448.5
293.218	1423.5
293.449	1500.5
293.68	1546.5
293.91	1499.5
294.141	1520.5
294.372	1391.5
294.603	1315.5
294.833	1443.5
295.064	1717.5
295.295	1641.5
295.525	1204.5
295.756	1049.5
295.987	928.5
296.217	927.5
296.448	908.5
296.679	965.5
296.909	1081.5
297.14	1139.5
297.37	1267.5
297.601	1169.5
297.831	1060.5
298.062	1111.5
298.292	1243.5
298.523	1364.5
298.753	1524.5
298.984	1397.5
299.214	1140.5
299.445	955.5
299.675	898.5
299.905	877.5
300.136	897.5
300.366	1000.5
300.597	968.5
300.827	880.5
301.057	850.5
301.288	876.5
301.518	940.5
301.748	1031.5
301.979	1078.5
302.209	1147.5
302.439	1185.5
302.669	1059.5
302.9	1079.5
303.13	1023.5
303.36	959.5
303.59	939.5
303.82	979.5
304.051	1129.5
304.281	1201.5
304.511	1156.5
304.741	1036.5
304.971	1049.5
305.201	1144.5
305.431	1071.5
305.661	937.5
305.891	929.5
306.121	931.5
306.352	849.5
306.582	795.5
306.812	773.5
307.042	793.5
307.272	735.5
307.502	718.5
307.731	779.5
307.961	825.5
308.191	771.5
308.421	760.5
308.651	721.5
308.881	712.5
309.111	728.5
309.341	737.5
309.571	815.5
309.8	851.5
310.03	835.5
310.26	871.5
310.49	845.5
310.72	798.5
310.949	805.5
311.179	802.5
311.409	879.5
311.639	1007.5
311.868	1301.5
312.098	1606.5
312.328	1735.5
312.557	1653.5
312.787	1685.5
313.017	1484.5
313.246	1606.5
313.476	1763.5
313.706	1463.5
313.935	1158.5
314.165	973.5
314.394	888.5
314.624	882.5
314.853	938.5
315.083	962.5
315.312	930.5
315.542	902.5
315.771	858.5
316.001	795.5
316.23	756.5
316.46	756.5
316.689	805.5
316.919	806.5
317.148	823.5
317.377	827.5
317.607	829.5
317.836	858.5
318.065	987.5
318.295	1104.5
318.524	1007.5
318.753	871.5
318.983	858.5
319.212	837.5
319.441	873.5
319.67	992.5
319.9	1042.5
320.129	996.5
320.358	890.5
320.587	867.5
320.816	903.5
321.046	1007.5
321.275	1127.5
321.504	1123.5
321.733	1085.5
321.962	1066.5
322.191	971.5
322.42	957.5
322.649	933.5
322.878	1026.5
323.108	1032.5
323.337	950.5
323.566	957.5
323.795	937.5
324.024	921.5
324.253	884.5
324.482	857.5
324.71	899.5
324.939	1010.5
325.168	961.5
325.397	807.5
325.626	803.5
325.855	860.5
326.084	840.5
326.313	807.5
326.542	759.5
326.77	782.5
326.999	797.5
327.228	879.5
327.457	883.5
327.686	887.5
327.914	813.5
328.143	764.5
328.372	793.5
328.6	778.5
328.829	796.5
329.058	779.5
329.287	796.5
329.515	835.5
329.744	794.5
329.972	793.5
330.201	761.5
330.43	755.5
330.658	866.5
330.887	945.5
331.115	927.5
331.344	921.5
331.572	895.5
331.801	833.5
332.03	787.5
332.258	807.5
332.486	888.5
332.715	906.5
332.943	846.5
333.172	821.5
333.4	906.5
333.629	964.5
333.857	1024.5
334.085	1019.5
334.314	1016.5
334.542	957.5
334.771	891.5
334.999	891.5
335.227	853.5
335.455	858.5
335.684	969.5
335.912	1114.5
336.14	1196.5
336.369	1173.5
336.597	1143.5
336.825	1215.5
337.053	1345.5
337.281	1129.5
337.51	919.5
337.738	891.5
337.966	948.5
338.194	1033.5
338.422	999.5
338.65	858.5
338.878	824.5
339.106	843.5
339.334	934.5
339.562	958.5
339.79	903.5
340.018	870.5
340.246	963.5
340.474	1056.5
340.702	1123.5
340.93	1128.5
341.158	1138.5
341.386	947.5
341.614	943.5
341.842	951.5
342.07	1019.5
342.298	1179.5
342.526	1183.5
342.754	1049.5
342.981	961.5
343.209	961.5
343.437	1026.5
343.665	1039.5
343.893	1026.5
344.12	1168.5
344.348	1381.5
344.576	1259.5
344.804	1029.5
345.031	909.5
345.259	873.5
345.487	889.5
345.714	916.5
345.942	977.5
346.17	1062.5
346.397	990.5
346.625	899.5
346.853	840.5
347.08	830.5
347.308	875.5
347.535	981.5
347.763	994.5
347.99	856.5
348.218	841.5
348.445	909.5
348.673	876.5
348.9	872.5
349.128	914.5
349.355	945.5
349.583	959.5
349.81	910.5
350.037	821.5
350.265	747.5
350.492	756.5
350.72	727.5
350.947	772.5
351.174	796.5
351.402	811.5
351.629	835.5
351.856	800.5
352.083	790.5
352.311	853.5
352.538	876.5
352.765	932.5
352.992	871.5
353.22	839.5
353.447	867.5
353.674	813.5
353.901	822.5
354.128	817.5
354.355	839.5
354.583	855.5
354.81	846.5
355.037	903.5
355.264	879.5
355.491	921.5
355.718	989.5
355.945	920.5
356.172	916.5
356.399	905.5
356.626	1066.5
356.853	1271.5
357.08	1336.5
357.307	1360.5
357.534	1113.5
357.761	1149.5
357.988	1377.5
358.215	1524.5
358.441	1463.5
358.668	1271.5
358.895	1193.5
359.122	985.5
359.349	1026.5
359.576	1103.5
359.802	932.5
360.029	811.5
360.256	873.5
360.483	1052.5
360.709	1288.5
360.936	1320.5
361.163	1140.5
361.39	920.5
361.616	874.5
361.843	971.5
362.07	1147.5
362.296	1086.5
362.523	895.5
362.749	825.5
362.976	807.5
363.203	997.5
363.429	1068.5
363.656	918.5
363.882	842.5
364.109	856.5
364.335	855.5
364.562	810.5
364.788	877.5
365.015	1039.5
365.241	943.5
365.468	824.5
365.694	744.5
365.92	737.5
366.147	726.5
366.373	713.5
366.599	710.5
366.826	726.5
367.052	739.5
367.278	739.5
367.505	741.5
367.731	791.5
367.957	858.5
368.184	872.5
368.41	832.5
368.636	867.5
368.862	897.5
369.089	848.5
369.315	790.5
369.541	765.5
369.767	779.5
369.993	754.5
370.219	793.5
370.445	807.5
370.672	846.5
370.898	900.5
371.124	897.5
371.35	799.5
371.576	800.5
371.802	852.5
372.028	981.5
372.254	1060.5
372.48	902.5
372.706	872.5
372.932	923.5
373.158	937.5
373.384	1074.5
373.61	1411.5
373.835	1404.5
374.061	1079.5
374.287	963.5
374.513	1098.5
374.739	1292.5
374.965	1284.5
375.191	1258.5
375.416	972.5
375.642	884.5
375.868	997.5
376.094	1083.5
376.319	971.5
376.545	1043.5
376.771	1118.5
376.997	940.5
377.222	753.5
377.448	696.5
377.674	699.5
377.899	688.5
378.125	693.5
378.35	684.5
378.576	745.5
378.802	787.5
379.027	785.5
379.253	744.5
379.478	788.5
379.704	890.5
379.929	911.5
380.155	906.5
380.38	825.5
380.606	863.5
380.831	957.5
381.057	903.5
381.282	850.5
381.507	951.5
381.733	1113.5
381.958	1186.5
382.184	1276.5
382.409	1334.5
382.634	1311.5
382.86	1338.5
383.085	1133.5
383.31	960.5
383.535	995.5
383.761	1026.5
383.986	974.5
384.211	1114.5
384.436	1088.5
384.662	899.5
384.887	863.5
385.112	903.5
385.337	920.5
385.562	879.5
385.787	980.5
386.013	1013.5
386.238	1059.5
386.463	900.5
386.688	891.5
386.913	865.5
387.138	856.5
387.363	816.5
387.588	880.5
387.813	881.5
388.038	963.5
388.263	864.5
388.488	864.5
388.713	930.5
388.938	994.5
389.163	864.5
389.387	822.5
389.612	822.5
389.837	852.5
390.062	881.5
390.287	877.5
390.512	891.5
390.736	849.5
390.961	825.5
391.186	809.5
391.411	800.5
391.636	783.5
391.86	820.5
392.085	897.5
392.31	905.5
392.534	860.5
392.759	838.5
392.984	872.5
393.208	872.5
393.433	845.5
393.658	776.5
393.882	783.5
394.107	745.5
394.331	771.5
394.556	754.5
394.78	774.5
395.005	766.5
395.229	790.5
395.454	821.5
395.678	815.5
395.903	833.5
396.127	794.5
396.352	839.5
396.576	889.5
396.801	910.5
397.025	964.5
397.249	1004.5
397.474	868.5
397.698	831.5
397.922	890.5
398.147	851.5
398.371	856.5
398.595	906.5
398.82	888.5
399.044	889.5
399.268	966.5
399.492	1009.5
399.717	1027.5
399.941	1033.5
400.165	996.5
400.389	961.5
400.613	964.5
400.837	957.5
401.062	912.5
401.286	909.5
401.51	874.5
401.734	842.5
401.958	867.5
402.182	863.5
402.406	841.5
402.63	869.5
402.854	916.5
403.078	1013.5
403.302	1217.5
403.526	1221.5
403.75	1109.5
403.974	986.5
404.198	1037.5
404.422	1115.5
404.645	1233.5
404.869	1322.5
405.093	1059.5
405.317	909.5
405.541	931.5
405.765	957.5
405.988	944.5
406.212	997.5
406.436	1099.5
406.66	1217.5
406.883	1000.5
407.107	1043.5
407.331	1161.5
407.555	1151.5
407.778	1035.5
408.002	982.5
408.226	996.5
408.449	981.5
408.673	959.5
408.896	917.5
409.12	884.5
409.344	892.5
409.567	869.5
409.791	884.5
410.014	846.5
410.238	853.5
410.461	851.5
410.685	889.5
410.908	857.5
411.132	901.5
411.355	901.5
411.578	907.5
411.802	917.5
412.025	904.5
412.249	906.5
412.472	917.5
412.695	943.5
412.919	907.5
413.142	898.5
413.365	981.5
413.589	955.5
413.812	892.5
414.035	875.5
414.258	866.5
414.482	917.5
414.705	963.5
414.928	865.5
415.151	836.5
415.374	828.5
415.597	859.5
415.821	868.5
416.044	845.5
416.267	848.5
416.49	857.5
416.713	834.5
416.936	817.5
417.159	829.5
417.382	845.5
417.605	839.5
417.828	841.5
418.051	847.5
418.274	869.5
418.497	836.5
418.72	870.5
418.943	887.5
419.166	903.5
419.389	961.5
419.611	921.5
419.834	943.5
420.057	985.5
420.28	992.5
420.503	933.5
420.726	842.5
420.948	847.5
421.171	860.5
421.394	831.5
421.617	842.5
421.839	832.5
422.062	858.5
422.285	880.5
422.507	888.5
422.73	891.5
422.953	914.5
423.175	877.5
423.398	897.5
423.621	953.5
423.843	931.5
424.066	897.5
424.288	885.5
424.511	866.5
424.733	851.5
424.956	888.5
425.178	969.5
425.401	1071.5
425.623	1159.5
425.846	1032.5
426.068	896.5
426.291	958.5
426.513	919.5
426.735	872.5
426.958	919.5
427.18	1025.5
427.402	1263.5
427.625	1270.5
427.847	1042.5
428.069	848.5
428.292	851.5
428.514	860.5
428.736	816.5
428.958	890.5
429.181	983.5
429.403	895.5
429.625	827.5
429.847	824.5
430.069	822.5
430.292	844.5
430.514	794.5
430.736	883.5
430.958	1011.5
431.18	948.5
431.402	808.5
431.624	777.5
431.846	773.5
432.068	782.5
432.29	787.5
432.512	847.5
432.734	1013.5
432.956	984.5
433.178	823.5
433.4	795.5
433.622	813.5
433.844	824.5
434.066	860.5
434.287	883.5
434.509	829.5
434.731	861.5
434.953	841.5
435.175	869.5
435.397	943.5
435.618	833.5
435.84	798.5
436.062	769.5
436.284	796.5
436.505	771.5
436.727	775.5
436.949	769.5
437.17	804.5
437.392	806.5
437.614	793.5
437.835	790.5
438.057	790.5
438.278	891.5
438.5	1140.5
438.721	1133.5
438.943	860.5
439.165	798.5
439.386	773.5
439.608	738.5
439.829	765.5
440.05	786.5
440.272	808.5
440.493	907.5
440.715	1049.5
440.936	891.5
441.158	819.5
441.379	838.5
441.6	908.5
441.822	933.5
442.043	856.5
442.264	833.5
442.486	830.5
442.707	834.5
442.928	818.5
443.149	858.5
443.371	858.5
443.592	869.5
443.813	892.5
444.034	874.5
444.255	874.5
444.476	918.5
444.698	917.5
444.919	930.5
445.14	1025.5
445.361	952.5
445.582	887.5
445.803	861.5
446.024	891.5
446.245	897.5
446.466	888.5
446.687	821.5
446.908	819.5
447.129	798.5
447.35	779.5
447.571	781.5
447.792	745.5
448.013	757.5
448.234	773.5
448.455	761.5
448.675	751.5
448.896	789.5
449.117	758.5
449.338	785.5
449.559	794.5
449.779	800.5
450	789.5
450.221	804.5
450.442	783.5
450.662	752.5
450.883	760.5
451.104	785.5
451.324	768.5
451.545	769.5
451.766	776.5
451.986	743.5
452.207	743.5
452.428	742.5
452.648	744.5
452.869	742.5
453.089	779.5
453.31	775.5
453.53	724.5
453.751	721.5
453.971	713.5
454.192	726.5
454.412	769.5
454.633	707.5
454.853	709.5
455.073	720.5
455.294	678.5
455.514	703.5
455.734	733.5
455.955	775.5
456.175	758.5
456.395	687.5
456.616	675.5
456.836	673.5
457.056	672.5
457.276	678.5
457.497	694.5
457.717	710.5
457.937	688.5
458.157	698.5
458.377	697.5
458.598	715.5
458.818	745.5
459.038	773.5
459.258	794.5
459.478	829.5
459.698	858.5
459.918	876.5
460.138	837.5
460.358	832.5
460.578	857.5
460.798	849.5
461.018	857.5
461.238	821.5
461.458	829.5
461.678	868.5
461.898	894.5
462.118	877.5
462.338	905.5
462.558	941.5
462.777	929.5
462.997	972.5
463.217	978.5
463.437	1002.5
463.657	957.5
463.876	964.5
464.096	926.5
464.316	933.5
464.536	928.5
464.755	984.5
464.975	953.5
465.195	892.5
465.414	943.5
465.634	881.5
465.854	900.5
466.073	811.5
466.293	832.5
466.512	893.5
466.732	970.5
466.951	957.5
467.171	886.5
467.391	849.5
467.61	828.5
467.829	894.5
468.049	895.5
468.268	828.5
468.488	823.5
468.707	867.5
468.927	996.5
469.146	1083.5
469.365	972.5
469.585	887.5
469.804	960.5
470.023	1035.5
470.243	921.5
470.462	866.5
470.681	892.5
470.901	876.5
471.12	920.5
471.339	936.5
471.558	891.5
471.777	858.5
471.997	946.5
472.216	1012.5
472.435	996.5
472.654	927.5
472.873	901.5
473.092	937.5
473.311	981.5
473.53	904.5
473.749	907.5
473.968	931.5
474.187	921.5
474.406	876.5
474.625	868.5
474.844	913.5
475.063	935.5
475.282	953.5
475.501	989.5
475.72	1026.5
475.939	985.5
476.158	987.5
476.377	1148.5
476.596	1293.5
476.814	1403.5
477.033	1172.5
477.252	992.5
477.471	948.5
477.69	953.5
477.908	1035.5
478.127	1114.5
478.346	954.5
478.564	1101.5
478.783	1031.5
479.002	1036.5
479.22	1183.5
479.439	1308.5
479.658	1141.5
479.876	1061.5
480.095	1127.5
480.313	1128.5
480.532	1081.5
480.751	1044.5
480.969	1087.5
481.188	1190.5
481.406	1212.5
481.624	1155.5
481.843	1045.5
482.061	1013.5
482.28	1136.5
482.498	1349.5
482.717	1291.5
482.935	1134.5
483.153	1061.5
483.372	997.5
483.59	1001.5
483.808	983.5
484.027	972.5
484.245	942.5
484.463	933.5
484.681	977.5
484.9	1035.5
485.118	1103.5
485.336	1058.5
485.554	1012.5
485.772	1011.5
485.99	1145.5
486.209	1168.5
486.427	1139.5
486.645	1065.5
486.863	1149.5
487.081	1118.5
487.299	1204.5
487.517	1166.5
487.735	1148.5
487.953	1147.5
488.171	1171.5
488.389	1091.5
488.607	1050.5
488.825	1083.5
489.043	1136.5
489.261	1263.5
489.479	1328.5
489.696	1153.5
489.914	1091.5
490.132	1049.5
490.35	1035.5
490.568	1066.5
490.786	1069.5
491.003	1064.5
491.221	1097.5
491.439	1091.5
491.657	1076.5
491.874	1138.5
492.092	1298.5
492.31	1490.5
492.527	1472.5
492.745	1327.5
492.963	1231.5
493.18	1179.5
493.398	1207.5
493.615	1185.5
493.833	1137.5
494.05	1185.5
494.268	1182.5
494.485	1186.5
494.703	1155.5
494.92	1149.5
495.138	1135.5
495.355	1160.5
495.573	1163.5
495.79	1225.5
496.008	1470.5
496.225	1343.5
496.442	1270.5
496.66	1247.5
496.877	1294.5
497.094	1289.5
497.312	1249.5
497.529	1224.5
497.746	1236.5
497.963	1296.5
498.181	1376.5
498.398	1466.5
498.615	1467.5
498.832	1544.5
499.049	1611.5
499.267	1479.5
499.484	1501.5
499.701	1524.5
499.918	1677.5
500.135	1808.5
500.352	1804.5
500.569	1880.5
500.786	1887.5
501.003	1896.5
501.22	1732.5
501.437	1633.5
501.654	1566.5
501.871	1508.5
502.088	1537.5
502.305	1421.5
502.522	1417.5
502.739	1378.5
502.956	1290.5
503.172	1282.5
503.389	1243.5
503.606	1209.5
503.823	1219.5
504.04	1234.5
504.256	1279.5
504.473	1289.5
504.69	1287.5
504.907	1297.5
505.123	1261.5
505.34	1335.5
505.557	1332.5
505.773	1228.5
505.99	1205.5
506.207	1256.5
506.423	1161.5
506.64	1119.5
506.856	1154.5
507.073	1271.5
507.289	1244.5
507.506	1230.5
507.722	1324.5
507.939	1299.5
508.155	1347.5
508.372	1222.5
508.588	1167.5
508.805	1135.5
509.021	1148.5
509.238	1087.5
509.454	1091.5
509.67	1089.5
509.887	1090.5
510.103	1219.5
510.319	1179.5
510.536	1087.5
510.752	1019.5
510.968	994.5
511.184	975.5
511.401	987.5
511.617	1003.5
511.833	979.5
512.049	1008.5
512.265	1036.5
512.481	1030.5
512.698	1143.5
512.914	1229.5
513.13	1141.5
513.346	1042.5
513.562	1083.5
513.778	1093.5
513.994	1090.5
514.21	1130.5
514.426	1096.5
514.642	1046.5
514.858	1034.5
515.074	1123.5
515.29	1208.5
515.506	1346.5
515.721	1245.5
515.937	1148.5
516.153	1089.5
516.369	1099.5
516.585	1128.5
516.801	1267.5
517.016	1369.5
517.232	1355.5
517.448	1380.5
517.664	1284.5
517.879	1242.5
518.095	1206.5
518.311	1236.5
518.527	1242.5
518.742	1334.5
518.958	1401.5
519.173	1299.5
519.389	1269.5
519.605	1257.5
519.82	1341.5
520.036	1549.5
520.251	1565.5
520.467	1431.5
520.682	2001.5
520.898	2401.5
521.113	2273.5
521.329	1503.5
521.544	1413.5
521.76	1375.5
521.975	1194.5
522.19	1172.5
522.406	1225.5
522.621	1318.5
522.836	1330.5
523.052	1309.5
523.267	1145.5
523.482	1123.5
523.698	1235.5
523.913	1250.5
524.128	1143.5
524.343	1099.5
524.559	1104.5
524.774	1051.5
524.989	1122.5
525.204	1113.5
525.419	1261.5
525.634	1148.5
525.849	1133.5
526.064	1139.5
526.28	1181.5
526.495	1357.5
526.71	1369.5
526.925	1175.5
527.14	1185.5
527.355	1177.5
527.57	1040.5
527.785	1101.5
527.999	1059.5
528.214	1049.5
528.429	993.5
528.644	985.5
528.859	947.5
529.074	963.5
529.289	946.5
529.503	920.5
529.718	973.5
529.933	1094.5
530.148	1083.5
530.363	999.5
530.577	959.5
530.792	946.5
531.007	933.5
531.221	931.5
531.436	954.5
531.651	939.5
531.865	946.5
532.08	944.5
532.295	965.5
532.509	956.5
532.724	1056.5
532.938	1152.5
533.153	1346.5
533.367	1123.5
533.582	1071.5
533.796	1029.5
534.011	963.5
534.225	984.5
534.44	977.5
534.654	1059.5
534.868	1159.5
535.083	1010.5
535.297	962.5
535.511	982.5
535.726	1089.5
535.94	1005.5
536.154	969.5
536.369	945.5
536.583	927.5
536.797	909.5
537.011	953.5
537.225	1015.5
537.44	1021.5
537.654	951.5
537.868	940.5
538.082	946.5
538.296	966.5
538.51	960.5
538.724	982.5
538.938	980.5
539.153	957.5
539.367	897.5
539.581	919.5
539.795	957.5
540.009	1009.5
540.222	953.5
540.436	988.5
540.65	1030.5
540.864	1046.5
541.078	1093.5
541.292	1193.5
541.506	1007.5
541.72	938.5
541.934	940.5
542.147	952.5
542.361	962.5
542.575	975.5
542.789	931.5
543.002	887.5
543.216	965.5
543.43	865.5
543.644	883.5
543.857	884.5
544.071	885.5
544.285	885.5
544.498	858.5
544.712	869.5
544.925	923.5
545.139	895.5
545.352	856.5
545.566	871.5
545.779	938.5
545.993	887.5
546.206	842.5
546.42	829.5
546.633	818.5
546.847	809.5
547.06	800.5
547.274	813.5
547.487	823.5
547.7	888.5
547.914	909.5
548.127	1011.5
548.34	1014.5
548.554	915.5
548.767	913.5
548.98	988.5
549.193	928.5
549.407	929.5
549.62	1091.5
549.833	1041.5
550.046	1063.5
550.259	1067.5
550.473	971.5
550.686	949.5
550.899	949.5
551.112	929.5
551.325	983.5
551.538	1053.5
551.751	908.5
551.964	895.5
552.177	868.5
552.39	845.5
552.603	820.5
552.816	893.5
553.029	859.5
553.242	864.5
553.455	894.5
553.667	945.5
553.88	933.5
554.093	864.5
554.306	801.5
554.519	771.5
554.732	746.5
554.944	738.5
555.157	756.5
555.37	745.5
555.583	713.5
555.795	749.5
556.008	787.5
556.221	767.5
556.433	731.5
556.646	737.5
556.859	750.5
557.071	787.5
557.284	773.5
557.496	768.5
557.709	752.5
557.921	756.5
558.134	724.5
558.346	703.5
558.559	697.5
558.771	709.5
558.984	734.5
559.196	705.5
559.409	702.5
559.621	665.5
559.833	665.5
560.046	680.5
560.258	673.5
560.47	729.5
560.683	692.5
560.895	664.5
561.107	653.5
561.32	649.5
561.532	658.5
561.744	701.5
561.956	696.5
562.168	657.5
562.381	683.5
562.593	680.5
562.805	722.5
563.017	657.5
563.229	660.5
563.441	636.5
563.653	636.5
563.865	681.5
564.077	649.5
564.289	675.5
564.501	692.5
564.713	746.5
564.925	708.5
565.137	676.5
565.349	683.5
565.561	687.5
565.773	682.5
565.985	707.5
566.197	730.5
566.408	804.5
566.62	804.5
566.832	832.5
567.044	851.5
567.255	867.5
567.467	942.5
567.679	865.5
567.891	832.5
568.102	850.5
568.314	900.5
568.526	831.5
568.737	809.5
568.949	829.5
569.161	741.5
569.372	671.5
569.584	658.5
569.795	659.5
570.007	690.5
570.218	695.5
570.43	715.5
570.641	665.5
570.853	653.5
571.064	637.5
571.276	681.5
571.487	673.5
571.698	660.5
571.91	651.5
572.121	627.5
572.333	587.5
572.544	618.5
572.755	609.5
572.966	589.5
573.178	587.5
573.389	604.5
573.6	607.5
573.811	603.5
574.023	555.5
574.234	553.5
574.445	566.5
574.656	559.5
574.867	562.5
575.078	588.5
575.289	572.5
575.501	594.5
575.712	556.5
575.923	548.5
576.134	535.5
576.345	555.5
576.556	552.5
576.767	525.5
576.978	525.5
577.188	521.5
577.399	503.5
577.61	511.5
577.821	530.5
578.032	539.5
578.243	567.5
578.454	548.5
578.665	563.5
578.875	523.5
579.086	537.5
579.297	537.5
579.508	547.5
579.718	511.5
579.929	533.5
580.14	504.5
580.35	485.5
580.561	475.5
580.772	468.5
580.982	465.5
581.193	481.5
581.403	448.5
581.614	457.5
581.825	465.5
582.035	456.5
582.246	449.5
582.456	450.5
582.667	456.5
582.877	459.5
583.087	443.5
583.298	447.5
583.508	452.5
583.719	431.5
583.929	449.5
584.139	470.5
584.35	447.5
584.56	473.5
584.77	459.5
584.981	450.5
585.191	456.5
585.401	450.5
585.611	465.5
585.821	491.5
586.032	466.5
586.242	462.5
586.452	444.5
586.662	468.5
586.872	484.5
587.082	478.5
587.292	454.5
587.502	415.5
587.713	447.5
587.923	452.5
588.133	496.5
588.343	468.5
588.553	440.5
588.762	444.5
588.972	448.5
589.182	455.5
589.392	449.5
589.602	466.5
589.812	473.5
590.022	476.5
590.232	483.5
590.441	453.5
590.651	424.5
590.861	434.5
591.071	443.5
591.281	449.5
591.49	458.5
591.7	447.5
591.91	424.5
592.119	440.5
592.329	450.5
592.539	433.5
592.748	463.5
592.958	463.5
593.167	463.5
593.377	484.5
593.587	488.5
593.796	484.5
594.006	472.5
594.215	457.5
594.424	460.5
594.634	474.5
594.843	473.5
595.053	438.5
595.262	425.5
595.472	436.5
595.681	411.5
595.89	419.5
596.1	431.5
596.309	433.5
596.518	418.5
596.727	411.5
596.937	429.5
597.146	423.5
597.355	452.5
597.564	423.5
597.774	401.5
597.983	400.5
598.192	411.5
598.401	401.5
598.61	377.5
598.819	394.5
599.028	386.5
599.237	380.5
599.446	363.5
599.655	379.5
599.864	353.5
600.073	360.5
600.282	367.5
600.491	379.5
600.7	378.5
600.909	404.5
601.118	364.5
601.327	375.5
601.536	369.5
601.745	392.5
601.953	393.5
602.162	365.5
602.371	389.5
602.58	375.5
602.789	360.5
602.997	373.5
603.206	367.5
603.415	360.5
603.623	365.5
603.832	363.5
604.041	362.5
604.249	362.5
604.458	351.5
604.666	339.5
604.875	349.5
605.084	332.5
605.292	347.5
605.501	349.5
605.709	347.5
605.918	355.5
606.126	348.5
606.334	344.5
606.543	340.5
606.751	344.5
606.96	338.5
607.168	342.5
607.376	337.5
607.585	350.5
607.793	342.5
608.001	355.5
608.21	330.5
608.418	338.5
608.626	347.5
608.834	313.5
609.043	346.5
609.251	343.5
609.459	327.5
609.667	343.5
609.875	341.5
610.083	336.5
610.291	346.5
610.499	326.5
610.707	307.5
610.916	332.5
611.124	315.5
611.332	322.5
611.54	326.5
611.748	327.5
611.955	319.5
612.163	324.5
612.371	334.5
612.579	332.5
612.787	330.5
612.995	318.5
613.203	325.5
613.411	325.5
613.618	327.5
613.826	336.5
614.034	341.5
614.242	319.5
614.449	312.5
614.657	322.5
614.865	337.5
615.072	307.5
615.28	317.5
615.488	312.5
615.695	313.5
615.903	340.5
616.111	335.5
616.318	313.5
616.526	324.5
616.733	310.5
616.941	318.5
617.148	325.5
617.356	319.5
617.563	311.5
617.771	300.5
617.978	292.5
618.185	305.5
618.393	290.5
618.6	323.5
618.807	313.5
619.015	308.5
619.222	305.5
619.429	311.5
619.637	308.5
619.844	314.5
620.051	288.5
620.258	307.5
620.466	303.5
620.673	300.5
620.88	275.5
621.087	299.5
621.294	273.5
621.501	276.5
621.708	308.5
621.915	296.5
622.122	290.5
622.329	292.5
622.536	287.5
622.743	298.5
622.95	281.5
623.157	300.5
623.364	308.5
623.571	283.5
623.778	295.5
623.985	298.5
624.192	316.5
624.399	314.5
624.606	293.5
624.812	303.5
625.019	299.5
625.226	300.5
625.433	303.5
625.639	276.5
625.846	283.5
626.053	275.5
626.259	268.5
626.466	284.5
626.673	293.5
626.879	276.5
627.086	277.5
627.293	273.5
627.499	277.5
627.706	271.5
627.912	264.5
628.119	271.5
628.325	271.5
628.532	245.5
628.738	258.5
628.945	266.5
629.151	266.5
629.357	272.5
629.564	257.5
629.77	268.5
629.976	267.5
630.183	260.5
630.389	251.5
630.595	255.5
630.802	270.5
631.008	259.5
631.214	243.5
631.42	233.5
631.627	254.5
631.833	255.5
632.039	251.5
632.245	240.5
632.451	243.5
632.657	224.5
632.863	239.5
633.069	232.5
633.275	236.5
633.481	233.5
633.688	242.5
633.893	236.5
634.099	243.5
634.305	225.5
634.511	240.5
634.717	220.5
634.923	218.5
635.129	223.5
635.335	228.5
635.541	225.5
635.747	229.5
635.952	228.5
636.158	234.5
636.364	227.5
636.57	246.5
636.775	242.5
636.981	234.5
637.187	218.5
637.392	233.5
637.598	237.5
637.804	232.5
638.009	224.5
638.215	219.5
638.421	241.5
638.626	222.5
638.832	210.5
639.037	210.5
639.243	216.5
639.448	223.5
639.654	236.5
639.859	224.5
640.065	211.5
640.27	216.5
640.475	241.5
640.681	225.5
640.886	217.5
641.091	208.5
641.297	202.5
641.502	211.5
641.707	222.5
641.913	214.5
642.118	215.5
642.323	229.5
642.528	227.5
642.733	213.5
642.939	209.5
643.144	230.5
643.349	216.5
643.554	212.5
643.759	216.5
643.964	202.5
644.169	200.5
644.374	209.5
644.579	196.5
644.784	223.5
644.989	199.5
645.194	192.5
645.399	197.5
645.604	192.5
645.809	199.5
646.014	197.5
646.219	209.5
646.423	202.5
646.628	214.5
646.833	210.5
647.038	201.5
647.243	212.5
647.447	195.5
647.652	201.5
647.857	212.5
648.062	221.5
648.266	209.5
648.471	206.5
648.676	217.5
648.88	187.5
649.085	208.5
649.289	206.5
649.494	196.5
649.698	208.5
649.903	195.5
650.107	204.5
650.312	203.5
650.516	185.5
650.721	189.5
650.925	184.5
651.13	197.5
651.334	177.5
651.539	183.5
651.743	185.5
651.947	186.5
652.152	177.5
652.356	195.5
652.56	184.5
652.764	171.5
652.969	163.5
653.173	163.5
653.377	184.5
653.581	183.5
653.785	168.5
653.99	175.5
654.194	163.5
654.398	143.5
654.602	166.5
654.806	164.5
655.01	162.5
655.214	162.5
655.418	156.5
655.622	170.5
655.826	152.5
656.03	162.5
656.234	152.5
656.438	161.5
656.642	159.5
656.846	155.5
657.049	140.5
657.253	139.5
657.457	134.5
657.661	134.5
657.865	132.5
658.068	109.5
658.272	119.5
658.476	122.5
658.68	121.5
658.883	115.5
659.087	115.5
659.291	115.5
659.494	115.5
659.698	110.5
659.901	112.5
660.105	118.5
660.309	100.5
660.512	115.5
660.716	114.5
660.919	104.5
661.123	104.5
661.326	92.5
661.53	88.5
661.733	87.5
661.936	96.5
662.14	104.5
662.343	93.5
662.546	87.5
662.75	86.5
662.953	94.5
663.156	87.5
663.36	99.5
663.563	89.5
663.766	79.5
663.969	86.5
664.173	79.5
664.376	71.5
664.579	104.5
664.782	82.5
664.985	82.5
665.188	95.5
665.391	87.5
665.594	80.5
665.797	79.5
666	81.5
666.203	83.5
666.406	87.5
666.609	85.5
666.812	84.5
667.015	74.5
667.218	76.5
667.421	86.5
667.624	76.5
667.827	104.5
668.03	84.5
668.232	90.5
668.435	83.5
668.638	71.5
668.841	83.5
669.043	78.5
669.246	82.5
669.449	83.5
669.651	88.5
669.854	86.5
670.057	79.5
670.259	76.5
670.462	85.5
670.665	81.5
670.867	82.5
671.07	93.5
671.272	92.5
671.475	91.5
671.677	95.5
671.88	74.5
672.082	91.5
672.284	74.5
672.487	79.5
672.689	85.5
672.892	72.5
