Data from NickelSpatula.Lamp.E10.P2_HRD10591_11-58-25-528.txt Node
Date: Tue Jul 23 11:58:25 EDT 2019
User: cochatt
Spectrometer: HR+D1059
Trigger mode: 1
Integration Time (sec): 1.000000E-1
Scans to average: 1
Electric dark correction enabled: true
Nonlinearity correction enabled: false
Boxcar width: 0
XAxis mode: Wavelengths
Number of Pixels in Spectrum: 2048
>>>>>Begin Spectral Data<<<<<
223.165	-11.81
223.4	-11.81
223.635	-11.81
223.869	-11.81
224.104	-5.81
224.338	-14.81
224.573	-4.81
224.808	-12.81
225.042	-20.81
225.277	-17.81
225.511	-5.81
225.746	8.19
225.98	-4.81
226.215	14.19
226.449	14.19
226.683	22.19
226.918	25.19
227.152	27.19
227.387	28.19
227.621	37.19
227.856	38.19
228.09	45.19
228.324	51.19
228.559	66.19
228.793	73.19
229.027	122.19
229.262	174.19
229.496	156.19
229.73	152.19
229.964	191.19
230.199	212.19
230.433	218.19
230.667	203.19
230.901	209.19
231.136	194.19
231.37	204.19
231.604	229.19
231.838	244.19
232.072	260.19
232.306	257.19
232.541	260.19
232.775	241.19
233.009	250.19
233.243	307.19
233.477	312.19
233.711	339.19
233.945	343.19
234.179	345.19
234.413	361.19
234.647	370.19
234.881	461.19
235.115	423.19
235.349	405.19
235.583	352.19
235.817	343.19
236.051	371.19
236.285	410.19
236.519	472.19
236.753	444.19
236.987	413.19
237.221	392.19
237.455	421.19
237.689	437.19
237.922	450.19
238.156	495.19
238.39	540.19
238.624	678.19
238.858	596.19
239.091	480.19
239.325	506.19
239.559	457.19
239.793	537.19
240.027	645.19
240.26	606.19
240.494	596.19
240.728	583.19
240.961	647.19
241.195	630.19
241.429	632.19
241.662	620.19
241.896	528.19
242.13	467.19
242.363	440.19
242.597	452.19
242.83	531.19
243.064	534.19
243.298	592.19
243.531	606.19
243.765	633.19
243.998	605.19
244.232	606.19
244.465	591.19
244.699	602.19
244.932	641.19
245.166	634.19
245.399	562.19
245.633	523.19
245.866	563.19
246.099	608.19
246.333	708.19
246.566	761.19
246.8	760.19
247.033	766.19
247.266	686.19
247.5	682.19
247.733	680.19
247.966	657.19
248.2	708.19
248.433	764.19
248.666	835.19
248.899	824.19
249.133	849.19
249.366	944.19
249.599	1044.19
249.832	896.19
250.066	811.19
250.299	848.19
250.532	794.19
250.765	773.19
250.998	735.19
251.231	699.19
251.465	782.19
251.698	832.19
251.931	763.19
252.164	849.19
252.397	937.19
252.63	1049.19
252.863	1165.19
253.096	1186.19
253.329	1146.19
253.562	1089.19
253.795	1212.19
254.028	1362.19
254.261	1388.19
254.494	1225.19
254.727	1086.19
254.96	1125.19
255.193	1170.19
255.426	1106.19
255.659	841.19
255.892	807.19
256.124	865.19
256.357	1022.19
256.59	1174.19
256.823	1132.19
257.056	952.19
257.289	892.19
257.521	966.19
257.754	1112.19
257.987	1267.19
258.22	1103.19
258.452	991.19
258.685	1142.19
258.918	1254.19
259.151	1241.19
259.383	1232.19
259.616	1490.19
259.849	1552.19
260.081	1680.19
260.314	1894.19
260.547	1474.19
260.779	1506.19
261.012	1708.19
261.244	1610.19
261.477	1630.19
261.71	1532.19
261.942	1296.19
262.175	1242.19
262.407	1202.19
262.64	1269.19
262.872	1480.19
263.105	1646.19
263.337	1712.19
263.57	1492.19
263.802	1048.19
264.035	873.19
264.267	865.19
264.499	768.19
264.732	693.19
264.964	678.19
265.197	704.19
265.429	788.19
265.661	838.19
265.894	826.19
266.126	915.19
266.358	1008.19
266.591	1230.19
266.823	1461.19
267.055	1353.19
267.287	1218.19
267.52	1231.19
267.752	1299.19
267.984	1425.19
268.216	1337.19
268.448	1119.19
268.681	1098.19
268.913	1208.19
269.145	1264.19
269.377	1288.19
269.609	1269.19
269.841	1188.19
270.073	1241.19
270.306	1305.19
270.538	1362.19
270.77	1393.19
271.002	1396.19
271.234	1441.19
271.466	1469.19
271.698	1421.19
271.93	1388.19
272.162	1412.19
272.394	1372.19
272.626	1366.19
272.858	1475.19
273.09	1483.19
273.322	1302.19
273.553	1235.19
273.785	1476.19
274.017	1975.19
274.249	2391.19
274.481	2511.19
274.713	2683.19
274.945	3176.19
275.176	3270.19
275.408	2857.19
275.64	2594.19
275.872	2613.19
276.104	2194.19
276.335	1857.19
276.567	1839.19
276.799	1937.19
277.031	2069.19
277.262	1577.19
277.494	1227.19
277.726	1178.19
277.957	1278.19
278.189	1430.19
278.421	1452.19
278.652	1384.19
278.884	1349.19
279.115	1247.19
279.347	1182.19
279.579	1210.19
279.81	1203.19
280.042	1160.19
280.273	1226.19
280.505	1096.19
280.736	999.19
280.968	995.19
281.199	1055.19
281.431	1196.19
281.662	1167.19
281.894	1140.19
282.125	1205.19
282.356	1330.19
282.588	1363.19
282.819	1237.19
283.051	1370.19
283.282	1647.19
283.513	1896.19
283.745	2192.19
283.976	2150.19
284.207	1994.19
284.439	2097.19
284.67	1978.19
284.901	1733.19
285.132	1906.19
285.364	2001.19
285.595	1854.19
285.826	1937.19
286.057	1987.19
286.288	1941.19
286.52	1999.19
286.751	2073.19
286.982	2030.19
287.213	1811.19
287.444	1720.19
287.675	1824.19
287.906	1815.19
288.138	1506.19
288.369	1360.19
288.6	1270.19
288.831	1332.19
289.062	1504.19
289.293	1642.19
289.524	1601.19
289.755	1590.19
289.986	1585.19
290.217	1391.19
290.448	1109.19
290.679	966.19
290.91	928.19
291.141	892.19
291.371	977.19
291.602	937.19
291.833	966.19
292.064	1061.19
292.295	1202.19
292.526	1382.19
292.757	1398.19
292.987	1510.19
293.218	1526.19
293.449	1563.19
293.68	1639.19
293.91	1519.19
294.141	1607.19
294.372	1514.19
294.603	1379.19
294.833	1550.19
295.064	1822.19
295.295	1708.19
295.525	1290.19
295.756	1136.19
295.987	976.19
296.217	980.19
296.448	1054.19
296.679	1088.19
296.909	1219.19
297.14	1260.19
297.37	1416.19
297.601	1362.19
297.831	1155.19
298.062	1237.19
298.292	1394.19
298.523	1524.19
298.753	1740.19
298.984	1556.19
299.214	1236.19
299.445	1059.19
299.675	1009.19
299.905	995.19
300.136	1035.19
300.366	1150.19
300.597	1122.19
300.827	978.19
301.057	965.19
301.288	980.19
301.518	1052.19
301.748	1194.19
301.979	1275.19
302.209	1422.19
302.439	1434.19
302.669	1230.19
302.9	1200.19
303.13	1165.19
303.36	1096.19
303.59	1030.19
303.82	1070.19
304.051	1214.19
304.281	1326.19
304.511	1226.19
304.741	1120.19
304.971	1187.19
305.201	1262.19
305.431	1152.19
305.661	1040.19
305.891	1023.19
306.121	1054.19
306.352	971.19
306.582	862.19
306.812	850.19
307.042	848.19
307.272	783.19
307.502	804.19
307.731	872.19
307.961	892.19
308.191	835.19
308.421	798.19
308.651	770.19
308.881	769.19
309.111	760.19
309.341	815.19
309.571	873.19
309.8	896.19
310.03	896.19
310.26	979.19
310.49	926.19
310.72	864.19
310.949	840.19
311.179	882.19
311.409	920.19
311.639	1054.19
311.868	1361.19
312.098	1770.19
312.328	1896.19
312.557	1858.19
312.787	1815.19
313.017	1606.19
313.246	1755.19
313.476	1944.19
313.706	1579.19
313.935	1274.19
314.165	1014.19
314.394	952.19
314.624	972.19
314.853	978.19
315.083	1023.19
315.312	989.19
315.542	1002.19
315.771	917.19
316.001	835.19
316.23	839.19
316.46	851.19
316.689	849.19
316.919	891.19
317.148	883.19
317.377	867.19
317.607	899.19
317.836	931.19
318.065	1084.19
318.295	1207.19
318.524	1115.19
318.753	973.19
318.983	916.19
319.212	923.19
319.441	977.19
319.67	1124.19
319.9	1151.19
320.129	1114.19
320.358	962.19
320.587	916.19
320.816	1024.19
321.046	1144.19
321.275	1285.19
321.504	1274.19
321.733	1241.19
321.962	1184.19
322.191	1136.19
322.42	1066.19
322.649	1067.19
322.878	1187.19
323.108	1159.19
323.337	1087.19
323.566	1054.19
323.795	1042.19
324.024	989.19
324.253	959.19
324.482	950.19
324.71	1027.19
324.939	1185.19
325.168	1106.19
325.397	925.19
325.626	903.19
325.855	898.19
326.084	891.19
326.313	848.19
326.542	816.19
326.77	872.19
326.999	902.19
327.228	944.19
327.457	991.19
327.686	1000.19
327.914	878.19
328.143	811.19
328.372	798.19
328.6	830.19
328.829	854.19
329.058	883.19
329.287	877.19
329.515	879.19
329.744	880.19
329.972	810.19
330.201	820.19
330.43	867.19
330.658	950.19
330.887	1022.19
331.115	1006.19
331.344	987.19
331.572	954.19
331.801	891.19
332.03	814.19
332.258	854.19
332.486	937.19
332.715	946.19
332.943	898.19
333.172	893.19
333.4	936.19
333.629	1011.19
333.857	1103.19
334.085	1104.19
334.314	1086.19
334.542	1046.19
334.771	959.19
334.999	935.19
335.227	909.19
335.455	909.19
335.684	1012.19
335.912	1164.19
336.14	1302.19
336.369	1238.19
336.597	1203.19
336.825	1339.19
337.053	1490.19
337.281	1195.19
337.51	977.19
337.738	997.19
337.966	1064.19
338.194	1154.19
338.422	1116.19
338.65	956.19
338.878	851.19
339.106	882.19
339.334	965.19
339.562	1014.19
339.79	994.19
340.018	956.19
340.246	1012.19
340.474	1150.19
340.702	1260.19
340.93	1282.19
341.158	1278.19
341.386	1106.19
341.614	1099.19
341.842	1108.19
342.07	1116.19
342.298	1295.19
342.526	1372.19
342.754	1163.19
342.981	1098.19
343.209	1022.19
343.437	1104.19
343.665	1217.19
343.893	1168.19
344.12	1353.19
344.348	1582.19
344.576	1404.19
344.804	1159.19
345.031	1006.19
345.259	954.19
345.487	976.19
345.714	1032.19
345.942	1052.19
346.17	1145.19
346.397	1090.19
346.625	978.19
346.853	954.19
347.08	941.19
347.308	970.19
347.535	1088.19
347.763	1108.19
347.99	979.19
348.218	905.19
348.445	951.19
348.673	922.19
348.9	942.19
349.128	1038.19
349.355	1030.19
349.583	1013.19
349.81	971.19
350.037	898.19
350.265	818.19
350.492	799.19
350.72	764.19
350.947	801.19
351.174	865.19
351.402	950.19
351.629	986.19
351.856	933.19
352.083	900.19
352.311	947.19
352.538	1036.19
352.765	1116.19
352.992	1003.19
353.22	952.19
353.447	964.19
353.674	949.19
353.901	958.19
354.128	916.19
354.355	977.19
354.583	977.19
354.81	970.19
355.037	965.19
355.264	972.19
355.491	1056.19
355.718	1107.19
355.945	1076.19
356.172	1060.19
356.399	1088.19
356.626	1310.19
356.853	1547.19
357.08	1651.19
357.307	1684.19
357.534	1315.19
357.761	1373.19
357.988	1690.19
358.215	2034.19
358.441	1914.19
358.668	1584.19
358.895	1434.19
359.122	1185.19
359.349	1171.19
359.576	1289.19
359.802	1056.19
360.029	929.19
360.256	982.19
360.483	1251.19
360.709	1540.19
360.936	1586.19
361.163	1418.19
361.39	1103.19
361.616	1024.19
361.843	1186.19
362.07	1457.19
362.296	1311.19
362.523	1059.19
362.749	924.19
362.976	1016.19
363.203	1159.19
363.429	1327.19
363.656	1031.19
363.882	975.19
364.109	989.19
364.335	958.19
364.562	961.19
364.788	1072.19
365.015	1281.19
365.241	1117.19
365.468	915.19
365.694	801.19
365.92	793.19
366.147	775.19
366.373	776.19
366.599	766.19
366.826	790.19
367.052	824.19
367.278	824.19
367.505	842.19
367.731	882.19
367.957	970.19
368.184	1008.19
368.41	992.19
368.636	1000.19
368.862	1022.19
369.089	998.19
369.315	932.19
369.541	874.19
369.767	880.19
369.993	803.19
370.219	840.19
370.445	872.19
370.672	1033.19
370.898	1035.19
371.124	1041.19
371.35	939.19
371.576	884.19
371.802	952.19
372.028	1143.19
372.254	1296.19
372.48	1110.19
372.706	986.19
372.932	1082.19
373.158	1125.19
373.384	1332.19
373.61	1768.19
373.835	1783.19
374.061	1383.19
374.287	1168.19
374.513	1342.19
374.739	1623.19
374.965	1696.19
375.191	1664.19
375.416	1152.19
375.642	1015.19
375.868	1153.19
376.094	1306.19
376.319	1146.19
376.545	1267.19
376.771	1303.19
376.997	1137.19
377.222	872.19
377.448	742.19
377.674	759.19
377.899	743.19
378.125	744.19
378.35	741.19
378.576	749.19
378.802	860.19
379.027	881.19
379.253	873.19
379.478	912.19
379.704	984.19
379.929	1063.19
380.155	1044.19
380.38	904.19
380.606	995.19
380.831	1113.19
381.057	1014.19
381.282	955.19
381.507	1166.19
381.733	1436.19
381.958	1511.19
382.184	1593.19
382.409	1650.19
382.634	1610.19
382.86	1712.19
383.085	1384.19
383.31	1106.19
383.535	1167.19
383.761	1212.19
383.986	1139.19
384.211	1374.19
384.436	1348.19
384.662	1019.19
384.887	980.19
385.112	1030.19
385.337	1056.19
385.562	987.19
385.787	1074.19
386.013	1198.19
386.238	1249.19
386.463	971.19
386.688	966.19
386.913	956.19
387.138	890.19
387.363	907.19
387.588	992.19
387.813	999.19
388.038	1070.19
388.263	947.19
388.488	927.19
388.713	1103.19
388.938	1164.19
389.163	978.19
389.387	882.19
389.612	930.19
389.837	914.19
390.062	927.19
390.287	981.19
390.512	1000.19
390.736	919.19
390.961	868.19
391.186	817.19
391.411	791.19
391.636	843.19
391.86	914.19
392.085	983.19
392.31	982.19
392.534	905.19
392.759	913.19
392.984	980.19
393.208	921.19
393.433	872.19
393.658	827.19
393.882	796.19
394.107	785.19
394.331	779.19
394.556	811.19
394.78	783.19
395.005	826.19
395.229	860.19
395.454	859.19
395.678	878.19
395.903	904.19
396.127	871.19
396.352	851.19
396.576	931.19
396.801	974.19
397.025	1079.19
397.249	1113.19
397.474	909.19
397.698	902.19
397.922	976.19
398.147	887.19
398.371	901.19
398.595	940.19
398.82	953.19
399.044	954.19
399.268	1002.19
399.492	1047.19
399.717	1026.19
399.941	1090.19
400.165	1055.19
400.389	1008.19
400.613	1044.19
400.837	1010.19
401.062	900.19
401.286	899.19
401.51	890.19
401.734	898.19
401.958	903.19
402.182	898.19
402.406	888.19
402.63	905.19
402.854	945.19
403.078	1067.19
403.302	1280.19
403.526	1298.19
403.75	1177.19
403.974	1044.19
404.198	1086.19
404.422	1210.19
404.645	1379.19
404.869	1515.19
405.093	1168.19
405.317	985.19
405.541	971.19
405.765	1018.19
405.988	1003.19
406.212	1080.19
406.436	1283.19
406.66	1395.19
406.883	1107.19
407.107	1170.19
407.331	1360.19
407.555	1302.19
407.778	1082.19
408.002	1059.19
408.226	1018.19
408.449	1063.19
408.673	1042.19
408.896	946.19
409.12	901.19
409.344	914.19
409.567	868.19
409.791	875.19
410.014	879.19
410.238	884.19
410.461	885.19
410.685	895.19
410.908	881.19
411.132	912.19
411.355	906.19
411.578	945.19
411.802	945.19
412.025	977.19
412.249	963.19
412.472	942.19
412.695	953.19
412.919	951.19
413.142	947.19
413.365	1033.19
413.589	1058.19
413.812	944.19
414.035	920.19
414.258	966.19
414.482	1046.19
414.705	1042.19
414.928	912.19
415.151	870.19
415.374	890.19
415.597	894.19
415.821	896.19
416.044	891.19
416.267	874.19
416.49	893.19
416.713	878.19
416.936	843.19
417.159	858.19
417.382	889.19
417.605	882.19
417.828	886.19
418.051	919.19
418.274	938.19
418.497	928.19
418.72	913.19
418.943	947.19
419.166	999.19
419.389	1030.19
419.611	1011.19
419.834	993.19
420.057	1091.19
420.28	1086.19
420.503	1007.19
420.726	900.19
420.948	874.19
421.171	863.19
421.394	895.19
421.617	873.19
421.839	875.19
422.062	936.19
422.285	898.19
422.507	939.19
422.73	952.19
422.953	960.19
423.175	934.19
423.398	963.19
423.621	980.19
423.843	1033.19
424.066	978.19
424.288	962.19
424.511	904.19
424.733	923.19
424.956	935.19
425.178	1048.19
425.401	1196.19
425.623	1339.19
425.846	1120.19
426.068	1011.19
426.291	1107.19
426.513	1006.19
426.735	905.19
426.958	989.19
427.18	1122.19
427.402	1458.19
427.625	1424.19
427.847	1158.19
428.069	872.19
428.292	905.19
428.514	906.19
428.736	871.19
428.958	936.19
429.181	1099.19
429.403	957.19
429.625	883.19
429.847	851.19
430.069	889.19
430.292	873.19
430.514	830.19
430.736	967.19
430.958	1162.19
431.18	1094.19
431.402	848.19
431.624	811.19
431.846	808.19
432.068	786.19
432.29	806.19
432.512	915.19
432.734	1204.19
432.956	1132.19
433.178	865.19
433.4	832.19
433.622	857.19
433.844	852.19
434.066	926.19
434.287	907.19
434.509	840.19
434.731	920.19
434.953	854.19
435.175	894.19
435.397	1030.19
435.618	896.19
435.84	832.19
436.062	817.19
436.284	834.19
436.505	791.19
436.727	766.19
436.949	790.19
437.17	835.19
437.392	810.19
437.614	832.19
437.835	816.19
438.057	857.19
438.278	985.19
438.5	1380.19
438.721	1330.19
438.943	918.19
439.165	818.19
439.386	782.19
439.608	778.19
439.829	791.19
440.05	803.19
440.272	864.19
440.493	992.19
440.715	1242.19
440.936	979.19
441.158	844.19
441.379	873.19
441.6	960.19
441.822	1008.19
442.043	864.19
442.264	848.19
442.486	827.19
442.707	849.19
442.928	872.19
443.149	906.19
443.371	922.19
443.592	943.19
443.813	917.19
444.034	914.19
444.255	900.19
444.476	934.19
444.698	928.19
444.919	931.19
445.14	1030.19
445.361	962.19
445.582	959.19
445.803	905.19
446.024	937.19
446.245	908.19
446.466	902.19
446.687	855.19
446.908	852.19
447.129	841.19
447.35	825.19
447.571	795.19
447.792	814.19
448.013	786.19
448.234	776.19
448.455	772.19
448.675	787.19
448.896	794.19
449.117	788.19
449.338	808.19
449.559	814.19
449.779	863.19
450	855.19
450.221	808.19
450.442	805.19
450.662	804.19
450.883	801.19
451.104	786.19
451.324	784.19
451.545	815.19
451.766	774.19
451.986	756.19
452.207	786.19
452.428	771.19
452.648	771.19
452.869	816.19
453.089	833.19
453.31	801.19
453.53	753.19
453.751	723.19
453.971	731.19
454.192	757.19
454.412	772.19
454.633	756.19
454.853	772.19
455.073	713.19
455.294	732.19
455.514	738.19
455.734	746.19
455.955	815.19
456.175	814.19
456.395	758.19
456.616	702.19
456.836	708.19
457.056	694.19
457.276	699.19
457.497	703.19
457.717	701.19
457.937	709.19
458.157	711.19
458.377	703.19
458.598	742.19
458.818	767.19
459.038	805.19
459.258	839.19
459.478	857.19
459.698	900.19
459.918	902.19
460.138	871.19
460.358	894.19
460.578	862.19
460.798	902.19
461.018	892.19
461.238	838.19
461.458	864.19
461.678	893.19
461.898	932.19
462.118	934.19
462.338	920.19
462.558	926.19
462.777	960.19
462.997	980.19
463.217	983.19
463.437	1054.19
463.657	1016.19
463.876	958.19
464.096	950.19
464.316	976.19
464.536	970.19
464.755	1011.19
464.975	991.19
465.195	966.19
465.414	970.19
465.634	946.19
465.854	948.19
466.073	854.19
466.293	890.19
466.512	923.19
466.732	996.19
466.951	1030.19
467.171	908.19
467.391	874.19
467.61	877.19
467.829	944.19
468.049	934.19
468.268	840.19
468.488	877.19
468.707	920.19
468.927	1025.19
469.146	1163.19
469.365	1029.19
469.585	962.19
469.804	984.19
470.023	1134.19
470.243	961.19
470.462	938.19
470.681	890.19
470.901	902.19
471.12	965.19
471.339	983.19
471.558	906.19
471.777	930.19
471.997	1003.19
472.216	1123.19
472.435	1047.19
472.654	1004.19
472.873	947.19
473.092	982.19
473.311	1023.19
473.53	939.19
473.749	917.19
473.968	980.19
474.187	983.19
474.406	914.19
474.625	925.19
474.844	958.19
475.063	1032.19
475.282	1026.19
475.501	1076.19
475.72	1103.19
475.939	1103.19
476.158	1069.19
476.377	1267.19
476.596	1431.19
476.814	1512.19
477.033	1219.19
477.252	1050.19
477.471	1022.19
477.69	969.19
477.908	1087.19
478.127	1167.19
478.346	1059.19
478.564	1127.19
478.783	1091.19
479.002	1063.19
479.22	1280.19
479.439	1414.19
479.658	1256.19
479.876	1129.19
480.095	1180.19
480.313	1193.19
480.532	1137.19
480.751	1122.19
480.969	1126.19
481.188	1272.19
481.406	1281.19
481.624	1221.19
481.843	1132.19
482.061	1090.19
482.28	1193.19
482.498	1488.19
482.717	1383.19
482.935	1169.19
483.153	1136.19
483.372	1076.19
483.59	1045.19
483.808	1060.19
484.027	1011.19
484.245	979.19
484.463	968.19
484.681	1007.19
484.9	1108.19
485.118	1192.19
485.336	1079.19
485.554	1039.19
485.772	1094.19
485.99	1143.19
486.209	1244.19
486.427	1228.19
486.645	1199.19
486.863	1255.19
487.081	1228.19
487.299	1363.19
487.517	1344.19
487.735	1243.19
487.953	1256.19
488.171	1244.19
488.389	1176.19
488.607	1091.19
488.825	1164.19
489.043	1236.19
489.261	1419.19
489.479	1544.19
489.696	1306.19
489.914	1163.19
490.132	1104.19
490.35	1121.19
490.568	1152.19
490.786	1114.19
491.003	1083.19
491.221	1156.19
491.439	1165.19
491.657	1147.19
491.874	1222.19
492.092	1462.19
492.31	1719.19
492.527	1707.19
492.745	1502.19
492.963	1298.19
493.18	1262.19
493.398	1268.19
493.615	1263.19
493.833	1256.19
494.05	1210.19
494.268	1246.19
494.485	1210.19
494.703	1198.19
494.92	1244.19
495.138	1185.19
495.355	1226.19
495.573	1241.19
495.79	1369.19
496.008	1781.19
496.225	1539.19
496.442	1387.19
496.66	1352.19
496.877	1439.19
497.094	1370.19
497.312	1332.19
497.529	1287.19
497.746	1328.19
497.963	1346.19
498.181	1478.19
498.398	1568.19
498.615	1660.19
498.832	1724.19
499.049	1721.19
499.267	1521.19
499.484	1537.19
499.701	1609.19
499.918	1767.19
500.135	1888.19
500.352	1889.19
500.569	1970.19
500.786	1998.19
501.003	1995.19
501.22	1838.19
501.437	1745.19
501.654	1648.19
501.871	1662.19
502.088	1648.19
502.305	1499.19
502.522	1530.19
502.739	1470.19
502.956	1371.19
503.172	1360.19
503.389	1308.19
503.606	1271.19
503.823	1308.19
504.04	1325.19
504.256	1328.19
504.473	1327.19
504.69	1319.19
504.907	1351.19
505.123	1330.19
505.34	1427.19
505.557	1428.19
505.773	1292.19
505.99	1350.19
506.207	1361.19
506.423	1235.19
506.64	1168.19
506.856	1238.19
507.073	1354.19
507.289	1322.19
507.506	1338.19
507.722	1407.19
507.939	1433.19
508.155	1421.19
508.372	1296.19
508.588	1245.19
508.805	1205.19
509.021	1236.19
509.238	1144.19
509.454	1171.19
509.67	1180.19
509.887	1194.19
510.103	1320.19
510.319	1286.19
510.536	1162.19
510.752	1086.19
510.968	1040.19
511.184	997.19
511.401	1010.19
511.617	1016.19
511.833	1036.19
512.049	1030.19
512.265	1091.19
512.481	1123.19
512.698	1228.19
512.914	1361.19
513.13	1215.19
513.346	1150.19
513.562	1208.19
513.778	1159.19
513.994	1142.19
514.21	1194.19
514.426	1174.19
514.642	1152.19
514.858	1134.19
515.074	1169.19
515.29	1254.19
515.506	1415.19
515.721	1330.19
515.937	1254.19
516.153	1163.19
516.369	1125.19
516.585	1190.19
516.801	1338.19
517.016	1582.19
517.232	1554.19
517.448	1512.19
517.664	1371.19
517.879	1267.19
518.095	1264.19
518.311	1264.19
518.527	1328.19
518.742	1362.19
518.958	1480.19
519.173	1377.19
519.389	1324.19
519.605	1361.19
519.82	1469.19
520.036	1742.19
520.251	1644.19
520.467	1555.19
520.682	2313.19
520.898	2812.19
521.113	2651.19
521.329	1686.19
521.544	1526.19
521.76	1481.19
521.975	1326.19
522.19	1273.19
522.406	1316.19
522.621	1447.19
522.836	1509.19
523.052	1542.19
523.267	1270.19
523.482	1266.19
523.698	1372.19
523.913	1377.19
524.128	1176.19
524.343	1128.19
524.559	1153.19
524.774	1107.19
524.989	1152.19
525.204	1164.19
525.419	1285.19
525.634	1211.19
525.849	1243.19
526.064	1250.19
526.28	1235.19
526.495	1489.19
526.71	1504.19
526.925	1314.19
527.14	1370.19
527.355	1325.19
527.57	1119.19
527.785	1165.19
527.999	1109.19
528.214	1040.19
528.429	1054.19
528.644	1069.19
528.859	988.19
529.074	992.19
529.289	960.19
529.503	962.19
529.718	1020.19
529.933	1152.19
530.148	1140.19
530.363	1024.19
530.577	1002.19
530.792	974.19
531.007	1001.19
531.221	936.19
531.436	955.19
531.651	965.19
531.865	1003.19
532.08	1022.19
532.295	985.19
532.509	1020.19
532.724	1145.19
532.938	1278.19
533.153	1486.19
533.367	1211.19
533.582	1178.19
533.796	1064.19
534.011	1055.19
534.225	1040.19
534.44	1033.19
534.654	1094.19
534.868	1200.19
535.083	1103.19
535.297	996.19
535.511	1008.19
535.726	1140.19
535.94	1045.19
536.154	1007.19
536.369	984.19
536.583	999.19
536.797	1001.19
537.011	1029.19
537.225	1089.19
537.44	1159.19
537.654	1006.19
537.868	998.19
538.082	994.19
538.296	1014.19
538.51	1087.19
538.724	1063.19
538.938	1012.19
539.153	973.19
539.367	957.19
539.581	955.19
539.795	1036.19
540.009	1129.19
540.222	1045.19
540.436	1042.19
540.65	1143.19
540.864	1135.19
541.078	1157.19
541.292	1297.19
541.506	1089.19
541.72	1043.19
541.934	999.19
542.147	1028.19
542.361	1040.19
542.575	1046.19
542.789	1036.19
543.002	927.19
543.216	1043.19
543.43	957.19
543.644	934.19
543.857	902.19
544.071	918.19
544.285	931.19
544.498	907.19
544.712	910.19
544.925	980.19
545.139	975.19
545.352	914.19
545.566	916.19
545.779	1051.19
545.993	970.19
546.206	887.19
546.42	867.19
546.633	907.19
546.847	859.19
547.06	844.19
547.274	836.19
547.487	884.19
547.7	957.19
547.914	982.19
548.127	1110.19
548.34	1088.19
548.554	974.19
548.767	1002.19
548.98	1059.19
549.193	971.19
549.407	1013.19
549.62	1164.19
549.833	1096.19
550.046	1149.19
550.259	1136.19
550.473	1006.19
550.686	959.19
550.899	987.19
551.112	972.19
551.325	1041.19
551.538	1086.19
551.751	927.19
551.964	883.19
552.177	896.19
552.39	878.19
552.603	878.19
552.816	908.19
553.029	871.19
553.242	862.19
553.455	893.19
553.667	1002.19
553.88	975.19
554.093	914.19
554.306	838.19
554.519	804.19
554.732	786.19
554.944	782.19
555.157	764.19
555.37	758.19
555.583	759.19
555.795	773.19
556.008	784.19
556.221	800.19
556.433	791.19
556.646	794.19
556.859	809.19
557.071	829.19
557.284	807.19
557.496	804.19
557.709	800.19
557.921	780.19
558.134	735.19
558.346	719.19
558.559	740.19
558.771	768.19
558.984	794.19
559.196	750.19
559.409	717.19
559.621	717.19
559.833	709.19
560.046	728.19
560.258	726.19
560.47	734.19
560.683	692.19
560.895	674.19
561.107	679.19
561.32	683.19
561.532	706.19
561.744	747.19
561.956	785.19
562.168	703.19
562.381	713.19
562.593	711.19
562.805	748.19
563.017	693.19
563.229	673.19
563.441	663.19
563.653	651.19
563.865	683.19
564.077	712.19
564.289	692.19
564.501	682.19
564.713	741.19
564.925	730.19
565.137	680.19
565.349	691.19
565.561	690.19
565.773	720.19
565.985	740.19
566.197	787.19
566.408	838.19
566.62	874.19
566.832	848.19
567.044	833.19
567.255	904.19
567.467	986.19
567.679	894.19
567.891	875.19
568.102	882.19
568.314	892.19
568.526	847.19
568.737	808.19
568.949	861.19
569.161	747.19
569.372	681.19
569.584	689.19
569.795	666.19
570.007	696.19
570.218	747.19
570.43	741.19
570.641	700.19
570.853	656.19
571.064	651.19
571.276	690.19
571.487	698.19
571.698	675.19
571.91	649.19
572.121	656.19
572.333	612.19
572.544	630.19
572.755	608.19
572.966	608.19
573.178	628.19
573.389	644.19
573.6	626.19
573.811	629.19
574.023	606.19
574.234	594.19
574.445	589.19
574.656	562.19
574.867	600.19
575.078	591.19
575.289	587.19
575.501	615.19
575.712	594.19
575.923	568.19
576.134	542.19
576.345	549.19
576.556	551.19
576.767	545.19
576.978	514.19
577.188	515.19
577.399	527.19
577.61	519.19
577.821	518.19
578.032	547.19
578.243	560.19
578.454	576.19
578.665	572.19
578.875	537.19
579.086	550.19
579.297	560.19
579.508	558.19
579.718	537.19
579.929	552.19
580.14	543.19
580.35	499.19
580.561	500.19
580.772	487.19
580.982	485.19
581.193	495.19
581.403	466.19
581.614	472.19
581.825	471.19
582.035	477.19
582.246	467.19
582.456	460.19
582.667	476.19
582.877	456.19
583.087	470.19
583.298	442.19
583.508	470.19
583.719	470.19
583.929	471.19
584.139	443.19
584.35	424.19
584.56	492.19
584.77	454.19
584.981	478.19
585.191	468.19
585.401	460.19
585.611	472.19
585.821	480.19
586.032	492.19
586.242	466.19
586.452	463.19
586.662	459.19
586.872	495.19
587.082	501.19
587.292	469.19
587.502	459.19
587.713	454.19
587.923	471.19
588.133	504.19
588.343	478.19
588.553	439.19
588.762	446.19
588.972	446.19
589.182	458.19
589.392	430.19
589.602	444.19
589.812	488.19
590.022	499.19
590.232	504.19
590.441	460.19
590.651	446.19
590.861	460.19
591.071	472.19
591.281	437.19
591.49	438.19
591.7	445.19
591.91	456.19
592.119	442.19
592.329	454.19
592.539	454.19
592.748	477.19
592.958	462.19
593.167	479.19
593.377	479.19
593.587	522.19
593.796	488.19
594.006	456.19
594.215	465.19
594.424	495.19
594.634	505.19
594.843	504.19
595.053	446.19
595.262	432.19
595.472	439.19
595.681	421.19
595.89	419.19
596.1	444.19
596.309	461.19
596.518	420.19
596.727	432.19
596.937	426.19
597.146	430.19
597.355	443.19
597.564	438.19
597.774	418.19
597.983	406.19
598.192	395.19
598.401	396.19
598.61	405.19
598.819	407.19
599.028	408.19
599.237	384.19
599.446	368.19
599.655	377.19
599.864	392.19
600.073	374.19
600.282	394.19
600.491	384.19
600.7	381.19
600.909	379.19
601.118	384.19
601.327	396.19
601.536	373.19
601.745	397.19
601.953	405.19
602.162	390.19
602.371	431.19
602.58	390.19
602.789	384.19
602.997	376.19
603.206	380.19
603.415	378.19
603.623	366.19
603.832	366.19
604.041	346.19
604.249	353.19
604.458	400.19
604.666	368.19
604.875	359.19
605.084	363.19
605.292	352.19
605.501	363.19
605.709	388.19
605.918	367.19
606.126	354.19
606.334	354.19
606.543	350.19
606.751	357.19
606.96	342.19
607.168	356.19
607.376	334.19
607.585	346.19
607.793	361.19
608.001	370.19
608.21	354.19
608.418	352.19
608.626	361.19
608.834	335.19
609.043	347.19
609.251	348.19
609.459	349.19
609.667	343.19
609.875	322.19
610.083	346.19
610.291	363.19
610.499	357.19
610.707	351.19
610.916	344.19
611.124	324.19
611.332	348.19
611.54	355.19
611.748	345.19
611.955	331.19
612.163	340.19
612.371	360.19
612.579	337.19
612.787	347.19
612.995	315.19
613.203	351.19
613.411	330.19
613.618	330.19
613.826	335.19
614.034	353.19
614.242	320.19
614.449	324.19
614.657	342.19
614.865	327.19
615.072	322.19
615.28	331.19
615.488	322.19
615.695	333.19
615.903	330.19
616.111	339.19
616.318	319.19
616.526	325.19
616.733	333.19
616.941	320.19
617.148	323.19
617.356	322.19
617.563	322.19
617.771	322.19
617.978	312.19
618.185	316.19
618.393	308.19
618.6	321.19
618.807	328.19
619.015	316.19
619.222	310.19
619.429	316.19
619.637	329.19
619.844	310.19
620.051	310.19
620.258	290.19
620.466	300.19
620.673	299.19
620.88	294.19
621.087	302.19
621.294	286.19
621.501	292.19
621.708	306.19
621.915	308.19
622.122	319.19
622.329	305.19
622.536	297.19
622.743	276.19
622.95	291.19
623.157	286.19
623.364	304.19
623.571	314.19
623.778	307.19
623.985	322.19
624.192	314.19
624.399	287.19
624.606	310.19
624.812	282.19
625.019	296.19
625.226	321.19
625.433	304.19
625.639	286.19
625.846	277.19
626.053	282.19
626.259	275.19
626.466	290.19
626.673	318.19
626.879	275.19
627.086	258.19
627.293	276.19
627.499	279.19
627.706	274.19
627.912	259.19
628.119	256.19
628.325	263.19
628.532	273.19
628.738	274.19
628.945	259.19
629.151	273.19
629.357	263.19
629.564	256.19
629.77	249.19
629.976	246.19
630.183	244.19
630.389	256.19
630.595	263.19
630.802	258.19
631.008	266.19
631.214	243.19
631.42	258.19
631.627	267.19
631.833	256.19
632.039	265.19
632.245	238.19
632.451	263.19
632.657	251.19
632.863	259.19
633.069	246.19
633.275	244.19
633.481	224.19
633.688	243.19
633.893	233.19
634.099	240.19
634.305	254.19
634.511	234.19
634.717	241.19
634.923	234.19
635.129	231.19
635.335	235.19
635.541	219.19
635.747	234.19
635.952	239.19
636.158	246.19
636.364	258.19
636.57	228.19
636.775	258.19
636.981	231.19
637.187	216.19
637.392	248.19
637.598	241.19
637.804	239.19
638.009	224.19
638.215	224.19
638.421	247.19
638.626	230.19
638.832	222.19
639.037	203.19
639.243	210.19
639.448	222.19
639.654	238.19
639.859	219.19
640.065	227.19
640.27	235.19
640.475	224.19
640.681	233.19
640.886	232.19
641.091	214.19
641.297	231.19
641.502	230.19
641.707	234.19
641.913	225.19
642.118	220.19
642.323	230.19
642.528	224.19
642.733	232.19
642.939	243.19
643.144	205.19
643.349	209.19
643.554	218.19
643.759	221.19
643.964	224.19
644.169	215.19
644.374	215.19
644.579	203.19
644.784	211.19
644.989	206.19
645.194	197.19
645.399	222.19
645.604	226.19
645.809	216.19
646.014	228.19
646.219	207.19
646.423	214.19
646.628	217.19
646.833	206.19
647.038	220.19
647.243	211.19
647.447	212.19
647.652	200.19
647.857	204.19
648.062	204.19
648.266	209.19
648.471	210.19
648.676	214.19
648.88	211.19
649.085	226.19
649.289	215.19
649.494	225.19
649.698	210.19
649.903	217.19
650.107	204.19
650.312	208.19
650.516	209.19
650.721	203.19
650.925	194.19
651.13	195.19
651.334	182.19
651.539	188.19
651.743	195.19
651.947	194.19
652.152	175.19
652.356	196.19
652.56	192.19
652.764	191.19
652.969	184.19
653.173	179.19
653.377	182.19
653.581	164.19
653.785	158.19
653.99	150.19
654.194	160.19
654.398	169.19
654.602	162.19
654.806	150.19
655.01	169.19
655.214	152.19
655.418	156.19
655.622	160.19
655.826	175.19
656.03	162.19
656.234	174.19
656.438	166.19
656.642	170.19
656.846	175.19
657.049	169.19
657.253	138.19
657.457	158.19
657.661	135.19
657.865	139.19
658.068	133.19
658.272	121.19
658.476	122.19
658.68	120.19
658.883	113.19
659.087	122.19
659.291	112.19
659.494	106.19
659.698	100.19
659.901	115.19
660.105	112.19
660.309	105.19
660.512	102.19
660.716	107.19
660.919	124.19
661.123	110.19
661.326	110.19
661.53	98.19
661.733	111.19
661.936	111.19
662.14	94.19
662.343	98.19
662.546	98.19
662.75	95.19
662.953	95.19
663.156	95.19
663.36	80.19
663.563	76.19
663.766	88.19
663.969	74.19
664.173	94.19
664.376	88.19
664.579	91.19
664.782	90.19
664.985	97.19
665.188	80.19
665.391	95.19
665.594	77.19
665.797	84.19
666	84.19
666.203	81.19
666.406	90.19
666.609	73.19
666.812	77.19
667.015	73.19
667.218	85.19
667.421	94.19
667.624	90.19
667.827	80.19
668.03	85.19
668.232	78.19
668.435	83.19
668.638	79.19
668.841	83.19
669.043	80.19
669.246	76.19
669.449	84.19
669.651	82.19
669.854	72.19
670.057	79.19
670.259	89.19
670.462	94.19
670.665	84.19
670.867	86.19
671.07	87.19
671.272	93.19
671.475	95.19
671.677	88.19
671.88	104.19
672.082	79.19
672.284	84.19
672.487	71.19
672.689	78.19
672.892	92.19
