Data from NickelSpatula.Lamp.E10.P2_HRD10591_11-58-59-526.txt Node
Date: Tue Jul 23 11:58:59 EDT 2019
User: cochatt
Spectrometer: HR+D1059
Trigger mode: 1
Integration Time (sec): 1.000000E-1
Scans to average: 1
Electric dark correction enabled: true
Nonlinearity correction enabled: false
Boxcar width: 0
XAxis mode: Wavelengths
Number of Pixels in Spectrum: 2048
>>>>>Begin Spectral Data<<<<<
223.165	-12.88
223.4	-12.88
223.635	-12.88
223.869	-14.88
224.104	-11.88
224.338	-24.88
224.573	-20.88
224.808	-0.88
225.042	-3.88
225.277	0.12
225.511	3.12
225.746	-9.88
225.98	7.12
226.215	12.12
226.449	4.12
226.683	19.12
226.918	24.12
227.152	30.12
227.387	30.12
227.621	37.12
227.856	55.12
228.09	44.12
228.324	39.12
228.559	59.12
228.793	91.12
229.027	156.12
229.262	165.12
229.496	143.12
229.73	161.12
229.964	193.12
230.199	213.12
230.433	218.12
230.667	216.12
230.901	203.12
231.136	192.12
231.37	208.12
231.604	215.12
231.838	230.12
232.072	259.12
232.306	240.12
232.541	246.12
232.775	247.12
233.009	254.12
233.243	312.12
233.477	308.12
233.711	343.12
233.945	331.12
234.179	314.12
234.413	344.12
234.647	405.12
234.881	444.12
235.115	424.12
235.349	418.12
235.583	361.12
235.817	361.12
236.051	369.12
236.285	440.12
236.519	461.12
236.753	443.12
236.987	441.12
237.221	390.12
237.455	424.12
237.689	455.12
237.922	463.12
238.156	495.12
238.39	559.12
238.624	674.12
238.858	594.12
239.091	497.12
239.325	520.12
239.559	486.12
239.793	545.12
240.027	648.12
240.26	605.12
240.494	575.12
240.728	595.12
240.961	676.12
241.195	624.12
241.429	629.12
241.662	629.12
241.896	514.12
242.13	470.12
242.363	451.12
242.597	485.12
242.83	550.12
243.064	534.12
243.298	602.12
243.531	591.12
243.765	632.12
243.998	620.12
244.232	608.12
244.465	622.12
244.699	588.12
244.932	648.12
245.166	626.12
245.399	546.12
245.633	536.12
245.866	570.12
246.099	629.12
246.333	724.12
246.566	781.12
246.8	796.12
247.033	769.12
247.266	707.12
247.5	686.12
247.733	678.12
247.966	682.12
248.2	691.12
248.433	768.12
248.666	858.12
248.899	832.12
249.133	885.12
249.366	986.12
249.599	1085.12
249.832	940.12
250.066	842.12
250.299	841.12
250.532	826.12
250.765	799.12
250.998	743.12
251.231	713.12
251.465	781.12
251.698	839.12
251.931	807.12
252.164	860.12
252.397	961.12
252.63	1058.12
252.863	1196.12
253.096	1187.12
253.329	1172.12
253.562	1118.12
253.795	1254.12
254.028	1356.12
254.261	1392.12
254.494	1271.12
254.727	1166.12
254.96	1124.12
255.193	1178.12
255.426	1132.12
255.659	860.12
255.892	810.12
256.124	881.12
256.357	1016.12
256.59	1217.12
256.823	1143.12
257.056	956.12
257.289	927.12
257.521	970.12
257.754	1142.12
257.987	1291.12
258.22	1115.12
258.452	973.12
258.685	1143.12
258.918	1290.12
259.151	1239.12
259.383	1310.12
259.616	1511.12
259.849	1589.12
260.081	1712.12
260.314	1909.12
260.547	1484.12
260.779	1493.12
261.012	1720.12
261.244	1617.12
261.477	1636.12
261.71	1561.12
261.942	1313.12
262.175	1310.12
262.407	1232.12
262.64	1282.12
262.872	1512.12
263.105	1630.12
263.337	1729.12
263.57	1540.12
263.802	1066.12
264.035	924.12
264.267	873.12
264.499	803.12
264.732	691.12
264.964	674.12
265.197	729.12
265.429	770.12
265.661	830.12
265.894	850.12
266.126	946.12
266.358	1049.12
266.591	1262.12
266.823	1528.12
267.055	1421.12
267.287	1259.12
267.52	1259.12
267.752	1329.12
267.984	1448.12
268.216	1412.12
268.448	1141.12
268.681	1092.12
268.913	1231.12
269.145	1282.12
269.377	1304.12
269.609	1298.12
269.841	1220.12
270.073	1290.12
270.306	1343.12
270.538	1367.12
270.77	1396.12
271.002	1418.12
271.234	1474.12
271.466	1507.12
271.698	1436.12
271.93	1435.12
272.162	1452.12
272.394	1407.12
272.626	1401.12
272.858	1455.12
273.09	1497.12
273.322	1304.12
273.553	1301.12
273.785	1518.12
274.017	2002.12
274.249	2462.12
274.481	2444.12
274.713	2768.12
274.945	3174.12
275.176	3312.12
275.408	2883.12
275.64	2648.12
275.872	2661.12
276.104	2227.12
276.335	1935.12
276.567	1902.12
276.799	1977.12
277.031	2079.12
277.262	1607.12
277.494	1266.12
277.726	1203.12
277.957	1342.12
278.189	1518.12
278.421	1467.12
278.652	1451.12
278.884	1356.12
279.115	1287.12
279.347	1195.12
279.579	1183.12
279.81	1182.12
280.042	1215.12
280.273	1233.12
280.505	1154.12
280.736	1040.12
280.968	1024.12
281.199	1104.12
281.431	1236.12
281.662	1218.12
281.894	1158.12
282.125	1274.12
282.356	1343.12
282.588	1426.12
282.819	1236.12
283.051	1367.12
283.282	1721.12
283.513	1966.12
283.745	2180.12
283.976	2177.12
284.207	1963.12
284.439	2060.12
284.67	2049.12
284.901	1816.12
285.132	1962.12
285.364	2011.12
285.595	1859.12
285.826	1990.12
286.057	2068.12
286.288	1980.12
286.52	2004.12
286.751	2122.12
286.982	2111.12
287.213	1811.12
287.444	1747.12
287.675	1860.12
287.906	1846.12
288.138	1513.12
288.369	1376.12
288.6	1266.12
288.831	1322.12
289.062	1546.12
289.293	1710.12
289.524	1618.12
289.755	1604.12
289.986	1608.12
290.217	1426.12
290.448	1108.12
290.679	968.12
290.91	900.12
291.141	923.12
291.371	1001.12
291.602	994.12
291.833	998.12
292.064	1069.12
292.295	1229.12
292.526	1401.12
292.757	1444.12
292.987	1565.12
293.218	1570.12
293.449	1623.12
293.68	1668.12
293.91	1592.12
294.141	1622.12
294.372	1522.12
294.603	1423.12
294.833	1596.12
295.064	1825.12
295.295	1757.12
295.525	1340.12
295.756	1144.12
295.987	1007.12
296.217	1009.12
296.448	1023.12
296.679	1112.12
296.909	1214.12
297.14	1336.12
297.37	1454.12
297.601	1381.12
297.831	1170.12
298.062	1254.12
298.292	1450.12
298.523	1540.12
298.753	1827.12
298.984	1585.12
299.214	1267.12
299.445	1089.12
299.675	1079.12
299.905	1043.12
300.136	1065.12
300.366	1206.12
300.597	1161.12
300.827	1025.12
301.057	971.12
301.288	1021.12
301.518	1073.12
301.748	1213.12
301.979	1342.12
302.209	1446.12
302.439	1458.12
302.669	1268.12
302.9	1262.12
303.13	1150.12
303.36	1109.12
303.59	1066.12
303.82	1100.12
304.051	1220.12
304.281	1371.12
304.511	1290.12
304.741	1147.12
304.971	1187.12
305.201	1278.12
305.431	1224.12
305.661	1046.12
305.891	1074.12
306.121	1066.12
306.352	960.12
306.582	874.12
306.812	850.12
307.042	842.12
307.272	799.12
307.502	811.12
307.731	896.12
307.961	908.12
308.191	854.12
308.421	830.12
308.651	798.12
308.881	771.12
309.111	761.12
309.341	807.12
309.571	879.12
309.8	924.12
310.03	937.12
310.26	990.12
310.49	994.12
310.72	859.12
310.949	859.12
311.179	881.12
311.409	927.12
311.639	1088.12
311.868	1394.12
312.098	1798.12
312.328	1904.12
312.557	1853.12
312.787	1897.12
313.017	1651.12
313.246	1855.12
313.476	1974.12
313.706	1646.12
313.935	1259.12
314.165	1032.12
314.394	984.12
314.624	943.12
314.853	998.12
315.083	1036.12
315.312	1011.12
315.542	1010.12
315.771	961.12
316.001	866.12
316.23	842.12
316.46	850.12
316.689	856.12
316.919	873.12
317.148	910.12
317.377	880.12
317.607	890.12
317.836	970.12
318.065	1139.12
318.295	1221.12
318.524	1151.12
318.753	991.12
318.983	934.12
319.212	902.12
319.441	1013.12
319.67	1167.12
319.9	1194.12
320.129	1129.12
320.358	992.12
320.587	953.12
320.816	1014.12
321.046	1182.12
321.275	1349.12
321.504	1328.12
321.733	1281.12
321.962	1235.12
322.191	1144.12
322.42	1084.12
322.649	1123.12
322.878	1186.12
323.108	1193.12
323.337	1121.12
323.566	1119.12
323.795	1052.12
324.024	1006.12
324.253	998.12
324.482	954.12
324.71	1094.12
324.939	1220.12
325.168	1115.12
325.397	925.12
325.626	882.12
325.855	937.12
326.084	912.12
326.313	847.12
326.542	860.12
326.77	869.12
326.999	910.12
327.228	946.12
327.457	1019.12
327.686	995.12
327.914	885.12
328.143	820.12
328.372	822.12
328.6	852.12
328.829	904.12
329.058	907.12
329.287	872.12
329.515	915.12
329.744	880.12
329.972	839.12
330.201	810.12
330.43	850.12
330.658	950.12
330.887	1062.12
331.115	1030.12
331.344	1018.12
331.572	959.12
331.801	884.12
332.03	846.12
332.258	870.12
332.486	968.12
332.715	962.12
332.943	914.12
333.172	911.12
333.4	931.12
333.629	1021.12
333.857	1145.12
334.085	1095.12
334.314	1134.12
334.542	1044.12
334.771	961.12
334.999	937.12
335.227	915.12
335.455	933.12
335.684	1022.12
335.912	1167.12
336.14	1320.12
336.369	1288.12
336.597	1220.12
336.825	1370.12
337.053	1546.12
337.281	1249.12
337.51	990.12
337.738	990.12
337.966	1032.12
338.194	1179.12
338.422	1104.12
338.65	944.12
338.878	892.12
339.106	914.12
339.334	1001.12
339.562	1076.12
339.79	1037.12
340.018	965.12
340.246	1029.12
340.474	1176.12
340.702	1257.12
340.93	1351.12
341.158	1272.12
341.386	1113.12
341.614	1107.12
341.842	1109.12
342.07	1170.12
342.298	1343.12
342.526	1401.12
342.754	1184.12
342.981	1099.12
343.209	1035.12
343.437	1150.12
343.665	1184.12
343.893	1186.12
344.12	1403.12
344.348	1604.12
344.576	1418.12
344.804	1188.12
345.031	1018.12
345.259	980.12
345.487	986.12
345.714	1011.12
345.942	1084.12
346.17	1194.12
346.397	1121.12
346.625	1001.12
346.853	982.12
347.08	978.12
347.308	1026.12
347.535	1120.12
347.763	1131.12
347.99	988.12
348.218	923.12
348.445	963.12
348.673	995.12
348.9	977.12
349.128	1062.12
349.355	1094.12
349.583	1105.12
349.81	1011.12
350.037	945.12
350.265	833.12
350.492	797.12
350.72	786.12
350.947	843.12
351.174	879.12
351.402	921.12
351.629	988.12
351.856	915.12
352.083	893.12
352.311	994.12
352.538	1084.12
352.765	1129.12
352.992	1046.12
353.22	983.12
353.447	1032.12
353.674	979.12
353.901	990.12
354.128	963.12
354.355	1033.12
354.583	967.12
354.81	976.12
355.037	998.12
355.264	1026.12
355.491	1104.12
355.718	1166.12
355.945	1150.12
356.172	1120.12
356.399	1083.12
356.626	1328.12
356.853	1648.12
357.08	1708.12
357.307	1772.12
357.534	1349.12
357.761	1391.12
357.988	1771.12
358.215	2086.12
358.441	1958.12
358.668	1641.12
358.895	1481.12
359.122	1234.12
359.349	1222.12
359.576	1332.12
359.802	1096.12
360.029	946.12
360.256	1022.12
360.483	1296.12
360.709	1632.12
360.936	1660.12
361.163	1437.12
361.39	1136.12
361.616	1065.12
361.843	1225.12
362.07	1526.12
362.296	1353.12
362.523	1066.12
362.749	938.12
362.976	1023.12
363.203	1210.12
363.429	1352.12
363.656	1100.12
363.882	971.12
364.109	997.12
364.335	1025.12
364.562	987.12
364.788	1104.12
365.015	1326.12
365.241	1160.12
365.468	953.12
365.694	846.12
365.92	797.12
366.147	805.12
366.373	781.12
366.599	804.12
366.826	818.12
367.052	810.12
367.278	829.12
367.505	784.12
367.731	900.12
367.957	1056.12
368.184	1048.12
368.41	1011.12
368.636	1025.12
368.862	1078.12
369.089	986.12
369.315	916.12
369.541	904.12
369.767	873.12
369.993	844.12
370.219	871.12
370.445	907.12
370.672	1035.12
370.898	1091.12
371.124	1074.12
371.35	946.12
371.576	906.12
371.802	990.12
372.028	1148.12
372.254	1342.12
372.48	1126.12
372.706	1028.12
372.932	1081.12
373.158	1144.12
373.384	1382.12
373.61	1861.12
373.835	1883.12
374.061	1364.12
374.287	1162.12
374.513	1428.12
374.739	1646.12
374.965	1710.12
375.191	1666.12
375.416	1156.12
375.642	1014.12
375.868	1205.12
376.094	1371.12
376.319	1186.12
376.545	1279.12
376.771	1397.12
376.997	1180.12
377.222	894.12
377.448	734.12
377.674	769.12
377.899	750.12
378.125	745.12
378.35	736.12
378.576	783.12
378.802	882.12
379.027	926.12
379.253	898.12
379.478	937.12
379.704	1052.12
379.929	1102.12
380.155	1054.12
380.38	951.12
380.606	980.12
380.831	1097.12
381.057	1017.12
381.282	980.12
381.507	1172.12
381.733	1496.12
381.958	1552.12
382.184	1669.12
382.409	1700.12
382.634	1666.12
382.86	1789.12
383.085	1427.12
383.31	1154.12
383.535	1228.12
383.761	1215.12
383.986	1175.12
384.211	1418.12
384.436	1341.12
384.662	1050.12
384.887	988.12
385.112	1026.12
385.337	1058.12
385.562	989.12
385.787	1070.12
386.013	1195.12
386.238	1282.12
386.463	1058.12
386.688	996.12
386.913	960.12
387.138	906.12
387.363	975.12
387.588	986.12
387.813	991.12
388.038	1120.12
388.263	976.12
388.488	941.12
388.713	1125.12
388.938	1243.12
389.163	1020.12
389.387	902.12
389.612	906.12
389.837	983.12
390.062	948.12
390.287	1002.12
390.512	1000.12
390.736	928.12
390.961	887.12
391.186	827.12
391.411	841.12
391.636	845.12
391.86	942.12
392.085	1018.12
392.31	1011.12
392.534	930.12
392.759	904.12
392.984	966.12
393.208	976.12
393.433	865.12
393.658	832.12
393.882	779.12
394.107	784.12
394.331	798.12
394.556	811.12
394.78	833.12
395.005	836.12
395.229	867.12
395.454	886.12
395.678	896.12
395.903	918.12
396.127	873.12
396.352	920.12
396.576	992.12
396.801	981.12
397.025	1131.12
397.249	1108.12
397.474	956.12
397.698	920.12
397.922	952.12
398.147	905.12
398.371	905.12
398.595	987.12
398.82	932.12
399.044	976.12
399.268	1015.12
399.492	1027.12
399.717	1067.12
399.941	1086.12
400.165	1032.12
400.389	1065.12
400.613	1046.12
400.837	1030.12
401.062	912.12
401.286	892.12
401.51	897.12
401.734	920.12
401.958	910.12
402.182	914.12
402.406	913.12
402.63	913.12
402.854	961.12
403.078	1063.12
403.302	1306.12
403.526	1319.12
403.75	1202.12
403.974	1066.12
404.198	1062.12
404.422	1215.12
404.645	1422.12
404.869	1574.12
405.093	1167.12
405.317	1011.12
405.541	1016.12
405.765	1041.12
405.988	1029.12
406.212	1101.12
406.436	1302.12
406.66	1430.12
406.883	1125.12
407.107	1159.12
407.331	1379.12
407.555	1334.12
407.778	1090.12
408.002	1070.12
408.226	1051.12
408.449	1065.12
408.673	1033.12
408.896	922.12
409.12	920.12
409.344	945.12
409.567	866.12
409.791	902.12
410.014	894.12
410.238	896.12
410.461	885.12
410.685	924.12
410.908	903.12
411.132	932.12
411.355	908.12
411.578	929.12
411.802	925.12
412.025	995.12
412.249	983.12
412.472	967.12
412.695	970.12
412.919	943.12
413.142	975.12
413.365	1043.12
413.589	1036.12
413.812	949.12
414.035	917.12
414.258	931.12
414.482	1048.12
414.705	1066.12
414.928	887.12
415.151	887.12
415.374	872.12
415.597	930.12
415.821	924.12
416.044	901.12
416.267	871.12
416.49	865.12
416.713	842.12
416.936	865.12
417.159	867.12
417.382	900.12
417.605	884.12
417.828	902.12
418.051	901.12
418.274	954.12
418.497	955.12
418.72	930.12
418.943	956.12
419.166	1003.12
419.389	1049.12
419.611	980.12
419.834	1018.12
420.057	1104.12
420.28	1098.12
420.503	989.12
420.726	894.12
420.948	873.12
421.171	888.12
421.394	868.12
421.617	879.12
421.839	877.12
422.062	932.12
422.285	944.12
422.507	939.12
422.73	950.12
422.953	952.12
423.175	938.12
423.398	910.12
423.621	999.12
423.843	1071.12
424.066	977.12
424.288	960.12
424.511	914.12
424.733	910.12
424.956	986.12
425.178	1059.12
425.401	1230.12
425.623	1373.12
425.846	1139.12
426.068	981.12
426.291	1094.12
426.513	1020.12
426.735	980.12
426.958	1006.12
427.18	1162.12
427.402	1540.12
427.625	1502.12
427.847	1195.12
428.069	884.12
428.292	906.12
428.514	927.12
428.736	884.12
428.958	938.12
429.181	1091.12
429.403	969.12
429.625	885.12
429.847	876.12
430.069	907.12
430.292	921.12
430.514	862.12
430.736	962.12
430.958	1178.12
431.18	1061.12
431.402	834.12
431.624	797.12
431.846	818.12
432.068	788.12
432.29	803.12
432.512	926.12
432.734	1248.12
432.956	1131.12
433.178	871.12
433.4	849.12
433.622	864.12
433.844	869.12
434.066	942.12
434.287	904.12
434.509	889.12
434.731	950.12
434.953	854.12
435.175	922.12
435.397	1069.12
435.618	896.12
435.84	824.12
436.062	825.12
436.284	840.12
436.505	810.12
436.727	789.12
436.949	802.12
437.17	849.12
437.392	850.12
437.614	820.12
437.835	835.12
438.057	847.12
438.278	981.12
438.5	1440.12
438.721	1397.12
438.943	930.12
439.165	797.12
439.386	776.12
439.608	774.12
439.829	763.12
440.05	794.12
440.272	830.12
440.493	1013.12
440.715	1217.12
440.936	988.12
441.158	874.12
441.379	872.12
441.6	987.12
441.822	1067.12
442.043	891.12
442.264	866.12
442.486	868.12
442.707	867.12
442.928	874.12
443.149	856.12
443.371	899.12
443.592	899.12
443.813	928.12
444.034	892.12
444.255	902.12
444.476	976.12
444.698	919.12
444.919	921.12
445.14	1090.12
445.361	1034.12
445.582	966.12
445.803	913.12
446.024	966.12
446.245	952.12
446.466	924.12
446.687	896.12
446.908	883.12
447.129	833.12
447.35	831.12
447.571	820.12
447.792	802.12
448.013	804.12
448.234	788.12
448.455	785.12
448.675	804.12
448.896	802.12
449.117	790.12
449.338	811.12
449.559	834.12
449.779	867.12
450	866.12
450.221	878.12
450.442	828.12
450.662	827.12
450.883	802.12
451.104	818.12
451.324	796.12
451.545	816.12
451.766	804.12
451.986	760.12
452.207	775.12
452.428	780.12
452.648	772.12
452.869	821.12
453.089	832.12
453.31	820.12
453.53	737.12
453.751	741.12
453.971	751.12
454.192	776.12
454.412	805.12
454.633	753.12
454.853	751.12
455.073	744.12
455.294	712.12
455.514	735.12
455.734	796.12
455.955	795.12
456.175	845.12
456.395	764.12
456.616	695.12
456.836	708.12
457.056	698.12
457.276	704.12
457.497	705.12
457.717	717.12
457.937	719.12
458.157	725.12
458.377	739.12
458.598	745.12
458.818	787.12
459.038	799.12
459.258	849.12
459.478	843.12
459.698	904.12
459.918	884.12
460.138	882.12
460.358	892.12
460.578	874.12
460.798	911.12
461.018	902.12
461.238	848.12
461.458	854.12
461.678	883.12
461.898	916.12
462.118	915.12
462.338	922.12
462.558	986.12
462.777	1000.12
462.997	1005.12
463.217	1042.12
463.437	1036.12
463.657	1026.12
463.876	952.12
464.096	953.12
464.316	967.12
464.536	949.12
464.755	1009.12
464.975	1031.12
465.195	937.12
465.414	1035.12
465.634	993.12
465.854	941.12
466.073	850.12
466.293	871.12
466.512	932.12
466.732	1059.12
466.951	1047.12
467.171	946.12
467.391	870.12
467.61	835.12
467.829	933.12
468.049	933.12
468.268	857.12
468.488	868.12
468.707	907.12
468.927	1055.12
469.146	1152.12
469.365	1027.12
469.585	950.12
469.804	1022.12
470.023	1089.12
470.243	995.12
470.462	956.12
470.681	950.12
470.901	907.12
471.12	968.12
471.339	968.12
471.558	918.12
471.777	937.12
471.997	996.12
472.216	1126.12
472.435	1087.12
472.654	982.12
472.873	962.12
473.092	1015.12
473.311	1032.12
473.53	933.12
473.749	929.12
473.968	998.12
474.187	959.12
474.406	935.12
474.625	928.12
474.844	975.12
475.063	1044.12
475.282	1034.12
475.501	1082.12
475.72	1116.12
475.939	1108.12
476.158	1135.12
476.377	1238.12
476.596	1452.12
476.814	1504.12
477.033	1267.12
477.252	1113.12
477.471	1031.12
477.69	1011.12
477.908	1106.12
478.127	1150.12
478.346	1040.12
478.564	1130.12
478.783	1092.12
479.002	1115.12
479.22	1312.12
479.439	1443.12
479.658	1256.12
479.876	1139.12
480.095	1204.12
480.313	1254.12
480.532	1128.12
480.751	1086.12
480.969	1106.12
481.188	1286.12
481.406	1313.12
481.624	1238.12
481.843	1114.12
482.061	1088.12
482.28	1211.12
482.498	1462.12
482.717	1379.12
482.935	1220.12
483.153	1112.12
483.372	1039.12
483.59	1042.12
483.808	1034.12
484.027	1040.12
484.245	1009.12
484.463	978.12
484.681	1013.12
484.9	1104.12
485.118	1231.12
485.336	1097.12
485.554	1035.12
485.772	1079.12
485.99	1175.12
486.209	1214.12
486.427	1228.12
486.645	1188.12
486.863	1251.12
487.081	1253.12
487.299	1376.12
487.517	1339.12
487.735	1206.12
487.953	1251.12
488.171	1278.12
488.389	1191.12
488.607	1112.12
488.825	1171.12
489.043	1260.12
489.261	1460.12
489.479	1542.12
489.696	1314.12
489.914	1179.12
490.132	1099.12
490.35	1127.12
490.568	1143.12
490.786	1131.12
491.003	1138.12
491.221	1177.12
491.439	1124.12
491.657	1144.12
491.874	1231.12
492.092	1494.12
492.31	1818.12
492.527	1781.12
492.745	1510.12
492.963	1348.12
493.18	1316.12
493.398	1303.12
493.615	1304.12
493.833	1259.12
494.05	1242.12
494.268	1288.12
494.485	1243.12
494.703	1191.12
494.92	1234.12
495.138	1202.12
495.355	1231.12
495.573	1256.12
495.79	1421.12
496.008	1798.12
496.225	1557.12
496.442	1369.12
496.66	1396.12
496.877	1464.12
497.094	1435.12
497.312	1327.12
497.529	1310.12
497.746	1345.12
497.963	1404.12
498.181	1465.12
498.398	1586.12
498.615	1688.12
498.832	1711.12
499.049	1706.12
499.267	1548.12
499.484	1556.12
499.701	1635.12
499.918	1725.12
500.135	1888.12
500.352	1904.12
500.569	1987.12
500.786	2042.12
501.003	2009.12
501.22	1835.12
501.437	1707.12
501.654	1652.12
501.871	1608.12
502.088	1656.12
502.305	1505.12
502.522	1528.12
502.739	1523.12
502.956	1374.12
503.172	1392.12
503.389	1320.12
503.606	1286.12
503.823	1285.12
504.04	1325.12
504.256	1337.12
504.473	1315.12
504.69	1387.12
504.907	1379.12
505.123	1355.12
505.34	1446.12
505.557	1415.12
505.773	1311.12
505.99	1328.12
506.207	1375.12
506.423	1256.12
506.64	1162.12
506.856	1250.12
507.073	1407.12
507.289	1335.12
507.506	1326.12
507.722	1410.12
507.939	1438.12
508.155	1460.12
508.372	1301.12
508.588	1257.12
508.805	1235.12
509.021	1236.12
509.238	1175.12
509.454	1165.12
509.67	1175.12
509.887	1222.12
510.103	1337.12
510.319	1299.12
510.536	1187.12
510.752	1098.12
510.968	1094.12
511.184	1025.12
511.401	1063.12
511.617	1054.12
511.833	1042.12
512.049	1063.12
512.265	1070.12
512.481	1138.12
512.698	1253.12
512.914	1359.12
513.13	1228.12
513.346	1154.12
513.562	1202.12
513.778	1201.12
513.994	1168.12
514.21	1234.12
514.426	1198.12
514.642	1104.12
514.858	1115.12
515.074	1178.12
515.29	1303.12
515.506	1409.12
515.721	1334.12
515.937	1251.12
516.153	1199.12
516.369	1152.12
516.585	1209.12
516.801	1371.12
517.016	1601.12
517.232	1590.12
517.448	1556.12
517.664	1385.12
517.879	1318.12
518.095	1270.12
518.311	1283.12
518.527	1323.12
518.742	1397.12
518.958	1476.12
519.173	1385.12
519.389	1355.12
519.605	1389.12
519.82	1496.12
520.036	1760.12
520.251	1706.12
520.467	1587.12
520.682	2382.12
520.898	2866.12
521.113	2696.12
521.329	1744.12
521.544	1547.12
521.76	1510.12
521.975	1339.12
522.19	1257.12
522.406	1306.12
522.621	1480.12
522.836	1541.12
523.052	1603.12
523.267	1269.12
523.482	1314.12
523.698	1383.12
523.913	1352.12
524.128	1209.12
524.343	1154.12
524.559	1206.12
524.774	1132.12
524.989	1152.12
525.204	1202.12
525.419	1305.12
525.634	1205.12
525.849	1254.12
526.064	1290.12
526.28	1265.12
526.495	1512.12
526.71	1518.12
526.925	1334.12
527.14	1427.12
527.355	1362.12
527.57	1136.12
527.785	1217.12
527.999	1115.12
528.214	1068.12
528.429	1059.12
528.644	1107.12
528.859	1035.12
529.074	1030.12
529.289	972.12
529.503	980.12
529.718	1030.12
529.933	1176.12
530.148	1215.12
530.363	1064.12
530.577	1010.12
530.792	1010.12
531.007	1010.12
531.221	982.12
531.436	955.12
531.651	978.12
531.865	1004.12
532.08	999.12
532.295	1031.12
532.509	1046.12
532.724	1208.12
532.938	1288.12
533.153	1529.12
533.367	1206.12
533.582	1181.12
533.796	1084.12
534.011	1030.12
534.225	1048.12
534.44	1049.12
534.654	1102.12
534.868	1236.12
535.083	1114.12
535.297	1012.12
535.511	1020.12
535.726	1148.12
535.94	1091.12
536.154	1011.12
536.369	1006.12
536.583	1008.12
536.797	1013.12
537.011	1033.12
537.225	1080.12
537.44	1177.12
537.654	1020.12
537.868	996.12
538.082	1016.12
538.296	1008.12
538.51	1076.12
538.724	1095.12
538.938	1068.12
539.153	997.12
539.367	1011.12
539.581	992.12
539.795	1040.12
540.009	1135.12
540.222	1072.12
540.436	1051.12
540.65	1148.12
540.864	1169.12
541.078	1224.12
541.292	1357.12
541.506	1123.12
541.72	1076.12
541.934	1071.12
542.147	1044.12
542.361	1016.12
542.575	1053.12
542.789	1037.12
543.002	940.12
543.216	1048.12
543.43	964.12
543.644	930.12
543.857	932.12
544.071	982.12
544.285	948.12
544.498	902.12
544.712	954.12
544.925	1002.12
545.139	942.12
545.352	889.12
545.566	925.12
545.779	1058.12
545.993	978.12
546.206	906.12
546.42	905.12
546.633	867.12
546.847	854.12
547.06	852.12
547.274	862.12
547.487	913.12
547.7	958.12
547.914	996.12
548.127	1103.12
548.34	1071.12
548.554	968.12
548.767	975.12
548.98	1087.12
549.193	990.12
549.407	1031.12
549.62	1179.12
549.833	1104.12
550.046	1159.12
550.259	1186.12
550.473	1024.12
550.686	984.12
550.899	1008.12
551.112	976.12
551.325	1046.12
551.538	1146.12
551.751	965.12
551.964	892.12
552.177	900.12
552.39	882.12
552.603	894.12
552.816	946.12
553.029	874.12
553.242	882.12
553.455	950.12
553.667	1025.12
553.88	968.12
554.093	891.12
554.306	862.12
554.519	822.12
554.732	791.12
554.944	760.12
555.157	756.12
555.37	774.12
555.583	791.12
555.795	809.12
556.008	798.12
556.221	827.12
556.433	793.12
556.646	777.12
556.859	805.12
557.071	842.12
557.284	835.12
557.496	839.12
557.709	857.12
557.921	818.12
558.134	748.12
558.346	722.12
558.559	719.12
558.771	772.12
558.984	819.12
559.196	794.12
559.409	762.12
559.621	704.12
559.833	702.12
560.046	734.12
560.258	726.12
560.47	721.12
560.683	699.12
560.895	683.12
561.107	667.12
561.32	669.12
561.532	666.12
561.744	755.12
561.956	798.12
562.168	723.12
562.381	713.12
562.593	728.12
562.805	752.12
563.017	690.12
563.229	689.12
563.441	688.12
563.653	656.12
563.865	702.12
564.077	712.12
564.289	693.12
564.501	718.12
564.713	769.12
564.925	728.12
565.137	716.12
565.349	703.12
565.561	714.12
565.773	700.12
565.985	754.12
566.197	807.12
566.408	843.12
566.62	862.12
566.832	845.12
567.044	851.12
567.255	907.12
567.467	982.12
567.679	889.12
567.891	875.12
568.102	896.12
568.314	910.12
568.526	836.12
568.737	857.12
568.949	867.12
569.161	776.12
569.372	713.12
569.584	718.12
569.795	692.12
570.007	707.12
570.218	770.12
570.43	737.12
570.641	691.12
570.853	684.12
571.064	632.12
571.276	667.12
571.487	725.12
571.698	680.12
571.91	651.12
572.121	666.12
572.333	622.12
572.544	617.12
572.755	628.12
572.966	624.12
573.178	626.12
573.389	653.12
573.6	634.12
573.811	605.12
574.023	582.12
574.234	564.12
574.445	578.12
574.656	581.12
574.867	574.12
575.078	570.12
575.289	582.12
575.501	626.12
575.712	583.12
575.923	551.12
576.134	552.12
576.345	545.12
576.556	572.12
576.767	539.12
576.978	520.12
577.188	504.12
577.399	510.12
577.61	522.12
577.821	536.12
578.032	562.12
578.243	584.12
578.454	585.12
578.665	546.12
578.875	561.12
579.086	566.12
579.297	555.12
579.508	570.12
579.718	564.12
579.929	548.12
580.14	530.12
580.35	515.12
580.561	477.12
580.772	478.12
580.982	510.12
581.193	486.12
581.403	462.12
581.614	453.12
581.825	475.12
582.035	477.12
582.246	473.12
582.456	486.12
582.667	486.12
582.877	460.12
583.087	476.12
583.298	464.12
583.508	462.12
583.719	459.12
583.929	463.12
584.139	474.12
584.35	468.12
584.56	480.12
584.77	484.12
584.981	471.12
585.191	484.12
585.401	468.12
585.611	490.12
585.821	485.12
586.032	500.12
586.242	499.12
586.452	481.12
586.662	475.12
586.872	511.12
587.082	477.12
587.292	483.12
587.502	457.12
587.713	450.12
587.923	477.12
588.133	510.12
588.343	483.12
588.553	456.12
588.762	471.12
588.972	460.12
589.182	459.12
589.392	463.12
589.602	467.12
589.812	478.12
590.022	525.12
590.232	508.12
590.441	487.12
590.651	446.12
590.861	470.12
591.071	438.12
591.281	464.12
591.49	450.12
591.7	454.12
591.91	452.12
592.119	465.12
592.329	479.12
592.539	456.12
592.748	478.12
592.958	469.12
593.167	475.12
593.377	499.12
593.587	480.12
593.796	501.12
594.006	471.12
594.215	490.12
594.424	501.12
594.634	509.12
594.843	502.12
595.053	459.12
595.262	474.12
595.472	433.12
595.681	446.12
595.89	436.12
596.1	453.12
596.309	465.12
596.518	436.12
596.727	438.12
596.937	436.12
597.146	458.12
597.355	458.12
597.564	436.12
597.774	411.12
597.983	412.12
598.192	412.12
598.401	423.12
598.61	390.12
598.819	415.12
599.028	395.12
599.237	387.12
599.446	374.12
599.655	376.12
599.864	372.12
600.073	386.12
600.282	384.12
600.491	373.12
600.7	393.12
600.909	422.12
601.118	367.12
601.327	368.12
601.536	384.12
601.745	402.12
601.953	420.12
602.162	408.12
602.371	403.12
602.58	390.12
602.789	378.12
602.997	370.12
603.206	385.12
603.415	390.12
603.623	371.12
603.832	368.12
604.041	350.12
604.249	360.12
604.458	405.12
604.666	382.12
604.875	348.12
605.084	346.12
605.292	351.12
605.501	382.12
605.709	386.12
605.918	376.12
606.126	347.12
606.334	330.12
606.543	336.12
606.751	345.12
606.96	352.12
607.168	356.12
607.376	360.12
607.585	363.12
607.793	360.12
608.001	362.12
608.21	362.12
608.418	363.12
608.626	367.12
608.834	358.12
609.043	346.12
609.251	346.12
609.459	340.12
609.667	343.12
609.875	346.12
610.083	331.12
610.291	377.12
610.499	352.12
610.707	337.12
610.916	348.12
611.124	341.12
611.332	330.12
611.54	347.12
611.748	345.12
611.955	331.12
612.163	338.12
612.371	332.12
612.579	356.12
612.787	339.12
612.995	326.12
613.203	344.12
613.411	332.12
613.618	332.12
613.826	349.12
614.034	356.12
614.242	324.12
614.449	339.12
614.657	319.12
614.865	311.12
615.072	355.12
615.28	331.12
615.488	315.12
615.695	319.12
615.903	328.12
616.111	335.12
616.318	334.12
616.526	314.12
616.733	323.12
616.941	323.12
617.148	331.12
617.356	318.12
617.563	298.12
617.771	335.12
617.978	327.12
618.185	312.12
618.393	331.12
618.6	323.12
618.807	292.12
619.015	314.12
619.222	322.12
619.429	318.12
619.637	312.12
619.844	308.12
620.051	307.12
620.258	297.12
620.466	305.12
620.673	298.12
620.88	290.12
621.087	289.12
621.294	308.12
621.501	289.12
621.708	292.12
621.915	292.12
622.122	282.12
622.329	311.12
622.536	305.12
622.743	311.12
622.95	298.12
623.157	294.12
623.364	324.12
623.571	315.12
623.778	308.12
623.985	294.12
624.192	318.12
624.399	307.12
624.606	289.12
624.812	303.12
625.019	297.12
625.226	318.12
625.433	314.12
625.639	287.12
625.846	279.12
626.053	271.12
626.259	278.12
626.466	287.12
626.673	311.12
626.879	288.12
627.086	267.12
627.293	277.12
627.499	273.12
627.706	289.12
627.912	290.12
628.119	271.12
628.325	257.12
628.532	256.12
628.738	272.12
628.945	273.12
629.151	273.12
629.357	252.12
629.564	263.12
629.77	276.12
629.976	240.12
630.183	249.12
630.389	262.12
630.595	262.12
630.802	259.12
631.008	235.12
631.214	287.12
631.42	254.12
631.627	255.12
631.833	260.12
632.039	269.12
632.245	257.12
632.451	239.12
632.657	244.12
632.863	234.12
633.069	257.12
633.275	252.12
633.481	248.12
633.688	242.12
633.893	245.12
634.099	233.12
634.305	248.12
634.511	248.12
634.717	226.12
634.923	237.12
635.129	222.12
635.335	241.12
635.541	232.12
635.747	262.12
635.952	244.12
636.158	232.12
636.364	238.12
636.57	251.12
636.775	235.12
636.981	225.12
637.187	240.12
637.392	236.12
637.598	227.12
637.804	254.12
638.009	223.12
638.215	248.12
638.421	219.12
638.626	231.12
638.832	235.12
639.037	226.12
639.243	242.12
639.448	226.12
639.654	247.12
639.859	227.12
640.065	222.12
640.27	232.12
640.475	240.12
640.681	223.12
640.886	227.12
641.091	220.12
641.297	217.12
641.502	223.12
641.707	222.12
641.913	223.12
642.118	222.12
642.323	224.12
642.528	221.12
642.733	208.12
642.939	208.12
643.144	216.12
643.349	225.12
643.554	217.12
643.759	223.12
643.964	231.12
644.169	216.12
644.374	205.12
644.579	198.12
644.784	201.12
644.989	208.12
645.194	202.12
645.399	209.12
645.604	202.12
645.809	228.12
646.014	224.12
646.219	205.12
646.423	207.12
646.628	213.12
646.833	205.12
647.038	223.12
647.243	224.12
647.447	209.12
647.652	211.12
647.857	232.12
648.062	217.12
648.266	212.12
648.471	226.12
648.676	209.12
648.88	219.12
649.085	214.12
649.289	195.12
649.494	207.12
649.698	224.12
649.903	210.12
650.107	219.12
650.312	214.12
650.516	208.12
650.721	187.12
650.925	190.12
651.13	192.12
651.334	186.12
651.539	193.12
651.743	185.12
651.947	179.12
652.152	180.12
652.356	188.12
652.56	191.12
652.764	189.12
652.969	174.12
653.173	187.12
653.377	184.12
653.581	172.12
653.785	179.12
653.99	175.12
654.194	161.12
654.398	160.12
654.602	149.12
654.806	174.12
655.01	182.12
655.214	174.12
655.418	161.12
655.622	144.12
655.826	167.12
656.03	168.12
656.234	171.12
656.438	175.12
656.642	146.12
656.846	155.12
657.049	153.12
657.253	153.12
657.457	146.12
657.661	139.12
657.865	132.12
658.068	121.12
658.272	115.12
658.476	124.12
658.68	126.12
658.883	127.12
659.087	120.12
659.291	116.12
659.494	110.12
659.698	113.12
659.901	122.12
660.105	119.12
660.309	100.12
660.512	101.12
660.716	97.12
660.919	104.12
661.123	99.12
661.326	103.12
661.53	100.12
661.733	90.12
661.936	84.12
662.14	82.12
662.343	86.12
662.546	95.12
662.75	89.12
662.953	86.12
663.156	82.12
663.36	77.12
663.563	81.12
663.766	87.12
663.969	90.12
664.173	91.12
664.376	92.12
664.579	89.12
664.782	86.12
664.985	87.12
665.188	91.12
665.391	81.12
665.594	94.12
665.797	100.12
666	86.12
666.203	101.12
666.406	91.12
666.609	94.12
666.812	75.12
667.015	85.12
667.218	82.12
667.421	94.12
667.624	99.12
667.827	85.12
668.03	83.12
668.232	82.12
668.435	88.12
668.638	86.12
668.841	72.12
669.043	83.12
669.246	90.12
669.449	90.12
669.651	76.12
669.854	91.12
670.057	99.12
670.259	79.12
670.462	70.12
670.665	90.12
670.867	83.12
671.07	92.12
671.272	85.12
671.475	94.12
671.677	91.12
671.88	104.12
672.082	86.12
672.284	82.12
672.487	80.12
672.689	98.12
672.892	81.12
