Data from NickelSpatula.Lamp.E10.P2_HRD10591_11-57-37-532.txt Node
Date: Tue Jul 23 11:57:37 EDT 2019
User: cochatt
Spectrometer: HR+D1059
Trigger mode: 1
Integration Time (sec): 1.000000E-1
Scans to average: 1
Electric dark correction enabled: true
Nonlinearity correction enabled: false
Boxcar width: 0
XAxis mode: Wavelengths
Number of Pixels in Spectrum: 2048
>>>>>Begin Spectral Data<<<<<
223.165	-24.75
223.4	-24.75
223.635	-24.75
223.869	-14.75
224.104	-9.75
224.338	-11.75
224.573	-13.75
224.808	-13.75
225.042	6.25
225.277	-0.75
225.511	7.25
225.746	-10.75
225.98	-12.75
226.215	12.25
226.449	9.25
226.683	29.25
226.918	23.25
227.152	25.25
227.387	32.25
227.621	27.25
227.856	31.25
228.09	36.25
228.324	39.25
228.559	51.25
228.793	76.25
229.027	138.25
229.262	154.25
229.496	136.25
229.73	170.25
229.964	187.25
230.199	212.25
230.433	228.25
230.667	209.25
230.901	207.25
231.136	212.25
231.37	205.25
231.604	220.25
231.838	239.25
232.072	243.25
232.306	249.25
232.541	257.25
232.775	228.25
233.009	277.25
233.243	301.25
233.477	309.25
233.711	343.25
233.945	336.25
234.179	339.25
234.413	348.25
234.647	390.25
234.881	444.25
235.115	426.25
235.349	404.25
235.583	355.25
235.817	352.25
236.051	376.25
236.285	399.25
236.519	455.25
236.753	427.25
236.987	421.25
237.221	390.25
237.455	408.25
237.689	408.25
237.922	450.25
238.156	471.25
238.39	549.25
238.624	677.25
238.858	619.25
239.091	467.25
239.325	507.25
239.559	503.25
239.793	541.25
240.027	650.25
240.26	592.25
240.494	581.25
240.728	593.25
240.961	684.25
241.195	618.25
241.429	630.25
241.662	611.25
241.896	514.25
242.13	488.25
242.363	459.25
242.597	472.25
242.83	540.25
243.064	539.25
243.298	595.25
243.531	630.25
243.765	658.25
243.998	635.25
244.232	621.25
244.465	612.25
244.699	572.25
244.932	666.25
245.166	617.25
245.399	532.25
245.633	530.25
245.866	557.25
246.099	604.25
246.333	740.25
246.566	779.25
246.8	773.25
247.033	762.25
247.266	680.25
247.5	675.25
247.733	661.25
247.966	660.25
248.2	686.25
248.433	772.25
248.666	824.25
248.899	819.25
249.133	867.25
249.366	982.25
249.599	1043.25
249.832	935.25
250.066	843.25
250.299	825.25
250.532	819.25
250.765	788.25
250.998	736.25
251.231	720.25
251.465	796.25
251.698	852.25
251.931	786.25
252.164	836.25
252.397	922.25
252.63	1043.25
252.863	1164.25
253.096	1217.25
253.329	1153.25
253.562	1116.25
253.795	1216.25
254.028	1359.25
254.261	1378.25
254.494	1228.25
254.727	1115.25
254.96	1129.25
255.193	1171.25
255.426	1119.25
255.659	855.25
255.892	766.25
256.124	886.25
256.357	1009.25
256.59	1195.25
256.823	1158.25
257.056	955.25
257.289	917.25
257.521	945.25
257.754	1135.25
257.987	1276.25
258.22	1115.25
258.452	994.25
258.685	1132.25
258.918	1278.25
259.151	1243.25
259.383	1303.25
259.616	1490.25
259.849	1554.25
260.081	1694.25
260.314	1913.25
260.547	1455.25
260.779	1470.25
261.012	1730.25
261.244	1637.25
261.477	1645.25
261.71	1553.25
261.942	1300.25
262.175	1292.25
262.407	1249.25
262.64	1284.25
262.872	1491.25
263.105	1610.25
263.337	1707.25
263.57	1569.25
263.802	1015.25
264.035	900.25
264.267	850.25
264.499	774.25
264.732	718.25
264.964	692.25
265.197	700.25
265.429	762.25
265.661	817.25
265.894	864.25
266.126	917.25
266.358	1027.25
266.591	1224.25
266.823	1504.25
267.055	1427.25
267.287	1242.25
267.52	1258.25
267.752	1317.25
267.984	1504.25
268.216	1366.25
268.448	1153.25
268.681	1125.25
268.913	1198.25
269.145	1262.25
269.377	1270.25
269.609	1312.25
269.841	1179.25
270.073	1288.25
270.306	1375.25
270.538	1355.25
270.77	1360.25
271.002	1419.25
271.234	1432.25
271.466	1515.25
271.698	1444.25
271.93	1427.25
272.162	1438.25
272.394	1422.25
272.626	1394.25
272.858	1440.25
273.09	1504.25
273.322	1331.25
273.553	1264.25
273.785	1496.25
274.017	1955.25
274.249	2450.25
274.481	2480.25
274.713	2701.25
274.945	3119.25
275.176	3244.25
275.408	2802.25
275.64	2618.25
275.872	2612.25
276.104	2230.25
276.335	1880.25
276.567	1867.25
276.799	1976.25
277.031	2040.25
277.262	1611.25
277.494	1228.25
277.726	1216.25
277.957	1310.25
278.189	1481.25
278.421	1471.25
278.652	1425.25
278.884	1380.25
279.115	1261.25
279.347	1192.25
279.579	1183.25
279.81	1199.25
280.042	1220.25
280.273	1237.25
280.505	1139.25
280.736	1035.25
280.968	1037.25
281.199	1102.25
281.431	1204.25
281.662	1221.25
281.894	1169.25
282.125	1237.25
282.356	1329.25
282.588	1387.25
282.819	1280.25
283.051	1375.25
283.282	1676.25
283.513	1972.25
283.745	2202.25
283.976	2173.25
284.207	1992.25
284.439	2126.25
284.67	2030.25
284.901	1762.25
285.132	1938.25
285.364	2020.25
285.595	1890.25
285.826	1985.25
286.057	2050.25
286.288	1952.25
286.52	2002.25
286.751	2096.25
286.982	2052.25
287.213	1830.25
287.444	1733.25
287.675	1834.25
287.906	1804.25
288.138	1590.25
288.369	1315.25
288.6	1242.25
288.831	1354.25
289.062	1536.25
289.293	1684.25
289.524	1596.25
289.755	1627.25
289.986	1647.25
290.217	1434.25
290.448	1116.25
290.679	946.25
290.91	902.25
291.141	931.25
291.371	998.25
291.602	964.25
291.833	988.25
292.064	1062.25
292.295	1199.25
292.526	1391.25
292.757	1463.25
292.987	1555.25
293.218	1574.25
293.449	1593.25
293.68	1679.25
293.91	1568.25
294.141	1637.25
294.372	1493.25
294.603	1422.25
294.833	1569.25
295.064	1841.25
295.295	1677.25
295.525	1306.25
295.756	1158.25
295.987	1013.25
296.217	1006.25
296.448	1039.25
296.679	1087.25
296.909	1237.25
297.14	1295.25
297.37	1420.25
297.601	1336.25
297.831	1144.25
298.062	1253.25
298.292	1386.25
298.523	1573.25
298.753	1752.25
298.984	1563.25
299.214	1267.25
299.445	1076.25
299.675	1013.25
299.905	1026.25
300.136	1047.25
300.366	1174.25
300.597	1162.25
300.827	992.25
301.057	990.25
301.288	1029.25
301.518	1069.25
301.748	1245.25
301.979	1327.25
302.209	1424.25
302.439	1456.25
302.669	1234.25
302.9	1217.25
303.13	1130.25
303.36	1090.25
303.59	1054.25
303.82	1106.25
304.051	1250.25
304.281	1312.25
304.511	1268.25
304.741	1157.25
304.971	1164.25
305.201	1264.25
305.431	1234.25
305.661	1050.25
305.891	1059.25
306.121	1071.25
306.352	956.25
306.582	911.25
306.812	856.25
307.042	846.25
307.272	777.25
307.502	784.25
307.731	863.25
307.961	918.25
308.191	867.25
308.421	789.25
308.651	779.25
308.881	771.25
309.111	774.25
309.341	843.25
309.571	886.25
309.8	918.25
310.03	922.25
310.26	1003.25
310.49	954.25
310.72	889.25
310.949	836.25
311.179	874.25
311.409	922.25
311.639	1077.25
311.868	1397.25
312.098	1768.25
312.328	1911.25
312.557	1840.25
312.787	1864.25
313.017	1647.25
313.246	1822.25
313.476	1958.25
313.706	1603.25
313.935	1259.25
314.165	1055.25
314.394	973.25
314.624	954.25
314.853	1004.25
315.083	1041.25
315.312	1008.25
315.542	1012.25
315.771	956.25
316.001	854.25
316.23	828.25
316.46	850.25
316.689	859.25
316.919	854.25
317.148	892.25
317.377	875.25
317.607	888.25
317.836	943.25
318.065	1076.25
318.295	1231.25
318.524	1154.25
318.753	962.25
318.983	959.25
319.212	932.25
319.441	1007.25
319.67	1121.25
319.9	1234.25
320.129	1137.25
320.358	974.25
320.587	928.25
320.816	1020.25
321.046	1148.25
321.275	1306.25
321.504	1337.25
321.733	1278.25
321.962	1218.25
322.191	1138.25
322.42	1100.25
322.649	1124.25
322.878	1180.25
323.108	1179.25
323.337	1128.25
323.566	1096.25
323.795	1029.25
324.024	1018.25
324.253	959.25
324.482	991.25
324.71	1064.25
324.939	1175.25
325.168	1108.25
325.397	928.25
325.626	917.25
325.855	906.25
326.084	920.25
326.313	896.25
326.542	831.25
326.77	867.25
326.999	876.25
327.228	955.25
327.457	1014.25
327.686	1005.25
327.914	888.25
328.143	856.25
328.372	830.25
328.6	830.25
328.829	877.25
329.058	894.25
329.287	911.25
329.515	922.25
329.744	883.25
329.972	798.25
330.201	788.25
330.43	839.25
330.658	901.25
330.887	1074.25
331.115	1039.25
331.344	974.25
331.572	944.25
331.801	872.25
332.03	863.25
332.258	908.25
332.486	966.25
332.715	967.25
332.943	897.25
333.172	897.25
333.4	917.25
333.629	1036.25
333.857	1128.25
334.085	1112.25
334.314	1086.25
334.542	1028.25
334.771	945.25
334.999	946.25
335.227	932.25
335.455	912.25
335.684	1032.25
335.912	1190.25
336.14	1294.25
336.369	1261.25
336.597	1214.25
336.825	1374.25
337.053	1541.25
337.281	1236.25
337.51	960.25
337.738	972.25
337.966	1062.25
338.194	1171.25
338.422	1077.25
338.65	948.25
338.878	878.25
339.106	929.25
339.334	1026.25
339.562	1091.25
339.79	998.25
340.018	984.25
340.246	1018.25
340.474	1176.25
340.702	1260.25
340.93	1314.25
341.158	1315.25
341.386	1146.25
341.614	1091.25
341.842	1114.25
342.07	1146.25
342.298	1354.25
342.526	1363.25
342.754	1184.25
342.981	1109.25
343.209	1032.25
343.437	1135.25
343.665	1188.25
343.893	1188.25
344.12	1346.25
344.348	1591.25
344.576	1419.25
344.804	1184.25
345.031	1044.25
345.259	963.25
345.487	1017.25
345.714	1013.25
345.942	1113.25
346.17	1208.25
346.397	1130.25
346.625	985.25
346.853	977.25
347.08	950.25
347.308	977.25
347.535	1104.25
347.763	1127.25
347.99	990.25
348.218	926.25
348.445	960.25
348.673	989.25
348.9	998.25
349.128	1024.25
349.355	1099.25
349.583	1075.25
349.81	1018.25
350.037	924.25
350.265	858.25
350.492	760.25
350.72	798.25
350.947	831.25
351.174	900.25
351.402	949.25
351.629	995.25
351.856	906.25
352.083	894.25
352.311	973.25
352.538	1073.25
352.765	1145.25
352.992	1022.25
353.22	958.25
353.447	968.25
353.674	978.25
353.901	948.25
354.128	982.25
354.355	1010.25
354.583	968.25
354.81	986.25
355.037	1001.25
355.264	971.25
355.491	1061.25
355.718	1140.25
355.945	1095.25
356.172	1062.25
356.399	1104.25
356.626	1299.25
356.853	1606.25
357.08	1718.25
357.307	1714.25
357.534	1343.25
357.761	1394.25
357.988	1742.25
358.215	1997.25
358.441	1909.25
358.668	1614.25
358.895	1481.25
359.122	1251.25
359.349	1174.25
359.576	1266.25
359.802	1094.25
360.029	952.25
360.256	1025.25
360.483	1278.25
360.709	1582.25
360.936	1668.25
361.163	1418.25
361.39	1099.25
361.616	1037.25
361.843	1214.25
362.07	1494.25
362.296	1322.25
362.523	1060.25
362.749	940.25
362.976	966.25
363.203	1184.25
363.429	1338.25
363.656	1044.25
363.882	989.25
364.109	998.25
364.335	972.25
364.562	974.25
364.788	1106.25
365.015	1293.25
365.241	1146.25
365.468	938.25
365.694	829.25
365.92	818.25
366.147	788.25
366.373	784.25
366.599	786.25
366.826	807.25
367.052	823.25
367.278	837.25
367.505	836.25
367.731	899.25
367.957	1004.25
368.184	1023.25
368.41	1018.25
368.636	994.25
368.862	1059.25
369.089	982.25
369.315	894.25
369.541	855.25
369.767	900.25
369.993	838.25
370.219	890.25
370.445	887.25
370.672	1008.25
370.898	1074.25
371.124	1064.25
371.35	972.25
371.576	909.25
371.802	957.25
372.028	1130.25
372.254	1332.25
372.48	1123.25
372.706	998.25
372.932	1086.25
373.158	1110.25
373.384	1338.25
373.61	1795.25
373.835	1828.25
374.061	1351.25
374.287	1175.25
374.513	1395.25
374.739	1638.25
374.965	1711.25
375.191	1627.25
375.416	1138.25
375.642	1033.25
375.868	1185.25
376.094	1338.25
376.319	1152.25
376.545	1284.25
376.771	1338.25
376.997	1146.25
377.222	850.25
377.448	764.25
377.674	776.25
377.899	767.25
378.125	752.25
378.35	756.25
378.576	787.25
378.802	861.25
379.027	928.25
379.253	900.25
379.478	889.25
379.704	1018.25
379.929	1096.25
380.155	1077.25
380.38	951.25
380.606	996.25
380.831	1094.25
381.057	1007.25
381.282	966.25
381.507	1134.25
381.733	1442.25
381.958	1542.25
382.184	1654.25
382.409	1669.25
382.634	1662.25
382.86	1771.25
383.085	1413.25
383.31	1118.25
383.535	1229.25
383.761	1244.25
383.986	1174.25
384.211	1439.25
384.436	1363.25
384.662	1055.25
384.887	1004.25
385.112	1018.25
385.337	1035.25
385.562	979.25
385.787	1104.25
386.013	1244.25
386.238	1248.25
386.463	1002.25
386.688	1014.25
386.913	946.25
387.138	897.25
387.363	955.25
387.588	961.25
387.813	978.25
388.038	1097.25
388.263	1004.25
388.488	958.25
388.713	1118.25
388.938	1176.25
389.163	1021.25
389.387	902.25
389.612	901.25
389.837	926.25
390.062	940.25
390.287	983.25
390.512	1049.25
390.736	948.25
390.961	885.25
391.186	843.25
391.411	830.25
391.636	856.25
391.86	923.25
392.085	994.25
392.31	1007.25
392.534	939.25
392.759	955.25
392.984	992.25
393.208	923.25
393.433	869.25
393.658	820.25
393.882	776.25
394.107	791.25
394.331	800.25
394.556	815.25
394.78	780.25
395.005	841.25
395.229	861.25
395.454	892.25
395.678	862.25
395.903	896.25
396.127	889.25
396.352	901.25
396.576	978.25
396.801	1011.25
397.025	1106.25
397.249	1145.25
397.474	955.25
397.698	940.25
397.922	981.25
398.147	931.25
398.371	909.25
398.595	970.25
398.82	960.25
399.044	930.25
399.268	1012.25
399.492	1042.25
399.717	1060.25
399.941	1109.25
400.165	1062.25
400.389	1024.25
400.613	1048.25
400.837	1046.25
401.062	928.25
401.286	896.25
401.51	879.25
401.734	904.25
401.958	905.25
402.182	895.25
402.406	908.25
402.63	944.25
402.854	957.25
403.078	1072.25
403.302	1306.25
403.526	1351.25
403.75	1200.25
403.974	1076.25
404.198	1111.25
404.422	1235.25
404.645	1444.25
404.869	1580.25
405.093	1168.25
405.317	993.25
405.541	1004.25
405.765	1041.25
405.988	992.25
406.212	1080.25
406.436	1288.25
406.66	1422.25
406.883	1156.25
407.107	1152.25
407.331	1372.25
407.555	1307.25
407.778	1122.25
408.002	1079.25
408.226	1070.25
408.449	1054.25
408.673	1033.25
408.896	941.25
409.12	933.25
409.344	918.25
409.567	900.25
409.791	908.25
410.014	906.25
410.238	909.25
410.461	878.25
410.685	884.25
410.908	909.25
411.132	940.25
411.355	930.25
411.578	932.25
411.802	933.25
412.025	986.25
412.249	986.25
412.472	960.25
412.695	932.25
412.919	970.25
413.142	933.25
413.365	1040.25
413.589	1070.25
413.812	957.25
414.035	939.25
414.258	938.25
414.482	1050.25
414.705	1050.25
414.928	907.25
415.151	855.25
415.374	886.25
415.597	923.25
415.821	911.25
416.044	926.25
416.267	900.25
416.49	895.25
416.713	879.25
416.936	864.25
417.159	874.25
417.382	896.25
417.605	909.25
417.828	929.25
418.051	932.25
418.274	970.25
418.497	935.25
418.72	923.25
418.943	953.25
419.166	971.25
419.389	1029.25
419.611	1025.25
419.834	1017.25
420.057	1142.25
420.28	1106.25
420.503	1014.25
420.726	922.25
420.948	880.25
421.171	882.25
421.394	887.25
421.617	858.25
421.839	881.25
422.062	935.25
422.285	951.25
422.507	965.25
422.73	975.25
422.953	981.25
423.175	954.25
423.398	957.25
423.621	1002.25
423.843	1062.25
424.066	992.25
424.288	939.25
424.511	924.25
424.733	902.25
424.956	959.25
425.178	1085.25
425.401	1205.25
425.623	1404.25
425.846	1132.25
426.068	1001.25
426.291	1125.25
426.513	1054.25
426.735	919.25
426.958	992.25
427.18	1153.25
427.402	1507.25
427.625	1464.25
427.847	1153.25
428.069	919.25
428.292	876.25
428.514	901.25
428.736	878.25
428.958	977.25
429.181	1144.25
429.403	982.25
429.625	888.25
429.847	855.25
430.069	896.25
430.292	942.25
430.514	869.25
430.736	965.25
430.958	1187.25
431.18	1069.25
431.402	858.25
431.624	820.25
431.846	840.25
432.068	800.25
432.29	834.25
432.512	911.25
432.734	1190.25
432.956	1154.25
433.178	871.25
433.4	828.25
433.622	850.25
433.844	874.25
434.066	925.25
434.287	915.25
434.509	910.25
434.731	935.25
434.953	895.25
435.175	950.25
435.397	1037.25
435.618	912.25
435.84	843.25
436.062	817.25
436.284	838.25
436.505	798.25
436.727	818.25
436.949	796.25
437.17	859.25
437.392	823.25
437.614	845.25
437.835	831.25
438.057	837.25
438.278	971.25
438.5	1400.25
438.721	1400.25
438.943	963.25
439.165	818.25
439.386	780.25
439.608	806.25
439.829	795.25
440.05	823.25
440.272	876.25
440.493	997.25
440.715	1243.25
440.936	999.25
441.158	878.25
441.379	882.25
441.6	972.25
441.822	1048.25
442.043	894.25
442.264	875.25
442.486	868.25
442.707	867.25
442.928	862.25
443.149	884.25
443.371	894.25
443.592	912.25
443.813	898.25
444.034	917.25
444.255	908.25
444.476	951.25
444.698	955.25
444.919	953.25
445.14	1023.25
445.361	1032.25
445.582	954.25
445.803	961.25
446.024	950.25
446.245	942.25
446.466	886.25
446.687	873.25
446.908	889.25
447.129	858.25
447.35	796.25
447.571	795.25
447.792	836.25
448.013	823.25
448.234	782.25
448.455	798.25
448.675	789.25
448.896	798.25
449.117	810.25
449.338	810.25
449.559	850.25
449.779	868.25
450	887.25
450.221	828.25
450.442	817.25
450.662	796.25
450.883	800.25
451.104	832.25
451.324	801.25
451.545	788.25
451.766	786.25
451.986	789.25
452.207	740.25
452.428	784.25
452.648	776.25
452.869	827.25
453.089	838.25
453.31	854.25
453.53	743.25
453.751	736.25
453.971	710.25
454.192	791.25
454.412	794.25
454.633	749.25
454.853	762.25
455.073	746.25
455.294	740.25
455.514	738.25
455.734	792.25
455.955	810.25
456.175	827.25
456.395	749.25
456.616	702.25
456.836	698.25
457.056	708.25
457.276	691.25
457.497	726.25
457.717	716.25
457.937	722.25
458.157	719.25
458.377	748.25
458.598	746.25
458.818	791.25
459.038	823.25
459.258	836.25
459.478	866.25
459.698	891.25
459.918	934.25
460.138	886.25
460.358	932.25
460.578	864.25
460.798	900.25
461.018	927.25
461.238	891.25
461.458	847.25
461.678	903.25
461.898	946.25
462.118	920.25
462.338	914.25
462.558	954.25
462.777	988.25
462.997	1031.25
463.217	1022.25
463.437	1022.25
463.657	1027.25
463.876	979.25
464.096	946.25
464.316	974.25
464.536	964.25
464.755	1047.25
464.975	1011.25
465.195	972.25
465.414	986.25
465.634	972.25
465.854	940.25
466.073	879.25
466.293	844.25
466.512	935.25
466.732	1021.25
466.951	1100.25
467.171	917.25
467.391	877.25
467.61	906.25
467.829	933.25
468.049	935.25
468.268	899.25
468.488	870.25
468.707	899.25
468.927	1066.25
469.146	1143.25
469.365	1027.25
469.585	918.25
469.804	1026.25
470.023	1109.25
470.243	966.25
470.462	946.25
470.681	923.25
470.901	943.25
471.12	979.25
471.339	986.25
471.558	905.25
471.777	940.25
471.997	1032.25
472.216	1130.25
472.435	1083.25
472.654	985.25
472.873	940.25
473.092	1022.25
473.311	1041.25
473.53	957.25
473.749	958.25
473.968	995.25
474.187	984.25
474.406	972.25
474.625	894.25
474.844	987.25
475.063	1020.25
475.282	1039.25
475.501	1060.25
475.72	1108.25
475.939	1055.25
476.158	1108.25
476.377	1268.25
476.596	1440.25
476.814	1503.25
477.033	1235.25
477.252	1080.25
477.471	983.25
477.69	1023.25
477.908	1116.25
478.127	1156.25
478.346	1059.25
478.564	1175.25
478.783	1110.25
479.002	1114.25
479.22	1302.25
479.439	1393.25
479.658	1209.25
479.876	1124.25
480.095	1246.25
480.313	1237.25
480.532	1140.25
480.751	1121.25
480.969	1142.25
481.188	1286.25
481.406	1308.25
481.624	1239.25
481.843	1140.25
482.061	1100.25
482.28	1238.25
482.498	1474.25
482.717	1386.25
482.935	1206.25
483.153	1144.25
483.372	1051.25
483.59	1058.25
483.808	1074.25
484.027	1061.25
484.245	1002.25
484.463	984.25
484.681	1012.25
484.9	1114.25
485.118	1195.25
485.336	1094.25
485.554	1050.25
485.772	1076.25
485.99	1195.25
486.209	1247.25
486.427	1206.25
486.645	1208.25
486.863	1252.25
487.081	1240.25
487.299	1366.25
487.517	1356.25
487.735	1207.25
487.953	1272.25
488.171	1327.25
488.389	1188.25
488.607	1088.25
488.825	1144.25
489.043	1246.25
489.261	1409.25
489.479	1552.25
489.696	1309.25
489.914	1172.25
490.132	1100.25
490.35	1125.25
490.568	1157.25
490.786	1166.25
491.003	1139.25
491.221	1178.25
491.439	1163.25
491.657	1126.25
491.874	1240.25
492.092	1514.25
492.31	1807.25
492.527	1770.25
492.745	1543.25
492.963	1355.25
493.18	1294.25
493.398	1307.25
493.615	1301.25
493.833	1268.25
494.05	1252.25
494.268	1243.25
494.485	1220.25
494.703	1215.25
494.92	1245.25
495.138	1208.25
495.355	1190.25
495.573	1266.25
495.79	1408.25
496.008	1828.25
496.225	1583.25
496.442	1387.25
496.66	1326.25
496.877	1412.25
497.094	1378.25
497.312	1302.25
497.529	1300.25
497.746	1329.25
497.963	1381.25
498.181	1490.25
498.398	1612.25
498.615	1698.25
498.832	1682.25
499.049	1692.25
499.267	1570.25
499.484	1584.25
499.701	1636.25
499.918	1775.25
500.135	1908.25
500.352	1920.25
500.569	1949.25
500.786	2044.25
501.003	2027.25
501.22	1795.25
501.437	1722.25
501.654	1672.25
501.871	1623.25
502.088	1650.25
502.305	1520.25
502.522	1508.25
502.739	1487.25
502.956	1373.25
503.172	1400.25
503.389	1317.25
503.606	1287.25
503.823	1306.25
504.04	1356.25
504.256	1324.25
504.473	1336.25
504.69	1364.25
504.907	1398.25
505.123	1383.25
505.34	1433.25
505.557	1432.25
505.773	1378.25
505.99	1308.25
506.207	1371.25
506.423	1266.25
506.64	1172.25
506.856	1245.25
507.073	1348.25
507.289	1336.25
507.506	1335.25
507.722	1431.25
507.939	1445.25
508.155	1485.25
508.372	1311.25
508.588	1306.25
508.805	1243.25
509.021	1255.25
509.238	1169.25
509.454	1183.25
509.67	1181.25
509.887	1229.25
510.103	1339.25
510.319	1330.25
510.536	1194.25
510.752	1110.25
510.968	1064.25
511.184	1013.25
511.401	1052.25
511.617	1011.25
511.833	1067.25
512.049	1117.25
512.265	1105.25
512.481	1126.25
512.698	1225.25
512.914	1343.25
513.13	1240.25
513.346	1139.25
513.562	1190.25
513.778	1167.25
513.994	1172.25
514.21	1236.25
514.426	1201.25
514.642	1147.25
514.858	1141.25
515.074	1175.25
515.29	1253.25
515.506	1411.25
515.721	1338.25
515.937	1258.25
516.153	1176.25
516.369	1181.25
516.585	1220.25
516.801	1391.25
517.016	1626.25
517.232	1533.25
517.448	1539.25
517.664	1388.25
517.879	1288.25
518.095	1278.25
518.311	1270.25
518.527	1326.25
518.742	1394.25
518.958	1486.25
519.173	1386.25
519.389	1367.25
519.605	1426.25
519.82	1528.25
520.036	1765.25
520.251	1712.25
520.467	1616.25
520.682	2379.25
520.898	2887.25
521.113	2740.25
521.329	1696.25
521.544	1552.25
521.76	1517.25
521.975	1366.25
522.19	1277.25
522.406	1343.25
522.621	1481.25
522.836	1505.25
523.052	1584.25
523.267	1283.25
523.482	1358.25
523.698	1390.25
523.913	1362.25
524.128	1210.25
524.343	1197.25
524.559	1194.25
524.774	1136.25
524.989	1182.25
525.204	1213.25
525.419	1315.25
525.634	1242.25
525.849	1238.25
526.064	1263.25
526.28	1241.25
526.495	1468.25
526.71	1533.25
526.925	1340.25
527.14	1386.25
527.355	1381.25
527.57	1146.25
527.785	1194.25
527.999	1130.25
528.214	1074.25
528.429	1083.25
528.644	1115.25
528.859	998.25
529.074	1005.25
529.289	996.25
529.503	1000.25
529.718	1022.25
529.933	1183.25
530.148	1211.25
530.363	1037.25
530.577	984.25
530.792	997.25
531.007	1033.25
531.221	982.25
531.436	988.25
531.651	1036.25
531.865	1003.25
532.08	1027.25
532.295	1014.25
532.509	1031.25
532.724	1172.25
532.938	1298.25
533.153	1515.25
533.367	1214.25
533.582	1188.25
533.796	1086.25
534.011	1042.25
534.225	1082.25
534.44	1072.25
534.654	1071.25
534.868	1274.25
535.083	1114.25
535.297	1031.25
535.511	1006.25
535.726	1148.25
535.94	1102.25
536.154	1040.25
536.369	1011.25
536.583	1015.25
536.797	996.25
537.011	1056.25
537.225	1088.25
537.44	1159.25
537.654	1018.25
537.868	1003.25
538.082	1030.25
538.296	1002.25
538.51	1090.25
538.724	1092.25
538.938	1040.25
539.153	964.25
539.367	991.25
539.581	968.25
539.795	1051.25
540.009	1149.25
540.222	1046.25
540.436	1042.25
540.65	1161.25
540.864	1143.25
541.078	1161.25
541.292	1319.25
541.506	1084.25
541.72	1079.25
541.934	1009.25
542.147	1045.25
542.361	1019.25
542.575	1084.25
542.789	1055.25
543.002	986.25
543.216	1078.25
543.43	964.25
543.644	928.25
543.857	935.25
544.071	939.25
544.285	945.25
544.498	920.25
544.712	916.25
544.925	996.25
545.139	962.25
545.352	899.25
545.566	914.25
545.779	1047.25
545.993	975.25
546.206	852.25
546.42	866.25
546.633	893.25
546.847	845.25
547.06	878.25
547.274	858.25
547.487	888.25
547.7	969.25
547.914	1037.25
548.127	1148.25
548.34	1106.25
548.554	972.25
548.767	1005.25
548.98	1081.25
549.193	994.25
549.407	1012.25
549.62	1214.25
549.833	1119.25
550.046	1159.25
550.259	1161.25
550.473	1039.25
550.686	1004.25
550.899	1010.25
551.112	993.25
551.325	1048.25
551.538	1125.25
551.751	945.25
551.964	902.25
552.177	894.25
552.39	889.25
552.603	885.25
552.816	925.25
553.029	885.25
553.242	856.25
553.455	962.25
553.667	1010.25
553.88	995.25
554.093	916.25
554.306	863.25
554.519	804.25
554.732	817.25
554.944	773.25
555.157	795.25
555.37	779.25
555.583	767.25
555.795	779.25
556.008	796.25
556.221	798.25
556.433	801.25
556.646	772.25
556.859	780.25
557.071	843.25
557.284	830.25
557.496	824.25
557.709	827.25
557.921	796.25
558.134	747.25
558.346	729.25
558.559	746.25
558.771	775.25
558.984	800.25
559.196	817.25
559.409	751.25
559.621	721.25
559.833	682.25
560.046	726.25
560.258	722.25
560.47	757.25
560.683	719.25
560.895	696.25
561.107	696.25
561.32	669.25
561.532	698.25
561.744	768.25
561.956	785.25
562.168	708.25
562.381	688.25
562.593	716.25
562.805	736.25
563.017	703.25
563.229	708.25
563.441	652.25
563.653	685.25
563.865	686.25
564.077	697.25
564.289	698.25
564.501	694.25
564.713	723.25
564.925	730.25
565.137	701.25
565.349	702.25
565.561	711.25
565.773	730.25
565.985	749.25
566.197	791.25
566.408	832.25
566.62	864.25
566.832	836.25
567.044	859.25
567.255	871.25
567.467	953.25
567.679	892.25
567.891	858.25
568.102	898.25
568.314	896.25
568.526	882.25
568.737	823.25
568.949	880.25
569.161	762.25
569.372	694.25
569.584	698.25
569.795	708.25
570.007	696.25
570.218	760.25
570.43	750.25
570.641	696.25
570.853	674.25
571.064	658.25
571.276	694.25
571.487	711.25
571.698	677.25
571.91	666.25
572.121	674.25
572.333	612.25
572.544	604.25
572.755	640.25
572.966	605.25
573.178	630.25
573.389	632.25
573.6	648.25
573.811	627.25
574.023	588.25
574.234	564.25
574.445	582.25
574.656	557.25
574.867	580.25
575.078	584.25
575.289	590.25
575.501	626.25
575.712	577.25
575.923	546.25
576.134	564.25
576.345	536.25
576.556	563.25
576.767	544.25
576.978	534.25
577.188	527.25
577.399	518.25
577.61	520.25
577.821	547.25
578.032	538.25
578.243	591.25
578.454	562.25
578.665	570.25
578.875	563.25
579.086	544.25
579.297	561.25
579.508	580.25
579.718	546.25
579.929	545.25
580.14	540.25
580.35	512.25
580.561	497.25
580.772	492.25
580.982	478.25
581.193	482.25
581.403	469.25
581.614	471.25
581.825	476.25
582.035	485.25
582.246	471.25
582.456	471.25
582.667	476.25
582.877	470.25
583.087	465.25
583.298	467.25
583.508	447.25
583.719	478.25
583.929	458.25
584.139	457.25
584.35	473.25
584.56	471.25
584.77	486.25
584.981	499.25
585.191	468.25
585.401	468.25
585.611	498.25
585.821	487.25
586.032	497.25
586.242	460.25
586.452	477.25
586.662	462.25
586.872	507.25
587.082	487.25
587.292	486.25
587.502	452.25
587.713	454.25
587.923	479.25
588.133	501.25
588.343	453.25
588.553	437.25
588.762	439.25
588.972	447.25
589.182	468.25
589.392	446.25
589.602	463.25
589.812	477.25
590.022	494.25
590.232	498.25
590.441	455.25
590.651	459.25
590.861	457.25
591.071	459.25
591.281	442.25
591.49	450.25
591.7	448.25
591.91	444.25
592.119	435.25
592.329	451.25
592.539	465.25
592.748	467.25
592.958	454.25
593.167	470.25
593.377	488.25
593.587	468.25
593.796	488.25
594.006	487.25
594.215	460.25
594.424	484.25
594.634	498.25
594.843	487.25
595.053	476.25
595.262	442.25
595.472	435.25
595.681	426.25
595.89	419.25
596.1	438.25
596.309	443.25
596.518	420.25
596.727	430.25
596.937	412.25
597.146	439.25
597.355	444.25
597.564	452.25
597.774	409.25
597.983	418.25
598.192	406.25
598.401	391.25
598.61	393.25
598.819	391.25
599.028	386.25
599.237	402.25
599.446	376.25
599.655	388.25
599.864	398.25
600.073	366.25
600.282	376.25
600.491	387.25
600.7	383.25
600.909	382.25
601.118	395.25
601.327	378.25
601.536	386.25
601.745	382.25
601.953	387.25
602.162	385.25
602.371	405.25
602.58	414.25
602.789	388.25
602.997	370.25
603.206	382.25
603.415	386.25
603.623	368.25
603.832	355.25
604.041	362.25
604.249	363.25
604.458	394.25
604.666	384.25
604.875	364.25
605.084	353.25
605.292	350.25
605.501	348.25
605.709	374.25
605.918	356.25
606.126	347.25
606.334	333.25
606.543	354.25
606.751	366.25
606.96	348.25
607.168	356.25
607.376	346.25
607.585	358.25
607.793	343.25
608.001	356.25
608.21	356.25
608.418	356.25
608.626	371.25
608.834	342.25
609.043	323.25
609.251	340.25
609.459	333.25
609.667	357.25
609.875	339.25
610.083	311.25
610.291	356.25
610.499	353.25
610.707	334.25
610.916	333.25
611.124	342.25
611.332	349.25
611.54	350.25
611.748	346.25
611.955	328.25
612.163	340.25
612.371	333.25
612.579	335.25
612.787	340.25
612.995	311.25
613.203	320.25
613.411	331.25
613.618	347.25
613.826	342.25
614.034	356.25
614.242	317.25
614.449	322.25
614.657	309.25
614.865	320.25
615.072	338.25
615.28	332.25
615.488	333.25
615.695	344.25
615.903	326.25
616.111	307.25
616.318	310.25
616.526	334.25
616.733	346.25
616.941	327.25
617.148	322.25
617.356	309.25
617.563	312.25
617.771	322.25
617.978	319.25
618.185	314.25
618.393	302.25
618.6	300.25
618.807	326.25
619.015	310.25
619.222	291.25
619.429	314.25
619.637	330.25
619.844	282.25
620.051	306.25
620.258	315.25
620.466	297.25
620.673	292.25
620.88	284.25
621.087	290.25
621.294	272.25
621.501	316.25
621.708	292.25
621.915	302.25
622.122	293.25
622.329	282.25
622.536	295.25
622.743	274.25
622.95	290.25
623.157	300.25
623.364	304.25
623.571	301.25
623.778	290.25
623.985	312.25
624.192	304.25
624.399	315.25
624.606	278.25
624.812	298.25
625.019	287.25
625.226	317.25
625.433	294.25
625.639	279.25
625.846	274.25
626.053	300.25
626.259	279.25
626.466	292.25
626.673	307.25
626.879	282.25
627.086	268.25
627.293	283.25
627.499	276.25
627.706	267.25
627.912	277.25
628.119	275.25
628.325	276.25
628.532	253.25
628.738	263.25
628.945	268.25
629.151	256.25
629.357	254.25
629.564	245.25
629.77	259.25
629.976	255.25
630.183	265.25
630.389	265.25
630.595	267.25
630.802	259.25
631.008	236.25
631.214	254.25
631.42	236.25
631.627	248.25
631.833	260.25
632.039	258.25
632.245	256.25
632.451	252.25
632.657	238.25
632.863	230.25
633.069	248.25
633.275	233.25
633.481	241.25
633.688	231.25
633.893	248.25
634.099	226.25
634.305	239.25
634.511	242.25
634.717	228.25
634.923	213.25
635.129	223.25
635.335	239.25
635.541	231.25
635.747	250.25
635.952	246.25
636.158	229.25
636.364	252.25
636.57	241.25
636.775	232.25
636.981	235.25
637.187	240.25
637.392	226.25
637.598	218.25
637.804	212.25
638.009	203.25
638.215	226.25
638.421	228.25
638.626	217.25
638.832	235.25
639.037	225.25
639.243	236.25
639.448	242.25
639.654	234.25
639.859	218.25
640.065	214.25
640.27	238.25
640.475	219.25
640.681	221.25
640.886	222.25
641.091	218.25
641.297	214.25
641.502	221.25
641.707	207.25
641.913	228.25
642.118	214.25
642.323	226.25
642.528	218.25
642.733	206.25
642.939	221.25
643.144	206.25
643.349	213.25
643.554	209.25
643.759	217.25
643.964	209.25
644.169	207.25
644.374	198.25
644.579	220.25
644.784	192.25
644.989	212.25
645.194	217.25
645.399	214.25
645.604	200.25
645.809	200.25
646.014	217.25
646.219	204.25
646.423	218.25
646.628	220.25
646.833	229.25
647.038	199.25
647.243	218.25
647.447	197.25
647.652	219.25
647.857	202.25
648.062	219.25
648.266	209.25
648.471	202.25
648.676	182.25
648.88	224.25
649.085	198.25
649.289	199.25
649.494	204.25
649.698	218.25
649.903	207.25
650.107	200.25
650.312	204.25
650.516	196.25
650.721	188.25
650.925	171.25
651.13	187.25
651.334	176.25
651.539	174.25
651.743	180.25
651.947	179.25
652.152	197.25
652.356	160.25
652.56	181.25
652.764	181.25
652.969	155.25
653.173	174.25
653.377	174.25
653.581	159.25
653.785	168.25
653.99	169.25
654.194	180.25
654.398	170.25
654.602	151.25
654.806	170.25
655.01	164.25
655.214	158.25
655.418	160.25
655.622	180.25
655.826	170.25
656.03	157.25
656.234	164.25
656.438	149.25
656.642	157.25
656.846	158.25
657.049	154.25
657.253	147.25
657.457	142.25
657.661	139.25
657.865	127.25
658.068	126.25
658.272	123.25
658.476	120.25
658.68	126.25
658.883	117.25
659.087	110.25
659.291	118.25
659.494	115.25
659.698	115.25
659.901	115.25
660.105	97.25
660.309	110.25
660.512	96.25
660.716	101.25
660.919	88.25
661.123	99.25
661.326	117.25
661.53	90.25
661.733	82.25
661.936	77.25
662.14	78.25
662.343	95.25
662.546	97.25
662.75	86.25
662.953	81.25
663.156	78.25
663.36	82.25
663.563	78.25
663.766	86.25
663.969	87.25
664.173	71.25
664.376	93.25
664.579	76.25
664.782	75.25
664.985	79.25
665.188	95.25
665.391	86.25
665.594	85.25
665.797	87.25
666	87.25
666.203	83.25
666.406	93.25
666.609	90.25
666.812	87.25
667.015	70.25
667.218	85.25
667.421	77.25
667.624	75.25
667.827	78.25
668.03	81.25
668.232	90.25
668.435	63.25
668.638	85.25
668.841	88.25
669.043	90.25
669.246	86.25
669.449	64.25
669.651	91.25
669.854	83.25
670.057	71.25
670.259	68.25
670.462	79.25
670.665	74.25
670.867	87.25
671.07	99.25
671.272	85.25
671.475	75.25
671.677	70.25
671.88	86.25
672.082	68.25
672.284	74.25
672.487	70.25
672.689	67.25
672.892	72.25
