Data from NickelSpatula.Lamp.E10.P2_HRD10591_11-56-46-535.txt Node
Date: Tue Jul 23 11:56:46 EDT 2019
User: cochatt
Spectrometer: HR+D1059
Trigger mode: 1
Integration Time (sec): 1.000000E-1
Scans to average: 1
Electric dark correction enabled: true
Nonlinearity correction enabled: false
Boxcar width: 0
XAxis mode: Wavelengths
Number of Pixels in Spectrum: 2048
>>>>>Begin Spectral Data<<<<<
223.165	-23.81
223.4	-23.81
223.635	-23.81
223.869	-17.81
224.104	-20.81
224.338	-0.81
224.573	-20.81
224.808	-14.81
225.042	-11.81
225.277	-0.81
225.511	-2.81
225.746	1.19
225.98	20.19
226.215	5.19
226.449	24.19
226.683	21.19
226.918	7.19
227.152	35.19
227.387	35.19
227.621	34.19
227.856	35.19
228.09	32.19
228.324	37.19
228.559	61.19
228.793	79.19
229.027	144.19
229.262	150.19
229.496	151.19
229.73	143.19
229.964	167.19
230.199	198.19
230.433	186.19
230.667	183.19
230.901	199.19
231.136	183.19
231.37	198.19
231.604	194.19
231.838	199.19
232.072	220.19
232.306	216.19
232.541	220.19
232.775	207.19
233.009	229.19
233.243	246.19
233.477	267.19
233.711	311.19
233.945	285.19
234.179	279.19
234.413	308.19
234.647	328.19
234.881	397.19
235.115	377.19
235.349	339.19
235.583	305.19
235.817	303.19
236.051	322.19
236.285	361.19
236.519	387.19
236.753	369.19
236.987	356.19
237.221	355.19
237.455	349.19
237.689	379.19
237.922	397.19
238.156	407.19
238.39	479.19
238.624	559.19
238.858	519.19
239.091	447.19
239.325	454.19
239.559	418.19
239.793	469.19
240.027	547.19
240.26	535.19
240.494	520.19
240.728	497.19
240.961	590.19
241.195	553.19
241.429	539.19
241.662	535.19
241.896	451.19
242.13	413.19
242.363	403.19
242.597	407.19
242.83	471.19
243.064	474.19
243.298	519.19
243.531	551.19
243.765	566.19
243.998	549.19
244.232	528.19
244.465	545.19
244.699	506.19
244.932	576.19
245.166	529.19
245.399	515.19
245.633	492.19
245.866	529.19
246.099	533.19
246.333	615.19
246.566	668.19
246.8	661.19
247.033	654.19
247.266	569.19
247.5	595.19
247.733	569.19
247.966	567.19
248.2	576.19
248.433	629.19
248.666	702.19
248.899	694.19
249.133	721.19
249.366	824.19
249.599	883.19
249.832	816.19
250.066	709.19
250.299	734.19
250.532	674.19
250.765	675.19
250.998	629.19
251.231	616.19
251.465	669.19
251.698	707.19
251.931	708.19
252.164	751.19
252.397	823.19
252.63	899.19
252.863	991.19
253.096	1013.19
253.329	966.19
253.562	919.19
253.795	1045.19
254.028	1147.19
254.261	1184.19
254.494	1071.19
254.727	959.19
254.96	961.19
255.193	993.19
255.426	963.19
255.659	763.19
255.892	738.19
256.124	815.19
256.357	920.19
256.59	1045.19
256.823	1030.19
257.056	860.19
257.289	823.19
257.521	860.19
257.754	1041.19
257.987	1223.19
258.22	1055.19
258.452	900.19
258.685	1015.19
258.918	1134.19
259.151	1167.19
259.383	1229.19
259.616	1420.19
259.849	1436.19
260.081	1492.19
260.314	1667.19
260.547	1326.19
260.779	1383.19
261.012	1606.19
261.244	1439.19
261.477	1470.19
261.71	1329.19
261.942	1131.19
262.175	1144.19
262.407	1118.19
262.64	1151.19
262.872	1333.19
263.105	1399.19
263.337	1490.19
263.57	1347.19
263.802	928.19
264.035	866.19
264.267	868.19
264.499	727.19
264.732	646.19
264.964	645.19
265.197	692.19
265.429	736.19
265.661	780.19
265.894	790.19
266.126	839.19
266.358	928.19
266.591	1105.19
266.823	1335.19
267.055	1335.19
267.287	1167.19
267.52	1198.19
267.752	1266.19
267.984	1396.19
268.216	1314.19
268.448	1094.19
268.681	1029.19
268.913	1118.19
269.145	1157.19
269.377	1227.19
269.609	1213.19
269.841	1140.19
270.073	1225.19
270.306	1283.19
270.538	1359.19
270.77	1349.19
271.002	1351.19
271.234	1344.19
271.466	1403.19
271.698	1294.19
271.93	1231.19
272.162	1243.19
272.394	1222.19
272.626	1228.19
272.858	1267.19
273.09	1276.19
273.322	1118.19
273.553	1080.19
273.785	1241.19
274.017	1615.19
274.249	2007.19
274.481	2077.19
274.713	2309.19
274.945	2641.19
275.176	2741.19
275.408	2423.19
275.64	2204.19
275.872	2211.19
276.104	1961.19
276.335	1716.19
276.567	1747.19
276.799	1799.19
277.031	1844.19
277.262	1426.19
277.494	1119.19
277.726	1106.19
277.957	1184.19
278.189	1317.19
278.421	1299.19
278.652	1272.19
278.884	1237.19
279.115	1126.19
279.347	1101.19
279.579	1113.19
279.81	1102.19
280.042	1107.19
280.273	1142.19
280.505	1081.19
280.736	984.19
280.968	977.19
281.199	1030.19
281.431	1213.19
281.662	1153.19
281.894	1137.19
282.125	1188.19
282.356	1275.19
282.588	1319.19
282.819	1190.19
283.051	1292.19
283.282	1592.19
283.513	1808.19
283.745	1973.19
283.976	2019.19
284.207	1856.19
284.439	1875.19
284.67	1837.19
284.901	1657.19
285.132	1777.19
285.364	1854.19
285.595	1702.19
285.826	1761.19
286.057	1837.19
286.288	1753.19
286.52	1802.19
286.751	1913.19
286.982	1915.19
287.213	1688.19
287.444	1617.19
287.675	1657.19
287.906	1717.19
288.138	1455.19
288.369	1304.19
288.6	1205.19
288.831	1331.19
289.062	1486.19
289.293	1698.19
289.524	1564.19
289.755	1557.19
289.986	1585.19
290.217	1413.19
290.448	1094.19
290.679	931.19
290.91	855.19
291.141	846.19
291.371	909.19
291.602	910.19
291.833	921.19
292.064	961.19
292.295	1139.19
292.526	1307.19
292.757	1347.19
292.987	1417.19
293.218	1459.19
293.449	1506.19
293.68	1604.19
293.91	1523.19
294.141	1588.19
294.372	1486.19
294.603	1333.19
294.833	1494.19
295.064	1757.19
295.295	1700.19
295.525	1215.19
295.756	1035.19
295.987	891.19
296.217	904.19
296.448	947.19
296.679	947.19
296.909	1037.19
297.14	1120.19
297.37	1249.19
297.601	1170.19
297.831	1077.19
298.062	1113.19
298.292	1253.19
298.523	1319.19
298.753	1452.19
298.984	1331.19
299.214	1093.19
299.445	914.19
299.675	870.19
299.905	859.19
300.136	878.19
300.366	943.19
300.597	936.19
300.827	854.19
301.057	825.19
301.288	835.19
301.518	880.19
301.748	978.19
301.979	1048.19
302.209	1126.19
302.439	1117.19
302.669	1027.19
302.9	1071.19
303.13	1025.19
303.36	974.19
303.59	940.19
303.82	991.19
304.051	1080.19
304.281	1177.19
304.511	1165.19
304.741	1021.19
304.971	1086.19
305.201	1160.19
305.431	1059.19
305.661	915.19
305.891	878.19
306.121	883.19
306.352	824.19
306.582	759.19
306.812	735.19
307.042	751.19
307.272	732.19
307.502	721.19
307.731	770.19
307.961	783.19
308.191	776.19
308.421	733.19
308.651	724.19
308.881	707.19
309.111	711.19
309.341	770.19
309.571	795.19
309.8	821.19
310.03	797.19
310.26	819.19
310.49	803.19
310.72	786.19
310.949	789.19
311.179	818.19
311.409	875.19
311.639	1003.19
311.868	1304.19
312.098	1607.19
312.328	1745.19
312.557	1681.19
312.787	1701.19
313.017	1556.19
313.246	1654.19
313.476	1770.19
313.706	1432.19
313.935	1157.19
314.165	940.19
314.394	870.19
314.624	845.19
314.853	923.19
315.083	949.19
315.312	916.19
315.542	887.19
315.771	825.19
316.001	769.19
316.23	755.19
316.46	742.19
316.689	766.19
316.919	779.19
317.148	811.19
317.377	795.19
317.607	815.19
317.836	875.19
318.065	945.19
318.295	1094.19
318.524	999.19
318.753	861.19
318.983	795.19
319.212	806.19
319.441	858.19
319.67	963.19
319.9	1002.19
320.129	958.19
320.358	847.19
320.587	824.19
320.816	849.19
321.046	973.19
321.275	1064.19
321.504	1069.19
321.733	1027.19
321.962	1003.19
322.191	930.19
322.42	889.19
322.649	893.19
322.878	946.19
323.108	975.19
323.337	931.19
323.566	933.19
323.795	921.19
324.024	896.19
324.253	841.19
324.482	833.19
324.71	868.19
324.939	951.19
325.168	913.19
325.397	788.19
325.626	778.19
325.855	806.19
326.084	840.19
326.313	788.19
326.542	716.19
326.77	788.19
326.999	802.19
327.228	851.19
327.457	869.19
327.686	844.19
327.914	775.19
328.143	729.19
328.372	735.19
328.6	729.19
328.829	760.19
329.058	781.19
329.287	787.19
329.515	805.19
329.744	818.19
329.972	766.19
330.201	742.19
330.43	776.19
330.658	846.19
330.887	925.19
331.115	937.19
331.344	920.19
331.572	884.19
331.801	820.19
332.03	752.19
332.258	821.19
332.486	857.19
332.715	890.19
332.943	849.19
333.172	852.19
333.4	872.19
333.629	946.19
333.857	1041.19
334.085	1024.19
334.314	1026.19
334.542	975.19
334.771	897.19
334.999	843.19
335.227	851.19
335.455	861.19
335.684	979.19
335.912	1093.19
336.14	1178.19
336.369	1118.19
336.597	1099.19
336.825	1220.19
337.053	1345.19
337.281	1069.19
337.51	903.19
337.738	902.19
337.966	953.19
338.194	1009.19
338.422	951.19
338.65	868.19
338.878	796.19
339.106	801.19
339.334	879.19
339.562	905.19
339.79	876.19
340.018	867.19
340.246	905.19
340.474	1053.19
340.702	1038.19
340.93	1079.19
341.158	1131.19
341.386	944.19
341.614	893.19
341.842	931.19
342.07	1001.19
342.298	1135.19
342.526	1179.19
342.754	968.19
342.981	909.19
343.209	903.19
343.437	962.19
343.665	999.19
343.893	1018.19
344.12	1133.19
344.348	1323.19
344.576	1225.19
344.804	981.19
345.031	889.19
345.259	835.19
345.487	885.19
345.714	888.19
345.942	934.19
346.17	1032.19
346.397	975.19
346.625	858.19
346.853	828.19
347.08	815.19
347.308	876.19
347.535	977.19
347.763	962.19
347.99	869.19
348.218	840.19
348.445	860.19
348.673	877.19
348.9	889.19
349.128	917.19
349.355	909.19
349.583	887.19
349.81	881.19
350.037	805.19
350.265	735.19
350.492	718.19
350.72	708.19
350.947	740.19
351.174	755.19
351.402	812.19
351.629	785.19
351.856	787.19
352.083	762.19
352.311	806.19
352.538	845.19
352.765	873.19
352.992	815.19
353.22	792.19
353.447	826.19
353.674	798.19
353.901	753.19
354.128	779.19
354.355	811.19
354.583	813.19
354.81	831.19
355.037	887.19
355.264	845.19
355.491	835.19
355.718	875.19
355.945	879.19
356.172	838.19
356.399	891.19
356.626	993.19
356.853	1128.19
357.08	1192.19
357.307	1216.19
357.534	1014.19
357.761	1046.19
357.988	1279.19
358.215	1440.19
358.441	1343.19
358.668	1154.19
358.895	1089.19
359.122	958.19
359.349	932.19
359.576	996.19
359.802	891.19
360.029	797.19
360.256	845.19
360.483	961.19
360.709	1113.19
360.936	1184.19
361.163	1054.19
361.39	855.19
361.616	827.19
361.843	906.19
362.07	1060.19
362.296	981.19
362.523	854.19
362.749	787.19
362.976	804.19
363.203	891.19
363.429	1000.19
363.656	856.19
363.882	799.19
364.109	781.19
364.335	822.19
364.562	792.19
364.788	866.19
365.015	932.19
365.241	903.19
365.468	774.19
365.694	745.19
365.92	703.19
366.147	718.19
366.373	700.19
366.599	704.19
366.826	681.19
367.052	740.19
367.278	745.19
367.505	711.19
367.731	757.19
367.957	821.19
368.184	845.19
368.41	802.19
368.636	825.19
368.862	822.19
369.089	820.19
369.315	769.19
369.541	728.19
369.767	747.19
369.993	752.19
370.219	717.19
370.445	781.19
370.672	832.19
370.898	851.19
371.124	877.19
371.35	789.19
371.576	790.19
371.802	833.19
372.028	909.19
372.254	961.19
372.48	910.19
372.706	835.19
372.932	861.19
373.158	879.19
373.384	1009.19
373.61	1218.19
373.835	1259.19
374.061	1005.19
374.287	888.19
374.513	984.19
374.739	1159.19
374.965	1178.19
375.191	1176.19
375.416	917.19
375.642	834.19
375.868	893.19
376.094	988.19
376.319	895.19
376.545	955.19
376.771	1023.19
376.997	867.19
377.222	731.19
377.448	685.19
377.674	703.19
377.899	693.19
378.125	671.19
378.35	697.19
378.576	700.19
378.802	712.19
379.027	754.19
379.253	751.19
379.478	747.19
379.704	835.19
379.929	851.19
380.155	848.19
380.38	783.19
380.606	847.19
380.831	898.19
381.057	862.19
381.282	791.19
381.507	896.19
381.733	1031.19
381.958	1088.19
382.184	1133.19
382.409	1207.19
382.634	1178.19
382.86	1214.19
383.085	1051.19
383.31	909.19
383.535	941.19
383.761	966.19
383.986	895.19
384.211	1042.19
384.436	1005.19
384.662	856.19
384.887	835.19
385.112	841.19
385.337	863.19
385.562	867.19
385.787	887.19
386.013	934.19
386.238	966.19
386.463	858.19
386.688	848.19
386.913	816.19
387.138	794.19
387.363	824.19
387.588	815.19
387.813	841.19
388.038	893.19
388.263	877.19
388.488	829.19
388.713	913.19
388.938	957.19
389.163	851.19
389.387	820.19
389.612	791.19
389.837	798.19
390.062	817.19
390.287	829.19
390.512	841.19
390.736	823.19
390.961	792.19
391.186	777.19
391.411	776.19
391.636	798.19
391.86	828.19
392.085	868.19
392.31	911.19
392.534	859.19
392.759	852.19
392.984	867.19
393.208	840.19
393.433	785.19
393.658	757.19
393.882	754.19
394.107	733.19
394.331	750.19
394.556	775.19
394.78	741.19
395.005	757.19
395.229	777.19
395.454	813.19
395.678	792.19
395.903	821.19
396.127	804.19
396.352	823.19
396.576	831.19
396.801	868.19
397.025	921.19
397.249	918.19
397.474	833.19
397.698	827.19
397.922	870.19
398.147	823.19
398.371	865.19
398.595	875.19
398.82	869.19
399.044	907.19
399.268	961.19
399.492	998.19
399.717	992.19
399.941	1025.19
400.165	993.19
400.389	929.19
400.613	953.19
400.837	903.19
401.062	864.19
401.286	829.19
401.51	837.19
401.734	859.19
401.958	861.19
402.182	860.19
402.406	830.19
402.63	876.19
402.854	895.19
403.078	1015.19
403.302	1196.19
403.526	1239.19
403.75	1096.19
403.974	978.19
404.198	1028.19
404.422	1086.19
404.645	1153.19
404.869	1250.19
405.093	1054.19
405.317	948.19
405.541	970.19
405.765	906.19
405.988	930.19
406.212	1006.19
406.436	1045.19
406.66	1101.19
406.883	977.19
407.107	1061.19
407.331	1123.19
407.555	1091.19
407.778	1006.19
408.002	975.19
408.226	1003.19
408.449	988.19
408.673	953.19
408.896	891.19
409.12	891.19
409.344	867.19
409.567	856.19
409.791	866.19
410.014	854.19
410.238	865.19
410.461	863.19
410.685	847.19
410.908	861.19
411.132	887.19
411.355	887.19
411.578	897.19
411.802	872.19
412.025	909.19
412.249	884.19
412.472	894.19
412.695	919.19
412.919	912.19
413.142	899.19
413.365	923.19
413.589	918.19
413.812	856.19
414.035	821.19
414.258	857.19
414.482	911.19
414.705	909.19
414.928	885.19
415.151	864.19
415.374	837.19
415.597	864.19
415.821	846.19
416.044	838.19
416.267	837.19
416.49	808.19
416.713	798.19
416.936	816.19
417.159	814.19
417.382	828.19
417.605	847.19
417.828	852.19
418.051	872.19
418.274	875.19
418.497	852.19
418.72	825.19
418.943	865.19
419.166	875.19
419.389	939.19
419.611	926.19
419.834	926.19
420.057	943.19
420.28	930.19
420.503	869.19
420.726	847.19
420.948	810.19
421.171	817.19
421.394	822.19
421.617	795.19
421.839	825.19
422.062	835.19
422.285	854.19
422.507	840.19
422.73	875.19
422.953	859.19
423.175	844.19
423.398	880.19
423.621	904.19
423.843	961.19
424.066	875.19
424.288	880.19
424.511	888.19
424.733	863.19
424.956	864.19
425.178	923.19
425.401	1033.19
425.623	1169.19
425.846	992.19
426.068	882.19
426.291	911.19
426.513	904.19
426.735	886.19
426.958	907.19
427.18	1008.19
427.402	1175.19
427.625	1196.19
427.847	1017.19
428.069	844.19
428.292	861.19
428.514	843.19
428.736	793.19
428.958	883.19
429.181	988.19
429.403	856.19
429.625	823.19
429.847	811.19
430.069	792.19
430.292	833.19
430.514	819.19
430.736	839.19
430.958	955.19
431.18	912.19
431.402	806.19
431.624	773.19
431.846	765.19
432.068	744.19
432.29	787.19
432.512	821.19
432.734	965.19
432.956	935.19
433.178	807.19
433.4	795.19
433.622	813.19
433.844	841.19
434.066	867.19
434.287	862.19
434.509	840.19
434.731	894.19
434.953	818.19
435.175	853.19
435.397	921.19
435.618	877.19
435.84	800.19
436.062	770.19
436.284	787.19
436.505	779.19
436.727	769.19
436.949	749.19
437.17	811.19
437.392	821.19
437.614	787.19
437.835	772.19
438.057	796.19
438.278	844.19
438.5	1091.19
438.721	1075.19
438.943	855.19
439.165	779.19
439.386	751.19
439.608	762.19
439.829	743.19
440.05	748.19
440.272	787.19
440.493	843.19
440.715	1018.19
440.936	880.19
441.158	799.19
441.379	788.19
441.6	865.19
441.822	908.19
442.043	831.19
442.264	820.19
442.486	850.19
442.707	825.19
442.928	819.19
443.149	855.19
443.371	864.19
443.592	871.19
443.813	879.19
444.034	853.19
444.255	873.19
444.476	909.19
444.698	903.19
444.919	935.19
445.14	1005.19
445.361	941.19
445.582	943.19
445.803	907.19
446.024	870.19
446.245	870.19
446.466	839.19
446.687	833.19
446.908	812.19
447.129	802.19
447.35	781.19
447.571	768.19
447.792	764.19
448.013	766.19
448.234	747.19
448.455	737.19
448.675	768.19
448.896	776.19
449.117	765.19
449.338	775.19
449.559	797.19
449.779	819.19
450	799.19
450.221	781.19
450.442	792.19
450.662	748.19
450.883	757.19
451.104	774.19
451.324	731.19
451.545	759.19
451.766	792.19
451.986	753.19
452.207	734.19
452.428	730.19
452.648	735.19
452.869	707.19
453.089	773.19
453.31	765.19
453.53	692.19
453.751	713.19
453.971	697.19
454.192	735.19
454.412	717.19
454.633	709.19
454.853	708.19
455.073	726.19
455.294	689.19
455.514	685.19
455.734	719.19
455.955	766.19
456.175	791.19
456.395	725.19
456.616	668.19
456.836	673.19
457.056	679.19
457.276	672.19
457.497	685.19
457.717	678.19
457.937	690.19
458.157	692.19
458.377	720.19
458.598	695.19
458.818	738.19
459.038	759.19
459.258	755.19
459.478	805.19
459.698	843.19
459.918	853.19
460.138	835.19
460.358	859.19
460.578	833.19
460.798	877.19
461.018	851.19
461.238	827.19
461.458	840.19
461.678	870.19
461.898	894.19
462.118	879.19
462.338	896.19
462.558	913.19
462.777	932.19
462.997	972.19
463.217	976.19
463.437	985.19
463.657	975.19
463.876	922.19
464.096	928.19
464.316	941.19
464.536	926.19
464.755	956.19
464.975	899.19
465.195	887.19
465.414	911.19
465.634	896.19
465.854	884.19
466.073	819.19
466.293	829.19
466.512	855.19
466.732	917.19
466.951	909.19
467.171	864.19
467.391	832.19
467.61	807.19
467.829	860.19
468.049	878.19
468.268	818.19
468.488	815.19
468.707	851.19
468.927	955.19
469.146	1059.19
469.365	932.19
469.585	882.19
469.804	936.19
470.023	982.19
470.243	893.19
470.462	871.19
470.681	851.19
470.901	871.19
471.12	883.19
471.339	891.19
471.558	833.19
471.777	854.19
471.997	929.19
472.216	997.19
472.435	979.19
472.654	909.19
472.873	885.19
473.092	932.19
473.311	921.19
473.53	893.19
473.749	877.19
473.968	870.19
474.187	886.19
474.406	875.19
474.625	837.19
474.844	897.19
475.063	943.19
475.282	938.19
475.501	971.19
475.72	1031.19
475.939	984.19
476.158	989.19
476.377	1157.19
476.596	1303.19
476.814	1343.19
477.033	1108.19
477.252	966.19
477.471	947.19
477.69	934.19
477.908	1031.19
478.127	1034.19
478.346	1011.19
478.564	1109.19
478.783	1036.19
479.002	1036.19
479.22	1134.19
479.439	1297.19
479.658	1165.19
479.876	1057.19
480.095	1145.19
480.313	1166.19
480.532	1054.19
480.751	1056.19
480.969	1047.19
481.188	1170.19
481.406	1215.19
481.624	1152.19
481.843	1040.19
482.061	1013.19
482.28	1109.19
482.498	1347.19
482.717	1255.19
482.935	1101.19
483.153	1023.19
483.372	973.19
483.59	969.19
483.808	992.19
484.027	979.19
484.245	953.19
484.463	939.19
484.681	956.19
484.9	1025.19
485.118	1094.19
485.336	1071.19
485.554	1019.19
485.772	1012.19
485.99	1083.19
486.209	1125.19
486.427	1114.19
486.645	1121.19
486.863	1108.19
487.081	1091.19
487.299	1201.19
487.517	1118.19
487.735	1107.19
487.953	1134.19
488.171	1165.19
488.389	1108.19
488.607	984.19
488.825	1040.19
489.043	1135.19
489.261	1183.19
489.479	1254.19
489.696	1128.19
489.914	1075.19
490.132	1041.19
490.35	1052.19
490.568	1046.19
490.786	1043.19
491.003	1057.19
491.221	1093.19
491.439	1046.19
491.657	1033.19
491.874	1105.19
492.092	1261.19
492.31	1357.19
492.527	1405.19
492.745	1325.19
492.963	1207.19
493.18	1182.19
493.398	1183.19
493.615	1182.19
493.833	1134.19
494.05	1111.19
494.268	1141.19
494.485	1144.19
494.703	1107.19
494.92	1118.19
495.138	1109.19
495.355	1095.19
495.573	1132.19
495.79	1181.19
496.008	1374.19
496.225	1285.19
496.442	1223.19
496.66	1236.19
496.877	1264.19
497.094	1263.19
497.312	1220.19
497.529	1201.19
497.746	1201.19
497.963	1253.19
498.181	1329.19
498.398	1447.19
498.615	1487.19
498.832	1534.19
499.049	1550.19
499.267	1447.19
499.484	1461.19
499.701	1534.19
499.918	1675.19
500.135	1785.19
500.352	1766.19
500.569	1839.19
500.786	1868.19
501.003	1862.19
501.22	1721.19
501.437	1574.19
501.654	1531.19
501.871	1519.19
502.088	1518.19
502.305	1379.19
502.522	1379.19
502.739	1396.19
502.956	1302.19
503.172	1314.19
503.389	1230.19
503.606	1175.19
503.823	1200.19
504.04	1232.19
504.256	1219.19
504.473	1224.19
504.69	1295.19
504.907	1282.19
505.123	1219.19
505.34	1281.19
505.557	1311.19
505.773	1232.19
505.99	1215.19
506.207	1233.19
506.423	1158.19
506.64	1094.19
506.856	1135.19
507.073	1213.19
507.289	1220.19
507.506	1207.19
507.722	1248.19
507.939	1255.19
508.155	1280.19
508.372	1165.19
508.588	1167.19
508.805	1143.19
509.021	1110.19
509.238	1099.19
509.454	1097.19
509.67	1095.19
509.887	1097.19
510.103	1186.19
510.319	1189.19
510.536	1086.19
510.752	1007.19
510.968	960.19
511.184	949.19
511.401	969.19
511.617	975.19
511.833	976.19
512.049	986.19
512.265	1037.19
512.481	1074.19
512.698	1116.19
512.914	1228.19
513.13	1123.19
513.346	1055.19
513.562	1077.19
513.778	1062.19
513.994	1009.19
514.21	1074.19
514.426	1071.19
514.642	1036.19
514.858	1027.19
515.074	1115.19
515.29	1144.19
515.506	1335.19
515.721	1263.19
515.937	1120.19
516.153	1083.19
516.369	1082.19
516.585	1116.19
516.801	1176.19
517.016	1331.19
517.232	1307.19
517.448	1343.19
517.664	1275.19
517.879	1223.19
518.095	1214.19
518.311	1230.19
518.527	1222.19
518.742	1310.19
518.958	1391.19
519.173	1317.19
519.389	1229.19
519.605	1220.19
519.82	1268.19
520.036	1510.19
520.251	1502.19
520.467	1389.19
520.682	1970.19
520.898	2293.19
521.113	2192.19
521.329	1525.19
521.544	1413.19
521.76	1334.19
521.975	1213.19
522.19	1161.19
522.406	1224.19
522.621	1298.19
522.836	1287.19
523.052	1263.19
523.267	1106.19
523.482	1110.19
523.698	1188.19
523.913	1205.19
524.128	1124.19
524.343	1085.19
524.559	1042.19
524.774	1050.19
524.989	1102.19
525.204	1097.19
525.419	1167.19
525.634	1143.19
525.849	1134.19
526.064	1146.19
526.28	1142.19
526.495	1313.19
526.71	1355.19
526.925	1175.19
527.14	1129.19
527.355	1099.19
527.57	1008.19
527.785	1066.19
527.999	1050.19
528.214	997.19
528.429	968.19
528.644	938.19
528.859	952.19
529.074	950.19
529.289	927.19
529.503	913.19
529.718	945.19
529.933	1088.19
530.148	1111.19
530.363	1009.19
530.577	964.19
530.792	945.19
531.007	929.19
531.221	941.19
531.436	954.19
531.651	930.19
531.865	942.19
532.08	961.19
532.295	905.19
532.509	917.19
532.724	1023.19
532.938	1150.19
533.153	1241.19
533.367	1075.19
533.582	1084.19
533.796	1044.19
534.011	973.19
534.225	959.19
534.44	985.19
534.654	1042.19
534.868	1150.19
535.083	1069.19
535.297	975.19
535.511	979.19
535.726	1089.19
535.94	995.19
536.154	963.19
536.369	933.19
536.583	909.19
536.797	896.19
537.011	916.19
537.225	978.19
537.44	994.19
537.654	921.19
537.868	948.19
538.082	985.19
538.296	943.19
538.51	981.19
538.724	983.19
538.938	953.19
539.153	878.19
539.367	899.19
539.581	919.19
539.795	927.19
540.009	999.19
540.222	959.19
540.436	959.19
540.65	987.19
540.864	1012.19
541.078	1048.19
541.292	1152.19
541.506	1003.19
541.72	952.19
541.934	945.19
542.147	988.19
542.361	957.19
542.575	943.19
542.789	927.19
543.002	884.19
543.216	958.19
543.43	849.19
543.644	883.19
543.857	887.19
544.071	873.19
544.285	899.19
544.498	855.19
544.712	865.19
544.925	897.19
545.139	879.19
545.352	831.19
545.566	887.19
545.779	957.19
545.993	868.19
546.206	816.19
546.42	821.19
546.633	827.19
546.847	798.19
547.06	784.19
547.274	804.19
547.487	814.19
547.7	853.19
547.914	893.19
548.127	1008.19
548.34	988.19
548.554	877.19
548.767	939.19
548.98	963.19
549.193	895.19
549.407	927.19
549.62	1056.19
549.833	1012.19
550.046	1043.19
550.259	1069.19
550.473	942.19
550.686	906.19
550.899	916.19
551.112	902.19
551.325	961.19
551.538	1007.19
551.751	890.19
551.964	870.19
552.177	865.19
552.39	822.19
552.603	850.19
552.816	857.19
553.029	848.19
553.242	850.19
553.455	891.19
553.667	955.19
553.88	898.19
554.093	860.19
554.306	790.19
554.519	744.19
554.732	747.19
554.944	750.19
555.157	757.19
555.37	740.19
555.583	762.19
555.795	783.19
556.008	758.19
556.221	777.19
556.433	747.19
556.646	711.19
556.859	763.19
557.071	770.19
557.284	744.19
557.496	735.19
557.709	744.19
557.921	743.19
558.134	716.19
558.346	699.19
558.559	710.19
558.771	725.19
558.984	731.19
559.196	709.19
559.409	699.19
559.621	673.19
559.833	678.19
560.046	700.19
560.258	720.19
560.47	701.19
560.683	663.19
560.895	655.19
561.107	656.19
561.32	643.19
561.532	677.19
561.744	679.19
561.956	705.19
562.168	658.19
562.381	667.19
562.593	704.19
562.805	703.19
563.017	685.19
563.229	660.19
563.441	641.19
563.653	641.19
563.865	669.19
564.077	648.19
564.289	649.19
564.501	678.19
564.713	760.19
564.925	717.19
565.137	695.19
565.349	676.19
565.561	669.19
565.773	694.19
565.985	728.19
566.197	769.19
566.408	823.19
566.62	796.19
566.832	820.19
567.044	802.19
567.255	893.19
567.467	936.19
567.679	868.19
567.891	857.19
568.102	860.19
568.314	888.19
568.526	829.19
568.737	839.19
568.949	835.19
569.161	736.19
569.372	679.19
569.584	705.19
569.795	645.19
570.007	659.19
570.218	703.19
570.43	679.19
570.641	670.19
570.853	645.19
571.064	649.19
571.276	657.19
571.487	675.19
571.698	642.19
571.91	645.19
572.121	657.19
572.333	611.19
572.544	585.19
572.755	616.19
572.966	577.19
573.178	580.19
573.389	626.19
573.6	627.19
573.811	605.19
574.023	559.19
574.234	568.19
574.445	578.19
574.656	572.19
574.867	563.19
575.078	558.19
575.289	575.19
575.501	622.19
575.712	556.19
575.923	525.19
576.134	505.19
576.345	513.19
576.556	537.19
576.767	523.19
576.978	520.19
577.188	513.19
577.399	512.19
577.61	503.19
577.821	513.19
578.032	545.19
578.243	556.19
578.454	551.19
578.665	566.19
578.875	534.19
579.086	527.19
579.297	547.19
579.508	537.19
579.718	545.19
579.929	542.19
580.14	536.19
580.35	477.19
580.561	487.19
580.772	473.19
580.982	464.19
581.193	494.19
581.403	485.19
581.614	472.19
581.825	446.19
582.035	454.19
582.246	453.19
582.456	476.19
582.667	470.19
582.877	450.19
583.087	456.19
583.298	439.19
583.508	445.19
583.719	460.19
583.929	448.19
584.139	438.19
584.35	440.19
584.56	463.19
584.77	427.19
584.981	456.19
585.191	459.19
585.401	444.19
585.611	450.19
585.821	501.19
586.032	505.19
586.242	461.19
586.452	419.19
586.662	466.19
586.872	473.19
587.082	470.19
587.292	460.19
587.502	457.19
587.713	464.19
587.923	474.19
588.133	522.19
588.343	475.19
588.553	449.19
588.762	455.19
588.972	445.19
589.182	478.19
589.392	446.19
589.602	435.19
589.812	457.19
590.022	516.19
590.232	496.19
590.441	452.19
590.651	446.19
590.861	416.19
591.071	451.19
591.281	433.19
591.49	422.19
591.7	425.19
591.91	462.19
592.119	435.19
592.329	448.19
592.539	455.19
592.748	444.19
592.958	437.19
593.167	470.19
593.377	477.19
593.587	463.19
593.796	475.19
594.006	470.19
594.215	469.19
594.424	473.19
594.634	487.19
594.843	453.19
595.053	445.19
595.262	444.19
595.472	431.19
595.681	431.19
595.89	406.19
596.1	398.19
596.309	430.19
596.518	429.19
596.727	424.19
596.937	402.19
597.146	424.19
597.355	451.19
597.564	411.19
597.774	408.19
597.983	404.19
598.192	405.19
598.401	386.19
598.61	374.19
598.819	380.19
599.028	376.19
599.237	373.19
599.446	387.19
599.655	367.19
599.864	357.19
600.073	353.19
600.282	369.19
600.491	405.19
600.7	373.19
600.909	364.19
601.118	378.19
601.327	385.19
601.536	390.19
601.745	382.19
601.953	398.19
602.162	384.19
602.371	376.19
602.58	395.19
602.789	364.19
602.997	386.19
603.206	377.19
603.415	377.19
603.623	376.19
603.832	374.19
604.041	341.19
604.249	355.19
604.458	363.19
604.666	344.19
604.875	347.19
605.084	336.19
605.292	348.19
605.501	346.19
605.709	374.19
605.918	352.19
606.126	345.19
606.334	351.19
606.543	351.19
606.751	343.19
606.96	335.19
607.168	343.19
607.376	353.19
607.585	348.19
607.793	334.19
608.001	351.19
608.21	341.19
608.418	349.19
608.626	377.19
608.834	337.19
609.043	324.19
609.251	350.19
609.459	340.19
609.667	330.19
609.875	328.19
610.083	329.19
610.291	343.19
610.499	324.19
610.707	333.19
610.916	325.19
611.124	324.19
611.332	340.19
611.54	332.19
611.748	326.19
611.955	335.19
612.163	333.19
612.371	329.19
612.579	318.19
612.787	331.19
612.995	337.19
613.203	345.19
613.411	326.19
613.618	320.19
613.826	324.19
614.034	331.19
614.242	326.19
614.449	307.19
614.657	316.19
614.865	303.19
615.072	324.19
615.28	327.19
615.488	327.19
615.695	324.19
615.903	319.19
616.111	318.19
616.318	324.19
616.526	323.19
616.733	331.19
616.941	323.19
617.148	312.19
617.356	301.19
617.563	311.19
617.771	300.19
617.978	299.19
618.185	306.19
618.393	303.19
618.6	301.19
618.807	328.19
619.015	309.19
619.222	303.19
619.429	313.19
619.637	319.19
619.844	295.19
620.051	305.19
620.258	301.19
620.466	303.19
620.673	277.19
620.88	303.19
621.087	277.19
621.294	299.19
621.501	292.19
621.708	275.19
621.915	290.19
622.122	300.19
622.329	299.19
622.536	277.19
622.743	295.19
622.95	280.19
623.157	312.19
623.364	299.19
623.571	293.19
623.778	303.19
623.985	305.19
624.192	305.19
624.399	304.19
624.606	293.19
624.812	275.19
625.019	304.19
625.226	301.19
625.433	304.19
625.639	273.19
625.846	285.19
626.053	258.19
626.259	267.19
626.466	280.19
626.673	297.19
626.879	286.19
627.086	280.19
627.293	267.19
627.499	272.19
627.706	273.19
627.912	267.19
628.119	277.19
628.325	268.19
628.532	262.19
628.738	278.19
628.945	261.19
629.151	265.19
629.357	260.19
629.564	252.19
629.77	255.19
629.976	251.19
630.183	268.19
630.389	249.19
630.595	260.19
630.802	251.19
631.008	256.19
631.214	239.19
631.42	242.19
631.627	249.19
631.833	240.19
632.039	253.19
632.245	221.19
632.451	237.19
632.657	254.19
632.863	251.19
633.069	249.19
633.275	240.19
633.481	236.19
633.688	243.19
633.893	222.19
634.099	252.19
634.305	237.19
634.511	232.19
634.717	224.19
634.923	227.19
635.129	227.19
635.335	223.19
635.541	232.19
635.747	251.19
635.952	229.19
636.158	236.19
636.364	243.19
636.57	242.19
636.775	225.19
636.981	225.19
637.187	236.19
637.392	236.19
637.598	222.19
637.804	237.19
638.009	230.19
638.215	218.19
638.421	226.19
638.626	228.19
638.832	232.19
639.037	236.19
639.243	225.19
639.448	227.19
639.654	226.19
639.859	226.19
640.065	208.19
640.27	250.19
640.475	213.19
640.681	224.19
640.886	219.19
641.091	219.19
641.297	225.19
641.502	213.19
641.707	227.19
641.913	205.19
642.118	222.19
642.323	194.19
642.528	213.19
642.733	210.19
642.939	229.19
643.144	209.19
643.349	204.19
643.554	202.19
643.759	224.19
643.964	212.19
644.169	212.19
644.374	204.19
644.579	200.19
644.784	214.19
644.989	195.19
645.194	197.19
645.399	207.19
645.604	202.19
645.809	196.19
646.014	211.19
646.219	207.19
646.423	209.19
646.628	211.19
646.833	223.19
647.038	211.19
647.243	196.19
647.447	209.19
647.652	207.19
647.857	208.19
648.062	203.19
648.266	209.19
648.471	231.19
648.676	224.19
648.88	207.19
649.085	210.19
649.289	204.19
649.494	207.19
649.698	203.19
649.903	195.19
650.107	183.19
650.312	192.19
650.516	181.19
650.721	172.19
650.925	193.19
651.13	179.19
651.334	188.19
651.539	174.19
651.743	181.19
651.947	184.19
652.152	191.19
652.356	171.19
652.56	176.19
652.764	188.19
652.969	161.19
653.173	179.19
653.377	177.19
653.581	157.19
653.785	165.19
653.99	163.19
654.194	173.19
654.398	157.19
654.602	148.19
654.806	161.19
655.01	179.19
655.214	158.19
655.418	151.19
655.622	159.19
655.826	131.19
656.03	143.19
656.234	157.19
656.438	152.19
656.642	142.19
656.846	142.19
657.049	150.19
657.253	143.19
657.457	130.19
657.661	125.19
657.865	151.19
658.068	129.19
658.272	120.19
658.476	101.19
658.68	117.19
658.883	122.19
659.087	117.19
659.291	101.19
659.494	115.19
659.698	98.19
659.901	100.19
660.105	119.19
660.309	119.19
660.512	101.19
660.716	111.19
660.919	83.19
661.123	99.19
661.326	97.19
661.53	85.19
661.733	97.19
661.936	73.19
662.14	94.19
662.343	89.19
662.546	87.19
662.75	101.19
662.953	106.19
663.156	92.19
663.36	83.19
663.563	88.19
663.766	72.19
663.969	81.19
664.173	81.19
664.376	81.19
664.579	86.19
664.782	75.19
664.985	81.19
665.188	73.19
665.391	83.19
665.594	73.19
665.797	76.19
666	79.19
666.203	87.19
666.406	76.19
666.609	65.19
666.812	81.19
667.015	89.19
667.218	77.19
667.421	82.19
667.624	68.19
667.827	86.19
668.03	79.19
668.232	92.19
668.435	95.19
668.638	87.19
668.841	75.19
669.043	83.19
669.246	74.19
669.449	91.19
669.651	91.19
669.854	73.19
670.057	62.19
670.259	59.19
670.462	80.19
670.665	85.19
670.867	95.19
671.07	83.19
671.272	80.19
671.475	99.19
671.677	79.19
671.88	74.19
672.082	83.19
672.284	76.19
672.487	88.19
672.689	76.19
672.892	80.19
