Data from NickelSpatula_HRD10591_16-36-34-126.txt Node
Date: Mon Jul 22 16:36:34 EDT 2019
User: cochatt
Spectrometer: HR+D1059
Trigger mode: 1
Integration Time (sec): 1.000000E-1
Scans to average: 1
Electric dark correction enabled: true
Nonlinearity correction enabled: false
Boxcar width: 0
XAxis mode: Wavelengths
Number of Pixels in Spectrum: 2048
>>>>>Begin Spectral Data<<<<<
223.165	-14.12
223.4	-14.12
223.635	-14.12
223.869	-2.12
224.104	-24.12
224.338	-29.12
224.573	-28.12
224.808	-11.12
225.042	0.88
225.277	7.88
225.511	2.88
225.746	2.88
225.98	8.88
226.215	10.88
226.449	2.88
226.683	16.88
226.918	34.88
227.152	19.88
227.387	29.88
227.621	25.88
227.856	43.88
228.09	43.88
228.324	32.88
228.559	50.88
228.793	48.88
229.027	58.88
229.262	59.88
229.496	85.88
229.73	79.88
229.964	64.88
230.199	85.88
230.433	72.88
230.667	79.88
230.901	80.88
231.136	78.88
231.37	93.88
231.604	86.88
231.838	92.88
232.072	84.88
232.306	96.88
232.541	99.88
232.775	85.88
233.009	70.88
233.243	89.88
233.477	92.88
233.711	87.88
233.945	77.88
234.179	98.88
234.413	91.88
234.647	100.88
234.881	108.88
235.115	100.88
235.349	88.88
235.583	80.88
235.817	87.88
236.051	87.88
236.285	84.88
236.519	95.88
236.753	108.88
236.987	101.88
237.221	101.88
237.455	90.88
237.689	80.88
237.922	94.88
238.156	82.88
238.39	103.88
238.624	91.88
238.858	103.88
239.091	98.88
239.325	105.88
239.559	83.88
239.793	101.88
240.027	104.88
240.26	99.88
240.494	103.88
240.728	93.88
240.961	88.88
241.195	106.88
241.429	106.88
241.662	96.88
241.896	100.88
242.13	101.88
242.363	94.88
242.597	100.88
242.83	93.88
243.064	97.88
243.298	114.88
243.531	91.88
243.765	116.88
243.998	95.88
244.232	100.88
244.465	88.88
244.699	97.88
244.932	92.88
245.166	105.88
245.399	100.88
245.633	96.88
245.866	91.88
246.099	114.88
246.333	102.88
246.566	109.88
246.8	124.88
247.033	103.88
247.266	110.88
247.5	112.88
247.733	99.88
247.966	118.88
248.2	113.88
248.433	107.88
248.666	115.88
248.899	107.88
249.133	114.88
249.366	119.88
249.599	113.88
249.832	112.88
250.066	105.88
250.299	121.88
250.532	110.88
250.765	101.88
250.998	112.88
251.231	118.88
251.465	91.88
251.698	114.88
251.931	98.88
252.164	114.88
252.397	122.88
252.63	124.88
252.863	131.88
253.096	131.88
253.329	131.88
253.562	124.88
253.795	133.88
254.028	144.88
254.261	145.88
254.494	143.88
254.727	138.88
254.96	126.88
255.193	126.88
255.426	115.88
255.659	124.88
255.892	116.88
256.124	117.88
256.357	132.88
256.59	133.88
256.823	133.88
257.056	109.88
257.289	113.88
257.521	114.88
257.754	113.88
257.987	135.88
258.22	134.88
258.452	121.88
258.685	130.88
258.918	154.88
259.151	142.88
259.383	140.88
259.616	144.88
259.849	156.88
260.081	145.88
260.314	157.88
260.547	129.88
260.779	131.88
261.012	165.88
261.244	140.88
261.477	151.88
261.71	151.88
261.942	141.88
262.175	144.88
262.407	138.88
262.64	130.88
262.872	131.88
263.105	151.88
263.337	154.88
263.57	145.88
263.802	124.88
264.035	116.88
264.267	123.88
264.499	111.88
264.732	104.88
264.964	107.88
265.197	119.88
265.429	114.88
265.661	114.88
265.894	119.88
266.126	117.88
266.358	127.88
266.591	131.88
266.823	147.88
267.055	130.88
267.287	126.88
267.52	136.88
267.752	129.88
267.984	141.88
268.216	142.88
268.448	130.88
268.681	132.88
268.913	149.88
269.145	148.88
269.377	138.88
269.609	137.88
269.841	153.88
270.073	136.88
270.306	142.88
270.538	138.88
270.77	133.88
271.002	158.88
271.234	137.88
271.466	138.88
271.698	143.88
271.93	138.88
272.162	136.88
272.394	138.88
272.626	130.88
272.858	141.88
273.09	148.88
273.322	134.88
273.553	138.88
273.785	141.88
274.017	160.88
274.249	169.88
274.481	181.88
274.713	203.88
274.945	213.88
275.176	225.88
275.408	204.88
275.64	210.88
275.872	203.88
276.104	171.88
276.335	164.88
276.567	166.88
276.799	159.88
277.031	173.88
277.262	142.88
277.494	140.88
277.726	146.88
277.957	122.88
278.189	129.88
278.421	138.88
278.652	142.88
278.884	124.88
279.115	130.88
279.347	121.88
279.579	135.88
279.81	132.88
280.042	131.88
280.273	126.88
280.505	115.88
280.736	118.88
280.968	120.88
281.199	134.88
281.431	131.88
281.662	124.88
281.894	126.88
282.125	126.88
282.356	134.88
282.588	130.88
282.819	120.88
283.051	140.88
283.282	166.88
283.513	165.88
283.745	164.88
283.976	180.88
284.207	170.88
284.439	171.88
284.67	159.88
284.901	135.88
285.132	158.88
285.364	166.88
285.595	149.88
285.826	155.88
286.057	175.88
286.288	166.88
286.52	176.88
286.751	162.88
286.982	154.88
287.213	148.88
287.444	151.88
287.675	158.88
287.906	149.88
288.138	140.88
288.369	130.88
288.6	138.88
288.831	139.88
289.062	138.88
289.293	154.88
289.524	145.88
289.755	155.88
289.986	133.88
290.217	149.88
290.448	130.88
290.679	119.88
290.91	118.88
291.141	123.88
291.371	122.88
291.602	125.88
291.833	117.88
292.064	120.88
292.295	147.88
292.526	131.88
292.757	136.88
292.987	141.88
293.218	145.88
293.449	147.88
293.68	158.88
293.91	154.88
294.141	168.88
294.372	139.88
294.603	134.88
294.833	154.88
295.064	146.88
295.295	144.88
295.525	145.88
295.756	124.88
295.987	125.88
296.217	110.88
296.448	110.88
296.679	107.88
296.909	134.88
297.14	127.88
297.37	150.88
297.601	126.88
297.831	107.88
298.062	128.88
298.292	128.88
298.523	150.88
298.753	147.88
298.984	128.88
299.214	118.88
299.445	123.88
299.675	114.88
299.905	112.88
300.136	121.88
300.366	121.88
300.597	142.88
300.827	106.88
301.057	106.88
301.288	115.88
301.518	122.88
301.748	119.88
301.979	133.88
302.209	122.88
302.439	122.88
302.669	126.88
302.9	122.88
303.13	130.88
303.36	117.88
303.59	125.88
303.82	122.88
304.051	124.88
304.281	136.88
304.511	133.88
304.741	128.88
304.971	124.88
305.201	118.88
305.431	118.88
305.661	107.88
305.891	120.88
306.121	117.88
306.352	110.88
306.582	96.88
306.812	125.88
307.042	120.88
307.272	105.88
307.502	106.88
307.731	121.88
307.961	125.88
308.191	110.88
308.421	118.88
308.651	108.88
308.881	112.88
309.111	102.88
309.341	104.88
309.571	126.88
309.8	120.88
310.03	113.88
310.26	107.88
310.49	117.88
310.72	112.88
310.949	116.88
311.179	121.88
311.409	119.88
311.639	129.88
311.868	129.88
312.098	158.88
312.328	153.88
312.557	144.88
312.787	153.88
313.017	143.88
313.246	150.88
313.476	147.88
313.706	138.88
313.935	125.88
314.165	111.88
314.394	123.88
314.624	121.88
314.853	114.88
315.083	130.88
315.312	127.88
315.542	119.88
315.771	101.88
316.001	123.88
316.23	112.88
316.46	109.88
316.689	126.88
316.919	112.88
317.148	99.88
317.377	116.88
317.607	123.88
317.836	114.88
318.065	111.88
318.295	122.88
318.524	122.88
318.753	123.88
318.983	115.88
319.212	117.88
319.441	121.88
319.67	135.88
319.9	125.88
320.129	119.88
320.358	134.88
320.587	100.88
320.816	116.88
321.046	134.88
321.275	119.88
321.504	128.88
321.733	124.88
321.962	131.88
322.191	129.88
322.42	131.88
322.649	117.88
322.878	132.88
323.108	122.88
323.337	122.88
323.566	123.88
323.795	128.88
324.024	132.88
324.253	116.88
324.482	107.88
324.71	132.88
324.939	115.88
325.168	111.88
325.397	117.88
325.626	117.88
325.855	123.88
326.084	112.88
326.313	114.88
326.542	104.88
326.77	108.88
326.999	110.88
327.228	126.88
327.457	96.88
327.686	120.88
327.914	97.88
328.143	117.88
328.372	107.88
328.6	109.88
328.829	122.88
329.058	129.88
329.287	110.88
329.515	115.88
329.744	118.88
329.972	113.88
330.201	120.88
330.43	120.88
330.658	107.88
330.887	124.88
331.115	123.88
331.344	110.88
331.572	122.88
331.801	123.88
332.03	121.88
332.258	108.88
332.486	115.88
332.715	124.88
332.943	120.88
333.172	114.88
333.4	123.88
333.629	108.88
333.857	114.88
334.085	122.88
334.314	122.88
334.542	124.88
334.771	120.88
334.999	109.88
335.227	102.88
335.455	113.88
335.684	118.88
335.912	121.88
336.14	116.88
336.369	125.88
336.597	124.88
336.825	122.88
337.053	126.88
337.281	131.88
337.51	105.88
337.738	121.88
337.966	121.88
338.194	128.88
338.422	104.88
338.65	110.88
338.878	116.88
339.106	114.88
339.334	113.88
339.562	104.88
339.79	102.88
340.018	111.88
340.246	138.88
340.474	137.88
340.702	125.88
340.93	128.88
341.158	130.88
341.386	118.88
341.614	100.88
341.842	113.88
342.07	128.88
342.298	125.88
342.526	123.88
342.754	118.88
342.981	124.88
343.209	116.88
343.437	114.88
343.665	124.88
343.893	129.88
344.12	119.88
344.348	138.88
344.576	130.88
344.804	132.88
345.031	129.88
345.259	120.88
345.487	123.88
345.714	126.88
345.942	129.88
346.17	107.88
346.397	126.88
346.625	125.88
346.853	115.88
347.08	97.88
347.308	114.88
347.535	124.88
347.763	117.88
347.99	121.88
348.218	124.88
348.445	116.88
348.673	122.88
348.9	119.88
349.128	110.88
349.355	123.88
349.583	98.88
349.81	118.88
350.037	118.88
350.265	113.88
350.492	106.88
350.72	110.88
350.947	110.88
351.174	108.88
351.402	107.88
351.629	98.88
351.856	111.88
352.083	104.88
352.311	114.88
352.538	120.88
352.765	115.88
352.992	120.88
353.22	130.88
353.447	113.88
353.674	106.88
353.901	104.88
354.128	99.88
354.355	107.88
354.583	121.88
354.81	122.88
355.037	95.88
355.264	128.88
355.491	128.88
355.718	119.88
355.945	111.88
356.172	122.88
356.399	114.88
356.626	124.88
356.853	130.88
357.08	148.88
357.307	138.88
357.534	117.88
357.761	125.88
357.988	139.88
358.215	147.88
358.441	151.88
358.668	136.88
358.895	127.88
359.122	124.88
359.349	133.88
359.576	116.88
359.802	115.88
360.029	125.88
360.256	119.88
360.483	121.88
360.709	132.88
360.936	132.88
361.163	127.88
361.39	128.88
361.616	122.88
361.843	122.88
362.07	128.88
362.296	118.88
362.523	112.88
362.749	119.88
362.976	114.88
363.203	122.88
363.429	135.88
363.656	113.88
363.882	94.88
364.109	118.88
364.335	123.88
364.562	129.88
364.788	130.88
365.015	123.88
365.241	121.88
365.468	110.88
365.694	118.88
365.92	116.88
366.147	108.88
366.373	107.88
366.599	114.88
366.826	114.88
367.052	114.88
367.278	119.88
367.505	93.88
367.731	115.88
367.957	128.88
368.184	117.88
368.41	119.88
368.636	115.88
368.862	111.88
369.089	112.88
369.315	104.88
369.541	108.88
369.767	102.88
369.993	107.88
370.219	115.88
370.445	114.88
370.672	117.88
370.898	124.88
371.124	126.88
371.35	122.88
371.576	100.88
371.802	110.88
372.028	118.88
372.254	134.88
372.48	113.88
372.706	115.88
372.932	104.88
373.158	123.88
373.384	127.88
373.61	132.88
373.835	140.88
374.061	124.88
374.287	123.88
374.513	130.88
374.739	143.88
374.965	140.88
375.191	130.88
375.416	123.88
375.642	121.88
375.868	119.88
376.094	138.88
376.319	118.88
376.545	118.88
376.771	121.88
376.997	112.88
377.222	129.88
377.448	106.88
377.674	120.88
377.899	107.88
378.125	102.88
378.35	103.88
378.576	114.88
378.802	118.88
379.027	119.88
379.253	114.88
379.478	115.88
379.704	103.88
379.929	126.88
380.155	126.88
380.38	125.88
380.606	140.88
380.831	124.88
381.057	125.88
381.282	118.88
381.507	117.88
381.733	125.88
381.958	125.88
382.184	140.88
382.409	146.88
382.634	143.88
382.86	135.88
383.085	128.88
383.31	135.88
383.535	133.88
383.761	120.88
383.986	120.88
384.211	122.88
384.436	111.88
384.662	122.88
384.887	121.88
385.112	119.88
385.337	113.88
385.562	112.88
385.787	125.88
386.013	124.88
386.238	131.88
386.463	116.88
386.688	115.88
386.913	110.88
387.138	109.88
387.363	103.88
387.588	108.88
387.813	124.88
388.038	146.88
388.263	131.88
388.488	115.88
388.713	124.88
388.938	135.88
389.163	123.88
389.387	104.88
389.612	117.88
389.837	109.88
390.062	112.88
390.287	102.88
390.512	115.88
390.736	114.88
390.961	117.88
391.186	118.88
391.411	106.88
391.636	112.88
391.86	114.88
392.085	112.88
392.31	122.88
392.534	119.88
392.759	119.88
392.984	123.88
393.208	130.88
393.433	130.88
393.658	144.88
393.882	115.88
394.107	108.88
394.331	113.88
394.556	114.88
394.78	118.88
395.005	122.88
395.229	122.88
395.454	127.88
395.678	115.88
395.903	119.88
396.127	124.88
396.352	128.88
396.576	127.88
396.801	123.88
397.025	134.88
397.249	130.88
397.474	124.88
397.698	127.88
397.922	105.88
398.147	99.88
398.371	117.88
398.595	120.88
398.82	122.88
399.044	123.88
399.268	131.88
399.492	122.88
399.717	134.88
399.941	138.88
400.165	127.88
400.389	128.88
400.613	120.88
400.837	116.88
401.062	118.88
401.286	112.88
401.51	110.88
401.734	116.88
401.958	116.88
402.182	116.88
402.406	124.88
402.63	111.88
402.854	108.88
403.078	138.88
403.302	138.88
403.526	136.88
403.75	132.88
403.974	118.88
404.198	136.88
404.422	132.88
404.645	130.88
404.869	128.88
405.093	125.88
405.317	126.88
405.541	122.88
405.765	111.88
405.988	118.88
406.212	123.88
406.436	136.88
406.66	142.88
406.883	120.88
407.107	131.88
407.331	118.88
407.555	130.88
407.778	122.88
408.002	128.88
408.226	124.88
408.449	135.88
408.673	117.88
408.896	125.88
409.12	140.88
409.344	122.88
409.567	134.88
409.791	119.88
410.014	122.88
410.238	112.88
410.461	113.88
410.685	124.88
410.908	105.88
411.132	119.88
411.355	134.88
411.578	113.88
411.802	118.88
412.025	118.88
412.249	113.88
412.472	125.88
412.695	109.88
412.919	107.88
413.142	132.88
413.365	116.88
413.589	125.88
413.812	130.88
414.035	127.88
414.258	119.88
414.482	134.88
414.705	116.88
414.928	130.88
415.151	123.88
415.374	114.88
415.597	108.88
415.821	118.88
416.044	120.88
416.267	105.88
416.49	115.88
416.713	117.88
416.936	116.88
417.159	114.88
417.382	123.88
417.605	101.88
417.828	114.88
418.051	114.88
418.274	117.88
418.497	107.88
418.72	122.88
418.943	121.88
419.166	126.88
419.389	126.88
419.611	129.88
419.834	124.88
420.057	119.88
420.28	119.88
420.503	118.88
420.726	120.88
420.948	118.88
421.171	112.88
421.394	125.88
421.617	110.88
421.839	116.88
422.062	113.88
422.285	114.88
422.507	134.88
422.73	112.88
422.953	126.88
423.175	135.88
423.398	142.88
423.621	132.88
423.843	137.88
424.066	131.88
424.288	116.88
424.511	127.88
424.733	126.88
424.956	117.88
425.178	126.88
425.401	130.88
425.623	126.88
425.846	116.88
426.068	123.88
426.291	125.88
426.513	128.88
426.735	130.88
426.958	119.88
427.18	134.88
427.402	134.88
427.625	146.88
427.847	134.88
428.069	124.88
428.292	128.88
428.514	115.88
428.736	122.88
428.958	122.88
429.181	137.88
429.403	116.88
429.625	112.88
429.847	120.88
430.069	121.88
430.292	131.88
430.514	111.88
430.736	118.88
430.958	130.88
431.18	125.88
431.402	123.88
431.624	117.88
431.846	116.88
432.068	121.88
432.29	110.88
432.512	112.88
432.734	126.88
432.956	118.88
433.178	119.88
433.4	108.88
433.622	124.88
433.844	136.88
434.066	120.88
434.287	129.88
434.509	114.88
434.731	120.88
434.953	123.88
435.175	114.88
435.397	117.88
435.618	113.88
435.84	112.88
436.062	123.88
436.284	118.88
436.505	122.88
436.727	116.88
436.949	108.88
437.17	97.88
437.392	106.88
437.614	104.88
437.835	121.88
438.057	107.88
438.278	117.88
438.5	144.88
438.721	126.88
438.943	137.88
439.165	108.88
439.386	102.88
439.608	118.88
439.829	120.88
440.05	119.88
440.272	114.88
440.493	110.88
440.715	132.88
440.936	95.88
441.158	97.88
441.379	116.88
441.6	124.88
441.822	123.88
442.043	104.88
442.264	121.88
442.486	114.88
442.707	132.88
442.928	122.88
443.149	117.88
443.371	125.88
443.592	105.88
443.813	132.88
444.034	119.88
444.255	118.88
444.476	118.88
444.698	116.88
444.919	120.88
445.14	254.88
445.361	186.88
445.582	136.88
445.803	124.88
446.024	121.88
446.245	121.88
446.466	126.88
446.687	128.88
446.908	116.88
447.129	109.88
447.35	101.88
447.571	120.88
447.792	116.88
448.013	99.88
448.234	123.88
448.455	94.88
448.675	112.88
448.896	116.88
449.117	115.88
449.338	115.88
449.559	117.88
449.779	120.88
450	112.88
450.221	128.88
450.442	121.88
450.662	117.88
450.883	117.88
451.104	123.88
451.324	106.88
451.545	107.88
451.766	98.88
451.986	99.88
452.207	110.88
452.428	110.88
452.648	105.88
452.869	126.88
453.089	114.88
453.31	117.88
453.53	112.88
453.751	84.88
453.971	100.88
454.192	113.88
454.412	102.88
454.633	103.88
454.853	106.88
455.073	111.88
455.294	116.88
455.514	118.88
455.734	103.88
455.955	112.88
456.175	110.88
456.395	114.88
456.616	101.88
456.836	103.88
457.056	96.88
457.276	103.88
457.497	102.88
457.717	108.88
457.937	106.88
458.157	120.88
458.377	107.88
458.598	96.88
458.818	106.88
459.038	96.88
459.258	115.88
459.478	120.88
459.698	122.88
459.918	106.88
460.138	119.88
460.358	114.88
460.578	111.88
460.798	115.88
461.018	119.88
461.238	107.88
461.458	120.88
461.678	116.88
461.898	132.88
462.118	116.88
462.338	124.88
462.558	119.88
462.777	123.88
462.997	120.88
463.217	124.88
463.437	137.88
463.657	115.88
463.876	110.88
464.096	118.88
464.316	129.88
464.536	131.88
464.755	124.88
464.975	122.88
465.195	119.88
465.414	131.88
465.634	133.88
465.854	125.88
466.073	112.88
466.293	131.88
466.512	126.88
466.732	112.88
466.951	128.88
467.171	112.88
467.391	123.88
467.61	129.88
467.829	120.88
468.049	122.88
468.268	123.88
468.488	124.88
468.707	123.88
468.927	116.88
469.146	125.88
469.365	130.88
469.585	124.88
469.804	130.88
470.023	129.88
470.243	122.88
470.462	105.88
470.681	121.88
470.901	107.88
471.12	128.88
471.339	111.88
471.558	117.88
471.777	115.88
471.997	121.88
472.216	136.88
472.435	138.88
472.654	125.88
472.873	133.88
473.092	124.88
473.311	118.88
473.53	128.88
473.749	121.88
473.968	110.88
474.187	120.88
474.406	114.88
474.625	110.88
474.844	124.88
475.063	115.88
475.282	134.88
475.501	134.88
475.72	137.88
475.939	112.88
476.158	126.88
476.377	134.88
476.596	147.88
476.814	160.88
477.033	137.88
477.252	122.88
477.471	124.88
477.69	131.88
477.908	126.88
478.127	138.88
478.346	110.88
478.564	138.88
478.783	126.88
479.002	131.88
479.22	138.88
479.439	163.88
479.658	145.88
479.876	142.88
480.095	145.88
480.313	136.88
480.532	154.88
480.751	119.88
480.969	136.88
481.188	127.88
481.406	136.88
481.624	130.88
481.843	122.88
482.061	118.88
482.28	142.88
482.498	154.88
482.717	146.88
482.935	123.88
483.153	124.88
483.372	129.88
483.59	132.88
483.808	120.88
484.027	122.88
484.245	128.88
484.463	133.88
484.681	136.88
484.9	133.88
485.118	135.88
485.336	134.88
485.554	115.88
485.772	136.88
485.99	128.88
486.209	145.88
486.427	129.88
486.645	135.88
486.863	134.88
487.081	132.88
487.299	146.88
487.517	131.88
487.735	146.88
487.953	130.88
488.171	122.88
488.389	136.88
488.607	110.88
488.825	130.88
489.043	140.88
489.261	139.88
489.479	149.88
489.696	124.88
489.914	124.88
490.132	112.88
490.35	126.88
490.568	131.88
490.786	132.88
491.003	138.88
491.221	117.88
491.439	124.88
491.657	132.88
491.874	131.88
492.092	137.88
492.31	159.88
492.527	145.88
492.745	126.88
492.963	138.88
493.18	124.88
493.398	146.88
493.615	141.88
493.833	138.88
494.05	123.88
494.268	130.88
494.485	134.88
494.703	129.88
494.92	120.88
495.138	123.88
495.355	130.88
495.573	130.88
495.79	135.88
496.008	145.88
496.225	144.88
496.442	150.88
496.66	148.88
496.877	138.88
497.094	145.88
497.312	138.88
497.529	138.88
497.746	130.88
497.963	142.88
498.181	148.88
498.398	150.88
498.615	164.88
498.832	161.88
499.049	160.88
499.267	143.88
499.484	123.88
499.701	156.88
499.918	169.88
500.135	162.88
500.352	178.88
500.569	192.88
500.786	181.88
501.003	178.88
501.22	156.88
501.437	155.88
501.654	170.88
501.871	156.88
502.088	150.88
502.305	160.88
502.522	134.88
502.739	161.88
502.956	141.88
503.172	134.88
503.389	130.88
503.606	128.88
503.823	140.88
504.04	151.88
504.256	133.88
504.473	142.88
504.69	148.88
504.907	138.88
505.123	152.88
505.34	153.88
505.557	154.88
505.773	143.88
505.99	138.88
506.207	143.88
506.423	146.88
506.64	130.88
506.856	133.88
507.073	152.88
507.289	153.88
507.506	134.88
507.722	142.88
507.939	140.88
508.155	150.88
508.372	138.88
508.588	145.88
508.805	129.88
509.021	122.88
509.238	113.88
509.454	114.88
509.67	126.88
509.887	134.88
510.103	138.88
510.319	131.88
510.536	124.88
510.752	126.88
510.968	127.88
511.184	118.88
511.401	131.88
511.617	128.88
511.833	126.88
512.049	133.88
512.265	124.88
512.481	122.88
512.698	129.88
512.914	131.88
513.13	143.88
513.346	138.88
513.562	126.88
513.778	139.88
513.994	140.88
514.21	124.88
514.426	133.88
514.642	124.88
514.858	139.88
515.074	139.88
515.29	136.88
515.506	159.88
515.721	135.88
515.937	136.88
516.153	168.88
516.369	135.88
516.585	142.88
516.801	146.88
517.016	151.88
517.232	159.88
517.448	158.88
517.664	146.88
517.879	128.88
518.095	146.88
518.311	136.88
518.527	130.88
518.742	144.88
518.958	151.88
519.173	155.88
519.389	145.88
519.605	154.88
519.82	160.88
520.036	165.88
520.251	155.88
520.467	162.88
520.682	197.88
520.898	226.88
521.113	214.88
521.329	175.88
521.544	162.88
521.76	136.88
521.975	154.88
522.19	146.88
522.406	144.88
522.621	166.88
522.836	140.88
523.052	155.88
523.267	153.88
523.482	139.88
523.698	151.88
523.913	150.88
524.128	138.88
524.343	132.88
524.559	130.88
524.774	123.88
524.989	144.88
525.204	146.88
525.419	144.88
525.634	127.88
525.849	137.88
526.064	159.88
526.28	153.88
526.495	148.88
526.71	157.88
526.925	147.88
527.14	140.88
527.355	165.88
527.57	134.88
527.785	132.88
527.999	152.88
528.214	99.88
528.429	143.88
528.644	114.88
528.859	118.88
529.074	124.88
529.289	126.88
529.503	124.88
529.718	137.88
529.933	143.88
530.148	137.88
530.363	132.88
530.577	146.88
530.792	128.88
531.007	130.88
531.221	133.88
531.436	144.88
531.651	138.88
531.865	133.88
532.08	129.88
532.295	122.88
532.509	134.88
532.724	132.88
532.938	156.88
533.153	153.88
533.367	135.88
533.582	154.88
533.796	136.88
534.011	130.88
534.225	122.88
534.44	133.88
534.654	123.88
534.868	140.88
535.083	140.88
535.297	128.88
535.511	129.88
535.726	137.88
535.94	150.88
536.154	116.88
536.369	115.88
536.583	123.88
536.797	130.88
537.011	131.88
537.225	134.88
537.44	128.88
537.654	127.88
537.868	107.88
538.082	112.88
538.296	136.88
538.51	142.88
538.724	113.88
538.938	131.88
539.153	121.88
539.367	124.88
539.581	118.88
539.795	125.88
540.009	146.88
540.222	131.88
540.436	140.88
540.65	144.88
540.864	150.88
541.078	152.88
541.292	138.88
541.506	133.88
541.72	135.88
541.934	121.88
542.147	117.88
542.361	135.88
542.575	128.88
542.789	132.88
543.002	115.88
543.216	136.88
543.43	129.88
543.644	124.88
543.857	121.88
544.071	126.88
544.285	112.88
544.498	118.88
544.712	120.88
544.925	126.88
545.139	118.88
545.352	126.88
545.566	131.88
545.779	126.88
545.993	121.88
546.206	118.88
546.42	124.88
546.633	114.88
546.847	118.88
547.06	123.88
547.274	119.88
547.487	127.88
547.7	134.88
547.914	125.88
548.127	130.88
548.34	144.88
548.554	137.88
548.767	122.88
548.98	112.88
549.193	116.88
549.407	122.88
549.62	130.88
549.833	154.88
550.046	134.88
550.259	125.88
550.473	126.88
550.686	134.88
550.899	139.88
551.112	123.88
551.325	119.88
551.538	138.88
551.751	126.88
551.964	136.88
552.177	126.88
552.39	125.88
552.603	121.88
552.816	116.88
553.029	138.88
553.242	123.88
553.455	130.88
553.667	124.88
553.88	123.88
554.093	119.88
554.306	111.88
554.519	126.88
554.732	119.88
554.944	136.88
555.157	126.88
555.37	119.88
555.583	121.88
555.795	122.88
556.008	127.88
556.221	124.88
556.433	122.88
556.646	106.88
556.859	122.88
557.071	120.88
557.284	127.88
557.496	151.88
557.709	124.88
557.921	125.88
558.134	111.88
558.346	130.88
558.559	113.88
558.771	107.88
558.984	111.88
559.196	118.88
559.409	121.88
559.621	124.88
559.833	123.88
560.046	114.88
560.258	115.88
560.47	113.88
560.683	123.88
560.895	99.88
561.107	121.88
561.32	132.88
561.532	121.88
561.744	110.88
561.956	118.88
562.168	108.88
562.381	123.88
562.593	115.88
562.805	115.88
563.017	113.88
563.229	102.88
563.441	118.88
563.653	119.88
563.865	114.88
564.077	118.88
564.289	123.88
564.501	122.88
564.713	101.88
564.925	120.88
565.137	108.88
565.349	118.88
565.561	110.88
565.773	108.88
565.985	115.88
566.197	118.88
566.408	112.88
566.62	122.88
566.832	121.88
567.044	121.88
567.255	126.88
567.467	128.88
567.679	116.88
567.891	123.88
568.102	125.88
568.314	134.88
568.526	115.88
568.737	124.88
568.949	122.88
569.161	120.88
569.372	105.88
569.584	107.88
569.795	115.88
570.007	114.88
570.218	122.88
570.43	126.88
570.641	101.88
570.853	100.88
571.064	114.88
571.276	123.88
571.487	110.88
571.698	120.88
571.91	106.88
572.121	101.88
572.333	114.88
572.544	100.88
572.755	121.88
572.966	110.88
573.178	110.88
573.389	115.88
573.6	106.88
573.811	114.88
574.023	107.88
574.234	114.88
574.445	130.88
574.656	102.88
574.867	90.88
575.078	102.88
575.289	113.88
575.501	109.88
575.712	98.88
575.923	116.88
576.134	116.88
576.345	103.88
576.556	120.88
576.767	120.88
576.978	105.88
577.188	93.88
577.399	108.88
577.61	100.88
577.821	118.88
578.032	123.88
578.243	114.88
578.454	101.88
578.665	117.88
578.875	103.88
579.086	107.88
579.297	105.88
579.508	98.88
579.718	121.88
579.929	120.88
580.14	120.88
580.35	108.88
580.561	112.88
580.772	98.88
580.982	110.88
581.193	104.88
581.403	88.88
581.614	103.88
581.825	105.88
582.035	99.88
582.246	102.88
582.456	89.88
582.667	111.88
582.877	89.88
583.087	115.88
583.298	113.88
583.508	120.88
583.719	103.88
583.929	98.88
584.139	101.88
584.35	95.88
584.56	125.88
584.77	99.88
584.981	102.88
585.191	91.88
585.401	115.88
585.611	107.88
585.821	95.88
586.032	103.88
586.242	121.88
586.452	121.88
586.662	102.88
586.872	102.88
587.082	99.88
587.292	101.88
587.502	100.88
587.713	99.88
587.923	118.88
588.133	100.88
588.343	102.88
588.553	87.88
588.762	107.88
588.972	107.88
589.182	131.88
589.392	134.88
589.602	111.88
589.812	120.88
590.022	121.88
590.232	104.88
590.441	106.88
590.651	100.88
590.861	123.88
591.071	114.88
591.281	107.88
591.49	116.88
591.7	107.88
591.91	108.88
592.119	112.88
592.329	114.88
592.539	110.88
592.748	104.88
592.958	107.88
593.167	109.88
593.377	112.88
593.587	105.88
593.796	99.88
594.006	91.88
594.215	90.88
594.424	112.88
594.634	104.88
594.843	110.88
595.053	96.88
595.262	106.88
595.472	118.88
595.681	107.88
595.89	113.88
596.1	100.88
596.309	99.88
596.518	99.88
596.727	99.88
596.937	107.88
597.146	98.88
597.355	102.88
597.564	102.88
597.774	106.88
597.983	96.88
598.192	91.88
598.401	97.88
598.61	108.88
598.819	102.88
599.028	107.88
599.237	91.88
599.446	99.88
599.655	88.88
599.864	86.88
600.073	85.88
600.282	99.88
600.491	108.88
600.7	99.88
600.909	101.88
601.118	107.88
601.327	95.88
601.536	106.88
601.745	98.88
601.953	106.88
602.162	91.88
602.371	116.88
602.58	93.88
602.789	105.88
602.997	96.88
603.206	97.88
603.415	100.88
603.623	113.88
603.832	98.88
604.041	102.88
604.249	97.88
604.458	87.88
604.666	102.88
604.875	86.88
605.084	97.88
605.292	91.88
605.501	97.88
605.709	94.88
605.918	77.88
606.126	98.88
606.334	106.88
606.543	86.88
606.751	100.88
606.96	101.88
607.168	105.88
607.376	94.88
607.585	93.88
607.793	97.88
608.001	98.88
608.21	86.88
608.418	99.88
608.626	100.88
608.834	89.88
609.043	110.88
609.251	90.88
609.459	102.88
609.667	92.88
609.875	107.88
610.083	88.88
610.291	95.88
610.499	100.88
610.707	115.88
610.916	97.88
611.124	104.88
611.332	96.88
611.54	88.88
611.748	88.88
611.955	113.88
612.163	100.88
612.371	91.88
612.579	95.88
612.787	105.88
612.995	93.88
613.203	107.88
613.411	100.88
613.618	94.88
613.826	120.88
614.034	96.88
614.242	90.88
614.449	97.88
614.657	110.88
614.865	96.88
615.072	98.88
615.28	97.88
615.488	90.88
615.695	97.88
615.903	93.88
616.111	96.88
616.318	96.88
616.526	105.88
616.733	98.88
616.941	88.88
617.148	117.88
617.356	105.88
617.563	91.88
617.771	98.88
617.978	95.88
618.185	83.88
618.393	104.88
618.6	94.88
618.807	98.88
619.015	95.88
619.222	92.88
619.429	101.88
619.637	95.88
619.844	90.88
620.051	78.88
620.258	96.88
620.466	92.88
620.673	82.88
620.88	98.88
621.087	92.88
621.294	112.88
621.501	90.88
621.708	86.88
621.915	87.88
622.122	94.88
622.329	106.88
622.536	103.88
622.743	99.88
622.95	93.88
623.157	102.88
623.364	101.88
623.571	102.88
623.778	97.88
623.985	92.88
624.192	97.88
624.399	104.88
624.606	100.88
624.812	103.88
625.019	89.88
625.226	91.88
625.433	103.88
625.639	93.88
625.846	98.88
626.053	98.88
626.259	89.88
626.466	86.88
626.673	101.88
626.879	106.88
627.086	97.88
627.293	79.88
627.499	82.88
627.706	92.88
627.912	92.88
628.119	83.88
628.325	91.88
628.532	81.88
628.738	84.88
628.945	81.88
629.151	92.88
629.357	101.88
629.564	83.88
629.77	99.88
629.976	90.88
630.183	82.88
630.389	88.88
630.595	102.88
630.802	94.88
631.008	83.88
631.214	80.88
631.42	84.88
631.627	80.88
631.833	99.88
632.039	85.88
632.245	78.88
632.451	84.88
632.657	80.88
632.863	81.88
633.069	89.88
633.275	78.88
633.481	92.88
633.688	89.88
633.893	92.88
634.099	91.88
634.305	90.88
634.511	100.88
634.717	99.88
634.923	90.88
635.129	80.88
635.335	104.88
635.541	103.88
635.747	80.88
635.952	86.88
636.158	91.88
636.364	104.88
636.57	90.88
636.775	76.88
636.981	87.88
637.187	80.88
637.392	97.88
637.598	91.88
637.804	93.88
638.009	77.88
638.215	81.88
638.421	91.88
638.626	86.88
638.832	88.88
639.037	91.88
639.243	103.88
639.448	100.88
639.654	92.88
639.859	87.88
640.065	67.88
640.27	85.88
640.475	84.88
640.681	90.88
640.886	94.88
641.091	85.88
641.297	97.88
641.502	82.88
641.707	83.88
641.913	97.88
642.118	86.88
642.323	88.88
642.528	115.88
642.733	90.88
642.939	87.88
643.144	80.88
643.349	89.88
643.554	75.88
643.759	74.88
643.964	89.88
644.169	90.88
644.374	90.88
644.579	97.88
644.784	99.88
644.989	95.88
645.194	98.88
645.399	90.88
645.604	79.88
645.809	98.88
646.014	84.88
646.219	66.88
646.423	78.88
646.628	90.88
646.833	71.88
647.038	101.88
647.243	90.88
647.447	96.88
647.652	91.88
647.857	95.88
648.062	94.88
648.266	95.88
648.471	101.88
648.676	106.88
648.88	93.88
649.085	90.88
649.289	76.88
649.494	98.88
649.698	96.88
649.903	86.88
650.107	93.88
650.312	81.88
650.516	90.88
650.721	95.88
650.925	96.88
651.13	88.88
651.334	98.88
651.539	94.88
651.743	84.88
651.947	80.88
652.152	82.88
652.356	85.88
652.56	93.88
652.764	89.88
652.969	80.88
653.173	80.88
653.377	76.88
653.581	77.88
653.785	80.88
653.99	93.88
654.194	94.88
654.398	67.88
654.602	75.88
654.806	82.88
655.01	80.88
655.214	83.88
655.418	83.88
655.622	80.88
655.826	84.88
656.03	95.88
656.234	99.88
656.438	76.88
656.642	81.88
656.846	76.88
657.049	87.88
657.253	91.88
657.457	86.88
657.661	87.88
657.865	65.88
658.068	65.88
658.272	88.88
658.476	95.88
658.68	96.88
658.883	81.88
659.087	80.88
659.291	77.88
659.494	83.88
659.698	78.88
659.901	90.88
660.105	82.88
660.309	67.88
660.512	87.88
660.716	89.88
660.919	79.88
661.123	101.88
661.326	89.88
661.53	69.88
661.733	78.88
661.936	72.88
662.14	85.88
662.343	87.88
662.546	86.88
662.75	87.88
662.953	83.88
663.156	88.88
663.36	81.88
663.563	85.88
663.766	80.88
663.969	75.88
664.173	91.88
664.376	83.88
664.579	87.88
664.782	77.88
664.985	79.88
665.188	86.88
665.391	83.88
665.594	84.88
665.797	82.88
666	76.88
666.203	91.88
666.406	80.88
666.609	83.88
666.812	83.88
667.015	70.88
667.218	92.88
667.421	80.88
667.624	81.88
667.827	84.88
668.03	72.88
668.232	87.88
668.435	83.88
668.638	62.88
668.841	86.88
669.043	76.88
669.246	92.88
669.449	72.88
669.651	74.88
669.854	70.88
670.057	88.88
670.259	89.88
670.462	67.88
670.665	84.88
670.867	63.88
671.07	90.88
671.272	80.88
671.475	82.88
671.677	73.88
671.88	79.88
672.082	78.88
672.284	72.88
672.487	73.88
672.689	72.88
672.892	84.88
