Data from NickelSpatula.Lamp.E10.P2_HRD10591_11-59-34-525.txt Node
Date: Tue Jul 23 11:59:34 EDT 2019
User: cochatt
Spectrometer: HR+D1059
Trigger mode: 1
Integration Time (sec): 1.000000E-1
Scans to average: 1
Electric dark correction enabled: true
Nonlinearity correction enabled: false
Boxcar width: 0
XAxis mode: Wavelengths
Number of Pixels in Spectrum: 2048
>>>>>Begin Spectral Data<<<<<
223.165	-9.56
223.4	-9.56
223.635	-9.56
223.869	-27.56
224.104	-29.56
224.338	-10.56
224.573	-13.56
224.808	-1.56
225.042	-2.56
225.277	-8.56
225.511	-5.56
225.746	8.44
225.98	4.44
226.215	11.44
226.449	14.44
226.683	7.44
226.918	30.44
227.152	32.44
227.387	38.44
227.621	24.44
227.856	48.44
228.09	42.44
228.324	45.44
228.559	61.44
228.793	68.44
229.027	152.44
229.262	158.44
229.496	164.44
229.73	160.44
229.964	190.44
230.199	206.44
230.433	209.44
230.667	214.44
230.901	201.44
231.136	212.44
231.37	213.44
231.604	255.44
231.838	248.44
232.072	246.44
232.306	251.44
232.541	246.44
232.775	254.44
233.009	274.44
233.243	292.44
233.477	313.44
233.711	338.44
233.945	364.44
234.179	316.44
234.413	344.44
234.647	383.44
234.881	463.44
235.115	436.44
235.349	421.44
235.583	355.44
235.817	348.44
236.051	384.44
236.285	418.44
236.519	468.44
236.753	426.44
236.987	420.44
237.221	403.44
237.455	413.44
237.689	439.44
237.922	457.44
238.156	490.44
238.39	540.44
238.624	660.44
238.858	605.44
239.091	494.44
239.325	528.44
239.559	470.44
239.793	536.44
240.027	644.44
240.26	613.44
240.494	575.44
240.728	615.44
240.961	681.44
241.195	648.44
241.429	633.44
241.662	620.44
241.896	538.44
242.13	468.44
242.363	457.44
242.597	480.44
242.83	544.44
243.064	535.44
243.298	607.44
243.531	609.44
243.765	633.44
243.998	640.44
244.232	592.44
244.465	608.44
244.699	597.44
244.932	646.44
245.166	616.44
245.399	558.44
245.633	528.44
245.866	588.44
246.099	637.44
246.333	724.44
246.566	750.44
246.8	764.44
247.033	752.44
247.266	712.44
247.5	714.44
247.733	693.44
247.966	652.44
248.2	698.44
248.433	794.44
248.666	853.44
248.899	866.44
249.133	857.44
249.366	1020.44
249.599	1048.44
249.832	948.44
250.066	809.44
250.299	852.44
250.532	823.44
250.765	801.44
250.998	772.44
251.231	719.44
251.465	826.44
251.698	833.44
251.931	817.44
252.164	857.44
252.397	965.44
252.63	1078.44
252.863	1191.44
253.096	1195.44
253.329	1168.44
253.562	1105.44
253.795	1265.44
254.028	1382.44
254.261	1390.44
254.494	1236.44
254.727	1146.44
254.96	1139.44
255.193	1188.44
255.426	1136.44
255.659	856.44
255.892	807.44
256.124	880.44
256.357	1032.44
256.59	1168.44
256.823	1112.44
257.056	1000.44
257.289	914.44
257.521	970.44
257.754	1136.44
257.987	1342.44
258.22	1137.44
258.452	1002.44
258.685	1165.44
258.918	1305.44
259.151	1271.44
259.383	1309.44
259.616	1520.44
259.849	1582.44
260.081	1728.44
260.314	1889.44
260.547	1492.44
260.779	1469.44
261.012	1728.44
261.244	1638.44
261.477	1648.44
261.71	1528.44
261.942	1285.44
262.175	1297.44
262.407	1252.44
262.64	1284.44
262.872	1500.44
263.105	1637.44
263.337	1752.44
263.57	1552.44
263.802	1056.44
264.035	925.44
264.267	873.44
264.499	772.44
264.732	702.44
264.964	694.44
265.197	724.44
265.429	774.44
265.661	806.44
265.894	879.44
266.126	934.44
266.358	1041.44
266.591	1261.44
266.823	1486.44
267.055	1436.44
267.287	1262.44
267.52	1263.44
267.752	1336.44
267.984	1468.44
268.216	1412.44
268.448	1155.44
268.681	1096.44
268.913	1202.44
269.145	1294.44
269.377	1316.44
269.609	1343.44
269.841	1247.44
270.073	1326.44
270.306	1367.44
270.538	1410.44
270.77	1404.44
271.002	1408.44
271.234	1496.44
271.466	1543.44
271.698	1472.44
271.93	1450.44
272.162	1426.44
272.394	1424.44
272.626	1430.44
272.858	1505.44
273.09	1518.44
273.322	1353.44
273.553	1286.44
273.785	1546.44
274.017	1993.44
274.249	2459.44
274.481	2606.44
274.713	2768.44
274.945	3206.44
275.176	3297.44
275.408	2881.44
275.64	2653.44
275.872	2696.44
276.104	2283.44
276.335	1944.44
276.567	1936.44
276.799	1992.44
277.031	2076.44
277.262	1611.44
277.494	1298.44
277.726	1212.44
277.957	1335.44
278.189	1488.44
278.421	1502.44
278.652	1432.44
278.884	1371.44
279.115	1243.44
279.347	1224.44
279.579	1220.44
279.81	1235.44
280.042	1248.44
280.273	1283.44
280.505	1176.44
280.736	1017.44
280.968	1050.44
281.199	1128.44
281.431	1240.44
281.662	1274.44
281.894	1207.44
282.125	1269.44
282.356	1370.44
282.588	1405.44
282.819	1290.44
283.051	1409.44
283.282	1737.44
283.513	1985.44
283.745	2208.44
283.976	2182.44
284.207	2019.44
284.439	2094.44
284.67	2060.44
284.901	1801.44
285.132	1958.44
285.364	2022.44
285.595	1882.44
285.826	2020.44
286.057	2087.44
286.288	1989.44
286.52	2048.44
286.751	2130.44
286.982	2146.44
287.213	1836.44
287.444	1738.44
287.675	1865.44
287.906	1831.44
288.138	1554.44
288.369	1415.44
288.6	1288.44
288.831	1344.44
289.062	1574.44
289.293	1698.44
289.524	1630.44
289.755	1618.44
289.986	1637.44
290.217	1453.44
290.448	1114.44
290.679	972.44
290.91	947.44
291.141	932.44
291.371	1005.44
291.602	1006.44
291.833	1011.44
292.064	1106.44
292.295	1220.44
292.526	1420.44
292.757	1492.44
292.987	1575.44
293.218	1580.44
293.449	1665.44
293.68	1704.44
293.91	1609.44
294.141	1636.44
294.372	1554.44
294.603	1425.44
294.833	1612.44
295.064	1915.44
295.295	1750.44
295.525	1346.44
295.756	1184.44
295.987	1018.44
296.217	1053.44
296.448	1068.44
296.679	1090.44
296.909	1273.44
297.14	1351.44
297.37	1476.44
297.601	1394.44
297.831	1187.44
298.062	1270.44
298.292	1454.44
298.523	1572.44
298.753	1821.44
298.984	1657.44
299.214	1281.44
299.445	1082.44
299.675	1054.44
299.905	1080.44
300.136	1086.44
300.366	1239.44
300.597	1156.44
300.827	1066.44
301.057	1033.44
301.288	1096.44
301.518	1153.44
301.748	1265.44
301.979	1406.44
302.209	1503.44
302.439	1498.44
302.669	1300.44
302.9	1308.44
303.13	1190.44
303.36	1146.44
303.59	1092.44
303.82	1126.44
304.051	1247.44
304.281	1377.44
304.511	1342.44
304.741	1173.44
304.971	1240.44
305.201	1334.44
305.431	1252.44
305.661	1138.44
305.891	1138.44
306.121	1074.44
306.352	975.44
306.582	904.44
306.812	902.44
307.042	908.44
307.272	812.44
307.502	852.44
307.731	904.44
307.961	942.44
308.191	879.44
308.421	813.44
308.651	818.44
308.881	794.44
309.111	788.44
309.341	839.44
309.571	924.44
309.8	942.44
310.03	960.44
310.26	1026.44
310.49	1013.44
310.72	886.44
310.949	871.44
311.179	901.44
311.409	952.44
311.639	1099.44
311.868	1407.44
312.098	1841.44
312.328	2000.44
312.557	1887.44
312.787	1905.44
313.017	1698.44
313.246	1846.44
313.476	2009.44
313.706	1644.44
313.935	1313.44
314.165	1070.44
314.394	995.44
314.624	982.44
314.853	1044.44
315.083	1081.44
315.312	1029.44
315.542	1045.44
315.771	972.44
316.001	886.44
316.23	870.44
316.46	886.44
316.689	878.44
316.919	909.44
317.148	920.44
317.377	869.44
317.607	905.44
317.836	982.44
318.065	1124.44
318.295	1271.44
318.524	1159.44
318.753	1005.44
318.983	960.44
319.212	994.44
319.441	1012.44
319.67	1186.44
319.9	1246.44
320.129	1183.44
320.358	1013.44
320.587	954.44
320.816	1062.44
321.046	1233.44
321.275	1363.44
321.504	1372.44
321.733	1353.44
321.962	1250.44
322.191	1222.44
322.42	1152.44
322.649	1173.44
322.878	1284.44
323.108	1246.44
323.337	1152.44
323.566	1106.44
323.795	1100.44
324.024	1052.44
324.253	1006.44
324.482	1004.44
324.71	1096.44
324.939	1249.44
325.168	1186.44
325.397	968.44
325.626	947.44
325.855	932.44
326.084	942.44
326.313	913.44
326.542	854.44
326.77	900.44
326.999	908.44
327.228	960.44
327.457	1007.44
327.686	1031.44
327.914	912.44
328.143	840.44
328.372	863.44
328.6	867.44
328.829	928.44
329.058	907.44
329.287	918.44
329.515	935.44
329.744	904.44
329.972	849.44
330.201	798.44
330.43	886.44
330.658	965.44
330.887	1107.44
331.115	1066.44
331.344	1049.44
331.572	944.44
331.801	927.44
332.03	846.44
332.258	888.44
332.486	958.44
332.715	1009.44
332.943	905.44
333.172	921.44
333.4	940.44
333.629	1024.44
333.857	1150.44
334.085	1115.44
334.314	1134.44
334.542	1040.44
334.771	952.44
334.999	940.44
335.227	919.44
335.455	946.44
335.684	1062.44
335.912	1229.44
336.14	1317.44
336.369	1285.44
336.597	1228.44
336.825	1426.44
337.053	1538.44
337.281	1231.44
337.51	999.44
337.738	1001.44
337.966	1096.44
338.194	1178.44
338.422	1153.44
338.65	967.44
338.878	890.44
339.106	932.44
339.334	1084.44
339.562	1086.44
339.79	1013.44
340.018	972.44
340.246	1050.44
340.474	1210.44
340.702	1324.44
340.93	1356.44
341.158	1340.44
341.386	1122.44
341.614	1154.44
341.842	1173.44
342.07	1194.44
342.298	1341.44
342.526	1438.44
342.754	1222.44
342.981	1123.44
343.209	1095.44
343.437	1181.44
343.665	1241.44
343.893	1207.44
344.12	1409.44
344.348	1677.44
344.576	1469.44
344.804	1264.44
345.031	1087.44
345.259	1010.44
345.487	1026.44
345.714	1069.44
345.942	1113.44
346.17	1222.44
346.397	1153.44
346.625	1048.44
346.853	1035.44
347.08	967.44
347.308	1030.44
347.535	1144.44
347.763	1210.44
347.99	1040.44
348.218	936.44
348.445	988.44
348.673	981.44
348.9	973.44
349.128	1085.44
349.355	1153.44
349.583	1130.44
349.81	1068.44
350.037	981.44
350.265	879.44
350.492	820.44
350.72	818.44
350.947	846.44
351.174	924.44
351.402	992.44
351.629	1056.44
351.856	976.44
352.083	925.44
352.311	1029.44
352.538	1128.44
352.765	1202.44
352.992	1140.44
353.22	1032.44
353.447	1039.44
353.674	1025.44
353.901	986.44
354.128	1016.44
354.355	1062.44
354.583	1050.44
354.81	1022.44
355.037	1050.44
355.264	1041.44
355.491	1122.44
355.718	1241.44
355.945	1202.44
356.172	1156.44
356.399	1152.44
356.626	1392.44
356.853	1727.44
357.08	1784.44
357.307	1859.44
357.534	1463.44
357.761	1495.44
357.988	1883.44
358.215	2211.44
358.441	2064.44
358.668	1727.44
358.895	1601.44
359.122	1274.44
359.349	1295.44
359.576	1398.44
359.802	1176.44
360.029	1014.44
360.256	1091.44
360.483	1326.44
360.709	1732.44
360.936	1767.44
361.163	1562.44
361.39	1200.44
361.616	1137.44
361.843	1318.44
362.07	1584.44
362.296	1485.44
362.523	1153.44
362.749	952.44
362.976	1020.44
363.203	1270.44
363.429	1427.44
363.656	1144.44
363.882	1062.44
364.109	1066.44
364.335	1020.44
364.562	1045.44
364.788	1160.44
365.015	1410.44
365.241	1243.44
365.468	996.44
365.694	848.44
365.92	839.44
366.147	816.44
366.373	788.44
366.599	830.44
366.826	814.44
367.052	840.44
367.278	847.44
367.505	851.44
367.731	932.44
367.957	1076.44
368.184	1104.44
368.41	1092.44
368.636	1087.44
368.862	1138.44
369.089	1062.44
369.315	942.44
369.541	917.44
369.767	910.44
369.993	871.44
370.219	906.44
370.445	952.44
370.672	1102.44
370.898	1170.44
371.124	1154.44
371.35	992.44
371.576	913.44
371.802	1036.44
372.028	1242.44
372.254	1392.44
372.48	1198.44
372.706	1083.44
372.932	1166.44
373.158	1202.44
373.384	1450.44
373.61	1924.44
373.835	1991.44
374.061	1429.44
374.287	1232.44
374.513	1499.44
374.739	1798.44
374.965	1834.44
375.191	1725.44
375.416	1221.44
375.642	1070.44
375.868	1288.44
376.094	1434.44
376.319	1239.44
376.545	1350.44
376.771	1419.44
376.997	1178.44
377.222	888.44
377.448	770.44
377.674	788.44
377.899	766.44
378.125	753.44
378.35	749.44
378.576	821.44
378.802	871.44
379.027	990.44
379.253	946.44
379.478	961.44
379.704	1122.44
379.929	1175.44
380.155	1160.44
380.38	1014.44
380.606	1036.44
380.831	1168.44
381.057	1089.44
381.282	1008.44
381.507	1227.44
381.733	1568.44
381.958	1642.44
382.184	1728.44
382.409	1809.44
382.634	1774.44
382.86	1861.44
383.085	1530.44
383.31	1186.44
383.535	1271.44
383.761	1280.44
383.986	1225.44
384.211	1523.44
384.436	1450.44
384.662	1089.44
384.887	1056.44
385.112	1075.44
385.337	1116.44
385.562	1026.44
385.787	1123.44
386.013	1292.44
386.238	1338.44
386.463	1056.44
386.688	1027.44
386.913	987.44
387.138	950.44
387.363	1030.44
387.588	1016.44
387.813	1037.44
388.038	1169.44
388.263	1015.44
388.488	977.44
388.713	1201.44
388.938	1288.44
389.163	1066.44
389.387	991.44
389.612	967.44
389.837	993.44
390.062	1002.44
390.287	1025.44
390.512	1045.44
390.736	986.44
390.961	914.44
391.186	883.44
391.411	853.44
391.636	892.44
391.86	924.44
392.085	1042.44
392.31	1060.44
392.534	1012.44
392.759	975.44
392.984	1043.44
393.208	993.44
393.433	887.44
393.658	809.44
393.882	824.44
394.107	807.44
394.331	800.44
394.556	839.44
394.78	848.44
395.005	878.44
395.229	914.44
395.454	883.44
395.678	910.44
395.903	936.44
396.127	898.44
396.352	897.44
396.576	1029.44
396.801	1037.44
397.025	1174.44
397.249	1219.44
397.474	966.44
397.698	950.44
397.922	992.44
398.147	960.44
398.371	935.44
398.595	996.44
398.82	952.44
399.044	963.44
399.268	1072.44
399.492	1058.44
399.717	1086.44
399.941	1118.44
400.165	1090.44
400.389	1054.44
400.613	1116.44
400.837	1080.44
401.062	937.44
401.286	914.44
401.51	937.44
401.734	937.44
401.958	942.44
402.182	914.44
402.406	918.44
402.63	952.44
402.854	976.44
403.078	1095.44
403.302	1380.44
403.526	1402.44
403.75	1249.44
403.974	1078.44
404.198	1142.44
404.422	1287.44
404.645	1520.44
404.869	1649.44
405.093	1228.44
405.317	1016.44
405.541	1002.44
405.765	1061.44
405.988	1031.44
406.212	1148.44
406.436	1349.44
406.66	1472.44
406.883	1174.44
407.107	1210.44
407.331	1426.44
407.555	1366.44
407.778	1145.44
408.002	1068.44
408.226	1088.44
408.449	1107.44
408.673	1044.44
408.896	980.44
409.12	962.44
409.344	913.44
409.567	884.44
409.791	906.44
410.014	924.44
410.238	906.44
410.461	911.44
410.685	925.44
410.908	951.44
411.132	971.44
411.355	948.44
411.578	955.44
411.802	969.44
412.025	1001.44
412.249	1047.44
412.472	981.44
412.695	978.44
412.919	953.44
413.142	972.44
413.365	1086.44
413.589	1092.44
413.812	937.44
414.035	956.44
414.258	971.44
414.482	1102.44
414.705	1123.44
414.928	948.44
415.151	909.44
415.374	896.44
415.597	969.44
415.821	943.44
416.044	942.44
416.267	889.44
416.49	896.44
416.713	873.44
416.936	857.44
417.159	889.44
417.382	907.44
417.605	925.44
417.828	946.44
418.051	936.44
418.274	975.44
418.497	967.44
418.72	965.44
418.943	992.44
419.166	1045.44
419.389	1041.44
419.611	1029.44
419.834	1094.44
420.057	1171.44
420.28	1152.44
420.503	1072.44
420.726	894.44
420.948	871.44
421.171	906.44
421.394	909.44
421.617	863.44
421.839	901.44
422.062	965.44
422.285	969.44
422.507	984.44
422.73	959.44
422.953	990.44
423.175	967.44
423.398	976.44
423.621	1033.44
423.843	1109.44
424.066	1036.44
424.288	983.44
424.511	953.44
424.733	926.44
424.956	1000.44
425.178	1135.44
425.401	1286.44
425.623	1474.44
425.846	1206.44
426.068	1036.44
426.291	1199.44
426.513	1054.44
426.735	997.44
426.958	996.44
427.18	1209.44
427.402	1600.44
427.625	1561.44
427.847	1244.44
428.069	953.44
428.292	904.44
428.514	927.44
428.736	880.44
428.958	976.44
429.181	1145.44
429.403	1001.44
429.625	923.44
429.847	895.44
430.069	926.44
430.292	928.44
430.514	884.44
430.736	979.44
430.958	1270.44
431.18	1140.44
431.402	869.44
431.624	830.44
431.846	842.44
432.068	825.44
432.29	812.44
432.512	959.44
432.734	1253.44
432.956	1182.44
433.178	874.44
433.4	862.44
433.622	869.44
433.844	906.44
434.066	965.44
434.287	961.44
434.509	873.44
434.731	940.44
434.953	869.44
435.175	921.44
435.397	1061.44
435.618	921.44
435.84	812.44
436.062	828.44
436.284	857.44
436.505	806.44
436.727	805.44
436.949	824.44
437.17	858.44
437.392	889.44
437.614	828.44
437.835	824.44
438.057	860.44
438.278	1006.44
438.5	1475.44
438.721	1476.44
438.943	959.44
439.165	833.44
439.386	809.44
439.608	782.44
439.829	822.44
440.05	793.44
440.272	862.44
440.493	1046.44
440.715	1349.44
440.936	1023.44
441.158	894.44
441.379	881.44
441.6	1014.44
441.822	1058.44
442.043	893.44
442.264	870.44
442.486	900.44
442.707	901.44
442.928	885.44
443.149	911.44
443.371	905.44
443.592	937.44
443.813	931.44
444.034	919.44
444.255	943.44
444.476	966.44
444.698	956.44
444.919	961.44
445.14	1074.44
445.361	1022.44
445.582	976.44
445.803	966.44
446.024	953.44
446.245	977.44
446.466	915.44
446.687	909.44
446.908	900.44
447.129	840.44
447.35	829.44
447.571	790.44
447.792	838.44
448.013	819.44
448.234	797.44
448.455	798.44
448.675	815.44
448.896	818.44
449.117	820.44
449.338	840.44
449.559	853.44
449.779	905.44
450	894.44
450.221	865.44
450.442	833.44
450.662	800.44
450.883	825.44
451.104	821.44
451.324	807.44
451.545	820.44
451.766	805.44
451.986	793.44
452.207	744.44
452.428	802.44
452.648	807.44
452.869	860.44
453.089	898.44
453.31	860.44
453.53	770.44
453.751	776.44
453.971	755.44
454.192	796.44
454.412	819.44
454.633	770.44
454.853	776.44
455.073	743.44
455.294	737.44
455.514	777.44
455.734	774.44
455.955	822.44
456.175	852.44
456.395	744.44
456.616	707.44
456.836	698.44
457.056	713.44
457.276	697.44
457.497	714.44
457.717	732.44
457.937	745.44
458.157	764.44
458.377	766.44
458.598	764.44
458.818	769.44
459.038	824.44
459.258	840.44
459.478	885.44
459.698	914.44
459.918	904.44
460.138	915.44
460.358	940.44
460.578	879.44
460.798	894.44
461.018	883.44
461.238	866.44
461.458	876.44
461.678	910.44
461.898	956.44
462.118	965.44
462.338	933.44
462.558	998.44
462.777	977.44
462.997	1021.44
463.217	1007.44
463.437	1074.44
463.657	1045.44
463.876	992.44
464.096	973.44
464.316	975.44
464.536	982.44
464.755	1035.44
464.975	1046.44
465.195	976.44
465.414	1026.44
465.634	980.44
465.854	944.44
466.073	878.44
466.293	874.44
466.512	946.44
466.732	1040.44
466.951	1074.44
467.171	953.44
467.391	893.44
467.61	911.44
467.829	940.44
468.049	966.44
468.268	892.44
468.488	886.44
468.707	907.44
468.927	1077.44
469.146	1173.44
469.365	1034.44
469.585	971.44
469.804	1050.44
470.023	1116.44
470.243	988.44
470.462	935.44
470.681	917.44
470.901	940.44
471.12	997.44
471.339	998.44
471.558	931.44
471.777	953.44
471.997	1048.44
472.216	1167.44
472.435	1084.44
472.654	992.44
472.873	1000.44
473.092	1021.44
473.311	1052.44
473.53	981.44
473.749	924.44
473.968	1032.44
474.187	969.44
474.406	962.44
474.625	959.44
474.844	994.44
475.063	1044.44
475.282	1065.44
475.501	1092.44
475.72	1179.44
475.939	1139.44
476.158	1136.44
476.377	1313.44
476.596	1493.44
476.814	1551.44
477.033	1282.44
477.252	1054.44
477.471	1027.44
477.69	1040.44
477.908	1137.44
478.127	1172.44
478.346	1060.44
478.564	1206.44
478.783	1110.44
479.002	1137.44
479.22	1292.44
479.439	1430.44
479.658	1255.44
479.876	1126.44
480.095	1241.44
480.313	1243.44
480.532	1121.44
480.751	1114.44
480.969	1135.44
481.188	1261.44
481.406	1335.44
481.624	1217.44
481.843	1160.44
482.061	1097.44
482.28	1228.44
482.498	1504.44
482.717	1408.44
482.935	1196.44
483.153	1157.44
483.372	1084.44
483.59	1076.44
483.808	1068.44
484.027	1032.44
484.245	1024.44
484.463	1006.44
484.681	1039.44
484.9	1127.44
485.118	1180.44
485.336	1137.44
485.554	1064.44
485.772	1098.44
485.99	1172.44
486.209	1255.44
486.427	1278.44
486.645	1242.44
486.863	1262.44
487.081	1268.44
487.299	1432.44
487.517	1400.44
487.735	1263.44
487.953	1232.44
488.171	1287.44
488.389	1222.44
488.607	1145.44
488.825	1213.44
489.043	1289.44
489.261	1515.44
489.479	1614.44
489.696	1309.44
489.914	1204.44
490.132	1115.44
490.35	1146.44
490.568	1148.44
490.786	1150.44
491.003	1153.44
491.221	1198.44
491.439	1184.44
491.657	1171.44
491.874	1257.44
492.092	1574.44
492.31	1916.44
492.527	1849.44
492.745	1560.44
492.963	1356.44
493.18	1316.44
493.398	1311.44
493.615	1327.44
493.833	1270.44
494.05	1282.44
494.268	1271.44
494.485	1246.44
494.703	1237.44
494.92	1267.44
495.138	1230.44
495.355	1226.44
495.573	1254.44
495.79	1435.44
496.008	1940.44
496.225	1623.44
496.442	1416.44
496.66	1397.44
496.877	1441.44
497.094	1440.44
497.312	1316.44
497.529	1353.44
497.746	1344.44
497.963	1396.44
498.181	1516.44
498.398	1626.44
498.615	1698.44
498.832	1719.44
499.049	1719.44
499.267	1580.44
499.484	1599.44
499.701	1668.44
499.918	1772.44
500.135	1872.44
500.352	1967.44
500.569	2032.44
500.786	2060.44
501.003	2095.44
501.22	1853.44
501.437	1766.44
501.654	1712.44
501.871	1668.44
502.088	1670.44
502.305	1540.44
502.522	1526.44
502.739	1537.44
502.956	1393.44
503.172	1425.44
503.389	1348.44
503.606	1292.44
503.823	1304.44
504.04	1363.44
504.256	1336.44
504.473	1349.44
504.69	1381.44
504.907	1384.44
505.123	1405.44
505.34	1497.44
505.557	1435.44
505.773	1355.44
505.99	1304.44
506.207	1359.44
506.423	1264.44
506.64	1191.44
506.856	1297.44
507.073	1397.44
507.289	1362.44
507.506	1359.44
507.722	1439.44
507.939	1478.44
508.155	1481.44
508.372	1317.44
508.588	1284.44
508.805	1247.44
509.021	1213.44
509.238	1204.44
509.454	1193.44
509.67	1158.44
509.887	1206.44
510.103	1351.44
510.319	1330.44
510.536	1173.44
510.752	1115.44
510.968	1069.44
511.184	1048.44
511.401	1064.44
511.617	1050.44
511.833	1045.44
512.049	1061.44
512.265	1113.44
512.481	1168.44
512.698	1262.44
512.914	1439.44
513.13	1269.44
513.346	1142.44
513.562	1185.44
513.778	1190.44
513.994	1180.44
514.21	1289.44
514.426	1261.44
514.642	1169.44
514.858	1180.44
515.074	1221.44
515.29	1300.44
515.506	1444.44
515.721	1348.44
515.937	1274.44
516.153	1158.44
516.369	1186.44
516.585	1240.44
516.801	1421.44
517.016	1692.44
517.232	1618.44
517.448	1593.44
517.664	1416.44
517.879	1288.44
518.095	1283.44
518.311	1285.44
518.527	1340.44
518.742	1398.44
518.958	1491.44
519.173	1402.44
519.389	1433.44
519.605	1466.44
519.82	1506.44
520.036	1785.44
520.251	1733.44
520.467	1662.44
520.682	2622.44
520.898	3185.44
521.113	2997.44
521.329	1794.44
521.544	1576.44
521.76	1543.44
521.975	1376.44
522.19	1316.44
522.406	1328.44
522.621	1506.44
522.836	1574.44
523.052	1647.44
523.267	1355.44
523.482	1356.44
523.698	1447.44
523.913	1353.44
524.128	1260.44
524.343	1166.44
524.559	1209.44
524.774	1140.44
524.989	1170.44
525.204	1178.44
525.419	1362.44
525.634	1260.44
525.849	1279.44
526.064	1279.44
526.28	1302.44
526.495	1517.44
526.71	1597.44
526.925	1388.44
527.14	1512.44
527.355	1436.44
527.57	1153.44
527.785	1247.44
527.999	1168.44
528.214	1083.44
528.429	1110.44
528.644	1115.44
528.859	1055.44
529.074	1032.44
529.289	1002.44
529.503	1011.44
529.718	1055.44
529.933	1264.44
530.148	1265.44
530.363	1109.44
530.577	1042.44
530.792	1026.44
531.007	1004.44
531.221	1000.44
531.436	990.44
531.651	993.44
531.865	1054.44
532.08	1049.44
532.295	1018.44
532.509	1076.44
532.724	1240.44
532.938	1388.44
533.153	1600.44
533.367	1257.44
533.582	1226.44
533.796	1139.44
534.011	1040.44
534.225	1068.44
534.44	1110.44
534.654	1147.44
534.868	1324.44
535.083	1159.44
535.297	1028.44
535.511	1046.44
535.726	1170.44
535.94	1080.44
536.154	1057.44
536.369	993.44
536.583	992.44
536.797	1032.44
537.011	1078.44
537.225	1173.44
537.44	1241.44
537.654	1056.44
537.868	1042.44
538.082	1037.44
538.296	1022.44
538.51	1111.44
538.724	1121.44
538.938	1066.44
539.153	994.44
539.367	1005.44
539.581	1021.44
539.795	1069.44
540.009	1212.44
540.222	1105.44
540.436	1111.44
540.65	1179.44
540.864	1234.44
541.078	1242.44
541.292	1418.44
541.506	1145.44
541.72	1121.44
541.934	1075.44
542.147	1039.44
542.361	1055.44
542.575	1111.44
542.789	1061.44
543.002	985.44
543.216	1116.44
543.43	962.44
543.644	948.44
543.857	974.44
544.071	940.44
544.285	948.44
544.498	912.44
544.712	927.44
544.925	1035.44
545.139	970.44
545.352	935.44
545.566	936.44
545.779	1086.44
545.993	989.44
546.206	915.44
546.42	901.44
546.633	915.44
546.847	840.44
547.06	892.44
547.274	867.44
547.487	900.44
547.7	997.44
547.914	1036.44
548.127	1136.44
548.34	1095.44
548.554	993.44
548.767	1036.44
548.98	1068.44
549.193	1010.44
549.407	1016.44
549.62	1192.44
549.833	1108.44
550.046	1167.44
550.259	1163.44
550.473	1057.44
550.686	1002.44
550.899	1005.44
551.112	990.44
551.325	1041.44
551.538	1106.44
551.751	938.44
551.964	912.44
552.177	892.44
552.39	877.44
552.603	879.44
552.816	952.44
553.029	885.44
553.242	894.44
553.455	966.44
553.667	1023.44
553.88	985.44
554.093	931.44
554.306	860.44
554.519	825.44
554.732	810.44
554.944	770.44
555.157	784.44
555.37	788.44
555.583	774.44
555.795	804.44
556.008	810.44
556.221	827.44
556.433	839.44
556.646	786.44
556.859	823.44
557.071	854.44
557.284	831.44
557.496	868.44
557.709	809.44
557.921	792.44
558.134	760.44
558.346	739.44
558.559	760.44
558.771	801.44
558.984	850.44
559.196	783.44
559.409	752.44
559.621	734.44
559.833	732.44
560.046	740.44
560.258	729.44
560.47	761.44
560.683	731.44
560.895	692.44
561.107	675.44
561.32	705.44
561.532	688.44
561.744	788.44
561.956	828.44
562.168	728.44
562.381	712.44
562.593	734.44
562.805	776.44
563.017	720.44
563.229	693.44
563.441	680.44
563.653	709.44
563.865	712.44
564.077	721.44
564.289	700.44
564.501	732.44
564.713	769.44
564.925	744.44
565.137	699.44
565.349	679.44
565.561	711.44
565.773	734.44
565.985	752.44
566.197	822.44
566.408	858.44
566.62	882.44
566.832	856.44
567.044	873.44
567.255	904.44
567.467	968.44
567.679	903.44
567.891	888.44
568.102	924.44
568.314	935.44
568.526	882.44
568.737	854.44
568.949	870.44
569.161	767.44
569.372	712.44
569.584	721.44
569.795	689.44
570.007	714.44
570.218	754.44
570.43	743.44
570.641	684.44
570.853	671.44
571.064	662.44
571.276	686.44
571.487	743.44
571.698	685.44
571.91	664.44
572.121	679.44
572.333	639.44
572.544	625.44
572.755	652.44
572.966	624.44
573.178	626.44
573.389	637.44
573.6	640.44
573.811	626.44
574.023	586.44
574.234	573.44
574.445	595.44
574.656	576.44
574.867	585.44
575.078	599.44
575.289	602.44
575.501	644.44
575.712	577.44
575.923	548.44
576.134	562.44
576.345	543.44
576.556	559.44
576.767	532.44
576.978	534.44
577.188	537.44
577.399	529.44
577.61	520.44
577.821	520.44
578.032	542.44
578.243	576.44
578.454	569.44
578.665	586.44
578.875	600.44
579.086	570.44
579.297	575.44
579.508	576.44
579.718	562.44
579.929	562.44
580.14	542.44
580.35	529.44
580.561	508.44
580.772	474.44
580.982	477.44
581.193	488.44
581.403	494.44
581.614	478.44
581.825	484.44
582.035	483.44
582.246	486.44
582.456	486.44
582.667	458.44
582.877	473.44
583.087	464.44
583.298	450.44
583.508	472.44
583.719	455.44
583.929	471.44
584.139	462.44
584.35	463.44
584.56	512.44
584.77	480.44
584.981	485.44
585.191	484.44
585.401	456.44
585.611	526.44
585.821	501.44
586.032	510.44
586.242	485.44
586.452	477.44
586.662	469.44
586.872	491.44
587.082	515.44
587.292	496.44
587.502	463.44
587.713	482.44
587.923	490.44
588.133	505.44
588.343	486.44
588.553	489.44
588.762	469.44
588.972	442.44
589.182	464.44
589.392	441.44
589.602	446.44
589.812	498.44
590.022	499.44
590.232	501.44
590.441	471.44
590.651	462.44
590.861	455.44
591.071	480.44
591.281	464.44
591.49	461.44
591.7	469.44
591.91	457.44
592.119	461.44
592.329	458.44
592.539	470.44
592.748	466.44
592.958	469.44
593.167	468.44
593.377	477.44
593.587	507.44
593.796	487.44
594.006	478.44
594.215	481.44
594.424	482.44
594.634	509.44
594.843	487.44
595.053	478.44
595.262	455.44
595.472	446.44
595.681	445.44
595.89	433.44
596.1	426.44
596.309	457.44
596.518	417.44
596.727	432.44
596.937	443.44
597.146	468.44
597.355	474.44
597.564	451.44
597.774	438.44
597.983	416.44
598.192	404.44
598.401	386.44
598.61	418.44
598.819	393.44
599.028	397.44
599.237	391.44
599.446	386.44
599.655	383.44
599.864	373.44
600.073	393.44
600.282	404.44
600.491	416.44
600.7	390.44
600.909	397.44
601.118	395.44
601.327	367.44
601.536	389.44
601.745	397.44
601.953	413.44
602.162	400.44
602.371	421.44
602.58	418.44
602.789	371.44
602.997	376.44
603.206	377.44
603.415	383.44
603.623	377.44
603.832	375.44
604.041	359.44
604.249	374.44
604.458	384.44
604.666	384.44
604.875	358.44
605.084	352.44
605.292	360.44
605.501	379.44
605.709	370.44
605.918	384.44
606.126	342.44
606.334	361.44
606.543	356.44
606.751	369.44
606.96	349.44
607.168	367.44
607.376	353.44
607.585	346.44
607.793	372.44
608.001	362.44
608.21	348.44
608.418	373.44
608.626	353.44
608.834	348.44
609.043	329.44
609.251	342.44
609.459	341.44
609.667	353.44
609.875	353.44
610.083	355.44
610.291	374.44
610.499	371.44
610.707	336.44
610.916	332.44
611.124	358.44
611.332	318.44
611.54	345.44
611.748	332.44
611.955	351.44
612.163	330.44
612.371	346.44
612.579	330.44
612.787	336.44
612.995	333.44
613.203	318.44
613.411	342.44
613.618	329.44
613.826	354.44
614.034	350.44
614.242	347.44
614.449	336.44
614.657	335.44
614.865	311.44
615.072	329.44
615.28	334.44
615.488	325.44
615.695	324.44
615.903	318.44
616.111	330.44
616.318	324.44
616.526	321.44
616.733	335.44
616.941	343.44
617.148	318.44
617.356	330.44
617.563	336.44
617.771	312.44
617.978	329.44
618.185	314.44
618.393	309.44
618.6	317.44
618.807	320.44
619.015	328.44
619.222	319.44
619.429	342.44
619.637	309.44
619.844	306.44
620.051	314.44
620.258	313.44
620.466	325.44
620.673	308.44
620.88	288.44
621.087	291.44
621.294	311.44
621.501	276.44
621.708	304.44
621.915	298.44
622.122	303.44
622.329	278.44
622.536	291.44
622.743	306.44
622.95	304.44
623.157	308.44
623.364	319.44
623.571	324.44
623.778	290.44
623.985	307.44
624.192	320.44
624.399	303.44
624.606	297.44
624.812	312.44
625.019	315.44
625.226	307.44
625.433	319.44
625.639	286.44
625.846	264.44
626.053	270.44
626.259	296.44
626.466	281.44
626.673	312.44
626.879	282.44
627.086	294.44
627.293	282.44
627.499	276.44
627.706	281.44
627.912	282.44
628.119	276.44
628.325	263.44
628.532	264.44
628.738	272.44
628.945	265.44
629.151	253.44
629.357	259.44
629.564	258.44
629.77	270.44
629.976	233.44
630.183	260.44
630.389	273.44
630.595	261.44
630.802	264.44
631.008	260.44
631.214	264.44
631.42	256.44
631.627	263.44
631.833	261.44
632.039	249.44
632.245	252.44
632.451	264.44
632.657	239.44
632.863	250.44
633.069	242.44
633.275	242.44
633.481	237.44
633.688	251.44
633.893	244.44
634.099	236.44
634.305	249.44
634.511	248.44
634.717	242.44
634.923	232.44
635.129	208.44
635.335	215.44
635.541	237.44
635.747	240.44
635.952	234.44
636.158	237.44
636.364	229.44
636.57	221.44
636.775	258.44
636.981	236.44
637.187	227.44
637.392	233.44
637.598	228.44
637.804	220.44
638.009	239.44
638.215	238.44
638.421	236.44
638.626	215.44
638.832	247.44
639.037	225.44
639.243	217.44
639.448	230.44
639.654	263.44
639.859	228.44
640.065	224.44
640.27	260.44
640.475	241.44
640.681	215.44
640.886	229.44
641.091	233.44
641.297	230.44
641.502	221.44
641.707	233.44
641.913	214.44
642.118	221.44
642.323	224.44
642.528	238.44
642.733	236.44
642.939	230.44
643.144	219.44
643.349	211.44
643.554	226.44
643.759	216.44
643.964	204.44
644.169	229.44
644.374	206.44
644.579	206.44
644.784	209.44
644.989	214.44
645.194	212.44
645.399	227.44
645.604	205.44
645.809	216.44
646.014	217.44
646.219	218.44
646.423	222.44
646.628	202.44
646.833	201.44
647.038	209.44
647.243	209.44
647.447	205.44
647.652	199.44
647.857	207.44
648.062	204.44
648.266	221.44
648.471	204.44
648.676	221.44
648.88	221.44
649.085	203.44
649.289	193.44
649.494	195.44
649.698	234.44
649.903	216.44
650.107	201.44
650.312	199.44
650.516	208.44
650.721	200.44
650.925	198.44
651.13	183.44
651.334	176.44
651.539	187.44
651.743	172.44
651.947	188.44
652.152	182.44
652.356	174.44
652.56	173.44
652.764	173.44
652.969	172.44
653.173	161.44
653.377	178.44
653.581	172.44
653.785	168.44
653.99	175.44
654.194	179.44
654.398	154.44
654.602	173.44
654.806	160.44
655.01	160.44
655.214	132.44
655.418	147.44
655.622	162.44
655.826	154.44
656.03	170.44
656.234	164.44
656.438	165.44
656.642	156.44
656.846	162.44
657.049	154.44
657.253	149.44
657.457	138.44
657.661	138.44
657.865	135.44
658.068	124.44
658.272	128.44
658.476	133.44
658.68	113.44
658.883	110.44
659.087	121.44
659.291	114.44
659.494	122.44
659.698	117.44
659.901	120.44
660.105	103.44
660.309	105.44
660.512	98.44
660.716	89.44
660.919	92.44
661.123	111.44
661.326	110.44
661.53	102.44
661.733	82.44
661.936	71.44
662.14	91.44
662.343	87.44
662.546	87.44
662.75	85.44
662.953	90.44
663.156	89.44
663.36	94.44
663.563	95.44
663.766	92.44
663.969	87.44
664.173	89.44
664.376	81.44
664.579	85.44
664.782	72.44
664.985	89.44
665.188	85.44
665.391	84.44
665.594	78.44
665.797	100.44
666	76.44
666.203	78.44
666.406	93.44
666.609	79.44
666.812	90.44
667.015	75.44
667.218	89.44
667.421	84.44
667.624	80.44
667.827	78.44
668.03	88.44
668.232	76.44
668.435	93.44
668.638	88.44
668.841	89.44
669.043	81.44
669.246	71.44
669.449	78.44
669.651	89.44
669.854	89.44
670.057	85.44
670.259	78.44
670.462	73.44
670.665	84.44
670.867	84.44
671.07	93.44
671.272	90.44
671.475	82.44
671.677	74.44
671.88	84.44
672.082	81.44
672.284	77.44
672.487	75.44
672.689	77.44
672.892	85.44
