Data from NickelSpatula.Lamp.E10.P2_HRD10591_11-57-33-532.txt Node
Date: Tue Jul 23 11:57:33 EDT 2019
User: cochatt
Spectrometer: HR+D1059
Trigger mode: 1
Integration Time (sec): 1.000000E-1
Scans to average: 1
Electric dark correction enabled: true
Nonlinearity correction enabled: false
Boxcar width: 0
XAxis mode: Wavelengths
Number of Pixels in Spectrum: 2048
>>>>>Begin Spectral Data<<<<<
223.165	-15.94
223.4	-15.94
223.635	-15.94
223.869	-17.94
224.104	-29.94
224.338	-15.94
224.573	-7.94
224.808	-13.94
225.042	-0.94
225.277	-18.94
225.511	1.06
225.746	5.06
225.98	17.06
226.215	16.06
226.449	19.06
226.683	27.06
226.918	13.06
227.152	23.06
227.387	41.06
227.621	45.06
227.856	39.06
228.09	40.06
228.324	52.06
228.559	49.06
228.793	83.06
229.027	135.06
229.262	143.06
229.496	159.06
229.73	170.06
229.964	192.06
230.199	214.06
230.433	223.06
230.667	197.06
230.901	192.06
231.136	190.06
231.37	211.06
231.604	225.06
231.838	228.06
232.072	236.06
232.306	250.06
232.541	228.06
232.775	229.06
233.009	256.06
233.243	289.06
233.477	295.06
233.711	349.06
233.945	352.06
234.179	327.06
234.413	333.06
234.647	377.06
234.881	447.06
235.115	418.06
235.349	402.06
235.583	337.06
235.817	353.06
236.051	367.06
236.285	404.06
236.519	462.06
236.753	416.06
236.987	419.06
237.221	408.06
237.455	377.06
237.689	425.06
237.922	448.06
238.156	462.06
238.39	540.06
238.624	649.06
238.858	588.06
239.091	492.06
239.325	483.06
239.559	480.06
239.793	516.06
240.027	642.06
240.26	576.06
240.494	583.06
240.728	573.06
240.961	654.06
241.195	631.06
241.429	641.06
241.662	617.06
241.896	532.06
242.13	467.06
242.363	432.06
242.597	463.06
242.83	530.06
243.064	537.06
243.298	584.06
243.531	605.06
243.765	636.06
243.998	588.06
244.232	584.06
244.465	571.06
244.699	565.06
244.932	639.06
245.166	612.06
245.399	562.06
245.633	516.06
245.866	566.06
246.099	598.06
246.333	698.06
246.566	768.06
246.8	741.06
247.033	726.06
247.266	659.06
247.5	668.06
247.733	669.06
247.966	648.06
248.2	661.06
248.433	749.06
248.666	814.06
248.899	817.06
249.133	862.06
249.366	979.06
249.599	1016.06
249.832	917.06
250.066	798.06
250.299	812.06
250.532	796.06
250.765	790.06
250.998	725.06
251.231	687.06
251.465	774.06
251.698	813.06
251.931	804.06
252.164	826.06
252.397	920.06
252.63	1021.06
252.863	1113.06
253.096	1183.06
253.329	1136.06
253.562	1061.06
253.795	1201.06
254.028	1334.06
254.261	1321.06
254.494	1199.06
254.727	1068.06
254.96	1104.06
255.193	1153.06
255.426	1096.06
255.659	837.06
255.892	764.06
256.124	828.06
256.357	966.06
256.59	1153.06
256.823	1126.06
257.056	960.06
257.289	900.06
257.521	939.06
257.754	1136.06
257.987	1239.06
258.22	1050.06
258.452	979.06
258.685	1108.06
258.918	1249.06
259.151	1229.06
259.383	1297.06
259.616	1486.06
259.849	1525.06
260.081	1662.06
260.314	1864.06
260.547	1448.06
260.779	1455.06
261.012	1660.06
261.244	1582.06
261.477	1622.06
261.71	1473.06
261.942	1266.06
262.175	1251.06
262.407	1194.06
262.64	1253.06
262.872	1470.06
263.105	1610.06
263.337	1653.06
263.57	1497.06
263.802	983.06
264.035	884.06
264.267	873.06
264.499	768.06
264.732	702.06
264.964	666.06
265.197	727.06
265.429	793.06
265.661	813.06
265.894	812.06
266.126	892.06
266.358	1021.06
266.591	1200.06
266.823	1468.06
267.055	1412.06
267.287	1225.06
267.52	1235.06
267.752	1305.06
267.984	1424.06
268.216	1360.06
268.448	1150.06
268.681	1083.06
268.913	1177.06
269.145	1255.06
269.377	1300.06
269.609	1276.06
269.841	1204.06
270.073	1290.06
270.306	1338.06
270.538	1370.06
270.77	1397.06
271.002	1351.06
271.234	1438.06
271.466	1458.06
271.698	1418.06
271.93	1352.06
272.162	1375.06
272.394	1382.06
272.626	1335.06
272.858	1391.06
273.09	1446.06
273.322	1252.06
273.553	1233.06
273.785	1476.06
274.017	1910.06
274.249	2348.06
274.481	2438.06
274.713	2690.06
274.945	3072.06
275.176	3139.06
275.408	2763.06
275.64	2554.06
275.872	2566.06
276.104	2142.06
276.335	1864.06
276.567	1862.06
276.799	1915.06
277.031	2019.06
277.262	1579.06
277.494	1226.06
277.726	1173.06
277.957	1271.06
278.189	1428.06
278.421	1436.06
278.652	1399.06
278.884	1319.06
279.115	1217.06
279.347	1159.06
279.579	1172.06
279.81	1167.06
280.042	1197.06
280.273	1244.06
280.505	1126.06
280.736	961.06
280.968	1004.06
281.199	1064.06
281.431	1228.06
281.662	1220.06
281.894	1142.06
282.125	1224.06
282.356	1309.06
282.588	1356.06
282.819	1212.06
283.051	1346.06
283.282	1671.06
283.513	1902.06
283.745	2121.06
283.976	2149.06
284.207	1977.06
284.439	2075.06
284.67	1972.06
284.901	1761.06
285.132	1842.06
285.364	1959.06
285.595	1817.06
285.826	1920.06
286.057	1977.06
286.288	1902.06
286.52	1941.06
286.751	2039.06
286.982	1992.06
287.213	1775.06
287.444	1760.06
287.675	1836.06
287.906	1758.06
288.138	1497.06
288.369	1335.06
288.6	1279.06
288.831	1329.06
289.062	1529.06
289.293	1694.06
289.524	1599.06
289.755	1574.06
289.986	1625.06
290.217	1420.06
290.448	1060.06
290.679	956.06
290.91	897.06
291.141	910.06
291.371	959.06
291.602	944.06
291.833	942.06
292.064	1042.06
292.295	1166.06
292.526	1337.06
292.757	1432.06
292.987	1530.06
293.218	1516.06
293.449	1573.06
293.68	1633.06
293.91	1568.06
294.141	1609.06
294.372	1526.06
294.603	1376.06
294.833	1588.06
295.064	1808.06
295.295	1700.06
295.525	1298.06
295.756	1144.06
295.987	966.06
296.217	993.06
296.448	995.06
296.679	1046.06
296.909	1186.06
297.14	1251.06
297.37	1369.06
297.601	1297.06
297.831	1135.06
298.062	1234.06
298.292	1390.06
298.523	1521.06
298.753	1701.06
298.984	1567.06
299.214	1248.06
299.445	1046.06
299.675	1028.06
299.905	987.06
300.136	1020.06
300.366	1161.06
300.597	1102.06
300.827	954.06
301.057	961.06
301.288	996.06
301.518	1042.06
301.748	1142.06
301.979	1243.06
302.209	1356.06
302.439	1365.06
302.669	1206.06
302.9	1152.06
303.13	1118.06
303.36	1089.06
303.59	1041.06
303.82	1063.06
304.051	1198.06
304.281	1283.06
304.511	1254.06
304.741	1096.06
304.971	1162.06
305.201	1240.06
305.431	1164.06
305.661	1018.06
305.891	1028.06
306.121	1046.06
306.352	942.06
306.582	857.06
306.812	796.06
307.042	801.06
307.272	784.06
307.502	806.06
307.731	843.06
307.961	894.06
308.191	866.06
308.421	781.06
308.651	784.06
308.881	737.06
309.111	758.06
309.341	766.06
309.571	868.06
309.8	907.06
310.03	914.06
310.26	946.06
310.49	932.06
310.72	851.06
310.949	842.06
311.179	847.06
311.409	914.06
311.639	1078.06
311.868	1329.06
312.098	1774.06
312.328	1904.06
312.557	1822.06
312.787	1809.06
313.017	1632.06
313.246	1763.06
313.476	1918.06
313.706	1598.06
313.935	1269.06
314.165	1022.06
314.394	933.06
314.624	930.06
314.853	974.06
315.083	990.06
315.312	962.06
315.542	962.06
315.771	901.06
316.001	835.06
316.23	818.06
316.46	825.06
316.689	836.06
316.919	861.06
317.148	882.06
317.377	834.06
317.607	868.06
317.836	923.06
318.065	1084.06
318.295	1196.06
318.524	1124.06
318.753	970.06
318.983	907.06
319.212	905.06
319.441	985.06
319.67	1083.06
319.9	1140.06
320.129	1080.06
320.358	919.06
320.587	916.06
320.816	966.06
321.046	1123.06
321.275	1248.06
321.504	1253.06
321.733	1216.06
321.962	1157.06
322.191	1098.06
322.42	1046.06
322.649	1088.06
322.878	1156.06
323.108	1177.06
323.337	1095.06
323.566	1060.06
323.795	1012.06
324.024	997.06
324.253	970.06
324.482	922.06
324.71	1045.06
324.939	1151.06
325.168	1082.06
325.397	893.06
325.626	898.06
325.855	864.06
326.084	909.06
326.313	865.06
326.542	812.06
326.77	836.06
326.999	878.06
327.228	924.06
327.457	991.06
327.686	943.06
327.914	851.06
328.143	810.06
328.372	794.06
328.6	804.06
328.829	849.06
329.058	835.06
329.287	862.06
329.515	878.06
329.744	858.06
329.972	826.06
330.201	776.06
330.43	790.06
330.658	925.06
330.887	1046.06
331.115	1024.06
331.344	1002.06
331.572	927.06
331.801	880.06
332.03	814.06
332.258	860.06
332.486	931.06
332.715	954.06
332.943	912.06
333.172	877.06
333.4	905.06
333.629	967.06
333.857	1092.06
334.085	1109.06
334.314	1087.06
334.542	1028.06
334.771	957.06
334.999	890.06
335.227	903.06
335.455	917.06
335.684	999.06
335.912	1183.06
336.14	1269.06
336.369	1212.06
336.597	1203.06
336.825	1322.06
337.053	1487.06
337.281	1202.06
337.51	942.06
337.738	936.06
337.966	1022.06
338.194	1125.06
338.422	1078.06
338.65	916.06
338.878	838.06
339.106	894.06
339.334	998.06
339.562	1068.06
339.79	990.06
340.018	951.06
340.246	1002.06
340.474	1136.06
340.702	1191.06
340.93	1264.06
341.158	1262.06
341.386	1065.06
341.614	1058.06
341.842	1079.06
342.07	1098.06
342.298	1275.06
342.526	1331.06
342.754	1144.06
342.981	1029.06
343.209	1017.06
343.437	1083.06
343.665	1140.06
343.893	1115.06
344.12	1320.06
344.348	1552.06
344.576	1394.06
344.804	1154.06
345.031	1020.06
345.259	970.06
345.487	977.06
345.714	998.06
345.942	1053.06
346.17	1118.06
346.397	1095.06
346.625	967.06
346.853	943.06
347.08	895.06
347.308	940.06
347.535	1058.06
347.763	1112.06
347.99	983.06
348.218	899.06
348.445	936.06
348.673	912.06
348.9	943.06
349.128	1017.06
349.355	1044.06
349.583	1010.06
349.81	976.06
350.037	889.06
350.265	825.06
350.492	782.06
350.72	774.06
350.947	813.06
351.174	861.06
351.402	925.06
351.629	945.06
351.856	895.06
352.083	861.06
352.311	936.06
352.538	1022.06
352.765	1049.06
352.992	1008.06
353.22	966.06
353.447	968.06
353.674	911.06
353.901	910.06
354.128	904.06
354.355	933.06
354.583	941.06
354.81	947.06
355.037	977.06
355.264	967.06
355.491	1041.06
355.718	1106.06
355.945	1045.06
356.172	1047.06
356.399	1057.06
356.626	1256.06
356.853	1495.06
357.08	1608.06
357.307	1649.06
357.534	1302.06
357.761	1329.06
357.988	1620.06
358.215	1914.06
358.441	1782.06
358.668	1554.06
358.895	1398.06
359.122	1127.06
359.349	1124.06
359.576	1235.06
359.802	1057.06
360.029	873.06
360.256	961.06
360.483	1206.06
360.709	1507.06
360.936	1584.06
361.163	1334.06
361.39	1050.06
361.616	1014.06
361.843	1185.06
362.07	1399.06
362.296	1254.06
362.523	1024.06
362.749	879.06
362.976	956.06
363.203	1168.06
363.429	1254.06
363.656	1022.06
363.882	954.06
364.109	920.06
364.335	960.06
364.562	920.06
364.788	1048.06
365.015	1234.06
365.241	1092.06
365.468	894.06
365.694	822.06
365.92	780.06
366.147	764.06
366.373	768.06
366.599	778.06
366.826	772.06
367.052	767.06
367.278	805.06
367.505	803.06
367.731	845.06
367.957	975.06
368.184	991.06
368.41	965.06
368.636	967.06
368.862	1009.06
369.089	975.06
369.315	868.06
369.541	850.06
369.767	846.06
369.993	809.06
370.219	830.06
370.445	880.06
370.672	956.06
370.898	1044.06
371.124	1016.06
371.35	922.06
371.576	871.06
371.802	940.06
372.028	1105.06
372.254	1239.06
372.48	1064.06
372.706	999.06
372.932	1016.06
373.158	1044.06
373.384	1286.06
373.61	1680.06
373.835	1702.06
374.061	1279.06
374.287	1121.06
374.513	1289.06
374.739	1543.06
374.965	1590.06
375.191	1545.06
375.416	1105.06
375.642	976.06
375.868	1124.06
376.094	1264.06
376.319	1119.06
376.545	1191.06
376.771	1250.06
376.997	1105.06
377.222	839.06
377.448	707.06
377.674	751.06
377.899	731.06
378.125	708.06
378.35	736.06
378.576	736.06
378.802	840.06
379.027	891.06
379.253	847.06
379.478	868.06
379.704	981.06
379.929	1044.06
380.155	1013.06
380.38	891.06
380.606	959.06
380.831	1044.06
381.057	1001.06
381.282	953.06
381.507	1097.06
381.733	1330.06
381.958	1424.06
382.184	1510.06
382.409	1566.06
382.634	1552.06
382.86	1583.06
383.085	1352.06
383.31	1066.06
383.535	1107.06
383.761	1140.06
383.986	1095.06
384.211	1332.06
384.436	1224.06
384.662	989.06
384.887	964.06
385.112	995.06
385.337	1014.06
385.562	952.06
385.787	1060.06
386.013	1150.06
386.238	1196.06
386.463	982.06
386.688	969.06
386.913	917.06
387.138	868.06
387.363	930.06
387.588	942.06
387.813	940.06
388.038	1033.06
388.263	920.06
388.488	948.06
388.713	1095.06
388.938	1121.06
389.163	993.06
389.387	869.06
389.612	889.06
389.837	912.06
390.062	916.06
390.287	910.06
390.512	961.06
390.736	948.06
390.961	868.06
391.186	823.06
391.411	814.06
391.636	872.06
391.86	928.06
392.085	980.06
392.31	963.06
392.534	928.06
392.759	902.06
392.984	920.06
393.208	956.06
393.433	855.06
393.658	797.06
393.882	783.06
394.107	784.06
394.331	793.06
394.556	786.06
394.78	784.06
395.005	803.06
395.229	871.06
395.454	862.06
395.678	860.06
395.903	887.06
396.127	861.06
396.352	846.06
396.576	949.06
396.801	953.06
397.025	1068.06
397.249	1044.06
397.474	909.06
397.698	898.06
397.922	957.06
398.147	905.06
398.371	879.06
398.595	935.06
398.82	917.06
399.044	931.06
399.268	994.06
399.492	1057.06
399.717	1032.06
399.941	1068.06
400.165	1047.06
400.389	1022.06
400.613	1033.06
400.837	1010.06
401.062	906.06
401.286	894.06
401.51	881.06
401.734	890.06
401.958	890.06
402.182	888.06
402.406	877.06
402.63	897.06
402.854	914.06
403.078	1029.06
403.302	1276.06
403.526	1311.06
403.75	1194.06
403.974	1031.06
404.198	1064.06
404.422	1189.06
404.645	1385.06
404.869	1474.06
405.093	1167.06
405.317	993.06
405.541	953.06
405.765	980.06
405.988	986.06
406.212	1080.06
406.436	1238.06
406.66	1390.06
406.883	1108.06
407.107	1151.06
407.331	1298.06
407.555	1231.06
407.778	1055.06
408.002	1039.06
408.226	1042.06
408.449	1040.06
408.673	971.06
408.896	924.06
409.12	910.06
409.344	916.06
409.567	865.06
409.791	882.06
410.014	888.06
410.238	880.06
410.461	854.06
410.685	906.06
410.908	906.06
411.132	906.06
411.355	921.06
411.578	936.06
411.802	896.06
412.025	961.06
412.249	969.06
412.472	933.06
412.695	938.06
412.919	942.06
413.142	954.06
413.365	1021.06
413.589	1006.06
413.812	925.06
414.035	898.06
414.258	969.06
414.482	1007.06
414.705	1019.06
414.928	878.06
415.151	852.06
415.374	862.06
415.597	891.06
415.821	899.06
416.044	867.06
416.267	855.06
416.49	865.06
416.713	850.06
416.936	837.06
417.159	854.06
417.382	856.06
417.605	884.06
417.828	911.06
418.051	888.06
418.274	890.06
418.497	905.06
418.72	898.06
418.943	935.06
419.166	971.06
419.389	1005.06
419.611	993.06
419.834	1027.06
420.057	1076.06
420.28	1070.06
420.503	980.06
420.726	870.06
420.948	850.06
421.171	876.06
421.394	860.06
421.617	852.06
421.839	865.06
422.062	921.06
422.285	913.06
422.507	926.06
422.73	946.06
422.953	958.06
423.175	937.06
423.398	934.06
423.621	968.06
423.843	1028.06
424.066	946.06
424.288	920.06
424.511	906.06
424.733	911.06
424.956	926.06
425.178	1032.06
425.401	1165.06
425.623	1300.06
425.846	1121.06
426.068	976.06
426.291	1040.06
426.513	990.06
426.735	925.06
426.958	985.06
427.18	1088.06
427.402	1402.06
427.625	1433.06
427.847	1141.06
428.069	891.06
428.292	914.06
428.514	886.06
428.736	853.06
428.958	918.06
429.181	1066.06
429.403	950.06
429.625	848.06
429.847	844.06
430.069	859.06
430.292	885.06
430.514	873.06
430.736	922.06
430.958	1142.06
431.18	1043.06
431.402	857.06
431.624	786.06
431.846	805.06
432.068	756.06
432.29	821.06
432.512	881.06
432.734	1172.06
432.956	1096.06
433.178	877.06
433.4	842.06
433.622	833.06
433.844	864.06
434.066	912.06
434.287	900.06
434.509	861.06
434.731	899.06
434.953	846.06
435.175	904.06
435.397	1000.06
435.618	899.06
435.84	816.06
436.062	842.06
436.284	826.06
436.505	776.06
436.727	776.06
436.949	808.06
437.17	801.06
437.392	846.06
437.614	807.06
437.835	828.06
438.057	816.06
438.278	963.06
438.5	1328.06
438.721	1326.06
438.943	926.06
439.165	764.06
439.386	755.06
439.608	774.06
439.829	777.06
440.05	756.06
440.272	856.06
440.493	974.06
440.715	1176.06
440.936	963.06
441.158	856.06
441.379	854.06
441.6	945.06
441.822	1012.06
442.043	872.06
442.264	864.06
442.486	860.06
442.707	862.06
442.928	869.06
443.149	893.06
443.371	873.06
443.592	899.06
443.813	888.06
444.034	868.06
444.255	884.06
444.476	947.06
444.698	946.06
444.919	966.06
445.14	1039.06
445.361	993.06
445.582	976.06
445.803	927.06
446.024	921.06
446.245	921.06
446.466	903.06
446.687	877.06
446.908	874.06
447.129	823.06
447.35	806.06
447.571	777.06
447.792	793.06
448.013	766.06
448.234	766.06
448.455	820.06
448.675	800.06
448.896	791.06
449.117	777.06
449.338	788.06
449.559	820.06
449.779	833.06
450	818.06
450.221	816.06
450.442	803.06
450.662	796.06
450.883	779.06
451.104	804.06
451.324	788.06
451.545	805.06
451.766	779.06
451.986	756.06
452.207	759.06
452.428	759.06
452.648	754.06
452.869	785.06
453.089	848.06
453.31	846.06
453.53	714.06
453.751	711.06
453.971	713.06
454.192	721.06
454.412	762.06
454.633	744.06
454.853	712.06
455.073	728.06
455.294	733.06
455.514	717.06
455.734	752.06
455.955	787.06
456.175	815.06
456.395	746.06
456.616	708.06
456.836	702.06
457.056	685.06
457.276	682.06
457.497	705.06
457.717	702.06
457.937	730.06
458.157	733.06
458.377	717.06
458.598	743.06
458.818	734.06
459.038	791.06
459.258	814.06
459.478	794.06
459.698	884.06
459.918	902.06
460.138	888.06
460.358	873.06
460.578	863.06
460.798	873.06
461.018	868.06
461.238	833.06
461.458	838.06
461.678	867.06
461.898	896.06
462.118	916.06
462.338	914.06
462.558	941.06
462.777	984.06
462.997	1020.06
463.217	1007.06
463.437	1006.06
463.657	986.06
463.876	957.06
464.096	934.06
464.316	975.06
464.536	958.06
464.755	973.06
464.975	1006.06
465.195	922.06
465.414	994.06
465.634	919.06
465.854	905.06
466.073	868.06
466.293	863.06
466.512	932.06
466.732	1021.06
466.951	1022.06
467.171	912.06
467.391	869.06
467.61	882.06
467.829	908.06
468.049	918.06
468.268	867.06
468.488	856.06
468.707	896.06
468.927	1038.06
469.146	1134.06
469.365	990.06
469.585	928.06
469.804	969.06
470.023	1092.06
470.243	946.06
470.462	906.06
470.681	901.06
470.901	910.06
471.12	942.06
471.339	967.06
471.558	888.06
471.777	925.06
471.997	945.06
472.216	1083.06
472.435	1031.06
472.654	990.06
472.873	931.06
473.092	982.06
473.311	1029.06
473.53	931.06
473.749	927.06
473.968	964.06
474.187	948.06
474.406	932.06
474.625	912.06
474.844	949.06
475.063	1031.06
475.282	1010.06
475.501	1053.06
475.72	1089.06
475.939	1070.06
476.158	1070.06
476.377	1237.06
476.596	1392.06
476.814	1464.06
477.033	1217.06
477.252	1032.06
477.471	986.06
477.69	989.06
477.908	1092.06
478.127	1119.06
478.346	1045.06
478.564	1115.06
478.783	1074.06
479.002	1098.06
479.22	1230.06
479.439	1427.06
479.658	1223.06
479.876	1104.06
480.095	1207.06
480.313	1216.06
480.532	1106.06
480.751	1089.06
480.969	1066.06
481.188	1260.06
481.406	1268.06
481.624	1230.06
481.843	1124.06
482.061	1070.06
482.28	1199.06
482.498	1444.06
482.717	1338.06
482.935	1144.06
483.153	1110.06
483.372	1035.06
483.59	1053.06
483.808	1036.06
484.027	1040.06
484.245	974.06
484.463	974.06
484.681	989.06
484.9	1096.06
485.118	1164.06
485.336	1087.06
485.554	1036.06
485.772	1086.06
485.99	1143.06
486.209	1210.06
486.427	1191.06
486.645	1151.06
486.863	1220.06
487.081	1213.06
487.299	1337.06
487.517	1279.06
487.735	1192.06
487.953	1194.06
488.171	1221.06
488.389	1196.06
488.607	1096.06
488.825	1148.06
489.043	1227.06
489.261	1395.06
489.479	1493.06
489.696	1257.06
489.914	1165.06
490.132	1116.06
490.35	1118.06
490.568	1142.06
490.786	1130.06
491.003	1158.06
491.221	1144.06
491.439	1120.06
491.657	1097.06
491.874	1213.06
492.092	1445.06
492.31	1672.06
492.527	1672.06
492.745	1511.06
492.963	1307.06
493.18	1256.06
493.398	1274.06
493.615	1277.06
493.833	1202.06
494.05	1228.06
494.268	1232.06
494.485	1231.06
494.703	1173.06
494.92	1238.06
495.138	1159.06
495.355	1193.06
495.573	1209.06
495.79	1321.06
496.008	1720.06
496.225	1503.06
496.442	1328.06
496.66	1350.06
496.877	1398.06
497.094	1407.06
497.312	1274.06
497.529	1282.06
497.746	1291.06
497.963	1324.06
498.181	1442.06
498.398	1548.06
498.615	1635.06
498.832	1636.06
499.049	1679.06
499.267	1521.06
499.484	1507.06
499.701	1596.06
499.918	1721.06
500.135	1813.06
500.352	1894.06
500.569	1951.06
500.786	1986.06
501.003	2006.06
501.22	1804.06
501.437	1686.06
501.654	1610.06
501.871	1588.06
502.088	1577.06
502.305	1480.06
502.522	1508.06
502.739	1471.06
502.956	1384.06
503.172	1321.06
503.389	1298.06
503.606	1265.06
503.823	1261.06
504.04	1291.06
504.256	1312.06
504.473	1333.06
504.69	1337.06
504.907	1385.06
505.123	1349.06
505.34	1409.06
505.557	1400.06
505.773	1304.06
505.99	1330.06
506.207	1332.06
506.423	1240.06
506.64	1176.06
506.856	1209.06
507.073	1353.06
507.289	1328.06
507.506	1295.06
507.722	1372.06
507.939	1398.06
508.155	1421.06
508.372	1294.06
508.588	1237.06
508.805	1207.06
509.021	1214.06
509.238	1167.06
509.454	1176.06
509.67	1152.06
509.887	1140.06
510.103	1324.06
510.319	1287.06
510.536	1154.06
510.752	1104.06
510.968	1034.06
511.184	1008.06
511.401	1015.06
511.617	1022.06
511.833	1034.06
512.049	1077.06
512.265	1104.06
512.481	1084.06
512.698	1215.06
512.914	1352.06
513.13	1214.06
513.346	1109.06
513.562	1154.06
513.778	1135.06
513.994	1120.06
514.21	1192.06
514.426	1149.06
514.642	1130.06
514.858	1133.06
515.074	1185.06
515.29	1243.06
515.506	1386.06
515.721	1317.06
515.937	1224.06
516.153	1123.06
516.369	1152.06
516.585	1212.06
516.801	1326.06
517.016	1529.06
517.232	1518.06
517.448	1486.06
517.664	1334.06
517.879	1268.06
518.095	1235.06
518.311	1269.06
518.527	1326.06
518.742	1368.06
518.958	1430.06
519.173	1388.06
519.389	1340.06
519.605	1367.06
519.82	1473.06
520.036	1702.06
520.251	1652.06
520.467	1585.06
520.682	2243.06
520.898	2746.06
521.113	2566.06
521.329	1683.06
521.544	1506.06
521.76	1478.06
521.975	1307.06
522.19	1282.06
522.406	1283.06
522.621	1414.06
522.836	1472.06
523.052	1493.06
523.267	1263.06
523.482	1242.06
523.698	1346.06
523.913	1318.06
524.128	1206.06
524.343	1154.06
524.559	1161.06
524.774	1125.06
524.989	1107.06
525.204	1181.06
525.419	1254.06
525.634	1200.06
525.849	1228.06
526.064	1225.06
526.28	1235.06
526.495	1468.06
526.71	1473.06
526.925	1264.06
527.14	1341.06
527.355	1286.06
527.57	1135.06
527.785	1146.06
527.999	1106.06
528.214	1068.06
528.429	1061.06
528.644	1040.06
528.859	1010.06
529.074	989.06
529.289	963.06
529.503	978.06
529.718	996.06
529.933	1132.06
530.148	1157.06
530.363	1009.06
530.577	978.06
530.792	974.06
531.007	1006.06
531.221	985.06
531.436	989.06
531.651	956.06
531.865	1005.06
532.08	1014.06
532.295	976.06
532.509	1008.06
532.724	1152.06
532.938	1269.06
533.153	1444.06
533.367	1181.06
533.582	1158.06
533.796	1074.06
534.011	1031.06
534.225	1045.06
534.44	1032.06
534.654	1069.06
534.868	1193.06
535.083	1091.06
535.297	1019.06
535.511	1022.06
535.726	1117.06
535.94	1040.06
536.154	1011.06
536.369	969.06
536.583	965.06
536.797	1012.06
537.011	989.06
537.225	1052.06
537.44	1113.06
537.654	1014.06
537.868	972.06
538.082	1025.06
538.296	969.06
538.51	1051.06
538.724	1087.06
538.938	1021.06
539.153	980.06
539.367	942.06
539.581	963.06
539.795	1008.06
540.009	1094.06
540.222	1019.06
540.436	1000.06
540.65	1125.06
540.864	1134.06
541.078	1172.06
541.292	1281.06
541.506	1065.06
541.72	1029.06
541.934	1026.06
542.147	999.06
542.361	1010.06
542.575	1034.06
542.789	1000.06
543.002	912.06
543.216	1033.06
543.43	956.06
543.644	892.06
543.857	919.06
544.071	931.06
544.285	914.06
544.498	907.06
544.712	899.06
544.925	977.06
545.139	940.06
545.352	885.06
545.566	910.06
545.779	1021.06
545.993	951.06
546.206	880.06
546.42	861.06
546.633	849.06
546.847	834.06
547.06	844.06
547.274	833.06
547.487	892.06
547.7	950.06
547.914	1008.06
548.127	1084.06
548.34	1076.06
548.554	923.06
548.767	974.06
548.98	1048.06
549.193	944.06
549.407	967.06
549.62	1174.06
549.833	1084.06
550.046	1095.06
550.259	1146.06
550.473	1007.06
550.686	988.06
550.899	982.06
551.112	960.06
551.325	1051.06
551.538	1090.06
551.751	910.06
551.964	896.06
552.177	886.06
552.39	876.06
552.603	877.06
552.816	921.06
553.029	873.06
553.242	870.06
553.455	906.06
553.667	1018.06
553.88	979.06
554.093	898.06
554.306	809.06
554.519	816.06
554.732	774.06
554.944	772.06
555.157	774.06
555.37	738.06
555.583	760.06
555.795	759.06
556.008	802.06
556.221	833.06
556.433	777.06
556.646	771.06
556.859	773.06
557.071	793.06
557.284	797.06
557.496	819.06
557.709	784.06
557.921	776.06
558.134	750.06
558.346	682.06
558.559	719.06
558.771	743.06
558.984	789.06
559.196	760.06
559.409	724.06
559.621	709.06
559.833	708.06
560.046	732.06
560.258	713.06
560.47	752.06
560.683	694.06
560.895	651.06
561.107	646.06
561.32	658.06
561.532	670.06
561.744	739.06
561.956	750.06
562.168	703.06
562.381	712.06
562.593	709.06
562.805	714.06
563.017	700.06
563.229	689.06
563.441	673.06
563.653	704.06
563.865	668.06
564.077	696.06
564.289	643.06
564.501	693.06
564.713	721.06
564.925	714.06
565.137	699.06
565.349	693.06
565.561	717.06
565.773	722.06
565.985	713.06
566.197	784.06
566.408	837.06
566.62	852.06
566.832	855.06
567.044	837.06
567.255	910.06
567.467	969.06
567.679	877.06
567.891	848.06
568.102	863.06
568.314	885.06
568.526	847.06
568.737	807.06
568.949	867.06
569.161	753.06
569.372	724.06
569.584	698.06
569.795	644.06
570.007	677.06
570.218	728.06
570.43	721.06
570.641	685.06
570.853	672.06
571.064	659.06
571.276	684.06
571.487	677.06
571.698	644.06
571.91	683.06
572.121	663.06
572.333	622.06
572.544	600.06
572.755	634.06
572.966	583.06
573.178	609.06
573.389	633.06
573.6	643.06
573.811	624.06
574.023	577.06
574.234	545.06
574.445	564.06
574.656	551.06
574.867	579.06
575.078	551.06
575.289	588.06
575.501	618.06
575.712	589.06
575.923	556.06
576.134	536.06
576.345	552.06
576.556	539.06
576.767	544.06
576.978	519.06
577.188	498.06
577.399	506.06
577.61	516.06
577.821	525.06
578.032	547.06
578.243	562.06
578.454	572.06
578.665	582.06
578.875	558.06
579.086	533.06
579.297	580.06
579.508	556.06
579.718	555.06
579.929	552.06
580.14	530.06
580.35	517.06
580.561	494.06
580.772	487.06
580.982	473.06
581.193	473.06
581.403	469.06
581.614	476.06
581.825	464.06
582.035	478.06
582.246	452.06
582.456	474.06
582.667	466.06
582.877	469.06
583.087	450.06
583.298	445.06
583.508	447.06
583.719	423.06
583.929	456.06
584.139	476.06
584.35	469.06
584.56	478.06
584.77	454.06
584.981	462.06
585.191	469.06
585.401	473.06
585.611	479.06
585.821	480.06
586.032	487.06
586.242	466.06
586.452	462.06
586.662	470.06
586.872	479.06
587.082	469.06
587.292	476.06
587.502	448.06
587.713	444.06
587.923	459.06
588.133	510.06
588.343	478.06
588.553	463.06
588.762	473.06
588.972	446.06
589.182	488.06
589.392	442.06
589.602	449.06
589.812	477.06
590.022	493.06
590.232	492.06
590.441	462.06
590.651	446.06
590.861	453.06
591.071	465.06
591.281	435.06
591.49	432.06
591.7	418.06
591.91	441.06
592.119	428.06
592.329	444.06
592.539	466.06
592.748	450.06
592.958	478.06
593.167	493.06
593.377	478.06
593.587	458.06
593.796	477.06
594.006	478.06
594.215	461.06
594.424	471.06
594.634	489.06
594.843	479.06
595.053	473.06
595.262	437.06
595.472	440.06
595.681	435.06
595.89	439.06
596.1	441.06
596.309	444.06
596.518	409.06
596.727	422.06
596.937	409.06
597.146	455.06
597.355	453.06
597.564	441.06
597.774	445.06
597.983	430.06
598.192	396.06
598.401	384.06
598.61	393.06
598.819	381.06
599.028	398.06
599.237	380.06
599.446	389.06
599.655	388.06
599.864	369.06
600.073	377.06
600.282	377.06
600.491	388.06
600.7	384.06
600.909	379.06
601.118	373.06
601.327	384.06
601.536	383.06
601.745	386.06
601.953	406.06
602.162	408.06
602.371	389.06
602.58	386.06
602.789	376.06
602.997	361.06
603.206	361.06
603.415	373.06
603.623	335.06
603.832	354.06
604.041	364.06
604.249	360.06
604.458	388.06
604.666	364.06
604.875	368.06
605.084	355.06
605.292	340.06
605.501	364.06
605.709	375.06
605.918	336.06
606.126	342.06
606.334	342.06
606.543	356.06
606.751	377.06
606.96	345.06
607.168	341.06
607.376	335.06
607.585	336.06
607.793	349.06
608.001	336.06
608.21	347.06
608.418	358.06
608.626	338.06
608.834	325.06
609.043	345.06
609.251	328.06
609.459	356.06
609.667	336.06
609.875	350.06
610.083	326.06
610.291	373.06
610.499	362.06
610.707	348.06
610.916	346.06
611.124	326.06
611.332	346.06
611.54	341.06
611.748	352.06
611.955	344.06
612.163	336.06
612.371	335.06
612.579	342.06
612.787	331.06
612.995	336.06
613.203	346.06
613.411	323.06
613.618	324.06
613.826	336.06
614.034	361.06
614.242	342.06
614.449	314.06
614.657	325.06
614.865	305.06
615.072	324.06
615.28	326.06
615.488	316.06
615.695	337.06
615.903	335.06
616.111	310.06
616.318	340.06
616.526	317.06
616.733	325.06
616.941	328.06
617.148	327.06
617.356	301.06
617.563	327.06
617.771	311.06
617.978	301.06
618.185	323.06
618.393	318.06
618.6	320.06
618.807	310.06
619.015	329.06
619.222	309.06
619.429	317.06
619.637	300.06
619.844	284.06
620.051	294.06
620.258	315.06
620.466	302.06
620.673	283.06
620.88	308.06
621.087	306.06
621.294	294.06
621.501	305.06
621.708	318.06
621.915	292.06
622.122	287.06
622.329	296.06
622.536	282.06
622.743	281.06
622.95	298.06
623.157	281.06
623.364	313.06
623.571	289.06
623.778	311.06
623.985	300.06
624.192	306.06
624.399	317.06
624.606	277.06
624.812	265.06
625.019	296.06
625.226	308.06
625.433	294.06
625.639	296.06
625.846	284.06
626.053	292.06
626.259	269.06
626.466	274.06
626.673	298.06
626.879	286.06
627.086	276.06
627.293	272.06
627.499	287.06
627.706	283.06
627.912	266.06
628.119	280.06
628.325	274.06
628.532	262.06
628.738	270.06
628.945	272.06
629.151	266.06
629.357	257.06
629.564	252.06
629.77	248.06
629.976	261.06
630.183	256.06
630.389	249.06
630.595	261.06
630.802	257.06
631.008	252.06
631.214	227.06
631.42	236.06
631.627	251.06
631.833	243.06
632.039	243.06
632.245	241.06
632.451	240.06
632.657	244.06
632.863	229.06
633.069	248.06
633.275	238.06
633.481	270.06
633.688	243.06
633.893	231.06
634.099	224.06
634.305	246.06
634.511	233.06
634.717	228.06
634.923	221.06
635.129	224.06
635.335	230.06
635.541	227.06
635.747	246.06
635.952	236.06
636.158	231.06
636.364	234.06
636.57	236.06
636.775	212.06
636.981	226.06
637.187	228.06
637.392	226.06
637.598	237.06
637.804	254.06
638.009	232.06
638.215	223.06
638.421	225.06
638.626	226.06
638.832	229.06
639.037	240.06
639.243	221.06
639.448	243.06
639.654	257.06
639.859	222.06
640.065	228.06
640.27	232.06
640.475	226.06
640.681	221.06
640.886	210.06
641.091	221.06
641.297	209.06
641.502	215.06
641.707	199.06
641.913	229.06
642.118	217.06
642.323	222.06
642.528	233.06
642.733	218.06
642.939	220.06
643.144	205.06
643.349	221.06
643.554	201.06
643.759	209.06
643.964	199.06
644.169	194.06
644.374	209.06
644.579	215.06
644.784	200.06
644.989	202.06
645.194	209.06
645.399	207.06
645.604	205.06
645.809	206.06
646.014	213.06
646.219	196.06
646.423	207.06
646.628	227.06
646.833	213.06
647.038	214.06
647.243	197.06
647.447	207.06
647.652	208.06
647.857	218.06
648.062	188.06
648.266	219.06
648.471	215.06
648.676	210.06
648.88	212.06
649.085	207.06
649.289	203.06
649.494	204.06
649.698	206.06
649.903	223.06
650.107	205.06
650.312	196.06
650.516	198.06
650.721	184.06
650.925	191.06
651.13	183.06
651.334	179.06
651.539	173.06
651.743	182.06
651.947	186.06
652.152	184.06
652.356	178.06
652.56	166.06
652.764	165.06
652.969	174.06
653.173	184.06
653.377	156.06
653.581	162.06
653.785	166.06
653.99	190.06
654.194	153.06
654.398	176.06
654.602	163.06
654.806	175.06
655.01	154.06
655.214	154.06
655.418	170.06
655.622	157.06
655.826	167.06
656.03	156.06
656.234	155.06
656.438	172.06
656.642	173.06
656.846	179.06
657.049	152.06
657.253	154.06
657.457	150.06
657.661	153.06
657.865	135.06
658.068	124.06
658.272	124.06
658.476	119.06
658.68	124.06
658.883	124.06
659.087	112.06
659.291	118.06
659.494	118.06
659.698	97.06
659.901	117.06
660.105	100.06
660.309	102.06
660.512	99.06
660.716	108.06
660.919	117.06
661.123	115.06
661.326	101.06
661.53	101.06
661.733	92.06
661.936	88.06
662.14	97.06
662.343	93.06
662.546	100.06
662.75	90.06
662.953	90.06
663.156	93.06
663.36	83.06
663.563	86.06
663.766	85.06
663.969	84.06
664.173	92.06
664.376	89.06
664.579	75.06
664.782	80.06
664.985	79.06
665.188	89.06
665.391	94.06
665.594	90.06
665.797	82.06
666	79.06
666.203	74.06
666.406	82.06
666.609	80.06
666.812	94.06
667.015	94.06
667.218	89.06
667.421	77.06
667.624	92.06
667.827	86.06
668.03	79.06
668.232	78.06
668.435	84.06
668.638	83.06
668.841	104.06
669.043	79.06
669.246	78.06
669.449	86.06
669.651	85.06
669.854	88.06
670.057	87.06
670.259	93.06
670.462	82.06
670.665	79.06
670.867	72.06
671.07	70.06
671.272	83.06
671.475	76.06
671.677	76.06
671.88	73.06
672.082	75.06
672.284	84.06
672.487	79.06
672.689	84.06
672.892	86.06
