Data from NickelSpatula.Lamp.E10.P2_HRD10591_11-58-49-527.txt Node
Date: Tue Jul 23 11:58:49 EDT 2019
User: cochatt
Spectrometer: HR+D1059
Trigger mode: 1
Integration Time (sec): 1.000000E-1
Scans to average: 1
Electric dark correction enabled: true
Nonlinearity correction enabled: false
Boxcar width: 0
XAxis mode: Wavelengths
Number of Pixels in Spectrum: 2048
>>>>>Begin Spectral Data<<<<<
223.165	-10.75
223.4	-10.75
223.635	-10.75
223.869	-10.75
224.104	-24.75
224.338	-23.75
224.573	-14.75
224.808	-5.75
225.042	-24.75
225.277	-12.75
225.511	10.25
225.746	9.25
225.98	8.25
226.215	4.25
226.449	22.25
226.683	12.25
226.918	35.25
227.152	26.25
227.387	41.25
227.621	43.25
227.856	49.25
228.09	50.25
228.324	48.25
228.559	67.25
228.793	72.25
229.027	149.25
229.262	144.25
229.496	153.25
229.73	162.25
229.964	203.25
230.199	207.25
230.433	223.25
230.667	218.25
230.901	192.25
231.136	185.25
231.37	206.25
231.604	232.25
231.838	239.25
232.072	250.25
232.306	253.25
232.541	254.25
232.775	251.25
233.009	268.25
233.243	294.25
233.477	302.25
233.711	347.25
233.945	341.25
234.179	314.25
234.413	352.25
234.647	394.25
234.881	452.25
235.115	437.25
235.349	394.25
235.583	350.25
235.817	336.25
236.051	366.25
236.285	397.25
236.519	466.25
236.753	421.25
236.987	440.25
237.221	412.25
237.455	417.25
237.689	432.25
237.922	458.25
238.156	498.25
238.39	542.25
238.624	662.25
238.858	608.25
239.091	495.25
239.325	493.25
239.559	495.25
239.793	529.25
240.027	659.25
240.26	619.25
240.494	577.25
240.728	582.25
240.961	694.25
241.195	652.25
241.429	644.25
241.662	626.25
241.896	539.25
242.13	475.25
242.363	452.25
242.597	474.25
242.83	544.25
243.064	556.25
243.298	606.25
243.531	611.25
243.765	628.25
243.998	630.25
244.232	596.25
244.465	608.25
244.699	599.25
244.932	629.25
245.166	626.25
245.399	553.25
245.633	562.25
245.866	583.25
246.099	624.25
246.333	702.25
246.566	788.25
246.8	776.25
247.033	730.25
247.266	688.25
247.5	693.25
247.733	688.25
247.966	648.25
248.2	687.25
248.433	794.25
248.666	859.25
248.899	844.25
249.133	885.25
249.366	984.25
249.599	1072.25
249.832	954.25
250.066	815.25
250.299	844.25
250.532	802.25
250.765	791.25
250.998	723.25
251.231	699.25
251.465	766.25
251.698	834.25
251.931	804.25
252.164	868.25
252.397	955.25
252.63	1049.25
252.863	1182.25
253.096	1210.25
253.329	1174.25
253.562	1117.25
253.795	1251.25
254.028	1378.25
254.261	1378.25
254.494	1275.25
254.727	1162.25
254.96	1120.25
255.193	1184.25
255.426	1120.25
255.659	869.25
255.892	787.25
256.124	835.25
256.357	1026.25
256.59	1182.25
256.823	1166.25
257.056	947.25
257.289	927.25
257.521	981.25
257.754	1150.25
257.987	1316.25
258.22	1123.25
258.452	1003.25
258.685	1146.25
258.918	1266.25
259.151	1235.25
259.383	1290.25
259.616	1530.25
259.849	1554.25
260.081	1712.25
260.314	1868.25
260.547	1488.25
260.779	1486.25
261.012	1708.25
261.244	1617.25
261.477	1629.25
261.71	1559.25
261.942	1278.25
262.175	1311.25
262.407	1226.25
262.64	1248.25
262.872	1506.25
263.105	1640.25
263.337	1726.25
263.57	1556.25
263.802	1042.25
264.035	906.25
264.267	900.25
264.499	782.25
264.732	706.25
264.964	682.25
265.197	702.25
265.429	770.25
265.661	837.25
265.894	840.25
266.126	932.25
266.358	1035.25
266.591	1237.25
266.823	1534.25
267.055	1401.25
267.287	1251.25
267.52	1267.25
267.752	1317.25
267.984	1406.25
268.216	1381.25
268.448	1140.25
268.681	1107.25
268.913	1209.25
269.145	1269.25
269.377	1291.25
269.609	1282.25
269.841	1241.25
270.073	1306.25
270.306	1355.25
270.538	1383.25
270.77	1383.25
271.002	1421.25
271.234	1475.25
271.466	1477.25
271.698	1463.25
271.93	1437.25
272.162	1442.25
272.394	1439.25
272.626	1398.25
272.858	1433.25
273.09	1464.25
273.322	1284.25
273.553	1279.25
273.785	1473.25
274.017	1989.25
274.249	2425.25
274.481	2517.25
274.713	2748.25
274.945	3179.25
275.176	3285.25
275.408	2846.25
275.64	2649.25
275.872	2643.25
276.104	2235.25
276.335	1918.25
276.567	1922.25
276.799	1970.25
277.031	2078.25
277.262	1584.25
277.494	1248.25
277.726	1200.25
277.957	1327.25
278.189	1504.25
278.421	1445.25
278.652	1434.25
278.884	1362.25
279.115	1310.25
279.347	1180.25
279.579	1205.25
279.81	1205.25
280.042	1227.25
280.273	1272.25
280.505	1143.25
280.736	1008.25
280.968	1016.25
281.199	1096.25
281.431	1226.25
281.662	1223.25
281.894	1162.25
282.125	1252.25
282.356	1370.25
282.588	1408.25
282.819	1259.25
283.051	1420.25
283.282	1664.25
283.513	1992.25
283.745	2149.25
283.976	2190.25
284.207	1990.25
284.439	2084.25
284.67	2009.25
284.901	1771.25
285.132	1977.25
285.364	2035.25
285.595	1862.25
285.826	1994.25
286.057	2056.25
286.288	1971.25
286.52	2003.25
286.751	2091.25
286.982	2100.25
287.213	1795.25
287.444	1736.25
287.675	1811.25
287.906	1857.25
288.138	1526.25
288.369	1359.25
288.6	1270.25
288.831	1330.25
289.062	1549.25
289.293	1727.25
289.524	1600.25
289.755	1607.25
289.986	1656.25
290.217	1433.25
290.448	1091.25
290.679	954.25
290.91	924.25
291.141	908.25
291.371	956.25
291.602	1004.25
291.833	975.25
292.064	1046.25
292.295	1223.25
292.526	1408.25
292.757	1465.25
292.987	1548.25
293.218	1554.25
293.449	1603.25
293.68	1680.25
293.91	1614.25
294.141	1617.25
294.372	1528.25
294.603	1415.25
294.833	1572.25
295.064	1866.25
295.295	1747.25
295.525	1326.25
295.756	1141.25
295.987	1024.25
296.217	1017.25
296.448	1022.25
296.679	1083.25
296.909	1216.25
297.14	1296.25
297.37	1416.25
297.601	1368.25
297.831	1154.25
298.062	1253.25
298.292	1422.25
298.523	1579.25
298.753	1776.25
298.984	1548.25
299.214	1268.25
299.445	1071.25
299.675	1050.25
299.905	1026.25
300.136	1033.25
300.366	1158.25
300.597	1162.25
300.827	1033.25
301.057	997.25
301.288	1016.25
301.518	1098.25
301.748	1215.25
301.979	1306.25
302.209	1417.25
302.439	1435.25
302.669	1265.25
302.9	1256.25
303.13	1144.25
303.36	1084.25
303.59	1057.25
303.82	1079.25
304.051	1227.25
304.281	1319.25
304.511	1290.25
304.741	1151.25
304.971	1209.25
305.201	1300.25
305.431	1192.25
305.661	1052.25
305.891	1071.25
306.121	1094.25
306.352	982.25
306.582	877.25
306.812	848.25
307.042	890.25
307.272	791.25
307.502	805.25
307.731	877.25
307.961	892.25
308.191	849.25
308.421	810.25
308.651	791.25
308.881	741.25
309.111	768.25
309.341	812.25
309.571	891.25
309.8	926.25
310.03	963.25
310.26	998.25
310.49	980.25
310.72	861.25
310.949	876.25
311.179	884.25
311.409	926.25
311.639	1074.25
311.868	1362.25
312.098	1779.25
312.328	1944.25
312.557	1819.25
312.787	1860.25
313.017	1672.25
313.246	1808.25
313.476	1942.25
313.706	1612.25
313.935	1275.25
314.165	1036.25
314.394	951.25
314.624	950.25
314.853	1010.25
315.083	1026.25
315.312	1033.25
315.542	986.25
315.771	947.25
316.001	848.25
316.23	805.25
316.46	857.25
316.689	864.25
316.919	873.25
317.148	887.25
317.377	890.25
317.607	867.25
317.836	955.25
318.065	1091.25
318.295	1245.25
318.524	1163.25
318.753	952.25
318.983	919.25
319.212	912.25
319.441	1015.25
319.67	1125.25
319.9	1184.25
320.129	1136.25
320.358	967.25
320.587	915.25
320.816	1001.25
321.046	1176.25
321.275	1332.25
321.504	1331.25
321.733	1284.25
321.962	1216.25
322.191	1150.25
322.42	1114.25
322.649	1129.25
322.878	1187.25
323.108	1204.25
323.337	1086.25
323.566	1057.25
323.795	1055.25
324.024	1043.25
324.253	966.25
324.482	980.25
324.71	1066.25
324.939	1224.25
325.168	1111.25
325.397	916.25
325.626	922.25
325.855	904.25
326.084	904.25
326.313	853.25
326.542	826.25
326.77	863.25
326.999	890.25
327.228	928.25
327.457	1008.25
327.686	1002.25
327.914	870.25
328.143	835.25
328.372	824.25
328.6	834.25
328.829	867.25
329.058	864.25
329.287	878.25
329.515	885.25
329.744	882.25
329.972	828.25
330.201	770.25
330.43	840.25
330.658	917.25
330.887	1068.25
331.115	1017.25
331.344	986.25
331.572	978.25
331.801	894.25
332.03	840.25
332.258	862.25
332.486	972.25
332.715	976.25
332.943	885.25
333.172	904.25
333.4	926.25
333.629	1048.25
333.857	1120.25
334.085	1082.25
334.314	1075.25
334.542	1036.25
334.771	967.25
334.999	948.25
335.227	908.25
335.455	944.25
335.684	1007.25
335.912	1196.25
336.14	1322.25
336.369	1245.25
336.597	1170.25
336.825	1341.25
337.053	1518.25
337.281	1194.25
337.51	971.25
337.738	978.25
337.966	1049.25
338.194	1155.25
338.422	1120.25
338.65	922.25
338.878	880.25
339.106	920.25
339.334	1026.25
339.562	1074.25
339.79	983.25
340.018	960.25
340.246	1041.25
340.474	1167.25
340.702	1234.25
340.93	1314.25
341.158	1314.25
341.386	1092.25
341.614	1092.25
341.842	1112.25
342.07	1166.25
342.298	1332.25
342.526	1382.25
342.754	1209.25
342.981	1095.25
343.209	1024.25
343.437	1163.25
343.665	1174.25
343.893	1162.25
344.12	1403.25
344.348	1592.25
344.576	1402.25
344.804	1181.25
345.031	1024.25
345.259	969.25
345.487	977.25
345.714	1016.25
345.942	1071.25
346.17	1182.25
346.397	1130.25
346.625	998.25
346.853	950.25
347.08	935.25
347.308	974.25
347.535	1083.25
347.763	1147.25
347.99	1025.25
348.218	910.25
348.445	963.25
348.673	969.25
348.9	970.25
349.128	1030.25
349.355	1088.25
349.583	1038.25
349.81	1033.25
350.037	936.25
350.265	848.25
350.492	790.25
350.72	784.25
350.947	818.25
351.174	869.25
351.402	931.25
351.629	960.25
351.856	945.25
352.083	902.25
352.311	929.25
352.538	1067.25
352.765	1132.25
352.992	1039.25
353.22	950.25
353.447	1008.25
353.674	949.25
353.901	963.25
354.128	971.25
354.355	970.25
354.583	952.25
354.81	976.25
355.037	1009.25
355.264	1010.25
355.491	1098.25
355.718	1166.25
355.945	1144.25
356.172	1091.25
356.399	1078.25
356.626	1326.25
356.853	1621.25
357.08	1690.25
357.307	1724.25
357.534	1352.25
357.761	1426.25
357.988	1763.25
358.215	2050.25
358.441	1918.25
358.668	1645.25
358.895	1495.25
359.122	1202.25
359.349	1204.25
359.576	1335.25
359.802	1097.25
360.029	913.25
360.256	996.25
360.483	1269.25
360.709	1613.25
360.936	1662.25
361.163	1440.25
361.39	1145.25
361.616	1040.25
361.843	1210.25
362.07	1464.25
362.296	1334.25
362.523	1084.25
362.749	938.25
362.976	999.25
363.203	1208.25
363.429	1320.25
363.656	1073.25
363.882	984.25
364.109	982.25
364.335	975.25
364.562	944.25
364.788	1113.25
365.015	1312.25
365.241	1181.25
365.468	960.25
365.694	825.25
365.92	774.25
366.147	738.25
366.373	757.25
366.599	760.25
366.826	792.25
367.052	823.25
367.278	833.25
367.505	803.25
367.731	913.25
367.957	1023.25
368.184	1043.25
368.41	976.25
368.636	1019.25
368.862	1047.25
369.089	1027.25
369.315	912.25
369.541	881.25
369.767	895.25
369.993	849.25
370.219	861.25
370.445	888.25
370.672	982.25
370.898	1092.25
371.124	1080.25
371.35	953.25
371.576	886.25
371.802	940.25
372.028	1153.25
372.254	1366.25
372.48	1118.25
372.706	1022.25
372.932	1085.25
373.158	1140.25
373.384	1366.25
373.61	1836.25
373.835	1833.25
374.061	1342.25
374.287	1152.25
374.513	1368.25
374.739	1648.25
374.965	1691.25
375.191	1702.25
375.416	1146.25
375.642	999.25
375.868	1200.25
376.094	1320.25
376.319	1161.25
376.545	1286.25
376.771	1341.25
376.997	1153.25
377.222	846.25
377.448	737.25
377.674	726.25
377.899	772.25
378.125	735.25
378.35	738.25
378.576	746.25
378.802	824.25
379.027	926.25
379.253	918.25
379.478	908.25
379.704	1047.25
379.929	1102.25
380.155	1072.25
380.38	917.25
380.606	998.25
380.831	1098.25
381.057	1001.25
381.282	950.25
381.507	1159.25
381.733	1435.25
381.958	1577.25
382.184	1642.25
382.409	1658.25
382.634	1636.25
382.86	1723.25
383.085	1428.25
383.31	1139.25
383.535	1194.25
383.761	1239.25
383.986	1173.25
384.211	1424.25
384.436	1339.25
384.662	1036.25
384.887	981.25
385.112	1012.25
385.337	1028.25
385.562	1024.25
385.787	1099.25
386.013	1212.25
386.238	1255.25
386.463	1018.25
386.688	966.25
386.913	934.25
387.138	871.25
387.363	953.25
387.588	987.25
387.813	968.25
388.038	1087.25
388.263	979.25
388.488	984.25
388.713	1113.25
388.938	1190.25
389.163	1006.25
389.387	894.25
389.612	923.25
389.837	937.25
390.062	963.25
390.287	998.25
390.512	1000.25
390.736	935.25
390.961	882.25
391.186	869.25
391.411	818.25
391.636	854.25
391.86	899.25
392.085	1010.25
392.31	994.25
392.534	950.25
392.759	933.25
392.984	961.25
393.208	952.25
393.433	859.25
393.658	796.25
393.882	785.25
394.107	798.25
394.331	784.25
394.556	784.25
394.78	804.25
395.005	844.25
395.229	859.25
395.454	868.25
395.678	902.25
395.903	926.25
396.127	852.25
396.352	868.25
396.576	949.25
396.801	1018.25
397.025	1099.25
397.249	1148.25
397.474	950.25
397.698	926.25
397.922	966.25
398.147	886.25
398.371	880.25
398.595	971.25
398.82	942.25
399.044	958.25
399.268	1011.25
399.492	1058.25
399.717	1040.25
399.941	1106.25
400.165	1057.25
400.389	1048.25
400.613	1024.25
400.837	993.25
401.062	924.25
401.286	890.25
401.51	874.25
401.734	895.25
401.958	896.25
402.182	875.25
402.406	904.25
402.63	896.25
402.854	941.25
403.078	1023.25
403.302	1282.25
403.526	1341.25
403.75	1170.25
403.974	1044.25
404.198	1073.25
404.422	1230.25
404.645	1418.25
404.869	1554.25
405.093	1170.25
405.317	979.25
405.541	1000.25
405.765	984.25
405.988	1017.25
406.212	1103.25
406.436	1294.25
406.66	1418.25
406.883	1125.25
407.107	1192.25
407.331	1354.25
407.555	1306.25
407.778	1098.25
408.002	1018.25
408.226	1043.25
408.449	1028.25
408.673	999.25
408.896	950.25
409.12	920.25
409.344	910.25
409.567	869.25
409.791	894.25
410.014	888.25
410.238	888.25
410.461	882.25
410.685	899.25
410.908	886.25
411.132	935.25
411.355	952.25
411.578	961.25
411.802	938.25
412.025	981.25
412.249	991.25
412.472	946.25
412.695	929.25
412.919	957.25
413.142	969.25
413.365	1024.25
413.589	1039.25
413.812	950.25
414.035	904.25
414.258	924.25
414.482	1054.25
414.705	1094.25
414.928	895.25
415.151	856.25
415.374	873.25
415.597	922.25
415.821	908.25
416.044	920.25
416.267	891.25
416.49	873.25
416.713	853.25
416.936	848.25
417.159	836.25
417.382	872.25
417.605	894.25
417.828	935.25
418.051	896.25
418.274	954.25
418.497	906.25
418.72	904.25
418.943	964.25
419.166	985.25
419.389	1000.25
419.611	992.25
419.834	1019.25
420.057	1114.25
420.28	1117.25
420.503	1020.25
420.726	902.25
420.948	860.25
421.171	851.25
421.394	878.25
421.617	838.25
421.839	885.25
422.062	907.25
422.285	926.25
422.507	949.25
422.73	934.25
422.953	969.25
423.175	943.25
423.398	936.25
423.621	986.25
423.843	1063.25
424.066	975.25
424.288	948.25
424.511	882.25
424.733	881.25
424.956	975.25
425.178	1104.25
425.401	1214.25
425.623	1351.25
425.846	1139.25
426.068	978.25
426.291	1121.25
426.513	1043.25
426.735	939.25
426.958	975.25
427.18	1149.25
427.402	1536.25
427.625	1450.25
427.847	1188.25
428.069	900.25
428.292	873.25
428.514	905.25
428.736	859.25
428.958	960.25
429.181	1110.25
429.403	964.25
429.625	884.25
429.847	847.25
430.069	880.25
430.292	892.25
430.514	874.25
430.736	922.25
430.958	1195.25
431.18	1089.25
431.402	840.25
431.624	803.25
431.846	789.25
432.068	768.25
432.29	839.25
432.512	894.25
432.734	1218.25
432.956	1145.25
433.178	869.25
433.4	828.25
433.622	834.25
433.844	866.25
434.066	938.25
434.287	913.25
434.509	882.25
434.731	917.25
434.953	884.25
435.175	908.25
435.397	1038.25
435.618	865.25
435.84	844.25
436.062	826.25
436.284	866.25
436.505	809.25
436.727	788.25
436.949	802.25
437.17	846.25
437.392	827.25
437.614	819.25
437.835	798.25
438.057	830.25
438.278	958.25
438.5	1381.25
438.721	1386.25
438.943	946.25
439.165	802.25
439.386	754.25
439.608	781.25
439.829	783.25
440.05	806.25
440.272	837.25
440.493	1019.25
440.715	1242.25
440.936	986.25
441.158	829.25
441.379	862.25
441.6	975.25
441.822	1035.25
442.043	886.25
442.264	847.25
442.486	890.25
442.707	896.25
442.928	858.25
443.149	872.25
443.371	858.25
443.592	925.25
443.813	899.25
444.034	890.25
444.255	905.25
444.476	947.25
444.698	947.25
444.919	938.25
445.14	1058.25
445.361	1001.25
445.582	950.25
445.803	903.25
446.024	920.25
446.245	932.25
446.466	914.25
446.687	897.25
446.908	867.25
447.129	821.25
447.35	814.25
447.571	804.25
447.792	786.25
448.013	806.25
448.234	773.25
448.455	782.25
448.675	802.25
448.896	809.25
449.117	796.25
449.338	797.25
449.559	825.25
449.779	868.25
450	883.25
450.221	827.25
450.442	822.25
450.662	803.25
450.883	808.25
451.104	813.25
451.324	811.25
451.545	826.25
451.766	787.25
451.986	779.25
452.207	774.25
452.428	776.25
452.648	778.25
452.869	839.25
453.089	856.25
453.31	816.25
453.53	762.25
453.751	740.25
453.971	720.25
454.192	762.25
454.412	801.25
454.633	764.25
454.853	768.25
455.073	721.25
455.294	722.25
455.514	718.25
455.734	793.25
455.955	797.25
456.175	823.25
456.395	731.25
456.616	711.25
456.836	702.25
457.056	698.25
457.276	700.25
457.497	716.25
457.717	701.25
457.937	739.25
458.157	706.25
458.377	720.25
458.598	740.25
458.818	772.25
459.038	805.25
459.258	801.25
459.478	839.25
459.698	912.25
459.918	900.25
460.138	881.25
460.358	873.25
460.578	881.25
460.798	860.25
461.018	872.25
461.238	851.25
461.458	847.25
461.678	882.25
461.898	934.25
462.118	928.25
462.338	929.25
462.558	916.25
462.777	988.25
462.997	997.25
463.217	993.25
463.437	1035.25
463.657	1012.25
463.876	975.25
464.096	954.25
464.316	942.25
464.536	975.25
464.755	1010.25
464.975	1026.25
465.195	970.25
465.414	992.25
465.634	957.25
465.854	942.25
466.073	874.25
466.293	874.25
466.512	929.25
466.732	998.25
466.951	1017.25
467.171	938.25
467.391	886.25
467.61	872.25
467.829	897.25
468.049	960.25
468.268	904.25
468.488	876.25
468.707	902.25
468.927	1061.25
469.146	1144.25
469.365	1053.25
469.585	950.25
469.804	983.25
470.023	1106.25
470.243	961.25
470.462	904.25
470.681	933.25
470.901	910.25
471.12	966.25
471.339	980.25
471.558	950.25
471.777	942.25
471.997	998.25
472.216	1130.25
472.435	1042.25
472.654	966.25
472.873	962.25
473.092	997.25
473.311	1038.25
473.53	927.25
473.749	922.25
473.968	1002.25
474.187	995.25
474.406	927.25
474.625	918.25
474.844	928.25
475.063	1051.25
475.282	1033.25
475.501	1052.25
475.72	1097.25
475.939	1086.25
476.158	1102.25
476.377	1275.25
476.596	1477.25
476.814	1507.25
477.033	1232.25
477.252	1056.25
477.471	983.25
477.69	1002.25
477.908	1112.25
478.127	1104.25
478.346	1064.25
478.564	1104.25
478.783	1100.25
479.002	1097.25
479.22	1266.25
479.439	1392.25
479.658	1243.25
479.876	1110.25
480.095	1164.25
480.313	1216.25
480.532	1102.25
480.751	1084.25
480.969	1124.25
481.188	1272.25
481.406	1286.25
481.624	1238.25
481.843	1124.25
482.061	1036.25
482.28	1190.25
482.498	1450.25
482.717	1361.25
482.935	1176.25
483.153	1127.25
483.372	1066.25
483.59	1046.25
483.808	1063.25
484.027	1022.25
484.245	1003.25
484.463	968.25
484.681	1014.25
484.9	1090.25
485.118	1179.25
485.336	1109.25
485.554	1056.25
485.772	1072.25
485.99	1167.25
486.209	1249.25
486.427	1237.25
486.645	1206.25
486.863	1208.25
487.081	1242.25
487.299	1376.25
487.517	1331.25
487.735	1206.25
487.953	1236.25
488.171	1271.25
488.389	1192.25
488.607	1104.25
488.825	1160.25
489.043	1249.25
489.261	1460.25
489.479	1562.25
489.696	1289.25
489.914	1170.25
490.132	1128.25
490.35	1142.25
490.568	1118.25
490.786	1118.25
491.003	1114.25
491.221	1187.25
491.439	1134.25
491.657	1115.25
491.874	1191.25
492.092	1501.25
492.31	1753.25
492.527	1757.25
492.745	1528.25
492.963	1314.25
493.18	1306.25
493.398	1279.25
493.615	1296.25
493.833	1240.25
494.05	1242.25
494.268	1242.25
494.485	1231.25
494.703	1175.25
494.92	1247.25
495.138	1221.25
495.355	1216.25
495.573	1232.25
495.79	1390.25
496.008	1817.25
496.225	1572.25
496.442	1354.25
496.66	1340.25
496.877	1427.25
497.094	1402.25
497.312	1289.25
497.529	1280.25
497.746	1307.25
497.963	1393.25
498.181	1473.25
498.398	1569.25
498.615	1627.25
498.832	1685.25
499.049	1698.25
499.267	1518.25
499.484	1499.25
499.701	1602.25
499.918	1737.25
500.135	1881.25
500.352	1914.25
500.569	1988.25
500.786	2008.25
501.003	2018.25
501.22	1832.25
501.437	1703.25
501.654	1640.25
501.871	1606.25
502.088	1635.25
502.305	1504.25
502.522	1505.25
502.739	1507.25
502.956	1386.25
503.172	1366.25
503.389	1283.25
503.606	1280.25
503.823	1330.25
504.04	1332.25
504.256	1298.25
504.473	1314.25
504.69	1330.25
504.907	1404.25
505.123	1370.25
505.34	1459.25
505.557	1390.25
505.773	1308.25
505.99	1232.25
506.207	1330.25
506.423	1270.25
506.64	1152.25
506.856	1230.25
507.073	1330.25
507.289	1318.25
507.506	1323.25
507.722	1416.25
507.939	1437.25
508.155	1449.25
508.372	1316.25
508.588	1276.25
508.805	1210.25
509.021	1238.25
509.238	1177.25
509.454	1171.25
509.67	1191.25
509.887	1199.25
510.103	1320.25
510.319	1312.25
510.536	1196.25
510.752	1072.25
510.968	1068.25
511.184	1023.25
511.401	1031.25
511.617	1042.25
511.833	1053.25
512.049	1072.25
512.265	1094.25
512.481	1124.25
512.698	1230.25
512.914	1356.25
513.13	1208.25
513.346	1106.25
513.562	1168.25
513.778	1168.25
513.994	1145.25
514.21	1238.25
514.426	1198.25
514.642	1139.25
514.858	1111.25
515.074	1170.25
515.29	1288.25
515.506	1435.25
515.721	1306.25
515.937	1256.25
516.153	1149.25
516.369	1166.25
516.585	1202.25
516.801	1373.25
517.016	1607.25
517.232	1540.25
517.448	1532.25
517.664	1385.25
517.879	1258.25
518.095	1245.25
518.311	1278.25
518.527	1303.25
518.742	1375.25
518.958	1426.25
519.173	1412.25
519.389	1338.25
519.605	1385.25
519.82	1494.25
520.036	1691.25
520.251	1694.25
520.467	1601.25
520.682	2406.25
520.898	2902.25
521.113	2751.25
521.329	1758.25
521.544	1505.25
521.76	1546.25
521.975	1376.25
522.19	1256.25
522.406	1304.25
522.621	1437.25
522.836	1511.25
523.052	1506.25
523.267	1304.25
523.482	1293.25
523.698	1380.25
523.913	1324.25
524.128	1246.25
524.343	1138.25
524.559	1163.25
524.774	1131.25
524.989	1138.25
525.204	1185.25
525.419	1310.25
525.634	1216.25
525.849	1283.25
526.064	1250.25
526.28	1282.25
526.495	1486.25
526.71	1531.25
526.925	1326.25
527.14	1392.25
527.355	1348.25
527.57	1166.25
527.785	1182.25
527.999	1142.25
528.214	1068.25
528.429	1084.25
528.644	1066.25
528.859	1002.25
529.074	994.25
529.289	960.25
529.503	991.25
529.718	1034.25
529.933	1162.25
530.148	1222.25
530.363	1034.25
530.577	1003.25
530.792	965.25
531.007	968.25
531.221	970.25
531.436	958.25
531.651	986.25
531.865	1006.25
532.08	1011.25
532.295	978.25
532.509	1034.25
532.724	1162.25
532.938	1305.25
533.153	1527.25
533.367	1218.25
533.582	1180.25
533.796	1097.25
534.011	1026.25
534.225	1060.25
534.44	1082.25
534.654	1103.25
534.868	1276.25
535.083	1098.25
535.297	1031.25
535.511	1017.25
535.726	1113.25
535.94	1070.25
536.154	1020.25
536.369	996.25
536.583	1010.25
536.797	1076.25
537.011	1057.25
537.225	1123.25
537.44	1183.25
537.654	1020.25
537.868	1015.25
538.082	1023.25
538.296	1022.25
538.51	1082.25
538.724	1113.25
538.938	1055.25
539.153	1003.25
539.367	964.25
539.581	1000.25
539.795	996.25
540.009	1127.25
540.222	1059.25
540.436	1050.25
540.65	1144.25
540.864	1146.25
541.078	1175.25
541.292	1360.25
541.506	1125.25
541.72	1100.25
541.934	1029.25
542.147	1014.25
542.361	1047.25
542.575	1080.25
542.789	1047.25
543.002	937.25
543.216	1058.25
543.43	942.25
543.644	967.25
543.857	900.25
544.071	952.25
544.285	950.25
544.498	876.25
544.712	927.25
544.925	998.25
545.139	948.25
545.352	899.25
545.566	908.25
545.779	1039.25
545.993	922.25
546.206	858.25
546.42	882.25
546.633	879.25
546.847	850.25
547.06	854.25
547.274	847.25
547.487	877.25
547.7	959.25
547.914	1018.25
548.127	1100.25
548.34	1094.25
548.554	956.25
548.767	1009.25
548.98	1043.25
549.193	1000.25
549.407	1037.25
549.62	1184.25
549.833	1107.25
550.046	1164.25
550.259	1171.25
550.473	1031.25
550.686	957.25
550.899	996.25
551.112	983.25
551.325	1015.25
551.538	1081.25
551.751	946.25
551.964	902.25
552.177	895.25
552.39	860.25
552.603	900.25
552.816	928.25
553.029	882.25
553.242	842.25
553.455	914.25
553.667	1019.25
553.88	956.25
554.093	902.25
554.306	829.25
554.519	818.25
554.732	790.25
554.944	772.25
555.157	811.25
555.37	785.25
555.583	752.25
555.795	818.25
556.008	801.25
556.221	802.25
556.433	798.25
556.646	776.25
556.859	786.25
557.071	807.25
557.284	844.25
557.496	835.25
557.709	823.25
557.921	803.25
558.134	751.25
558.346	731.25
558.559	713.25
558.771	747.25
558.984	816.25
559.196	760.25
559.409	737.25
559.621	716.25
559.833	707.25
560.046	731.25
560.258	737.25
560.47	734.25
560.683	710.25
560.895	674.25
561.107	667.25
561.32	666.25
561.532	671.25
561.744	742.25
561.956	774.25
562.168	694.25
562.381	716.25
562.593	727.25
562.805	744.25
563.017	695.25
563.229	683.25
563.441	669.25
563.653	667.25
563.865	699.25
564.077	687.25
564.289	674.25
564.501	706.25
564.713	741.25
564.925	735.25
565.137	677.25
565.349	692.25
565.561	669.25
565.773	707.25
565.985	744.25
566.197	791.25
566.408	843.25
566.62	849.25
566.832	824.25
567.044	842.25
567.255	897.25
567.467	980.25
567.679	886.25
567.891	862.25
568.102	903.25
568.314	914.25
568.526	842.25
568.737	830.25
568.949	859.25
569.161	747.25
569.372	679.25
569.584	678.25
569.795	680.25
570.007	691.25
570.218	741.25
570.43	751.25
570.641	726.25
570.853	649.25
571.064	646.25
571.276	668.25
571.487	719.25
571.698	666.25
571.91	688.25
572.121	658.25
572.333	619.25
572.544	605.25
572.755	614.25
572.966	592.25
573.178	618.25
573.389	649.25
573.6	631.25
573.811	624.25
574.023	581.25
574.234	578.25
574.445	593.25
574.656	577.25
574.867	600.25
575.078	580.25
575.289	590.25
575.501	649.25
575.712	584.25
575.923	555.25
576.134	536.25
576.345	553.25
576.556	574.25
576.767	540.25
576.978	538.25
577.188	511.25
577.399	518.25
577.61	530.25
577.821	523.25
578.032	566.25
578.243	578.25
578.454	583.25
578.665	559.25
578.875	547.25
579.086	559.25
579.297	556.25
579.508	567.25
579.718	551.25
579.929	536.25
580.14	528.25
580.35	507.25
580.561	504.25
580.772	474.25
580.982	465.25
581.193	479.25
581.403	473.25
581.614	461.25
581.825	471.25
582.035	458.25
582.246	455.25
582.456	463.25
582.667	469.25
582.877	472.25
583.087	476.25
583.298	452.25
583.508	444.25
583.719	454.25
583.929	456.25
584.139	467.25
584.35	478.25
584.56	484.25
584.77	478.25
584.981	480.25
585.191	440.25
585.401	460.25
585.611	500.25
585.821	498.25
586.032	493.25
586.242	479.25
586.452	482.25
586.662	450.25
586.872	496.25
587.082	517.25
587.292	475.25
587.502	457.25
587.713	471.25
587.923	463.25
588.133	500.25
588.343	466.25
588.553	452.25
588.762	459.25
588.972	451.25
589.182	460.25
589.392	466.25
589.602	456.25
589.812	479.25
590.022	501.25
590.232	506.25
590.441	458.25
590.651	450.25
590.861	454.25
591.071	443.25
591.281	453.25
591.49	448.25
591.7	440.25
591.91	462.25
592.119	454.25
592.329	448.25
592.539	458.25
592.748	469.25
592.958	471.25
593.167	474.25
593.377	476.25
593.587	507.25
593.796	472.25
594.006	486.25
594.215	486.25
594.424	476.25
594.634	498.25
594.843	487.25
595.053	464.25
595.262	437.25
595.472	446.25
595.681	440.25
595.89	422.25
596.1	438.25
596.309	426.25
596.518	433.25
596.727	410.25
596.937	426.25
597.146	405.25
597.355	466.25
597.564	436.25
597.774	418.25
597.983	418.25
598.192	396.25
598.401	394.25
598.61	386.25
598.819	388.25
599.028	382.25
599.237	405.25
599.446	380.25
599.655	363.25
599.864	360.25
600.073	388.25
600.282	386.25
600.491	380.25
600.7	396.25
600.909	401.25
601.118	401.25
601.327	365.25
601.536	383.25
601.745	360.25
601.953	418.25
602.162	394.25
602.371	395.25
602.58	417.25
602.789	403.25
602.997	382.25
603.206	359.25
603.415	382.25
603.623	339.25
603.832	360.25
604.041	355.25
604.249	360.25
604.458	390.25
604.666	361.25
604.875	344.25
605.084	345.25
605.292	348.25
605.501	374.25
605.709	382.25
605.918	372.25
606.126	360.25
606.334	348.25
606.543	351.25
606.751	348.25
606.96	360.25
607.168	349.25
607.376	328.25
607.585	350.25
607.793	348.25
608.001	360.25
608.21	354.25
608.418	358.25
608.626	345.25
608.834	340.25
609.043	362.25
609.251	345.25
609.459	341.25
609.667	341.25
609.875	356.25
610.083	339.25
610.291	361.25
610.499	343.25
610.707	331.25
610.916	329.25
611.124	342.25
611.332	332.25
611.54	332.25
611.748	331.25
611.955	345.25
612.163	328.25
612.371	342.25
612.579	345.25
612.787	324.25
612.995	322.25
613.203	345.25
613.411	335.25
613.618	330.25
613.826	349.25
614.034	360.25
614.242	336.25
614.449	310.25
614.657	328.25
614.865	308.25
615.072	306.25
615.28	317.25
615.488	327.25
615.695	340.25
615.903	326.25
616.111	343.25
616.318	332.25
616.526	305.25
616.733	322.25
616.941	319.25
617.148	336.25
617.356	314.25
617.563	323.25
617.771	305.25
617.978	306.25
618.185	311.25
618.393	317.25
618.6	316.25
618.807	324.25
619.015	318.25
619.222	306.25
619.429	323.25
619.637	287.25
619.844	307.25
620.051	304.25
620.258	316.25
620.466	303.25
620.673	291.25
620.88	290.25
621.087	286.25
621.294	283.25
621.501	282.25
621.708	286.25
621.915	298.25
622.122	281.25
622.329	292.25
622.536	294.25
622.743	303.25
622.95	286.25
623.157	282.25
623.364	306.25
623.571	299.25
623.778	302.25
623.985	302.25
624.192	308.25
624.399	300.25
624.606	313.25
624.812	297.25
625.019	299.25
625.226	320.25
625.433	315.25
625.639	283.25
625.846	285.25
626.053	260.25
626.259	272.25
626.466	283.25
626.673	302.25
626.879	278.25
627.086	270.25
627.293	277.25
627.499	274.25
627.706	262.25
627.912	276.25
628.119	234.25
628.325	260.25
628.532	269.25
628.738	255.25
628.945	271.25
629.151	265.25
629.357	250.25
629.564	246.25
629.77	257.25
629.976	258.25
630.183	248.25
630.389	242.25
630.595	271.25
630.802	255.25
631.008	245.25
631.214	255.25
631.42	252.25
631.627	241.25
631.833	272.25
632.039	248.25
632.245	233.25
632.451	249.25
632.657	255.25
632.863	255.25
633.069	233.25
633.275	248.25
633.481	227.25
633.688	260.25
633.893	240.25
634.099	250.25
634.305	228.25
634.511	238.25
634.717	223.25
634.923	233.25
635.129	226.25
635.335	226.25
635.541	254.25
635.747	243.25
635.952	243.25
636.158	256.25
636.364	234.25
636.57	247.25
636.775	258.25
636.981	216.25
637.187	244.25
637.392	238.25
637.598	228.25
637.804	240.25
638.009	218.25
638.215	227.25
638.421	223.25
638.626	221.25
638.832	220.25
639.037	227.25
639.243	208.25
639.448	218.25
639.654	228.25
639.859	229.25
640.065	230.25
640.27	244.25
640.475	242.25
640.681	209.25
640.886	224.25
641.091	231.25
641.297	237.25
641.502	227.25
641.707	218.25
641.913	211.25
642.118	208.25
642.323	234.25
642.528	218.25
642.733	228.25
642.939	218.25
643.144	218.25
643.349	228.25
643.554	212.25
643.759	204.25
643.964	201.25
644.169	210.25
644.374	217.25
644.579	205.25
644.784	225.25
644.989	204.25
645.194	212.25
645.399	218.25
645.604	207.25
645.809	202.25
646.014	211.25
646.219	222.25
646.423	206.25
646.628	199.25
646.833	217.25
647.038	239.25
647.243	203.25
647.447	204.25
647.652	212.25
647.857	208.25
648.062	226.25
648.266	207.25
648.471	218.25
648.676	222.25
648.88	203.25
649.085	212.25
649.289	209.25
649.494	200.25
649.698	203.25
649.903	208.25
650.107	209.25
650.312	193.25
650.516	188.25
650.721	184.25
650.925	179.25
651.13	190.25
651.334	186.25
651.539	190.25
651.743	189.25
651.947	182.25
652.152	186.25
652.356	175.25
652.56	178.25
652.764	186.25
652.969	184.25
653.173	167.25
653.377	155.25
653.581	167.25
653.785	170.25
653.99	178.25
654.194	174.25
654.398	152.25
654.602	170.25
654.806	174.25
655.01	169.25
655.214	159.25
655.418	152.25
655.622	170.25
655.826	146.25
656.03	163.25
656.234	171.25
656.438	166.25
656.642	162.25
656.846	151.25
657.049	150.25
657.253	148.25
657.457	142.25
657.661	134.25
657.865	140.25
658.068	130.25
658.272	126.25
658.476	135.25
658.68	133.25
658.883	122.25
659.087	114.25
659.291	123.25
659.494	112.25
659.698	113.25
659.901	104.25
660.105	116.25
660.309	100.25
660.512	107.25
660.716	108.25
660.919	98.25
661.123	107.25
661.326	98.25
661.53	98.25
661.733	98.25
661.936	100.25
662.14	111.25
662.343	79.25
662.546	81.25
662.75	94.25
662.953	96.25
663.156	85.25
663.36	89.25
663.563	88.25
663.766	89.25
663.969	103.25
664.173	72.25
664.376	89.25
664.579	91.25
664.782	82.25
664.985	96.25
665.188	76.25
665.391	85.25
665.594	71.25
665.797	93.25
666	86.25
666.203	89.25
666.406	80.25
666.609	88.25
666.812	76.25
667.015	91.25
667.218	86.25
667.421	82.25
667.624	88.25
667.827	85.25
668.03	87.25
668.232	88.25
668.435	76.25
668.638	86.25
668.841	81.25
669.043	70.25
669.246	75.25
669.449	85.25
669.651	81.25
669.854	94.25
670.057	85.25
670.259	76.25
670.462	72.25
670.665	84.25
670.867	67.25
671.07	99.25
671.272	84.25
671.475	100.25
671.677	79.25
671.88	82.25
672.082	83.25
672.284	88.25
672.487	85.25
672.689	82.25
672.892	84.25
