Data from NickelSpatula.Lamp.E10.P2_HRD10591_12-00-01-523.txt Node
Date: Tue Jul 23 12:00:01 EDT 2019
User: cochatt
Spectrometer: HR+D1059
Trigger mode: 1
Integration Time (sec): 1.000000E-1
Scans to average: 1
Electric dark correction enabled: true
Nonlinearity correction enabled: false
Boxcar width: 0
XAxis mode: Wavelengths
Number of Pixels in Spectrum: 2048
>>>>>Begin Spectral Data<<<<<
223.165	-14.5
223.4	-14.5
223.635	-14.5
223.869	-10.5
224.104	-20.5
224.338	-16.5
224.573	-15.5
224.808	-15.5
225.042	4.5
225.277	-1.5
225.511	5.5
225.746	-1.5
225.98	-3.5
226.215	-0.5
226.449	7.5
226.683	21.5
226.918	22.5
227.152	38.5
227.387	45.5
227.621	25.5
227.856	44.5
228.09	33.5
228.324	49.5
228.559	58.5
228.793	73.5
229.027	143.5
229.262	150.5
229.496	165.5
229.73	157.5
229.964	189.5
230.199	202.5
230.433	230.5
230.667	217.5
230.901	206.5
231.136	181.5
231.37	200.5
231.604	227.5
231.838	233.5
232.072	255.5
232.306	236.5
232.541	251.5
232.775	251.5
233.009	255.5
233.243	301.5
233.477	284.5
233.711	352.5
233.945	335.5
234.179	325.5
234.413	343.5
234.647	389.5
234.881	477.5
235.115	423.5
235.349	410.5
235.583	374.5
235.817	354.5
236.051	391.5
236.285	439.5
236.519	475.5
236.753	441.5
236.987	434.5
237.221	405.5
237.455	411.5
237.689	432.5
237.922	445.5
238.156	480.5
238.39	562.5
238.624	667.5
238.858	580.5
239.091	501.5
239.325	523.5
239.559	494.5
239.793	537.5
240.027	647.5
240.26	591.5
240.494	604.5
240.728	610.5
240.961	703.5
241.195	649.5
241.429	639.5
241.662	610.5
241.896	526.5
242.13	482.5
242.363	462.5
242.597	482.5
242.83	521.5
243.064	536.5
243.298	608.5
243.531	617.5
243.765	637.5
243.998	629.5
244.232	609.5
244.465	593.5
244.699	601.5
244.932	655.5
245.166	625.5
245.399	570.5
245.633	542.5
245.866	568.5
246.099	627.5
246.333	734.5
246.566	777.5
246.8	788.5
247.033	751.5
247.266	689.5
247.5	689.5
247.733	692.5
247.966	669.5
248.2	702.5
248.433	785.5
248.666	847.5
248.899	837.5
249.133	883.5
249.366	1003.5
249.599	1071.5
249.832	934.5
250.066	868.5
250.299	854.5
250.532	824.5
250.765	772.5
250.998	740.5
251.231	710.5
251.465	797.5
251.698	851.5
251.931	801.5
252.164	838.5
252.397	960.5
252.63	1053.5
252.863	1144.5
253.096	1220.5
253.329	1133.5
253.562	1133.5
253.795	1247.5
254.028	1418.5
254.261	1419.5
254.494	1224.5
254.727	1144.5
254.96	1115.5
255.193	1203.5
255.426	1134.5
255.659	847.5
255.892	781.5
256.124	861.5
256.357	1013.5
256.59	1211.5
256.823	1140.5
257.056	952.5
257.289	918.5
257.521	975.5
257.754	1158.5
257.987	1297.5
258.22	1129.5
258.452	1007.5
258.685	1147.5
258.918	1340.5
259.151	1245.5
259.383	1327.5
259.616	1501.5
259.849	1564.5
260.081	1697.5
260.314	1939.5
260.547	1477.5
260.779	1477.5
261.012	1709.5
261.244	1598.5
261.477	1681.5
261.71	1569.5
261.942	1303.5
262.175	1319.5
262.407	1274.5
262.64	1302.5
262.872	1507.5
263.105	1648.5
263.337	1745.5
263.57	1568.5
263.802	1040.5
264.035	914.5
264.267	893.5
264.499	781.5
264.732	697.5
264.964	685.5
265.197	725.5
265.429	773.5
265.661	823.5
265.894	849.5
266.126	919.5
266.358	1025.5
266.591	1273.5
266.823	1507.5
267.055	1438.5
267.287	1244.5
267.52	1255.5
267.752	1352.5
267.984	1472.5
268.216	1373.5
268.448	1133.5
268.681	1095.5
268.913	1233.5
269.145	1252.5
269.377	1317.5
269.609	1302.5
269.841	1201.5
270.073	1279.5
270.306	1362.5
270.538	1397.5
270.77	1395.5
271.002	1395.5
271.234	1489.5
271.466	1454.5
271.698	1495.5
271.93	1440.5
272.162	1458.5
272.394	1418.5
272.626	1407.5
272.858	1474.5
273.09	1506.5
273.322	1340.5
273.553	1257.5
273.785	1518.5
274.017	1983.5
274.249	2505.5
274.481	2580.5
274.713	2771.5
274.945	3238.5
275.176	3315.5
275.408	2886.5
275.64	2691.5
275.872	2654.5
276.104	2243.5
276.335	1913.5
276.567	1919.5
276.799	1975.5
277.031	2064.5
277.262	1651.5
277.494	1242.5
277.726	1230.5
277.957	1303.5
278.189	1497.5
278.421	1439.5
278.652	1467.5
278.884	1361.5
279.115	1266.5
279.347	1190.5
279.579	1174.5
279.81	1189.5
280.042	1218.5
280.273	1251.5
280.505	1129.5
280.736	981.5
280.968	1009.5
281.199	1069.5
281.431	1223.5
281.662	1230.5
281.894	1157.5
282.125	1247.5
282.356	1353.5
282.588	1421.5
282.819	1278.5
283.051	1399.5
283.282	1700.5
283.513	1965.5
283.745	2213.5
283.976	2191.5
284.207	2022.5
284.439	2130.5
284.67	2047.5
284.901	1792.5
285.132	1944.5
285.364	2004.5
285.595	1900.5
285.826	1993.5
286.057	2082.5
286.288	1991.5
286.52	2028.5
286.751	2131.5
286.982	2124.5
287.213	1805.5
287.444	1807.5
287.675	1872.5
287.906	1824.5
288.138	1517.5
288.369	1369.5
288.6	1281.5
288.831	1364.5
289.062	1559.5
289.293	1731.5
289.524	1616.5
289.755	1601.5
289.986	1611.5
290.217	1459.5
290.448	1131.5
290.679	979.5
290.91	921.5
291.141	916.5
291.371	938.5
291.602	977.5
291.833	984.5
292.064	1030.5
292.295	1221.5
292.526	1389.5
292.757	1441.5
292.987	1575.5
293.218	1590.5
293.449	1611.5
293.68	1728.5
293.91	1573.5
294.141	1593.5
294.372	1492.5
294.603	1427.5
294.833	1575.5
295.064	1859.5
295.295	1719.5
295.525	1306.5
295.756	1141.5
295.987	985.5
296.217	990.5
296.448	1019.5
296.679	1104.5
296.909	1238.5
297.14	1296.5
297.37	1452.5
297.601	1347.5
297.831	1159.5
298.062	1263.5
298.292	1422.5
298.523	1556.5
298.753	1792.5
298.984	1616.5
299.214	1254.5
299.445	1073.5
299.675	1058.5
299.905	1041.5
300.136	1078.5
300.366	1175.5
300.597	1140.5
300.827	1021.5
301.057	995.5
301.288	1044.5
301.518	1067.5
301.748	1220.5
301.979	1327.5
302.209	1433.5
302.439	1423.5
302.669	1227.5
302.9	1246.5
303.13	1142.5
303.36	1087.5
303.59	1047.5
303.82	1094.5
304.051	1235.5
304.281	1295.5
304.511	1259.5
304.741	1131.5
304.971	1196.5
305.201	1284.5
305.431	1188.5
305.661	1054.5
305.891	1058.5
306.121	1063.5
306.352	933.5
306.582	867.5
306.812	852.5
307.042	846.5
307.272	798.5
307.502	811.5
307.731	899.5
307.961	891.5
308.191	854.5
308.421	807.5
308.651	801.5
308.881	764.5
309.111	736.5
309.341	800.5
309.571	900.5
309.8	901.5
310.03	920.5
310.26	971.5
310.49	965.5
310.72	877.5
310.949	849.5
311.179	892.5
311.409	931.5
311.639	1090.5
311.868	1424.5
312.098	1801.5
312.328	1963.5
312.557	1884.5
312.787	1903.5
313.017	1665.5
313.246	1804.5
313.476	1969.5
313.706	1590.5
313.935	1293.5
314.165	1078.5
314.394	969.5
314.624	941.5
314.853	1024.5
315.083	1019.5
315.312	1003.5
315.542	1009.5
315.771	928.5
316.001	866.5
316.23	819.5
316.46	817.5
316.689	847.5
316.919	902.5
317.148	917.5
317.377	880.5
317.607	891.5
317.836	944.5
318.065	1105.5
318.295	1245.5
318.524	1117.5
318.753	961.5
318.983	926.5
319.212	923.5
319.441	979.5
319.67	1147.5
319.9	1209.5
320.129	1125.5
320.358	973.5
320.587	957.5
320.816	1010.5
321.046	1202.5
321.275	1280.5
321.504	1341.5
321.733	1262.5
321.962	1233.5
322.191	1129.5
322.42	1090.5
322.649	1089.5
322.878	1208.5
323.108	1174.5
323.337	1100.5
323.566	1071.5
323.795	1025.5
324.024	1023.5
324.253	963.5
324.482	967.5
324.71	1050.5
324.939	1198.5
325.168	1122.5
325.397	940.5
325.626	900.5
325.855	924.5
326.084	920.5
326.313	855.5
326.542	826.5
326.77	862.5
326.999	882.5
327.228	934.5
327.457	1003.5
327.686	1011.5
327.914	859.5
328.143	821.5
328.372	829.5
328.6	834.5
328.829	848.5
329.058	881.5
329.287	868.5
329.515	893.5
329.744	870.5
329.972	817.5
330.201	796.5
330.43	823.5
330.658	931.5
330.887	1060.5
331.115	1008.5
331.344	972.5
331.572	973.5
331.801	866.5
332.03	840.5
332.258	864.5
332.486	924.5
332.715	954.5
332.943	915.5
333.172	905.5
333.4	929.5
333.629	1059.5
333.857	1078.5
334.085	1076.5
334.314	1131.5
334.542	1021.5
334.771	965.5
334.999	926.5
335.227	917.5
335.455	949.5
335.684	1037.5
335.912	1193.5
336.14	1288.5
336.369	1285.5
336.597	1195.5
336.825	1331.5
337.053	1515.5
337.281	1217.5
337.51	995.5
337.738	935.5
337.966	1057.5
338.194	1169.5
338.422	1096.5
338.65	950.5
338.878	871.5
339.106	897.5
339.334	996.5
339.562	1099.5
339.79	1024.5
340.018	973.5
340.246	1035.5
340.474	1174.5
340.702	1266.5
340.93	1302.5
341.158	1290.5
341.386	1115.5
341.614	1125.5
341.842	1115.5
342.07	1151.5
342.298	1313.5
342.526	1387.5
342.754	1189.5
342.981	1077.5
343.209	1014.5
343.437	1120.5
343.665	1193.5
343.893	1158.5
344.12	1383.5
344.348	1569.5
344.576	1398.5
344.804	1195.5
345.031	1037.5
345.259	956.5
345.487	982.5
345.714	1035.5
345.942	1113.5
346.17	1202.5
346.397	1121.5
346.625	979.5
346.853	974.5
347.08	935.5
347.308	1005.5
347.535	1098.5
347.763	1125.5
347.99	977.5
348.218	906.5
348.445	939.5
348.673	954.5
348.9	947.5
349.128	1014.5
349.355	1069.5
349.583	1029.5
349.81	972.5
350.037	931.5
350.265	815.5
350.492	785.5
350.72	794.5
350.947	818.5
351.174	871.5
351.402	937.5
351.629	951.5
351.856	928.5
352.083	877.5
352.311	970.5
352.538	1069.5
352.765	1114.5
352.992	1040.5
353.22	973.5
353.447	992.5
353.674	931.5
353.901	932.5
354.128	971.5
354.355	967.5
354.583	990.5
354.81	943.5
355.037	995.5
355.264	980.5
355.491	1056.5
355.718	1138.5
355.945	1107.5
356.172	1091.5
356.399	1049.5
356.626	1301.5
356.853	1616.5
357.08	1693.5
357.307	1729.5
357.534	1346.5
357.761	1403.5
357.988	1739.5
358.215	2041.5
358.441	1889.5
358.668	1618.5
358.895	1474.5
359.122	1195.5
359.349	1193.5
359.576	1271.5
359.802	1074.5
360.029	950.5
360.256	1002.5
360.483	1270.5
360.709	1638.5
360.936	1650.5
361.163	1472.5
361.39	1121.5
361.616	1037.5
361.843	1174.5
362.07	1508.5
362.296	1333.5
362.523	1057.5
362.749	939.5
362.976	969.5
363.203	1175.5
363.429	1351.5
363.656	1077.5
363.882	972.5
364.109	979.5
364.335	986.5
364.562	964.5
364.788	1115.5
365.015	1271.5
365.241	1110.5
365.468	923.5
365.694	817.5
365.92	812.5
366.147	782.5
366.373	772.5
366.599	784.5
366.826	787.5
367.052	813.5
367.278	835.5
367.505	817.5
367.731	893.5
367.957	989.5
368.184	1019.5
368.41	1014.5
368.636	1021.5
368.862	1042.5
369.089	994.5
369.315	910.5
369.541	879.5
369.767	856.5
369.993	837.5
370.219	855.5
370.445	909.5
370.672	995.5
370.898	1076.5
371.124	1095.5
371.35	960.5
371.576	867.5
371.802	930.5
372.028	1166.5
372.254	1286.5
372.48	1126.5
372.706	1017.5
372.932	1070.5
373.158	1090.5
373.384	1365.5
373.61	1773.5
373.835	1861.5
374.061	1354.5
374.287	1148.5
374.513	1380.5
374.739	1630.5
374.965	1677.5
375.191	1631.5
375.416	1170.5
375.642	1023.5
375.868	1190.5
376.094	1378.5
376.319	1166.5
376.545	1269.5
376.771	1333.5
376.997	1171.5
377.222	878.5
377.448	721.5
377.674	724.5
377.899	758.5
378.125	760.5
378.35	745.5
378.576	777.5
378.802	854.5
379.027	932.5
379.253	887.5
379.478	915.5
379.704	1035.5
379.929	1058.5
380.155	1072.5
380.38	949.5
380.606	972.5
380.831	1089.5
381.057	1035.5
381.282	971.5
381.507	1130.5
381.733	1414.5
381.958	1498.5
382.184	1605.5
382.409	1650.5
382.634	1671.5
382.86	1734.5
383.085	1397.5
383.31	1143.5
383.535	1199.5
383.761	1239.5
383.986	1179.5
384.211	1387.5
384.436	1327.5
384.662	1033.5
384.887	960.5
385.112	1041.5
385.337	1036.5
385.562	972.5
385.787	1094.5
386.013	1226.5
386.238	1231.5
386.463	1008.5
386.688	989.5
386.913	950.5
387.138	903.5
387.363	962.5
387.588	987.5
387.813	973.5
388.038	1073.5
388.263	959.5
388.488	955.5
388.713	1082.5
388.938	1197.5
389.163	1036.5
389.387	878.5
389.612	887.5
389.837	929.5
390.062	974.5
390.287	989.5
390.512	983.5
390.736	935.5
390.961	839.5
391.186	854.5
391.411	826.5
391.636	868.5
391.86	911.5
392.085	1025.5
392.31	974.5
392.534	950.5
392.759	929.5
392.984	977.5
393.208	947.5
393.433	866.5
393.658	776.5
393.882	782.5
394.107	789.5
394.331	789.5
394.556	785.5
394.78	790.5
395.005	822.5
395.229	866.5
395.454	877.5
395.678	899.5
395.903	913.5
396.127	854.5
396.352	861.5
396.576	948.5
396.801	974.5
397.025	1070.5
397.249	1141.5
397.474	923.5
397.698	919.5
397.922	963.5
398.147	907.5
398.371	897.5
398.595	938.5
398.82	953.5
399.044	932.5
399.268	1004.5
399.492	1027.5
399.717	1031.5
399.941	1091.5
400.165	1043.5
400.389	1036.5
400.613	1045.5
400.837	1045.5
401.062	900.5
401.286	886.5
401.51	920.5
401.734	910.5
401.958	910.5
402.182	894.5
402.406	912.5
402.63	904.5
402.854	918.5
403.078	1082.5
403.302	1313.5
403.526	1369.5
403.75	1203.5
403.974	1037.5
404.198	1077.5
404.422	1188.5
404.645	1449.5
404.869	1558.5
405.093	1163.5
405.317	986.5
405.541	964.5
405.765	1004.5
405.988	976.5
406.212	1089.5
406.436	1315.5
406.66	1405.5
406.883	1133.5
407.107	1142.5
407.331	1328.5
407.555	1304.5
407.778	1074.5
408.002	1052.5
408.226	1054.5
408.449	1050.5
408.673	1010.5
408.896	914.5
409.12	894.5
409.344	897.5
409.567	889.5
409.791	866.5
410.014	916.5
410.238	879.5
410.461	896.5
410.685	881.5
410.908	896.5
411.132	913.5
411.355	907.5
411.578	932.5
411.802	924.5
412.025	951.5
412.249	975.5
412.472	934.5
412.695	909.5
412.919	926.5
413.142	950.5
413.365	1007.5
413.589	1017.5
413.812	924.5
414.035	916.5
414.258	921.5
414.482	1029.5
414.705	1063.5
414.928	881.5
415.151	859.5
415.374	878.5
415.597	882.5
415.821	912.5
416.044	909.5
416.267	869.5
416.49	853.5
416.713	857.5
416.936	855.5
417.159	831.5
417.382	885.5
417.605	875.5
417.828	902.5
418.051	903.5
418.274	956.5
418.497	897.5
418.72	937.5
418.943	975.5
419.166	960.5
419.389	1033.5
419.611	992.5
419.834	1011.5
420.057	1152.5
420.28	1106.5
420.503	1021.5
420.726	879.5
420.948	886.5
421.171	889.5
421.394	890.5
421.617	871.5
421.839	863.5
422.062	928.5
422.285	917.5
422.507	894.5
422.73	937.5
422.953	954.5
423.175	949.5
423.398	983.5
423.621	1007.5
423.843	1029.5
424.066	973.5
424.288	926.5
424.511	912.5
424.733	883.5
424.956	940.5
425.178	1081.5
425.401	1197.5
425.623	1376.5
425.846	1155.5
426.068	1001.5
426.291	1129.5
426.513	1031.5
426.735	932.5
426.958	997.5
427.18	1186.5
427.402	1486.5
427.625	1426.5
427.847	1222.5
428.069	883.5
428.292	909.5
428.514	879.5
428.736	835.5
428.958	943.5
429.181	1109.5
429.403	939.5
429.625	901.5
429.847	867.5
430.069	901.5
430.292	907.5
430.514	843.5
430.736	922.5
430.958	1182.5
431.18	1096.5
431.402	837.5
431.624	834.5
431.846	804.5
432.068	796.5
432.29	834.5
432.512	925.5
432.734	1209.5
432.956	1109.5
433.178	871.5
433.4	865.5
433.622	843.5
433.844	886.5
434.066	919.5
434.287	890.5
434.509	870.5
434.731	896.5
434.953	841.5
435.175	927.5
435.397	1041.5
435.618	893.5
435.84	821.5
436.062	817.5
436.284	828.5
436.505	805.5
436.727	783.5
436.949	810.5
437.17	848.5
437.392	821.5
437.614	809.5
437.835	821.5
438.057	839.5
438.278	974.5
438.5	1405.5
438.721	1349.5
438.943	901.5
439.165	813.5
439.386	770.5
439.608	812.5
439.829	757.5
440.05	771.5
440.272	851.5
440.493	1020.5
440.715	1221.5
440.936	975.5
441.158	855.5
441.379	865.5
441.6	971.5
441.822	1027.5
442.043	862.5
442.264	878.5
442.486	853.5
442.707	871.5
442.928	854.5
443.149	867.5
443.371	887.5
443.592	956.5
443.813	917.5
444.034	873.5
444.255	936.5
444.476	911.5
444.698	922.5
444.919	909.5
445.14	1015.5
445.361	990.5
445.582	929.5
445.803	919.5
446.024	939.5
446.245	903.5
446.466	907.5
446.687	860.5
446.908	879.5
447.129	843.5
447.35	803.5
447.571	797.5
447.792	802.5
448.013	793.5
448.234	777.5
448.455	774.5
448.675	817.5
448.896	769.5
449.117	810.5
449.338	781.5
449.559	799.5
449.779	888.5
450	843.5
450.221	820.5
450.442	782.5
450.662	766.5
450.883	774.5
451.104	803.5
451.324	776.5
451.545	791.5
451.766	799.5
451.986	778.5
452.207	753.5
452.428	780.5
452.648	755.5
452.869	797.5
453.089	839.5
453.31	823.5
453.53	753.5
453.751	748.5
453.971	757.5
454.192	759.5
454.412	811.5
454.633	749.5
454.853	747.5
455.073	705.5
455.294	714.5
455.514	695.5
455.734	766.5
455.955	801.5
456.175	796.5
456.395	732.5
456.616	690.5
456.836	692.5
457.056	699.5
457.276	681.5
457.497	715.5
457.717	721.5
457.937	721.5
458.157	720.5
458.377	723.5
458.598	721.5
458.818	779.5
459.038	817.5
459.258	827.5
459.478	823.5
459.698	885.5
459.918	887.5
460.138	856.5
460.358	895.5
460.578	867.5
460.798	896.5
461.018	900.5
461.238	859.5
461.458	859.5
461.678	864.5
461.898	921.5
462.118	923.5
462.338	942.5
462.558	955.5
462.777	983.5
462.997	1021.5
463.217	994.5
463.437	1031.5
463.657	1001.5
463.876	939.5
464.096	931.5
464.316	940.5
464.536	988.5
464.755	1046.5
464.975	1013.5
465.195	948.5
465.414	964.5
465.634	979.5
465.854	922.5
466.073	854.5
466.293	850.5
466.512	930.5
466.732	1044.5
466.951	1047.5
467.171	913.5
467.391	882.5
467.61	852.5
467.829	949.5
468.049	947.5
468.268	863.5
468.488	863.5
468.707	907.5
468.927	1063.5
469.146	1173.5
469.365	1019.5
469.585	941.5
469.804	1034.5
470.023	1083.5
470.243	945.5
470.462	902.5
470.681	913.5
470.901	913.5
471.12	963.5
471.339	978.5
471.558	941.5
471.777	922.5
471.997	1007.5
472.216	1123.5
472.435	1086.5
472.654	955.5
472.873	967.5
473.092	978.5
473.311	1056.5
473.53	970.5
473.749	940.5
473.968	980.5
474.187	973.5
474.406	904.5
474.625	919.5
474.844	961.5
475.063	1026.5
475.282	1021.5
475.501	1096.5
475.72	1139.5
475.939	1073.5
476.158	1081.5
476.377	1246.5
476.596	1425.5
476.814	1502.5
477.033	1248.5
477.252	1057.5
477.471	986.5
477.69	989.5
477.908	1054.5
478.127	1166.5
478.346	1078.5
478.564	1140.5
478.783	1106.5
479.002	1129.5
479.22	1300.5
479.439	1409.5
479.658	1221.5
479.876	1121.5
480.095	1205.5
480.313	1215.5
480.532	1145.5
480.751	1107.5
480.969	1122.5
481.188	1277.5
481.406	1266.5
481.624	1218.5
481.843	1131.5
482.061	1069.5
482.28	1205.5
482.498	1461.5
482.717	1367.5
482.935	1205.5
483.153	1123.5
483.372	1049.5
483.59	1039.5
483.808	1031.5
484.027	1022.5
484.245	991.5
484.463	999.5
484.681	1021.5
484.9	1108.5
485.118	1221.5
485.336	1065.5
485.554	1053.5
485.772	1092.5
485.99	1203.5
486.209	1226.5
486.427	1249.5
486.645	1164.5
486.863	1234.5
487.081	1230.5
487.299	1372.5
487.517	1364.5
487.735	1201.5
487.953	1241.5
488.171	1259.5
488.389	1152.5
488.607	1102.5
488.825	1169.5
489.043	1275.5
489.261	1414.5
489.479	1510.5
489.696	1282.5
489.914	1181.5
490.132	1091.5
490.35	1113.5
490.568	1140.5
490.786	1141.5
491.003	1129.5
491.221	1208.5
491.439	1130.5
491.657	1156.5
491.874	1216.5
492.092	1488.5
492.31	1784.5
492.527	1735.5
492.745	1547.5
492.963	1339.5
493.18	1318.5
493.398	1305.5
493.615	1270.5
493.833	1241.5
494.05	1236.5
494.268	1280.5
494.485	1242.5
494.703	1202.5
494.92	1208.5
495.138	1223.5
495.355	1230.5
495.573	1230.5
495.79	1374.5
496.008	1798.5
496.225	1551.5
496.442	1363.5
496.66	1311.5
496.877	1422.5
497.094	1420.5
497.312	1329.5
497.529	1303.5
497.746	1305.5
497.963	1396.5
498.181	1487.5
498.398	1581.5
498.615	1679.5
498.832	1687.5
499.049	1691.5
499.267	1533.5
499.484	1514.5
499.701	1628.5
499.918	1760.5
500.135	1833.5
500.352	1908.5
500.569	1994.5
500.786	2037.5
501.003	2006.5
501.22	1813.5
501.437	1713.5
501.654	1627.5
501.871	1639.5
502.088	1597.5
502.305	1513.5
502.522	1501.5
502.739	1485.5
502.956	1370.5
503.172	1395.5
503.389	1330.5
503.606	1251.5
503.823	1313.5
504.04	1314.5
504.256	1323.5
504.473	1329.5
504.69	1387.5
504.907	1401.5
505.123	1366.5
505.34	1429.5
505.557	1420.5
505.773	1333.5
505.99	1311.5
506.207	1382.5
506.423	1250.5
506.64	1194.5
506.856	1236.5
507.073	1380.5
507.289	1341.5
507.506	1339.5
507.722	1398.5
507.939	1453.5
508.155	1455.5
508.372	1312.5
508.588	1252.5
508.805	1213.5
509.021	1197.5
509.238	1157.5
509.454	1190.5
509.67	1175.5
509.887	1212.5
510.103	1297.5
510.319	1315.5
510.536	1163.5
510.752	1109.5
510.968	1042.5
511.184	1015.5
511.401	1026.5
511.617	1018.5
511.833	1045.5
512.049	1037.5
512.265	1082.5
512.481	1114.5
512.698	1262.5
512.914	1397.5
513.13	1226.5
513.346	1126.5
513.562	1171.5
513.778	1178.5
513.994	1181.5
514.21	1214.5
514.426	1207.5
514.642	1147.5
514.858	1138.5
515.074	1166.5
515.29	1299.5
515.506	1414.5
515.721	1348.5
515.937	1222.5
516.153	1147.5
516.369	1143.5
516.585	1215.5
516.801	1357.5
517.016	1635.5
517.232	1527.5
517.448	1511.5
517.664	1333.5
517.879	1254.5
518.095	1241.5
518.311	1265.5
518.527	1313.5
518.742	1385.5
518.958	1461.5
519.173	1357.5
519.389	1395.5
519.605	1421.5
519.82	1478.5
520.036	1729.5
520.251	1682.5
520.467	1581.5
520.682	2367.5
520.898	2898.5
521.113	2793.5
521.329	1723.5
521.544	1529.5
521.76	1493.5
521.975	1332.5
522.19	1279.5
522.406	1359.5
522.621	1440.5
522.836	1529.5
523.052	1555.5
523.267	1263.5
523.482	1278.5
523.698	1380.5
523.913	1366.5
524.128	1213.5
524.343	1159.5
524.559	1197.5
524.774	1121.5
524.989	1175.5
525.204	1148.5
525.419	1316.5
525.634	1213.5
525.849	1224.5
526.064	1227.5
526.28	1223.5
526.495	1501.5
526.71	1541.5
526.925	1366.5
527.14	1396.5
527.355	1351.5
527.57	1133.5
527.785	1175.5
527.999	1127.5
528.214	1073.5
528.429	1071.5
528.644	1059.5
528.859	1022.5
529.074	991.5
529.289	949.5
529.503	976.5
529.718	1007.5
529.933	1165.5
530.148	1195.5
530.363	1055.5
530.577	1017.5
530.792	994.5
531.007	991.5
531.221	958.5
531.436	995.5
531.651	1013.5
531.865	1021.5
532.08	1021.5
532.295	987.5
532.509	992.5
532.724	1216.5
532.938	1305.5
533.153	1522.5
533.367	1201.5
533.582	1163.5
533.796	1090.5
534.011	1019.5
534.225	1049.5
534.44	1067.5
534.654	1111.5
534.868	1269.5
535.083	1102.5
535.297	987.5
535.511	1012.5
535.726	1134.5
535.94	1076.5
536.154	1027.5
536.369	991.5
536.583	977.5
536.797	1015.5
537.011	1019.5
537.225	1116.5
537.44	1169.5
537.654	986.5
537.868	994.5
538.082	1038.5
538.296	1003.5
538.51	1099.5
538.724	1095.5
538.938	1032.5
539.153	969.5
539.367	959.5
539.581	992.5
539.795	1056.5
540.009	1144.5
540.222	1039.5
540.436	1051.5
540.65	1124.5
540.864	1150.5
541.078	1191.5
541.292	1358.5
541.506	1097.5
541.72	1053.5
541.934	1037.5
542.147	1006.5
542.361	1035.5
542.575	1080.5
542.789	1023.5
543.002	941.5
543.216	1070.5
543.43	950.5
543.644	934.5
543.857	924.5
544.071	921.5
544.285	925.5
544.498	941.5
544.712	906.5
544.925	999.5
545.139	938.5
545.352	879.5
545.566	925.5
545.779	1041.5
545.993	957.5
546.206	875.5
546.42	862.5
546.633	883.5
546.847	830.5
547.06	849.5
547.274	868.5
547.487	892.5
547.7	975.5
547.914	978.5
548.127	1103.5
548.34	1092.5
548.554	942.5
548.767	1009.5
548.98	1060.5
549.193	971.5
549.407	1019.5
549.62	1174.5
549.833	1095.5
550.046	1156.5
550.259	1158.5
550.473	1046.5
550.686	995.5
550.899	981.5
551.112	992.5
551.325	1053.5
551.538	1080.5
551.751	935.5
551.964	888.5
552.177	907.5
552.39	870.5
552.603	883.5
552.816	912.5
553.029	868.5
553.242	865.5
553.455	943.5
553.667	1046.5
553.88	962.5
554.093	889.5
554.306	845.5
554.519	806.5
554.732	791.5
554.944	774.5
555.157	771.5
555.37	763.5
555.583	770.5
555.795	789.5
556.008	794.5
556.221	834.5
556.433	801.5
556.646	767.5
556.859	784.5
557.071	813.5
557.284	820.5
557.496	870.5
557.709	811.5
557.921	772.5
558.134	755.5
558.346	725.5
558.559	717.5
558.771	731.5
558.984	802.5
559.196	777.5
559.409	723.5
559.621	689.5
559.833	685.5
560.046	726.5
560.258	700.5
560.47	735.5
560.683	709.5
560.895	661.5
561.107	647.5
561.32	676.5
561.532	666.5
561.744	785.5
561.956	784.5
562.168	724.5
562.381	698.5
562.593	724.5
562.805	741.5
563.017	715.5
563.229	681.5
563.441	676.5
563.653	672.5
563.865	706.5
564.077	705.5
564.289	659.5
564.501	682.5
564.713	748.5
564.925	714.5
565.137	695.5
565.349	701.5
565.561	689.5
565.773	694.5
565.985	725.5
566.197	772.5
566.408	862.5
566.62	845.5
566.832	838.5
567.044	843.5
567.255	919.5
567.467	953.5
567.679	893.5
567.891	864.5
568.102	885.5
568.314	894.5
568.526	840.5
568.737	815.5
568.949	873.5
569.161	783.5
569.372	699.5
569.584	699.5
569.795	693.5
570.007	689.5
570.218	742.5
570.43	710.5
570.641	703.5
570.853	663.5
571.064	659.5
571.276	689.5
571.487	723.5
571.698	681.5
571.91	650.5
572.121	684.5
572.333	603.5
572.544	620.5
572.755	615.5
572.966	606.5
573.178	599.5
573.389	630.5
573.6	625.5
573.811	635.5
574.023	550.5
574.234	563.5
574.445	584.5
574.656	559.5
574.867	556.5
575.078	597.5
575.289	595.5
575.501	607.5
575.712	599.5
575.923	540.5
576.134	531.5
576.345	525.5
576.556	549.5
576.767	533.5
576.978	529.5
577.188	517.5
577.399	505.5
577.61	539.5
577.821	525.5
578.032	551.5
578.243	556.5
578.454	550.5
578.665	569.5
578.875	561.5
579.086	556.5
579.297	565.5
579.508	575.5
579.718	551.5
579.929	548.5
580.14	533.5
580.35	513.5
580.561	482.5
580.772	482.5
580.982	447.5
581.193	463.5
581.403	470.5
581.614	462.5
581.825	447.5
582.035	466.5
582.246	452.5
582.456	461.5
582.667	485.5
582.877	447.5
583.087	463.5
583.298	461.5
583.508	438.5
583.719	445.5
583.929	429.5
584.139	458.5
584.35	443.5
584.56	497.5
584.77	468.5
584.981	470.5
585.191	452.5
585.401	450.5
585.611	461.5
585.821	476.5
586.032	489.5
586.242	477.5
586.452	468.5
586.662	454.5
586.872	509.5
587.082	482.5
587.292	491.5
587.502	451.5
587.713	465.5
587.923	465.5
588.133	520.5
588.343	489.5
588.553	469.5
588.762	439.5
588.972	429.5
589.182	430.5
589.392	441.5
589.602	465.5
589.812	485.5
590.022	507.5
590.232	516.5
590.441	462.5
590.651	437.5
590.861	435.5
591.071	460.5
591.281	435.5
591.49	448.5
591.7	448.5
591.91	446.5
592.119	452.5
592.329	453.5
592.539	458.5
592.748	449.5
592.958	449.5
593.167	471.5
593.377	470.5
593.587	483.5
593.796	464.5
594.006	483.5
594.215	456.5
594.424	496.5
594.634	489.5
594.843	474.5
595.053	459.5
595.262	440.5
595.472	422.5
595.681	423.5
595.89	426.5
596.1	443.5
596.309	442.5
596.518	421.5
596.727	432.5
596.937	424.5
597.146	448.5
597.355	474.5
597.564	430.5
597.774	403.5
597.983	397.5
598.192	408.5
598.401	383.5
598.61	400.5
598.819	392.5
599.028	386.5
599.237	375.5
599.446	365.5
599.655	363.5
599.864	376.5
600.073	385.5
600.282	359.5
600.491	377.5
600.7	380.5
600.909	383.5
601.118	384.5
601.327	355.5
601.536	371.5
601.745	392.5
601.953	405.5
602.162	398.5
602.371	397.5
602.58	403.5
602.789	371.5
602.997	376.5
603.206	388.5
603.415	382.5
603.623	367.5
603.832	363.5
604.041	346.5
604.249	375.5
604.458	393.5
604.666	384.5
604.875	363.5
605.084	351.5
605.292	367.5
605.501	369.5
605.709	367.5
605.918	358.5
606.126	367.5
606.334	352.5
606.543	337.5
606.751	340.5
606.96	347.5
607.168	330.5
607.376	350.5
607.585	354.5
607.793	354.5
608.001	368.5
608.21	371.5
608.418	344.5
608.626	342.5
608.834	330.5
609.043	332.5
609.251	346.5
609.459	354.5
609.667	341.5
609.875	322.5
610.083	337.5
610.291	374.5
610.499	350.5
610.707	331.5
610.916	326.5
611.124	345.5
611.332	325.5
611.54	328.5
611.748	334.5
611.955	343.5
612.163	328.5
612.371	346.5
612.579	322.5
612.787	337.5
612.995	320.5
613.203	333.5
613.411	325.5
613.618	335.5
613.826	322.5
614.034	331.5
614.242	342.5
614.449	315.5
614.657	301.5
614.865	325.5
615.072	338.5
615.28	319.5
615.488	318.5
615.695	329.5
615.903	302.5
616.111	327.5
616.318	311.5
616.526	317.5
616.733	303.5
616.941	314.5
617.148	309.5
617.356	303.5
617.563	311.5
617.771	304.5
617.978	309.5
618.185	305.5
618.393	323.5
618.6	299.5
618.807	302.5
619.015	326.5
619.222	302.5
619.429	316.5
619.637	318.5
619.844	310.5
620.051	298.5
620.258	309.5
620.466	292.5
620.673	301.5
620.88	287.5
621.087	297.5
621.294	290.5
621.501	287.5
621.708	313.5
621.915	303.5
622.122	288.5
622.329	293.5
622.536	295.5
622.743	291.5
622.95	276.5
623.157	297.5
623.364	292.5
623.571	299.5
623.778	299.5
623.985	319.5
624.192	303.5
624.399	295.5
624.606	285.5
624.812	292.5
625.019	293.5
625.226	298.5
625.433	318.5
625.639	289.5
625.846	278.5
626.053	282.5
626.259	286.5
626.466	281.5
626.673	303.5
626.879	277.5
627.086	281.5
627.293	275.5
627.499	267.5
627.706	271.5
627.912	277.5
628.119	261.5
628.325	266.5
628.532	249.5
628.738	245.5
628.945	267.5
629.151	269.5
629.357	267.5
629.564	254.5
629.77	270.5
629.976	261.5
630.183	251.5
630.389	261.5
630.595	266.5
630.802	267.5
631.008	244.5
631.214	274.5
631.42	248.5
631.627	258.5
631.833	240.5
632.039	242.5
632.245	243.5
632.451	246.5
632.657	242.5
632.863	267.5
633.069	252.5
633.275	243.5
633.481	221.5
633.688	252.5
633.893	240.5
634.099	246.5
634.305	242.5
634.511	235.5
634.717	240.5
634.923	237.5
635.129	221.5
635.335	219.5
635.541	217.5
635.747	229.5
635.952	229.5
636.158	235.5
636.364	236.5
636.57	242.5
636.775	245.5
636.981	229.5
637.187	238.5
637.392	218.5
637.598	227.5
637.804	222.5
638.009	234.5
638.215	227.5
638.421	213.5
638.626	228.5
638.832	246.5
639.037	221.5
639.243	210.5
639.448	218.5
639.654	234.5
639.859	227.5
640.065	233.5
640.27	233.5
640.475	228.5
640.681	213.5
640.886	207.5
641.091	224.5
641.297	225.5
641.502	224.5
641.707	218.5
641.913	216.5
642.118	218.5
642.323	223.5
642.528	222.5
642.733	213.5
642.939	218.5
643.144	231.5
643.349	213.5
643.554	225.5
643.759	216.5
643.964	199.5
644.169	215.5
644.374	218.5
644.579	207.5
644.784	205.5
644.989	214.5
645.194	213.5
645.399	193.5
645.604	202.5
645.809	228.5
646.014	204.5
646.219	196.5
646.423	195.5
646.628	200.5
646.833	199.5
647.038	214.5
647.243	222.5
647.447	209.5
647.652	206.5
647.857	174.5
648.062	199.5
648.266	208.5
648.471	208.5
648.676	211.5
648.88	214.5
649.085	206.5
649.289	209.5
649.494	192.5
649.698	203.5
649.903	211.5
650.107	210.5
650.312	203.5
650.516	190.5
650.721	191.5
650.925	185.5
651.13	188.5
651.334	181.5
651.539	172.5
651.743	196.5
651.947	172.5
652.152	188.5
652.356	177.5
652.56	185.5
652.764	183.5
652.969	164.5
653.173	174.5
653.377	176.5
653.581	163.5
653.785	151.5
653.99	162.5
654.194	153.5
654.398	149.5
654.602	170.5
654.806	155.5
655.01	176.5
655.214	169.5
655.418	144.5
655.622	145.5
655.826	154.5
656.03	161.5
656.234	169.5
656.438	155.5
656.642	167.5
656.846	149.5
657.049	158.5
657.253	141.5
657.457	139.5
657.661	133.5
657.865	133.5
658.068	122.5
658.272	127.5
658.476	134.5
658.68	123.5
658.883	107.5
659.087	110.5
659.291	113.5
659.494	117.5
659.698	101.5
659.901	115.5
660.105	97.5
660.309	89.5
660.512	94.5
660.716	90.5
660.919	87.5
661.123	91.5
661.326	93.5
661.53	99.5
661.733	96.5
661.936	85.5
662.14	88.5
662.343	93.5
662.546	92.5
662.75	92.5
662.953	89.5
663.156	91.5
663.36	76.5
663.563	92.5
663.766	81.5
663.969	71.5
664.173	93.5
664.376	81.5
664.579	79.5
664.782	93.5
664.985	79.5
665.188	72.5
665.391	70.5
665.594	86.5
665.797	75.5
666	89.5
666.203	69.5
666.406	78.5
666.609	87.5
666.812	66.5
667.015	87.5
667.218	84.5
667.421	81.5
667.624	73.5
667.827	102.5
668.03	88.5
668.232	75.5
668.435	87.5
668.638	84.5
668.841	90.5
669.043	92.5
669.246	89.5
669.449	86.5
669.651	87.5
669.854	76.5
670.057	70.5
670.259	74.5
670.462	78.5
670.665	74.5
670.867	69.5
671.07	93.5
671.272	81.5
671.475	89.5
671.677	93.5
671.88	79.5
672.082	69.5
672.284	63.5
672.487	77.5
672.689	68.5
672.892	73.5
