Data from NickelSpatula.Lamp.E10.P2_HRD10591_11-59-38-525.txt Node
Date: Tue Jul 23 11:59:38 EDT 2019
User: cochatt
Spectrometer: HR+D1059
Trigger mode: 1
Integration Time (sec): 1.000000E-1
Scans to average: 1
Electric dark correction enabled: true
Nonlinearity correction enabled: false
Boxcar width: 0
XAxis mode: Wavelengths
Number of Pixels in Spectrum: 2048
>>>>>Begin Spectral Data<<<<<
223.165	-4.19
223.4	-4.19
223.635	-4.19
223.869	-19.19
224.104	-15.19
224.338	-16.19
224.573	-10.19
224.808	-12.19
225.042	-15.19
225.277	-2.19
225.511	-14.19
225.746	2.81
225.98	7.81
226.215	14.81
226.449	5.81
226.683	21.81
226.918	22.81
227.152	32.81
227.387	16.81
227.621	29.81
227.856	39.81
228.09	42.81
228.324	36.81
228.559	43.81
228.793	74.81
229.027	136.81
229.262	142.81
229.496	148.81
229.73	159.81
229.964	175.81
230.199	203.81
230.433	202.81
230.667	207.81
230.901	200.81
231.136	206.81
231.37	220.81
231.604	239.81
231.838	251.81
232.072	237.81
232.306	255.81
232.541	222.81
232.775	245.81
233.009	256.81
233.243	295.81
233.477	321.81
233.711	344.81
233.945	324.81
234.179	329.81
234.413	359.81
234.647	407.81
234.881	453.81
235.115	419.81
235.349	398.81
235.583	354.81
235.817	337.81
236.051	379.81
236.285	427.81
236.519	484.81
236.753	441.81
236.987	419.81
237.221	425.81
237.455	425.81
237.689	417.81
237.922	484.81
238.156	471.81
238.39	573.81
238.624	663.81
238.858	601.81
239.091	505.81
239.325	512.81
239.559	480.81
239.793	561.81
240.027	687.81
240.26	626.81
240.494	592.81
240.728	595.81
240.961	680.81
241.195	647.81
241.429	645.81
241.662	642.81
241.896	537.81
242.13	476.81
242.363	447.81
242.597	501.81
242.83	553.81
243.064	533.81
243.298	592.81
243.531	645.81
243.765	641.81
243.998	613.81
244.232	625.81
244.465	611.81
244.699	589.81
244.932	680.81
245.166	641.81
245.399	557.81
245.633	549.81
245.866	565.81
246.099	604.81
246.333	732.81
246.566	789.81
246.8	791.81
247.033	762.81
247.266	680.81
247.5	695.81
247.733	664.81
247.966	677.81
248.2	687.81
248.433	823.81
248.666	842.81
248.899	863.81
249.133	889.81
249.366	986.81
249.599	1046.81
249.832	942.81
250.066	823.81
250.299	871.81
250.532	835.81
250.765	781.81
250.998	738.81
251.231	720.81
251.465	788.81
251.698	847.81
251.931	819.81
252.164	886.81
252.397	958.81
252.63	1055.81
252.863	1165.81
253.096	1213.81
253.329	1183.81
253.562	1120.81
253.795	1250.81
254.028	1401.81
254.261	1418.81
254.494	1281.81
254.727	1175.81
254.96	1124.81
255.193	1212.81
255.426	1138.81
255.659	866.81
255.892	817.81
256.124	875.81
256.357	1020.81
256.59	1216.81
256.823	1151.81
257.056	966.81
257.289	921.81
257.521	955.81
257.754	1139.81
257.987	1312.81
258.22	1121.81
258.452	995.81
258.685	1123.81
258.918	1288.81
259.151	1261.81
259.383	1312.81
259.616	1535.81
259.849	1551.81
260.081	1731.81
260.314	1936.81
260.547	1485.81
260.779	1514.81
261.012	1738.81
261.244	1647.81
261.477	1636.81
261.71	1556.81
261.942	1282.81
262.175	1307.81
262.407	1272.81
262.64	1288.81
262.872	1542.81
263.105	1679.81
263.337	1732.81
263.57	1543.81
263.802	1073.81
264.035	884.81
264.267	883.81
264.499	778.81
264.732	722.81
264.964	670.81
265.197	709.81
265.429	781.81
265.661	852.81
265.894	868.81
266.126	914.81
266.358	1037.81
266.591	1253.81
266.823	1499.81
267.055	1417.81
267.287	1257.81
267.52	1278.81
267.752	1321.81
267.984	1476.81
268.216	1385.81
268.448	1133.81
268.681	1105.81
268.913	1201.81
269.145	1278.81
269.377	1321.81
269.609	1311.81
269.841	1236.81
270.073	1299.81
270.306	1357.81
270.538	1365.81
270.77	1368.81
271.002	1411.81
271.234	1463.81
271.466	1530.81
271.698	1498.81
271.93	1484.81
272.162	1439.81
272.394	1435.81
272.626	1417.81
272.858	1466.81
273.09	1514.81
273.322	1316.81
273.553	1283.81
273.785	1565.81
274.017	1967.81
274.249	2476.81
274.481	2561.81
274.713	2800.81
274.945	3213.81
275.176	3297.81
275.408	2926.81
275.64	2687.81
275.872	2698.81
276.104	2256.81
276.335	1949.81
276.567	1930.81
276.799	1980.81
277.031	2119.81
277.262	1637.81
277.494	1253.81
277.726	1222.81
277.957	1340.81
278.189	1523.81
278.421	1505.81
278.652	1424.81
278.884	1364.81
279.115	1299.81
279.347	1227.81
279.579	1223.81
279.81	1219.81
280.042	1229.81
280.273	1290.81
280.505	1161.81
280.736	1013.81
280.968	1035.81
281.199	1110.81
281.431	1221.81
281.662	1200.81
281.894	1163.81
282.125	1265.81
282.356	1374.81
282.588	1389.81
282.819	1271.81
283.051	1407.81
283.282	1718.81
283.513	1997.81
283.745	2213.81
283.976	2196.81
284.207	2019.81
284.439	2119.81
284.67	1995.81
284.901	1827.81
285.132	1951.81
285.364	2055.81
285.595	1889.81
285.826	2019.81
286.057	2065.81
286.288	2010.81
286.52	2016.81
286.751	2121.81
286.982	2132.81
287.213	1890.81
287.444	1807.81
287.675	1872.81
287.906	1853.81
288.138	1595.81
288.369	1380.81
288.6	1301.81
288.831	1345.81
289.062	1532.81
289.293	1720.81
289.524	1624.81
289.755	1596.81
289.986	1627.81
290.217	1421.81
290.448	1128.81
290.679	975.81
290.91	921.81
291.141	915.81
291.371	971.81
291.602	963.81
291.833	1007.81
292.064	1058.81
292.295	1225.81
292.526	1447.81
292.757	1460.81
292.987	1597.81
293.218	1582.81
293.449	1600.81
293.68	1684.81
293.91	1635.81
294.141	1641.81
294.372	1546.81
294.603	1414.81
294.833	1605.81
295.064	1824.81
295.295	1759.81
295.525	1334.81
295.756	1140.81
295.987	985.81
296.217	1035.81
296.448	1045.81
296.679	1103.81
296.909	1256.81
297.14	1323.81
297.37	1458.81
297.601	1390.81
297.831	1178.81
298.062	1275.81
298.292	1461.81
298.523	1601.81
298.753	1814.81
298.984	1631.81
299.214	1294.81
299.445	1063.81
299.675	1058.81
299.905	1053.81
300.136	1103.81
300.366	1216.81
300.597	1199.81
300.827	1042.81
301.057	1011.81
301.288	1025.81
301.518	1075.81
301.748	1264.81
301.979	1361.81
302.209	1516.81
302.439	1503.81
302.669	1272.81
302.9	1283.81
303.13	1197.81
303.36	1130.81
303.59	1058.81
303.82	1109.81
304.051	1239.81
304.281	1341.81
304.511	1312.81
304.741	1140.81
304.971	1203.81
305.201	1276.81
305.431	1200.81
305.661	1088.81
305.891	1106.81
306.121	1116.81
306.352	977.81
306.582	904.81
306.812	876.81
307.042	907.81
307.272	797.81
307.502	833.81
307.731	912.81
307.961	933.81
308.191	835.81
308.421	820.81
308.651	809.81
308.881	786.81
309.111	801.81
309.341	817.81
309.571	879.81
309.8	915.81
310.03	985.81
310.26	1031.81
310.49	988.81
310.72	901.81
310.949	851.81
311.179	881.81
311.409	940.81
311.639	1073.81
311.868	1443.81
312.098	1837.81
312.328	1947.81
312.557	1876.81
312.787	1900.81
313.017	1655.81
313.246	1846.81
313.476	2010.81
313.706	1631.81
313.935	1305.81
314.165	1047.81
314.394	948.81
314.624	977.81
314.853	1018.81
315.083	1050.81
315.312	1013.81
315.542	1004.81
315.771	946.81
316.001	863.81
316.23	863.81
316.46	817.81
316.689	880.81
316.919	885.81
317.148	919.81
317.377	862.81
317.607	894.81
317.836	943.81
318.065	1123.81
318.295	1275.81
318.524	1202.81
318.753	1011.81
318.983	971.81
319.212	947.81
319.441	1043.81
319.67	1143.81
319.9	1215.81
320.129	1116.81
320.358	1003.81
320.587	949.81
320.816	1052.81
321.046	1193.81
321.275	1357.81
321.504	1389.81
321.733	1327.81
321.962	1238.81
322.191	1185.81
322.42	1128.81
322.649	1161.81
322.878	1251.81
323.108	1249.81
323.337	1128.81
323.566	1114.81
323.795	1102.81
324.024	1035.81
324.253	1023.81
324.482	1003.81
324.71	1092.81
324.939	1224.81
325.168	1147.81
325.397	957.81
325.626	946.81
325.855	941.81
326.084	935.81
326.313	891.81
326.542	846.81
326.77	913.81
326.999	893.81
327.228	959.81
327.457	1039.81
327.686	1003.81
327.914	897.81
328.143	847.81
328.372	857.81
328.6	843.81
328.829	907.81
329.058	928.81
329.287	895.81
329.515	930.81
329.744	887.81
329.972	837.81
330.201	799.81
330.43	852.81
330.658	968.81
330.887	1104.81
331.115	1078.81
331.344	1016.81
331.572	979.81
331.801	911.81
332.03	872.81
332.258	900.81
332.486	988.81
332.715	986.81
332.943	928.81
333.172	937.81
333.4	960.81
333.629	1039.81
333.857	1109.81
334.085	1116.81
334.314	1113.81
334.542	1052.81
334.771	991.81
334.999	965.81
335.227	943.81
335.455	959.81
335.684	1039.81
335.912	1202.81
336.14	1368.81
336.369	1293.81
336.597	1232.81
336.825	1371.81
337.053	1555.81
337.281	1275.81
337.51	994.81
337.738	971.81
337.966	1076.81
338.194	1182.81
338.422	1141.81
338.65	962.81
338.878	876.81
339.106	921.81
339.334	1033.81
339.562	1092.81
339.79	1014.81
340.018	969.81
340.246	1075.81
340.474	1217.81
340.702	1302.81
340.93	1380.81
341.158	1346.81
341.386	1147.81
341.614	1139.81
341.842	1124.81
342.07	1163.81
342.298	1374.81
342.526	1453.81
342.754	1233.81
342.981	1176.81
343.209	1089.81
343.437	1143.81
343.665	1216.81
343.893	1221.81
344.12	1413.81
344.348	1690.81
344.576	1469.81
344.804	1237.81
345.031	1094.81
345.259	997.81
345.487	1013.81
345.714	1040.81
345.942	1096.81
346.17	1216.81
346.397	1191.81
346.625	1020.81
346.853	981.81
347.08	955.81
347.308	992.81
347.535	1120.81
347.763	1166.81
347.99	1039.81
348.218	943.81
348.445	987.81
348.673	989.81
348.9	972.81
349.128	1073.81
349.355	1127.81
349.583	1058.81
349.81	1013.81
350.037	952.81
350.265	838.81
350.492	795.81
350.72	796.81
350.947	844.81
351.174	932.81
351.402	989.81
351.629	1009.81
351.856	943.81
352.083	913.81
352.311	995.81
352.538	1150.81
352.765	1183.81
352.992	1088.81
353.22	988.81
353.447	1024.81
353.674	992.81
353.901	974.81
354.128	996.81
354.355	1049.81
354.583	1010.81
354.81	1018.81
355.037	1031.81
355.264	1017.81
355.491	1104.81
355.718	1218.81
355.945	1181.81
356.172	1145.81
356.399	1135.81
356.626	1385.81
356.853	1679.81
357.08	1810.81
357.307	1863.81
357.534	1433.81
357.761	1455.81
357.988	1845.81
358.215	2199.81
358.441	2057.81
358.668	1691.81
358.895	1580.81
359.122	1242.81
359.349	1234.81
359.576	1394.81
359.802	1121.81
360.029	953.81
360.256	1084.81
360.483	1336.81
360.709	1709.81
360.936	1707.81
361.163	1499.81
361.39	1175.81
361.616	1092.81
361.843	1263.81
362.07	1579.81
362.296	1429.81
362.523	1097.81
362.749	962.81
362.976	961.81
363.203	1271.81
363.429	1411.81
363.656	1137.81
363.882	1035.81
364.109	1063.81
364.335	1011.81
364.562	1008.81
364.788	1142.81
365.015	1337.81
365.241	1213.81
365.468	985.81
365.694	861.81
365.92	807.81
366.147	804.81
366.373	790.81
366.599	791.81
366.826	834.81
367.052	859.81
367.278	849.81
367.505	857.81
367.731	906.81
367.957	1044.81
368.184	1074.81
368.41	1047.81
368.636	1061.81
368.862	1105.81
369.089	1076.81
369.315	915.81
369.541	917.81
369.767	914.81
369.993	873.81
370.219	859.81
370.445	955.81
370.672	1046.81
370.898	1142.81
371.124	1093.81
371.35	977.81
371.576	915.81
371.802	1010.81
372.028	1223.81
372.254	1373.81
372.48	1170.81
372.706	1068.81
372.932	1122.81
373.158	1165.81
373.384	1429.81
373.61	1933.81
373.835	1945.81
374.061	1465.81
374.287	1216.81
374.513	1463.81
374.739	1751.81
374.965	1800.81
375.191	1766.81
375.416	1145.81
375.642	1035.81
375.868	1239.81
376.094	1425.81
376.319	1199.81
376.545	1348.81
376.771	1427.81
376.997	1193.81
377.222	882.81
377.448	775.81
377.674	753.81
377.899	749.81
378.125	765.81
378.35	786.81
378.576	811.81
378.802	869.81
379.027	936.81
379.253	923.81
379.478	944.81
379.704	1087.81
379.929	1145.81
380.155	1080.81
380.38	983.81
380.606	1037.81
380.831	1143.81
381.057	1053.81
381.282	999.81
381.507	1188.81
381.733	1521.81
381.958	1623.81
382.184	1690.81
382.409	1775.81
382.634	1703.81
382.86	1837.81
383.085	1485.81
383.31	1167.81
383.535	1233.81
383.761	1239.81
383.986	1199.81
384.211	1491.81
384.436	1414.81
384.662	1052.81
384.887	1017.81
385.112	1058.81
385.337	1101.81
385.562	1010.81
385.787	1136.81
386.013	1279.81
386.238	1309.81
386.463	1043.81
386.688	1002.81
386.913	970.81
387.138	909.81
387.363	988.81
387.588	993.81
387.813	1023.81
388.038	1133.81
388.263	1009.81
388.488	970.81
388.713	1137.81
388.938	1234.81
389.163	1053.81
389.387	925.81
389.612	924.81
389.837	997.81
390.062	965.81
390.287	1010.81
390.512	1035.81
390.736	968.81
390.961	914.81
391.186	823.81
391.411	833.81
391.636	872.81
391.86	939.81
392.085	1028.81
392.31	1014.81
392.534	965.81
392.759	968.81
392.984	1021.81
393.208	988.81
393.433	914.81
393.658	804.81
393.882	796.81
394.107	795.81
394.331	832.81
394.556	780.81
394.78	807.81
395.005	837.81
395.229	880.81
395.454	884.81
395.678	928.81
395.903	941.81
396.127	885.81
396.352	883.81
396.576	977.81
396.801	1032.81
397.025	1150.81
397.249	1196.81
397.474	953.81
397.698	936.81
397.922	964.81
398.147	945.81
398.371	947.81
398.595	990.81
398.82	956.81
399.044	962.81
399.268	1041.81
399.492	1061.81
399.717	1067.81
399.941	1083.81
400.165	1060.81
400.389	1053.81
400.613	1082.81
400.837	1037.81
401.062	940.81
401.286	896.81
401.51	947.81
401.734	901.81
401.958	928.81
402.182	927.81
402.406	912.81
402.63	924.81
402.854	960.81
403.078	1047.81
403.302	1323.81
403.526	1392.81
403.75	1205.81
403.974	1089.81
404.198	1083.81
404.422	1259.81
404.645	1473.81
404.869	1651.81
405.093	1183.81
405.317	1011.81
405.541	1004.81
405.765	1043.81
405.988	1025.81
406.212	1121.81
406.436	1328.81
406.66	1517.81
406.883	1169.81
407.107	1204.81
407.331	1403.81
407.555	1325.81
407.778	1124.81
408.002	1063.81
408.226	1122.81
408.449	1067.81
408.673	1050.81
408.896	951.81
409.12	908.81
409.344	925.81
409.567	888.81
409.791	885.81
410.014	893.81
410.238	891.81
410.461	914.81
410.685	893.81
410.908	932.81
411.132	939.81
411.355	939.81
411.578	956.81
411.802	959.81
412.025	1025.81
412.249	1004.81
412.472	949.81
412.695	953.81
412.919	979.81
413.142	992.81
413.365	1066.81
413.589	1058.81
413.812	991.81
414.035	920.81
414.258	931.81
414.482	1098.81
414.705	1106.81
414.928	919.81
415.151	881.81
415.374	916.81
415.597	950.81
415.821	917.81
416.044	931.81
416.267	877.81
416.49	900.81
416.713	873.81
416.936	849.81
417.159	887.81
417.382	916.81
417.605	908.81
417.828	936.81
418.051	911.81
418.274	940.81
418.497	941.81
418.72	933.81
418.943	998.81
419.166	1030.81
419.389	1054.81
419.611	1009.81
419.834	1041.81
420.057	1153.81
420.28	1151.81
420.503	1025.81
420.726	941.81
420.948	888.81
421.171	892.81
421.394	910.81
421.617	854.81
421.839	907.81
422.062	957.81
422.285	914.81
422.507	959.81
422.73	984.81
422.953	973.81
423.175	969.81
423.398	962.81
423.621	1023.81
423.843	1072.81
424.066	988.81
424.288	935.81
424.511	913.81
424.733	908.81
424.956	972.81
425.178	1119.81
425.401	1267.81
425.623	1438.81
425.846	1186.81
426.068	1018.81
426.291	1157.81
426.513	1065.81
426.735	973.81
426.958	991.81
427.18	1186.81
427.402	1572.81
427.625	1506.81
427.847	1194.81
428.069	931.81
428.292	897.81
428.514	886.81
428.736	895.81
428.958	973.81
429.181	1145.81
429.403	993.81
429.625	904.81
429.847	861.81
430.069	900.81
430.292	942.81
430.514	897.81
430.736	981.81
430.958	1264.81
431.18	1107.81
431.402	866.81
431.624	809.81
431.846	811.81
432.068	808.81
432.29	817.81
432.512	933.81
432.734	1259.81
432.956	1155.81
433.178	893.81
433.4	831.81
433.622	861.81
433.844	898.81
434.066	964.81
434.287	948.81
434.509	898.81
434.731	946.81
434.953	884.81
435.175	932.81
435.397	1051.81
435.618	928.81
435.84	819.81
436.062	831.81
436.284	867.81
436.505	808.81
436.727	791.81
436.949	799.81
437.17	845.81
437.392	880.81
437.614	866.81
437.835	825.81
438.057	865.81
438.278	1014.81
438.5	1459.81
438.721	1409.81
438.943	972.81
439.165	815.81
439.386	805.81
439.608	809.81
439.829	796.81
440.05	784.81
440.272	846.81
440.493	1050.81
440.715	1263.81
440.936	1003.81
441.158	848.81
441.379	868.81
441.6	980.81
441.822	1042.81
442.043	884.81
442.264	883.81
442.486	866.81
442.707	875.81
442.928	873.81
443.149	902.81
443.371	884.81
443.592	935.81
443.813	919.81
444.034	878.81
444.255	902.81
444.476	971.81
444.698	960.81
444.919	951.81
445.14	1090.81
445.361	1026.81
445.582	974.81
445.803	940.81
446.024	960.81
446.245	943.81
446.466	945.81
446.687	901.81
446.908	886.81
447.129	811.81
447.35	795.81
447.571	803.81
447.792	804.81
448.013	803.81
448.234	780.81
448.455	789.81
448.675	797.81
448.896	820.81
449.117	829.81
449.338	811.81
449.559	850.81
449.779	910.81
450	865.81
450.221	838.81
450.442	795.81
450.662	807.81
450.883	811.81
451.104	814.81
451.324	793.81
451.545	789.81
451.766	789.81
451.986	810.81
452.207	788.81
452.428	800.81
452.648	769.81
452.869	834.81
453.089	864.81
453.31	850.81
453.53	779.81
453.751	751.81
453.971	736.81
454.192	748.81
454.412	807.81
454.633	783.81
454.853	770.81
455.073	740.81
455.294	751.81
455.514	738.81
455.734	792.81
455.955	817.81
456.175	848.81
456.395	761.81
456.616	717.81
456.836	719.81
457.056	697.81
457.276	701.81
457.497	745.81
457.717	723.81
457.937	734.81
458.157	731.81
458.377	739.81
458.598	735.81
458.818	779.81
459.038	820.81
459.258	827.81
459.478	841.81
459.698	886.81
459.918	919.81
460.138	905.81
460.358	884.81
460.578	876.81
460.798	909.81
461.018	894.81
461.238	852.81
461.458	871.81
461.678	897.81
461.898	926.81
462.118	940.81
462.338	958.81
462.558	966.81
462.777	1017.81
462.997	1017.81
463.217	986.81
463.437	1027.81
463.657	1040.81
463.876	982.81
464.096	963.81
464.316	976.81
464.536	938.81
464.755	1046.81
464.975	1026.81
465.195	968.81
465.414	1033.81
465.634	994.81
465.854	971.81
466.073	868.81
466.293	870.81
466.512	919.81
466.732	1039.81
466.951	1045.81
467.171	970.81
467.391	871.81
467.61	902.81
467.829	915.81
468.049	938.81
468.268	856.81
468.488	878.81
468.707	940.81
468.927	1055.81
469.146	1173.81
469.365	1044.81
469.585	949.81
469.804	1041.81
470.023	1134.81
470.243	971.81
470.462	934.81
470.681	898.81
470.901	943.81
471.12	1004.81
471.339	976.81
471.558	935.81
471.777	938.81
471.997	1022.81
472.216	1109.81
472.435	1103.81
472.654	1010.81
472.873	959.81
473.092	1012.81
473.311	1071.81
473.53	937.81
473.749	940.81
473.968	1001.81
474.187	1001.81
474.406	965.81
474.625	926.81
474.844	959.81
475.063	1034.81
475.282	1027.81
475.501	1079.81
475.72	1135.81
475.939	1084.81
476.158	1109.81
476.377	1261.81
476.596	1469.81
476.814	1535.81
477.033	1268.81
477.252	1070.81
477.471	990.81
477.69	1017.81
477.908	1125.81
478.127	1158.81
478.346	1076.81
478.564	1165.81
478.783	1115.81
479.002	1128.81
479.22	1320.81
479.439	1405.81
479.658	1237.81
479.876	1118.81
480.095	1213.81
480.313	1235.81
480.532	1139.81
480.751	1082.81
480.969	1124.81
481.188	1294.81
481.406	1312.81
481.624	1256.81
481.843	1117.81
482.061	1091.81
482.28	1211.81
482.498	1439.81
482.717	1415.81
482.935	1218.81
483.153	1154.81
483.372	1083.81
483.59	1076.81
483.808	1094.81
484.027	1021.81
484.245	1000.81
484.463	1001.81
484.681	1041.81
484.9	1124.81
485.118	1192.81
485.336	1106.81
485.554	1060.81
485.772	1085.81
485.99	1167.81
486.209	1279.81
486.427	1255.81
486.645	1215.81
486.863	1292.81
487.081	1252.81
487.299	1393.81
487.517	1429.81
487.735	1257.81
487.953	1268.81
488.171	1285.81
488.389	1184.81
488.607	1137.81
488.825	1205.81
489.043	1315.81
489.261	1487.81
489.479	1568.81
489.696	1319.81
489.914	1218.81
490.132	1139.81
490.35	1137.81
490.568	1146.81
490.786	1138.81
491.003	1161.81
491.221	1182.81
491.439	1156.81
491.657	1139.81
491.874	1233.81
492.092	1513.81
492.31	1849.81
492.527	1825.81
492.745	1542.81
492.963	1355.81
493.18	1311.81
493.398	1300.81
493.615	1316.81
493.833	1271.81
494.05	1257.81
494.268	1272.81
494.485	1300.81
494.703	1241.81
494.92	1252.81
495.138	1217.81
495.355	1227.81
495.573	1289.81
495.79	1431.81
496.008	1924.81
496.225	1627.81
496.442	1407.81
496.66	1390.81
496.877	1479.81
497.094	1435.81
497.312	1358.81
497.529	1336.81
497.746	1341.81
497.963	1418.81
498.181	1477.81
498.398	1623.81
498.615	1672.81
498.832	1724.81
499.049	1728.81
499.267	1560.81
499.484	1563.81
499.701	1640.81
499.918	1807.81
500.135	1894.81
500.352	1942.81
500.569	2036.81
500.786	2082.81
501.003	2053.81
501.22	1861.81
501.437	1723.81
501.654	1692.81
501.871	1625.81
502.088	1730.81
502.305	1483.81
502.522	1515.81
502.739	1524.81
502.956	1373.81
503.172	1385.81
503.389	1315.81
503.606	1275.81
503.823	1308.81
504.04	1316.81
504.256	1305.81
504.473	1379.81
504.69	1379.81
504.907	1368.81
505.123	1387.81
505.34	1446.81
505.557	1422.81
505.773	1360.81
505.99	1323.81
506.207	1405.81
506.423	1290.81
506.64	1225.81
506.856	1259.81
507.073	1384.81
507.289	1359.81
507.506	1362.81
507.722	1450.81
507.939	1421.81
508.155	1486.81
508.372	1358.81
508.588	1299.81
508.805	1243.81
509.021	1223.81
509.238	1168.81
509.454	1206.81
509.67	1167.81
509.887	1210.81
510.103	1369.81
510.319	1316.81
510.536	1217.81
510.752	1068.81
510.968	1067.81
511.184	1060.81
511.401	1090.81
511.617	1048.81
511.833	1057.81
512.049	1060.81
512.265	1075.81
512.481	1127.81
512.698	1259.81
512.914	1384.81
513.13	1231.81
513.346	1144.81
513.562	1176.81
513.778	1197.81
513.994	1185.81
514.21	1273.81
514.426	1235.81
514.642	1147.81
514.858	1138.81
515.074	1186.81
515.29	1318.81
515.506	1443.81
515.721	1348.81
515.937	1255.81
516.153	1163.81
516.369	1176.81
516.585	1220.81
516.801	1442.81
517.016	1644.81
517.232	1593.81
517.448	1543.81
517.664	1360.81
517.879	1291.81
518.095	1261.81
518.311	1262.81
518.527	1338.81
518.742	1407.81
518.958	1479.81
519.173	1396.81
519.389	1385.81
519.605	1448.81
519.82	1591.81
520.036	1819.81
520.251	1737.81
520.467	1635.81
520.682	2488.81
520.898	3042.81
521.113	2861.81
521.329	1759.81
521.544	1527.81
521.76	1533.81
521.975	1382.81
522.19	1294.81
522.406	1352.81
522.621	1495.81
522.836	1559.81
523.052	1609.81
523.267	1323.81
523.482	1338.81
523.698	1435.81
523.913	1360.81
524.128	1258.81
524.343	1208.81
524.559	1209.81
524.774	1152.81
524.989	1187.81
525.204	1223.81
525.419	1347.81
525.634	1216.81
525.849	1270.81
526.064	1271.81
526.28	1306.81
526.495	1446.81
526.71	1538.81
526.925	1328.81
527.14	1479.81
527.355	1407.81
527.57	1163.81
527.785	1223.81
527.999	1145.81
528.214	1078.81
528.429	1105.81
528.644	1093.81
528.859	1026.81
529.074	1003.81
529.289	1002.81
529.503	978.81
529.718	1025.81
529.933	1213.81
530.148	1230.81
530.363	1073.81
530.577	1027.81
530.792	1013.81
531.007	986.81
531.221	972.81
531.436	992.81
531.651	1012.81
531.865	1011.81
532.08	1040.81
532.295	990.81
532.509	1038.81
532.724	1224.81
532.938	1380.81
533.153	1548.81
533.367	1251.81
533.582	1221.81
533.796	1087.81
534.011	1059.81
534.225	1081.81
534.44	1068.81
534.654	1097.81
534.868	1247.81
535.083	1107.81
535.297	1027.81
535.511	1024.81
535.726	1131.81
535.94	1073.81
536.154	1013.81
536.369	1007.81
536.583	1029.81
536.797	1029.81
537.011	1054.81
537.225	1131.81
537.44	1211.81
537.654	1050.81
537.868	1058.81
538.082	1023.81
538.296	1005.81
538.51	1139.81
538.724	1117.81
538.938	1069.81
539.153	1004.81
539.367	993.81
539.581	1009.81
539.795	1065.81
540.009	1189.81
540.222	1081.81
540.436	1087.81
540.65	1148.81
540.864	1223.81
541.078	1232.81
541.292	1404.81
541.506	1129.81
541.72	1099.81
541.934	1069.81
542.147	1066.81
542.361	1045.81
542.575	1081.81
542.789	1064.81
543.002	981.81
543.216	1083.81
543.43	949.81
543.644	967.81
543.857	939.81
544.071	955.81
544.285	949.81
544.498	904.81
544.712	914.81
544.925	1021.81
545.139	986.81
545.352	925.81
545.566	930.81
545.779	1071.81
545.993	977.81
546.206	893.81
546.42	919.81
546.633	921.81
546.847	852.81
547.06	882.81
547.274	866.81
547.487	876.81
547.7	986.81
547.914	1023.81
548.127	1111.81
548.34	1097.81
548.554	962.81
548.767	1025.81
548.98	1082.81
549.193	996.81
549.407	1025.81
549.62	1197.81
549.833	1115.81
550.046	1147.81
550.259	1178.81
550.473	1028.81
550.686	974.81
550.899	1001.81
551.112	952.81
551.325	1072.81
551.538	1076.81
551.751	953.81
551.964	909.81
552.177	908.81
552.39	860.81
552.603	891.81
552.816	944.81
553.029	893.81
553.242	879.81
553.455	967.81
553.667	1018.81
553.88	988.81
554.093	911.81
554.306	853.81
554.519	805.81
554.732	791.81
554.944	799.81
555.157	776.81
555.37	784.81
555.583	760.81
555.795	798.81
556.008	803.81
556.221	844.81
556.433	791.81
556.646	797.81
556.859	799.81
557.071	821.81
557.284	826.81
557.496	855.81
557.709	829.81
557.921	799.81
558.134	750.81
558.346	725.81
558.559	716.81
558.771	759.81
558.984	847.81
559.196	776.81
559.409	760.81
559.621	712.81
559.833	720.81
560.046	743.81
560.258	732.81
560.47	746.81
560.683	721.81
560.895	671.81
561.107	681.81
561.32	696.81
561.532	699.81
561.744	767.81
561.956	772.81
562.168	718.81
562.381	689.81
562.593	702.81
562.805	746.81
563.017	719.81
563.229	667.81
563.441	668.81
563.653	673.81
563.865	700.81
564.077	724.81
564.289	675.81
564.501	697.81
564.713	785.81
564.925	724.81
565.137	695.81
565.349	690.81
565.561	716.81
565.773	710.81
565.985	761.81
566.197	785.81
566.408	852.81
566.62	849.81
566.832	824.81
567.044	833.81
567.255	913.81
567.467	978.81
567.679	891.81
567.891	880.81
568.102	912.81
568.314	900.81
568.526	834.81
568.737	800.81
568.949	864.81
569.161	758.81
569.372	703.81
569.584	683.81
569.795	667.81
570.007	703.81
570.218	756.81
570.43	722.81
570.641	700.81
570.853	692.81
571.064	698.81
571.276	699.81
571.487	730.81
571.698	690.81
571.91	686.81
572.121	677.81
572.333	635.81
572.544	624.81
572.755	624.81
572.966	616.81
573.178	602.81
573.389	658.81
573.6	650.81
573.811	646.81
574.023	585.81
574.234	593.81
574.445	589.81
574.656	563.81
574.867	593.81
575.078	579.81
575.289	577.81
575.501	620.81
575.712	579.81
575.923	562.81
576.134	562.81
576.345	538.81
576.556	579.81
576.767	543.81
576.978	517.81
577.188	527.81
577.399	531.81
577.61	528.81
577.821	528.81
578.032	537.81
578.243	565.81
578.454	586.81
578.665	593.81
578.875	547.81
579.086	555.81
579.297	558.81
579.508	546.81
579.718	553.81
579.929	570.81
580.14	558.81
580.35	532.81
580.561	498.81
580.772	488.81
580.982	519.81
581.193	473.81
581.403	466.81
581.614	473.81
581.825	449.81
582.035	478.81
582.246	457.81
582.456	477.81
582.667	477.81
582.877	453.81
583.087	460.81
583.298	456.81
583.508	447.81
583.719	443.81
583.929	445.81
584.139	444.81
584.35	468.81
584.56	481.81
584.77	473.81
584.981	478.81
585.191	463.81
585.401	462.81
585.611	484.81
585.821	521.81
586.032	513.81
586.242	495.81
586.452	498.81
586.662	463.81
586.872	492.81
587.082	500.81
587.292	472.81
587.502	462.81
587.713	467.81
587.923	465.81
588.133	506.81
588.343	491.81
588.553	435.81
588.762	463.81
588.972	465.81
589.182	446.81
589.392	453.81
589.602	471.81
589.812	474.81
590.022	501.81
590.232	523.81
590.441	488.81
590.651	436.81
590.861	446.81
591.071	468.81
591.281	440.81
591.49	449.81
591.7	435.81
591.91	439.81
592.119	445.81
592.329	444.81
592.539	454.81
592.748	468.81
592.958	464.81
593.167	455.81
593.377	471.81
593.587	475.81
593.796	473.81
594.006	498.81
594.215	463.81
594.424	480.81
594.634	516.81
594.843	493.81
595.053	476.81
595.262	459.81
595.472	442.81
595.681	440.81
595.89	404.81
596.1	418.81
596.309	429.81
596.518	460.81
596.727	425.81
596.937	432.81
597.146	468.81
597.355	467.81
597.564	455.81
597.774	435.81
597.983	419.81
598.192	412.81
598.401	405.81
598.61	397.81
598.819	396.81
599.028	400.81
599.237	400.81
599.446	388.81
599.655	383.81
599.864	388.81
600.073	377.81
600.282	365.81
600.491	369.81
600.7	392.81
600.909	388.81
601.118	381.81
601.327	386.81
601.536	381.81
601.745	391.81
601.953	403.81
602.162	414.81
602.371	403.81
602.58	405.81
602.789	390.81
602.997	376.81
603.206	374.81
603.415	383.81
603.623	351.81
603.832	364.81
604.041	335.81
604.249	353.81
604.458	380.81
604.666	356.81
604.875	348.81
605.084	341.81
605.292	375.81
605.501	397.81
605.709	365.81
605.918	361.81
606.126	363.81
606.334	363.81
606.543	373.81
606.751	360.81
606.96	366.81
607.168	336.81
607.376	327.81
607.585	337.81
607.793	346.81
608.001	341.81
608.21	354.81
608.418	389.81
608.626	353.81
608.834	328.81
609.043	339.81
609.251	341.81
609.459	323.81
609.667	348.81
609.875	354.81
610.083	367.81
610.291	347.81
610.499	380.81
610.707	335.81
610.916	319.81
611.124	328.81
611.332	340.81
611.54	340.81
611.748	340.81
611.955	323.81
612.163	329.81
612.371	324.81
612.579	304.81
612.787	333.81
612.995	333.81
613.203	328.81
613.411	331.81
613.618	333.81
613.826	359.81
614.034	351.81
614.242	342.81
614.449	325.81
614.657	325.81
614.865	334.81
615.072	314.81
615.28	303.81
615.488	316.81
615.695	322.81
615.903	322.81
616.111	322.81
616.318	337.81
616.526	316.81
616.733	333.81
616.941	320.81
617.148	322.81
617.356	318.81
617.563	305.81
617.771	312.81
617.978	316.81
618.185	308.81
618.393	325.81
618.6	313.81
618.807	329.81
619.015	317.81
619.222	320.81
619.429	309.81
619.637	331.81
619.844	305.81
620.051	310.81
620.258	308.81
620.466	287.81
620.673	296.81
620.88	295.81
621.087	285.81
621.294	291.81
621.501	281.81
621.708	304.81
621.915	296.81
622.122	296.81
622.329	304.81
622.536	305.81
622.743	303.81
622.95	280.81
623.157	304.81
623.364	311.81
623.571	299.81
623.778	300.81
623.985	319.81
624.192	313.81
624.399	323.81
624.606	288.81
624.812	297.81
625.019	295.81
625.226	304.81
625.433	312.81
625.639	292.81
625.846	277.81
626.053	277.81
626.259	264.81
626.466	288.81
626.673	302.81
626.879	264.81
627.086	256.81
627.293	280.81
627.499	283.81
627.706	288.81
627.912	265.81
628.119	256.81
628.325	274.81
628.532	261.81
628.738	261.81
628.945	258.81
629.151	272.81
629.357	238.81
629.564	259.81
629.77	272.81
629.976	267.81
630.183	251.81
630.389	256.81
630.595	275.81
630.802	242.81
631.008	243.81
631.214	264.81
631.42	251.81
631.627	263.81
631.833	240.81
632.039	250.81
632.245	247.81
632.451	236.81
632.657	249.81
632.863	247.81
633.069	245.81
633.275	240.81
633.481	217.81
633.688	235.81
633.893	237.81
634.099	217.81
634.305	252.81
634.511	215.81
634.717	227.81
634.923	249.81
635.129	224.81
635.335	223.81
635.541	236.81
635.747	233.81
635.952	243.81
636.158	236.81
636.364	250.81
636.57	250.81
636.775	235.81
636.981	225.81
637.187	204.81
637.392	219.81
637.598	245.81
637.804	240.81
638.009	238.81
638.215	222.81
638.421	214.81
638.626	234.81
638.832	223.81
639.037	220.81
639.243	215.81
639.448	223.81
639.654	251.81
639.859	235.81
640.065	219.81
640.27	233.81
640.475	229.81
640.681	220.81
640.886	219.81
641.091	220.81
641.297	208.81
641.502	211.81
641.707	223.81
641.913	208.81
642.118	231.81
642.323	209.81
642.528	226.81
642.733	216.81
642.939	233.81
643.144	211.81
643.349	221.81
643.554	216.81
643.759	206.81
643.964	208.81
644.169	210.81
644.374	211.81
644.579	221.81
644.784	207.81
644.989	200.81
645.194	201.81
645.399	204.81
645.604	221.81
645.809	209.81
646.014	205.81
646.219	204.81
646.423	204.81
646.628	208.81
646.833	218.81
647.038	207.81
647.243	225.81
647.447	196.81
647.652	197.81
647.857	212.81
648.062	208.81
648.266	210.81
648.471	197.81
648.676	193.81
648.88	210.81
649.085	218.81
649.289	208.81
649.494	213.81
649.698	223.81
649.903	207.81
650.107	206.81
650.312	202.81
650.516	195.81
650.721	162.81
650.925	199.81
651.13	181.81
651.334	187.81
651.539	183.81
651.743	175.81
651.947	174.81
652.152	196.81
652.356	186.81
652.56	176.81
652.764	187.81
652.969	171.81
653.173	152.81
653.377	166.81
653.581	147.81
653.785	151.81
653.99	159.81
654.194	164.81
654.398	155.81
654.602	158.81
654.806	164.81
655.01	158.81
655.214	163.81
655.418	156.81
655.622	140.81
655.826	156.81
656.03	172.81
656.234	159.81
656.438	163.81
656.642	157.81
656.846	168.81
657.049	153.81
657.253	131.81
657.457	131.81
657.661	128.81
657.865	126.81
658.068	106.81
658.272	132.81
658.476	121.81
658.68	126.81
658.883	117.81
659.087	119.81
659.291	112.81
659.494	109.81
659.698	103.81
659.901	96.81
660.105	96.81
660.309	89.81
660.512	88.81
660.716	91.81
660.919	93.81
661.123	92.81
661.326	85.81
661.53	89.81
661.733	83.81
661.936	89.81
662.14	69.81
662.343	92.81
662.546	103.81
662.75	92.81
662.953	83.81
663.156	82.81
663.36	84.81
663.563	81.81
663.766	78.81
663.969	84.81
664.173	71.81
664.376	92.81
664.579	67.81
664.782	89.81
664.985	80.81
665.188	84.81
665.391	60.81
665.594	73.81
665.797	80.81
666	87.81
666.203	89.81
666.406	73.81
666.609	75.81
666.812	69.81
667.015	79.81
667.218	75.81
667.421	86.81
667.624	83.81
667.827	77.81
668.03	65.81
668.232	89.81
668.435	86.81
668.638	74.81
668.841	88.81
669.043	72.81
669.246	80.81
669.449	85.81
669.651	71.81
669.854	76.81
670.057	82.81
670.259	79.81
670.462	90.81
670.665	84.81
670.867	77.81
671.07	93.81
671.272	84.81
671.475	78.81
671.677	84.81
671.88	92.81
672.082	83.81
672.284	74.81
672.487	83.81
672.689	80.81
672.892	70.81
