Data from NickelSpatula.Lamp.E5.5.P2_HRD10591_11-52-12-555.txt Node
Date: Tue Jul 23 11:52:12 EDT 2019
User: cochatt
Spectrometer: HR+D1059
Trigger mode: 1
Integration Time (sec): 1.000000E-1
Scans to average: 1
Electric dark correction enabled: true
Nonlinearity correction enabled: false
Boxcar width: 0
XAxis mode: Wavelengths
Number of Pixels in Spectrum: 2048
>>>>>Begin Spectral Data<<<<<
223.165	-19.12
223.4	-19.12
223.635	-19.12
223.869	-13.12
224.104	-18.12
224.338	-33.12
224.573	-12.12
224.808	-8.12
225.042	-7.12
225.277	-8.12
225.511	1.88
225.746	2.88
225.98	-2.12
226.215	-0.12
226.449	13.88
226.683	32.88
226.918	32.88
227.152	36.88
227.387	35.88
227.621	48.88
227.856	36.88
228.09	57.88
228.324	60.88
228.559	52.88
228.793	73.88
229.027	67.88
229.262	83.88
229.496	86.88
229.73	78.88
229.964	97.88
230.199	97.88
230.433	87.88
230.667	79.88
230.901	92.88
231.136	95.88
231.37	95.88
231.604	110.88
231.838	122.88
232.072	97.88
232.306	120.88
232.541	127.88
232.775	101.88
233.009	126.88
233.243	122.88
233.477	123.88
233.711	120.88
233.945	123.88
234.179	116.88
234.413	142.88
234.647	130.88
234.881	157.88
235.115	157.88
235.349	139.88
235.583	126.88
235.817	120.88
236.051	132.88
236.285	143.88
236.519	160.88
236.753	134.88
236.987	137.88
237.221	118.88
237.455	142.88
237.689	133.88
237.922	152.88
238.156	143.88
238.39	152.88
238.624	176.88
238.858	176.88
239.091	155.88
239.325	154.88
239.559	137.88
239.793	155.88
240.027	191.88
240.26	167.88
240.494	153.88
240.728	172.88
240.961	188.88
241.195	182.88
241.429	179.88
241.662	167.88
241.896	149.88
242.13	151.88
242.363	133.88
242.597	131.88
242.83	157.88
243.064	160.88
243.298	151.88
243.531	181.88
243.765	188.88
243.998	152.88
244.232	166.88
244.465	166.88
244.699	167.88
244.932	196.88
245.166	196.88
245.399	149.88
245.633	169.88
245.866	166.88
246.099	176.88
246.333	198.88
246.566	204.88
246.8	196.88
247.033	207.88
247.266	180.88
247.5	183.88
247.733	178.88
247.966	163.88
248.2	176.88
248.433	188.88
248.666	198.88
248.899	209.88
249.133	209.88
249.366	234.88
249.599	250.88
249.832	229.88
250.066	204.88
250.299	212.88
250.532	211.88
250.765	216.88
250.998	185.88
251.231	184.88
251.465	204.88
251.698	192.88
251.931	198.88
252.164	199.88
252.397	229.88
252.63	244.88
252.863	271.88
253.096	295.88
253.329	266.88
253.562	242.88
253.795	292.88
254.028	321.88
254.261	310.88
254.494	292.88
254.727	278.88
254.96	253.88
255.193	284.88
255.426	262.88
255.659	229.88
255.892	182.88
256.124	224.88
256.357	255.88
256.59	291.88
256.823	284.88
257.056	242.88
257.289	219.88
257.521	240.88
257.754	277.88
257.987	288.88
258.22	269.88
258.452	239.88
258.685	277.88
258.918	318.88
259.151	300.88
259.383	296.88
259.616	349.88
259.849	337.88
260.081	377.88
260.314	412.88
260.547	334.88
260.779	330.88
261.012	398.88
261.244	382.88
261.477	358.88
261.71	354.88
261.942	280.88
262.175	284.88
262.407	294.88
262.64	274.88
262.872	331.88
263.105	364.88
263.337	400.88
263.57	356.88
263.802	264.88
264.035	242.88
264.267	219.88
264.499	206.88
264.732	180.88
264.964	178.88
265.197	195.88
265.429	193.88
265.661	185.88
265.894	229.88
266.126	228.88
266.358	230.88
266.591	292.88
266.823	350.88
267.055	325.88
267.287	292.88
267.52	278.88
267.752	302.88
267.984	330.88
268.216	346.88
268.448	266.88
268.681	270.88
268.913	281.88
269.145	290.88
269.377	315.88
269.609	296.88
269.841	302.88
270.073	303.88
270.306	320.88
270.538	312.88
270.77	322.88
271.002	314.88
271.234	336.88
271.466	343.88
271.698	307.88
271.93	324.88
272.162	345.88
272.394	312.88
272.626	306.88
272.858	326.88
273.09	330.88
273.322	301.88
273.553	281.88
273.785	323.88
274.017	406.88
274.249	506.88
274.481	495.88
274.713	557.88
274.945	614.88
275.176	650.88
275.408	584.88
275.64	558.88
275.872	538.88
276.104	473.88
276.335	397.88
276.567	405.88
276.799	409.88
277.031	440.88
277.262	374.88
277.494	278.88
277.726	282.88
277.957	299.88
278.189	330.88
278.421	316.88
278.652	312.88
278.884	304.88
279.115	272.88
279.347	284.88
279.579	288.88
279.81	285.88
280.042	274.88
280.273	292.88
280.505	270.88
280.736	250.88
280.968	241.88
281.199	266.88
281.431	305.88
281.662	280.88
281.894	271.88
282.125	282.88
282.356	305.88
282.588	301.88
282.819	285.88
283.051	313.88
283.282	368.88
283.513	394.88
283.745	465.88
283.976	485.88
284.207	432.88
284.439	444.88
284.67	418.88
284.901	383.88
285.132	408.88
285.364	421.88
285.595	413.88
285.826	414.88
286.057	413.88
286.288	418.88
286.52	446.88
286.751	453.88
286.982	467.88
287.213	400.88
287.444	372.88
287.675	375.88
287.906	414.88
288.138	348.88
288.369	324.88
288.6	304.88
288.831	334.88
289.062	376.88
289.293	400.88
289.524	360.88
289.755	364.88
289.986	356.88
290.217	328.88
290.448	270.88
290.679	237.88
290.91	227.88
291.141	229.88
291.371	256.88
291.602	239.88
291.833	240.88
292.064	230.88
292.295	284.88
292.526	309.88
292.757	308.88
292.987	341.88
293.218	361.88
293.449	373.88
293.68	374.88
293.91	347.88
294.141	386.88
294.372	372.88
294.603	322.88
294.833	361.88
295.064	432.88
295.295	428.88
295.525	312.88
295.756	272.88
295.987	254.88
296.217	240.88
296.448	245.88
296.679	262.88
296.909	275.88
297.14	304.88
297.37	344.88
297.601	318.88
297.831	263.88
298.062	288.88
298.292	321.88
298.523	333.88
298.753	369.88
298.984	341.88
299.214	288.88
299.445	264.88
299.675	255.88
299.905	259.88
300.136	237.88
300.366	280.88
300.597	279.88
300.827	236.88
301.057	250.88
301.288	224.88
301.518	272.88
301.748	294.88
301.979	302.88
302.209	317.88
302.439	328.88
302.669	292.88
302.9	280.88
303.13	276.88
303.36	272.88
303.59	254.88
303.82	262.88
304.051	271.88
304.281	293.88
304.511	295.88
304.741	256.88
304.971	271.88
305.201	289.88
305.431	282.88
305.661	260.88
305.891	258.88
306.121	249.88
306.352	206.88
306.582	221.88
306.812	210.88
307.042	221.88
307.272	224.88
307.502	205.88
307.731	208.88
307.961	238.88
308.191	219.88
308.421	178.88
308.651	202.88
308.881	196.88
309.111	201.88
309.341	201.88
309.571	213.88
309.8	220.88
310.03	234.88
310.26	254.88
310.49	209.88
310.72	240.88
310.949	209.88
311.179	203.88
311.409	208.88
311.639	258.88
311.868	293.88
312.098	378.88
312.328	411.88
312.557	388.88
312.787	393.88
313.017	376.88
313.246	379.88
313.476	430.88
313.706	349.88
313.935	281.88
314.165	263.88
314.394	237.88
314.624	233.88
314.853	247.88
315.083	233.88
315.312	224.88
315.542	223.88
315.771	225.88
316.001	201.88
316.23	220.88
316.46	202.88
316.689	206.88
316.919	215.88
317.148	218.88
317.377	191.88
317.607	220.88
317.836	219.88
318.065	249.88
318.295	290.88
318.524	275.88
318.753	228.88
318.983	221.88
319.212	232.88
319.441	214.88
319.67	271.88
319.9	268.88
320.129	228.88
320.358	245.88
320.587	203.88
320.816	221.88
321.046	267.88
321.275	302.88
321.504	286.88
321.733	273.88
321.962	252.88
322.191	254.88
322.42	236.88
322.649	261.88
322.878	277.88
323.108	265.88
323.337	255.88
323.566	253.88
323.795	253.88
324.024	233.88
324.253	230.88
324.482	206.88
324.71	258.88
324.939	263.88
325.168	257.88
325.397	221.88
325.626	202.88
325.855	220.88
326.084	213.88
326.313	224.88
326.542	217.88
326.77	216.88
326.999	208.88
327.228	220.88
327.457	241.88
327.686	240.88
327.914	209.88
328.143	202.88
328.372	205.88
328.6	203.88
328.829	190.88
329.058	202.88
329.287	227.88
329.515	205.88
329.744	210.88
329.972	210.88
330.201	215.88
330.43	205.88
330.658	209.88
330.887	244.88
331.115	229.88
331.344	220.88
331.572	230.88
331.801	220.88
332.03	195.88
332.258	208.88
332.486	221.88
332.715	220.88
332.943	219.88
333.172	228.88
333.4	230.88
333.629	245.88
333.857	273.88
334.085	264.88
334.314	252.88
334.542	249.88
334.771	219.88
334.999	246.88
335.227	215.88
335.455	213.88
335.684	233.88
335.912	271.88
336.14	304.88
336.369	275.88
336.597	272.88
336.825	289.88
337.053	335.88
337.281	286.88
337.51	242.88
337.738	224.88
337.966	220.88
338.194	274.88
338.422	268.88
338.65	222.88
338.878	208.88
339.106	232.88
339.334	231.88
339.562	247.88
339.79	246.88
340.018	219.88
340.246	244.88
340.474	263.88
340.702	273.88
340.93	277.88
341.158	311.88
341.386	245.88
341.614	246.88
341.842	244.88
342.07	262.88
342.298	282.88
342.526	287.88
342.754	259.88
342.981	228.88
343.209	228.88
343.437	234.88
343.665	258.88
343.893	279.88
344.12	325.88
344.348	354.88
344.576	320.88
344.804	277.88
345.031	244.88
345.259	230.88
345.487	230.88
345.714	220.88
345.942	232.88
346.17	268.88
346.397	246.88
346.625	245.88
346.853	222.88
347.08	224.88
347.308	238.88
347.535	270.88
347.763	272.88
347.99	254.88
348.218	245.88
348.445	224.88
348.673	238.88
348.9	233.88
349.128	254.88
349.355	248.88
349.583	230.88
349.81	247.88
350.037	230.88
350.265	214.88
350.492	202.88
350.72	198.88
350.947	207.88
351.174	201.88
351.402	220.88
351.629	220.88
351.856	221.88
352.083	217.88
352.311	232.88
352.538	240.88
352.765	240.88
352.992	240.88
353.22	229.88
353.447	224.88
353.674	236.88
353.901	208.88
354.128	205.88
354.355	248.88
354.583	240.88
354.81	240.88
355.037	255.88
355.264	228.88
355.491	246.88
355.718	263.88
355.945	239.88
356.172	234.88
356.399	258.88
356.626	273.88
356.853	348.88
357.08	332.88
357.307	357.88
357.534	300.88
357.761	310.88
357.988	380.88
358.215	428.88
358.441	403.88
358.668	343.88
358.895	301.88
359.122	263.88
359.349	281.88
359.576	310.88
359.802	274.88
360.029	232.88
360.256	238.88
360.483	260.88
360.709	359.88
360.936	360.88
361.163	312.88
361.39	259.88
361.616	259.88
361.843	261.88
362.07	326.88
362.296	289.88
362.523	223.88
362.749	228.88
362.976	216.88
363.203	276.88
363.429	282.88
363.656	259.88
363.882	228.88
364.109	252.88
364.335	228.88
364.562	236.88
364.788	251.88
365.015	275.88
365.241	263.88
365.468	241.88
365.694	197.88
365.92	216.88
366.147	198.88
366.373	207.88
366.599	195.88
366.826	187.88
367.052	206.88
367.278	204.88
367.505	200.88
367.731	221.88
367.957	225.88
368.184	242.88
368.41	232.88
368.636	224.88
368.862	241.88
369.089	242.88
369.315	214.88
369.541	230.88
369.767	229.88
369.993	214.88
370.219	213.88
370.445	233.88
370.672	263.88
370.898	256.88
371.124	255.88
371.35	246.88
371.576	215.88
371.802	222.88
372.028	266.88
372.254	306.88
372.48	276.88
372.706	246.88
372.932	245.88
373.158	261.88
373.384	288.88
373.61	398.88
373.835	374.88
374.061	293.88
374.287	265.88
374.513	304.88
374.739	365.88
374.965	384.88
375.191	350.88
375.416	290.88
375.642	230.88
375.868	285.88
376.094	320.88
376.319	261.88
376.545	282.88
376.771	301.88
376.997	254.88
377.222	227.88
377.448	189.88
377.674	197.88
377.899	181.88
378.125	201.88
378.35	198.88
378.576	191.88
378.802	206.88
379.027	228.88
379.253	216.88
379.478	219.88
379.704	244.88
379.929	239.88
380.155	270.88
380.38	216.88
380.606	220.88
380.831	268.88
381.057	258.88
381.282	249.88
381.507	258.88
381.733	313.88
381.958	318.88
382.184	355.88
382.409	342.88
382.634	355.88
382.86	366.88
383.085	315.88
383.31	273.88
383.535	282.88
383.761	274.88
383.986	256.88
384.211	309.88
384.436	308.88
384.662	258.88
384.887	227.88
385.112	262.88
385.337	265.88
385.562	254.88
385.787	275.88
386.013	281.88
386.238	294.88
386.463	270.88
386.688	239.88
386.913	217.88
387.138	228.88
387.363	231.88
387.588	226.88
387.813	230.88
388.038	243.88
388.263	222.88
388.488	235.88
388.713	283.88
388.938	298.88
389.163	250.88
389.387	206.88
389.612	234.88
389.837	213.88
390.062	220.88
390.287	252.88
390.512	253.88
390.736	231.88
390.961	254.88
391.186	224.88
391.411	216.88
391.636	224.88
391.86	245.88
392.085	256.88
392.31	243.88
392.534	254.88
392.759	246.88
392.984	251.88
393.208	242.88
393.433	217.88
393.658	201.88
393.882	201.88
394.107	205.88
394.331	199.88
394.556	200.88
394.78	206.88
395.005	229.88
395.229	220.88
395.454	222.88
395.678	218.88
395.903	224.88
396.127	220.88
396.352	213.88
396.576	241.88
396.801	236.88
397.025	242.88
397.249	274.88
397.474	236.88
397.698	233.88
397.922	232.88
398.147	223.88
398.371	228.88
398.595	231.88
398.82	247.88
399.044	231.88
399.268	243.88
399.492	289.88
399.717	279.88
399.941	292.88
400.165	262.88
400.389	258.88
400.613	256.88
400.837	247.88
401.062	236.88
401.286	233.88
401.51	237.88
401.734	222.88
401.958	248.88
402.182	231.88
402.406	238.88
402.63	240.88
402.854	268.88
403.078	311.88
403.302	366.88
403.526	385.88
403.75	340.88
403.974	288.88
404.198	304.88
404.422	310.88
404.645	337.88
404.869	374.88
405.093	289.88
405.317	264.88
405.541	256.88
405.765	270.88
405.988	244.88
406.212	264.88
406.436	311.88
406.66	330.88
406.883	278.88
407.107	302.88
407.331	334.88
407.555	309.88
407.778	298.88
408.002	289.88
408.226	257.88
408.449	298.88
408.673	269.88
408.896	235.88
409.12	241.88
409.344	246.88
409.567	249.88
409.791	246.88
410.014	264.88
410.238	247.88
410.461	233.88
410.685	242.88
410.908	225.88
411.132	237.88
411.355	225.88
411.578	238.88
411.802	216.88
412.025	248.88
412.249	240.88
412.472	252.88
412.695	241.88
412.919	240.88
413.142	229.88
413.365	244.88
413.589	263.88
413.812	227.88
414.035	242.88
414.258	236.88
414.482	278.88
414.705	268.88
414.928	241.88
415.151	225.88
415.374	229.88
415.597	238.88
415.821	251.88
416.044	229.88
416.267	215.88
416.49	233.88
416.713	242.88
416.936	225.88
417.159	236.88
417.382	225.88
417.605	225.88
417.828	238.88
418.051	244.88
418.274	253.88
418.497	245.88
418.72	232.88
418.943	260.88
419.166	240.88
419.389	265.88
419.611	238.88
419.834	256.88
420.057	294.88
420.28	288.88
420.503	242.88
420.726	245.88
420.948	228.88
421.171	211.88
421.394	238.88
421.617	219.88
421.839	233.88
422.062	238.88
422.285	236.88
422.507	253.88
422.73	231.88
422.953	242.88
423.175	252.88
423.398	245.88
423.621	243.88
423.843	254.88
424.066	238.88
424.288	241.88
424.511	265.88
424.733	257.88
424.956	249.88
425.178	268.88
425.401	295.88
425.623	368.88
425.846	286.88
426.068	257.88
426.291	263.88
426.513	260.88
426.735	233.88
426.958	252.88
427.18	280.88
427.402	351.88
427.625	350.88
427.847	309.88
428.069	241.88
428.292	238.88
428.514	244.88
428.736	229.88
428.958	259.88
429.181	301.88
429.403	267.88
429.625	216.88
429.847	206.88
430.069	236.88
430.292	238.88
430.514	239.88
430.736	225.88
430.958	295.88
431.18	246.88
431.402	207.88
431.624	220.88
431.846	215.88
432.068	207.88
432.29	200.88
432.512	236.88
432.734	292.88
432.956	284.88
433.178	235.88
433.4	229.88
433.622	224.88
433.844	231.88
434.066	253.88
434.287	233.88
434.509	237.88
434.731	258.88
434.953	236.88
435.175	258.88
435.397	275.88
435.618	242.88
435.84	232.88
436.062	211.88
436.284	236.88
436.505	210.88
436.727	230.88
436.949	216.88
437.17	226.88
437.392	224.88
437.614	226.88
437.835	209.88
438.057	226.88
438.278	233.88
438.5	309.88
438.721	340.88
438.943	240.88
439.165	215.88
439.386	208.88
439.608	214.88
439.829	204.88
440.05	225.88
440.272	236.88
440.493	258.88
440.715	293.88
440.936	240.88
441.158	221.88
441.379	225.88
441.6	253.88
441.822	264.88
442.043	242.88
442.264	205.88
442.486	246.88
442.707	238.88
442.928	211.88
443.149	227.88
443.371	227.88
443.592	260.88
443.813	244.88
444.034	240.88
444.255	239.88
444.476	255.88
444.698	256.88
444.919	260.88
445.14	342.88
445.361	321.88
445.582	261.88
445.803	259.88
446.024	255.88
446.245	247.88
446.466	258.88
446.687	228.88
446.908	237.88
447.129	236.88
447.35	219.88
447.571	223.88
447.792	218.88
448.013	204.88
448.234	209.88
448.455	200.88
448.675	206.88
448.896	220.88
449.117	216.88
449.338	216.88
449.559	224.88
449.779	220.88
450	224.88
450.221	220.88
450.442	217.88
450.662	215.88
450.883	208.88
451.104	221.88
451.324	221.88
451.545	219.88
451.766	213.88
451.986	198.88
452.207	222.88
452.428	213.88
452.648	206.88
452.869	237.88
453.089	227.88
453.31	209.88
453.53	221.88
453.751	209.88
453.971	217.88
454.192	209.88
454.412	221.88
454.633	205.88
454.853	204.88
455.073	208.88
455.294	211.88
455.514	197.88
455.734	201.88
455.955	208.88
456.175	207.88
456.395	192.88
456.616	192.88
456.836	190.88
457.056	189.88
457.276	198.88
457.497	213.88
457.717	196.88
457.937	203.88
458.157	190.88
458.377	193.88
458.598	202.88
458.818	188.88
459.038	212.88
459.258	206.88
459.478	213.88
459.698	233.88
459.918	244.88
460.138	250.88
460.358	257.88
460.578	247.88
460.798	250.88
461.018	237.88
461.238	226.88
461.458	244.88
461.678	256.88
461.898	278.88
462.118	246.88
462.338	240.88
462.558	262.88
462.777	260.88
462.997	286.88
463.217	278.88
463.437	285.88
463.657	259.88
463.876	285.88
464.096	280.88
464.316	271.88
464.536	269.88
464.755	284.88
464.975	273.88
465.195	261.88
465.414	281.88
465.634	245.88
465.854	242.88
466.073	214.88
466.293	236.88
466.512	250.88
466.732	244.88
466.951	272.88
467.171	247.88
467.391	238.88
467.61	226.88
467.829	230.88
468.049	227.88
468.268	238.88
468.488	207.88
468.707	217.88
468.927	241.88
469.146	270.88
469.365	262.88
469.585	260.88
469.804	269.88
470.023	268.88
470.243	266.88
470.462	228.88
470.681	230.88
470.901	261.88
471.12	232.88
471.339	254.88
471.558	241.88
471.777	221.88
471.997	258.88
472.216	260.88
472.435	262.88
472.654	258.88
472.873	228.88
473.092	254.88
473.311	252.88
473.53	239.88
473.749	228.88
473.968	237.88
474.187	232.88
474.406	242.88
474.625	246.88
474.844	259.88
475.063	256.88
475.282	243.88
475.501	258.88
475.72	292.88
475.939	272.88
476.158	260.88
476.377	322.88
476.596	357.88
476.814	360.88
477.033	312.88
477.252	272.88
477.471	218.88
477.69	244.88
477.908	288.88
478.127	284.88
478.346	255.88
478.564	284.88
478.783	281.88
479.002	272.88
479.22	306.88
479.439	325.88
479.658	296.88
479.876	274.88
480.095	295.88
480.313	315.88
480.532	290.88
480.751	282.88
480.969	278.88
481.188	304.88
481.406	326.88
481.624	288.88
481.843	278.88
482.061	259.88
482.28	305.88
482.498	344.88
482.717	353.88
482.935	281.88
483.153	271.88
483.372	256.88
483.59	245.88
483.808	256.88
484.027	271.88
484.245	269.88
484.463	239.88
484.681	270.88
484.9	289.88
485.118	298.88
485.336	253.88
485.554	260.88
485.772	291.88
485.99	292.88
486.209	315.88
486.427	286.88
486.645	305.88
486.863	294.88
487.081	296.88
487.299	316.88
487.517	300.88
487.735	287.88
487.953	280.88
488.171	303.88
488.389	286.88
488.607	258.88
488.825	289.88
489.043	282.88
489.261	319.88
489.479	332.88
489.696	297.88
489.914	284.88
490.132	253.88
490.35	267.88
490.568	259.88
490.786	274.88
491.003	276.88
491.221	281.88
491.439	262.88
491.657	276.88
491.874	288.88
492.092	312.88
492.31	374.88
492.527	360.88
492.745	344.88
492.963	307.88
493.18	293.88
493.398	310.88
493.615	278.88
493.833	296.88
494.05	288.88
494.268	290.88
494.485	277.88
494.703	288.88
494.92	294.88
495.138	286.88
495.355	286.88
495.573	275.88
495.79	290.88
496.008	372.88
496.225	329.88
496.442	309.88
496.66	329.88
496.877	293.88
497.094	312.88
497.312	293.88
497.529	317.88
497.746	305.88
497.963	323.88
498.181	321.88
498.398	351.88
498.615	377.88
498.832	390.88
499.049	400.88
499.267	376.88
499.484	388.88
499.701	413.88
499.918	471.88
500.135	494.88
500.352	514.88
500.569	536.88
500.786	536.88
501.003	512.88
501.22	501.88
501.437	432.88
501.654	402.88
501.871	389.88
502.088	386.88
502.305	364.88
502.522	376.88
502.739	342.88
502.956	322.88
503.172	330.88
503.389	305.88
503.606	297.88
503.823	305.88
504.04	300.88
504.256	314.88
504.473	326.88
504.69	332.88
504.907	315.88
505.123	304.88
505.34	338.88
505.557	336.88
505.773	316.88
505.99	302.88
506.207	309.88
506.423	283.88
506.64	280.88
506.856	300.88
507.073	319.88
507.289	321.88
507.506	326.88
507.722	334.88
507.939	338.88
508.155	353.88
508.372	295.88
508.588	297.88
508.805	284.88
509.021	292.88
509.238	272.88
509.454	278.88
509.67	282.88
509.887	281.88
510.103	307.88
510.319	300.88
510.536	271.88
510.752	285.88
510.968	264.88
511.184	242.88
511.401	239.88
511.617	251.88
511.833	271.88
512.049	274.88
512.265	256.88
512.481	282.88
512.698	289.88
512.914	321.88
513.13	291.88
513.346	293.88
513.562	272.88
513.778	283.88
513.994	265.88
514.21	276.88
514.426	300.88
514.642	260.88
514.858	287.88
515.074	276.88
515.29	308.88
515.506	335.88
515.721	308.88
515.937	298.88
516.153	286.88
516.369	293.88
516.585	285.88
516.801	321.88
517.016	359.88
517.232	362.88
517.448	355.88
517.664	327.88
517.879	322.88
518.095	321.88
518.311	331.88
518.527	324.88
518.742	339.88
518.958	367.88
519.173	336.88
519.389	315.88
519.605	327.88
519.82	326.88
520.036	402.88
520.251	382.88
520.467	375.88
520.682	578.88
520.898	735.88
521.113	678.88
521.329	428.88
521.544	375.88
521.76	346.88
521.975	304.88
522.19	295.88
522.406	320.88
522.621	329.88
522.836	356.88
523.052	330.88
523.267	296.88
523.482	308.88
523.698	307.88
523.913	311.88
524.128	290.88
524.343	266.88
524.559	253.88
524.774	288.88
524.989	293.88
525.204	277.88
525.419	299.88
525.634	298.88
525.849	293.88
526.064	289.88
526.28	304.88
526.495	339.88
526.71	359.88
526.925	310.88
527.14	339.88
527.355	327.88
527.57	290.88
527.785	295.88
527.999	274.88
528.214	280.88
528.429	278.88
528.644	271.88
528.859	270.88
529.074	257.88
529.289	243.88
529.503	253.88
529.718	262.88
529.933	314.88
530.148	310.88
530.363	273.88
530.577	258.88
530.792	255.88
531.007	258.88
531.221	258.88
531.436	277.88
531.651	259.88
531.865	249.88
532.08	259.88
532.295	237.88
532.509	250.88
532.724	257.88
532.938	314.88
533.153	373.88
533.367	305.88
533.582	298.88
533.796	284.88
534.011	282.88
534.225	264.88
534.44	266.88
534.654	290.88
534.868	331.88
535.083	292.88
535.297	278.88
535.511	291.88
535.726	294.88
535.94	264.88
536.154	247.88
536.369	272.88
536.583	244.88
536.797	254.88
537.011	267.88
537.225	280.88
537.44	277.88
537.654	257.88
537.868	254.88
538.082	252.88
538.296	275.88
538.51	266.88
538.724	272.88
538.938	254.88
539.153	245.88
539.367	238.88
539.581	252.88
539.795	249.88
540.009	266.88
540.222	244.88
540.436	237.88
540.65	272.88
540.864	285.88
541.078	302.88
541.292	341.88
541.506	280.88
541.72	263.88
541.934	232.88
542.147	230.88
542.361	268.88
542.575	261.88
542.789	254.88
543.002	224.88
543.216	264.88
543.43	238.88
543.644	250.88
543.857	241.88
544.071	229.88
544.285	222.88
544.498	245.88
544.712	252.88
544.925	240.88
545.139	262.88
545.352	248.88
545.566	222.88
545.779	266.88
545.993	255.88
546.206	231.88
546.42	217.88
546.633	243.88
546.847	237.88
547.06	220.88
547.274	227.88
547.487	228.88
547.7	241.88
547.914	248.88
548.127	260.88
548.34	272.88
548.554	266.88
548.767	263.88
548.98	275.88
549.193	254.88
549.407	250.88
549.62	292.88
549.833	291.88
550.046	295.88
550.259	286.88
550.473	268.88
550.686	257.88
550.899	260.88
551.112	265.88
551.325	267.88
551.538	281.88
551.751	245.88
551.964	240.88
552.177	241.88
552.39	224.88
552.603	236.88
552.816	256.88
553.029	241.88
553.242	219.88
553.455	234.88
553.667	263.88
553.88	272.88
554.093	239.88
554.306	230.88
554.519	225.88
554.732	210.88
554.944	213.88
555.157	212.88
555.37	216.88
555.583	204.88
555.795	236.88
556.008	208.88
556.221	202.88
556.433	222.88
556.646	213.88
556.859	204.88
557.071	212.88
557.284	210.88
557.496	229.88
557.709	220.88
557.921	213.88
558.134	214.88
558.346	195.88
558.559	184.88
558.771	203.88
558.984	219.88
559.196	215.88
559.409	201.88
559.621	213.88
559.833	205.88
560.046	207.88
560.258	205.88
560.47	195.88
560.683	187.88
560.895	192.88
561.107	187.88
561.32	187.88
561.532	195.88
561.744	201.88
561.956	229.88
562.168	201.88
562.381	206.88
562.593	209.88
562.805	224.88
563.017	199.88
563.229	192.88
563.441	195.88
563.653	201.88
563.865	189.88
564.077	193.88
564.289	199.88
564.501	180.88
564.713	216.88
564.925	208.88
565.137	206.88
565.349	225.88
565.561	208.88
565.773	198.88
565.985	222.88
566.197	231.88
566.408	241.88
566.62	239.88
566.832	250.88
567.044	250.88
567.255	265.88
567.467	292.88
567.679	272.88
567.891	264.88
568.102	293.88
568.314	292.88
568.526	259.88
568.737	247.88
568.949	255.88
569.161	234.88
569.372	209.88
569.584	215.88
569.795	206.88
570.007	184.88
570.218	196.88
570.43	211.88
570.641	208.88
570.853	182.88
571.064	189.88
571.276	221.88
571.487	193.88
571.698	198.88
571.91	200.88
572.121	199.88
572.333	181.88
572.544	187.88
572.755	178.88
572.966	195.88
573.178	190.88
573.389	205.88
573.6	187.88
573.811	194.88
574.023	178.88
574.234	191.88
574.445	184.88
574.656	172.88
574.867	194.88
575.078	172.88
575.289	166.88
575.501	194.88
575.712	192.88
575.923	183.88
576.134	185.88
576.345	174.88
576.556	162.88
576.767	185.88
576.978	186.88
577.188	176.88
577.399	163.88
577.61	167.88
577.821	169.88
578.032	186.88
578.243	178.88
578.454	199.88
578.665	176.88
578.875	196.88
579.086	203.88
579.297	184.88
579.508	181.88
579.718	189.88
579.929	175.88
580.14	189.88
580.35	161.88
580.561	176.88
580.772	162.88
580.982	158.88
581.193	156.88
581.403	158.88
581.614	166.88
581.825	170.88
582.035	168.88
582.246	169.88
582.456	161.88
582.667	165.88
582.877	171.88
583.087	163.88
583.298	170.88
583.508	150.88
583.719	174.88
583.929	178.88
584.139	172.88
584.35	156.88
584.56	176.88
584.77	157.88
584.981	147.88
585.191	174.88
585.401	151.88
585.611	161.88
585.821	180.88
586.032	167.88
586.242	156.88
586.452	163.88
586.662	158.88
586.872	161.88
587.082	160.88
587.292	168.88
587.502	159.88
587.713	176.88
587.923	172.88
588.133	180.88
588.343	174.88
588.553	138.88
588.762	150.88
588.972	164.88
589.182	165.88
589.392	158.88
589.602	176.88
589.812	164.88
590.022	161.88
590.232	168.88
590.441	165.88
590.651	157.88
590.861	165.88
591.071	135.88
591.281	160.88
591.49	153.88
591.7	157.88
591.91	182.88
592.119	156.88
592.329	172.88
592.539	175.88
592.748	157.88
592.958	184.88
593.167	163.88
593.377	178.88
593.587	178.88
593.796	181.88
594.006	181.88
594.215	183.88
594.424	203.88
594.634	188.88
594.843	172.88
595.053	149.88
595.262	175.88
595.472	169.88
595.681	161.88
595.89	163.88
596.1	173.88
596.309	148.88
596.518	166.88
596.727	148.88
596.937	167.88
597.146	147.88
597.355	174.88
597.564	161.88
597.774	160.88
597.983	136.88
598.192	163.88
598.401	152.88
598.61	136.88
598.819	138.88
599.028	157.88
599.237	148.88
599.446	140.88
599.655	152.88
599.864	153.88
600.073	137.88
600.282	145.88
600.491	148.88
600.7	139.88
600.909	135.88
601.118	146.88
601.327	153.88
601.536	149.88
601.745	163.88
601.953	159.88
602.162	163.88
602.371	143.88
602.58	152.88
602.789	133.88
602.997	154.88
603.206	145.88
603.415	135.88
603.623	131.88
603.832	151.88
604.041	134.88
604.249	140.88
604.458	136.88
604.666	155.88
604.875	148.88
605.084	137.88
605.292	121.88
605.501	139.88
605.709	137.88
605.918	139.88
606.126	128.88
606.334	148.88
606.543	143.88
606.751	128.88
606.96	153.88
607.168	134.88
607.376	134.88
607.585	148.88
607.793	152.88
608.001	133.88
608.21	146.88
608.418	155.88
608.626	124.88
608.834	134.88
609.043	129.88
609.251	140.88
609.459	135.88
609.667	150.88
609.875	137.88
610.083	143.88
610.291	139.88
610.499	151.88
610.707	133.88
610.916	136.88
611.124	130.88
611.332	141.88
611.54	141.88
611.748	140.88
611.955	129.88
612.163	129.88
612.371	149.88
612.579	131.88
612.787	128.88
612.995	131.88
613.203	134.88
613.411	125.88
613.618	138.88
613.826	142.88
614.034	136.88
614.242	136.88
614.449	135.88
614.657	140.88
614.865	147.88
615.072	132.88
615.28	134.88
615.488	136.88
615.695	132.88
615.903	122.88
616.111	136.88
616.318	138.88
616.526	128.88
616.733	131.88
616.941	126.88
617.148	150.88
617.356	133.88
617.563	129.88
617.771	124.88
617.978	129.88
618.185	121.88
618.393	131.88
618.6	128.88
618.807	142.88
619.015	133.88
619.222	134.88
619.429	121.88
619.637	136.88
619.844	144.88
620.051	119.88
620.258	130.88
620.466	130.88
620.673	126.88
620.88	130.88
621.087	129.88
621.294	125.88
621.501	126.88
621.708	121.88
621.915	116.88
622.122	122.88
622.329	124.88
622.536	134.88
622.743	131.88
622.95	106.88
623.157	124.88
623.364	132.88
623.571	122.88
623.778	135.88
623.985	128.88
624.192	125.88
624.399	128.88
624.606	130.88
624.812	132.88
625.019	122.88
625.226	122.88
625.433	135.88
625.639	138.88
625.846	129.88
626.053	114.88
626.259	123.88
626.466	133.88
626.673	108.88
626.879	132.88
627.086	126.88
627.293	128.88
627.499	118.88
627.706	136.88
627.912	116.88
628.119	117.88
628.325	124.88
628.532	129.88
628.738	124.88
628.945	118.88
629.151	118.88
629.357	105.88
629.564	119.88
629.77	122.88
629.976	118.88
630.183	129.88
630.389	133.88
630.595	103.88
630.802	126.88
631.008	124.88
631.214	122.88
631.42	124.88
631.627	113.88
631.833	112.88
632.039	115.88
632.245	117.88
632.451	118.88
632.657	116.88
632.863	115.88
633.069	104.88
633.275	103.88
633.481	118.88
633.688	123.88
633.893	130.88
634.099	113.88
634.305	116.88
634.511	122.88
634.717	119.88
634.923	118.88
635.129	116.88
635.335	113.88
635.541	122.88
635.747	126.88
635.952	121.88
636.158	116.88
636.364	98.88
636.57	116.88
636.775	110.88
636.981	127.88
637.187	105.88
637.392	100.88
637.598	119.88
637.804	124.88
638.009	125.88
638.215	104.88
638.421	105.88
638.626	120.88
638.832	113.88
639.037	102.88
639.243	110.88
639.448	114.88
639.654	121.88
639.859	130.88
640.065	121.88
640.27	125.88
640.475	115.88
640.681	119.88
640.886	113.88
641.091	104.88
641.297	108.88
641.502	96.88
641.707	99.88
641.913	131.88
642.118	117.88
642.323	121.88
642.528	110.88
642.733	109.88
642.939	113.88
643.144	120.88
643.349	110.88
643.554	98.88
643.759	111.88
643.964	118.88
644.169	112.88
644.374	112.88
644.579	122.88
644.784	105.88
644.989	104.88
645.194	111.88
645.399	98.88
645.604	121.88
645.809	112.88
646.014	119.88
646.219	122.88
646.423	106.88
646.628	123.88
646.833	114.88
647.038	97.88
647.243	97.88
647.447	114.88
647.652	94.88
647.857	119.88
648.062	110.88
648.266	112.88
648.471	111.88
648.676	120.88
648.88	119.88
649.085	102.88
649.289	116.88
649.494	108.88
649.698	109.88
649.903	98.88
650.107	116.88
650.312	116.88
650.516	112.88
650.721	107.88
650.925	102.88
651.13	105.88
651.334	98.88
651.539	109.88
651.743	100.88
651.947	114.88
652.152	110.88
652.356	103.88
652.56	107.88
652.764	97.88
652.969	96.88
653.173	96.88
653.377	84.88
653.581	101.88
653.785	99.88
653.99	101.88
654.194	118.88
654.398	106.88
654.602	91.88
654.806	96.88
655.01	107.88
655.214	101.88
655.418	89.88
655.622	93.88
655.826	109.88
656.03	95.88
656.234	88.88
656.438	87.88
656.642	83.88
656.846	88.88
657.049	102.88
657.253	99.88
657.457	86.88
657.661	91.88
657.865	102.88
658.068	79.88
658.272	91.88
658.476	100.88
658.68	94.88
658.883	89.88
659.087	90.88
659.291	92.88
659.494	89.88
659.698	88.88
659.901	79.88
660.105	88.88
660.309	83.88
660.512	79.88
660.716	94.88
660.919	96.88
661.123	92.88
661.326	65.88
661.53	84.88
661.733	89.88
661.936	82.88
662.14	77.88
662.343	93.88
662.546	88.88
662.75	78.88
662.953	101.88
663.156	84.88
663.36	86.88
663.563	74.88
663.766	76.88
663.969	76.88
664.173	79.88
664.376	88.88
664.579	86.88
664.782	83.88
664.985	84.88
665.188	77.88
665.391	78.88
665.594	74.88
665.797	92.88
666	83.88
666.203	87.88
666.406	68.88
666.609	82.88
666.812	84.88
667.015	87.88
667.218	74.88
667.421	57.88
667.624	70.88
667.827	82.88
668.03	84.88
668.232	85.88
668.435	83.88
668.638	79.88
668.841	92.88
669.043	85.88
669.246	78.88
669.449	77.88
669.651	99.88
669.854	81.88
670.057	86.88
670.259	69.88
670.462	79.88
670.665	84.88
670.867	79.88
671.07	85.88
671.272	81.88
671.475	80.88
671.677	98.88
671.88	85.88
672.082	81.88
672.284	77.88
672.487	91.88
672.689	81.88
672.892	90.88
