Data from NickelSpatula.Lamp.E10.P2_HRD10591_11-58-17-528.txt Node
Date: Tue Jul 23 11:58:17 EDT 2019
User: cochatt
Spectrometer: HR+D1059
Trigger mode: 1
Integration Time (sec): 1.000000E-1
Scans to average: 1
Electric dark correction enabled: true
Nonlinearity correction enabled: false
Boxcar width: 0
XAxis mode: Wavelengths
Number of Pixels in Spectrum: 2048
>>>>>Begin Spectral Data<<<<<
223.165	-24.94
223.4	-24.94
223.635	-24.94
223.869	-23.94
224.104	-21.94
224.338	2.06
224.573	-17.94
224.808	-22.94
225.042	-3.94
225.277	-24.94
225.511	-4.94
225.746	14.06
225.98	5.06
226.215	15.06
226.449	26.06
226.683	23.06
226.918	28.06
227.152	32.06
227.387	28.06
227.621	38.06
227.856	50.06
228.09	42.06
228.324	54.06
228.559	55.06
228.793	83.06
229.027	145.06
229.262	172.06
229.496	167.06
229.73	169.06
229.964	190.06
230.199	215.06
230.433	209.06
230.667	203.06
230.901	225.06
231.136	194.06
231.37	200.06
231.604	212.06
231.838	239.06
232.072	245.06
232.306	245.06
232.541	246.06
232.775	244.06
233.009	250.06
233.243	286.06
233.477	313.06
233.711	342.06
233.945	318.06
234.179	307.06
234.413	350.06
234.647	371.06
234.881	436.06
235.115	414.06
235.349	400.06
235.583	345.06
235.817	330.06
236.051	372.06
236.285	394.06
236.519	432.06
236.753	425.06
236.987	408.06
237.221	394.06
237.455	408.06
237.689	428.06
237.922	428.06
238.156	464.06
238.39	518.06
238.624	616.06
238.858	574.06
239.091	476.06
239.325	475.06
239.559	473.06
239.793	500.06
240.027	615.06
240.26	603.06
240.494	544.06
240.728	561.06
240.961	665.06
241.195	615.06
241.429	592.06
241.662	587.06
241.896	510.06
242.13	466.06
242.363	426.06
242.597	435.06
242.83	526.06
243.064	513.06
243.298	552.06
243.531	593.06
243.765	605.06
243.998	593.06
244.232	577.06
244.465	589.06
244.699	555.06
244.932	640.06
245.166	609.06
245.399	530.06
245.633	521.06
245.866	552.06
246.099	580.06
246.333	666.06
246.566	733.06
246.8	755.06
247.033	728.06
247.266	674.06
247.5	685.06
247.733	654.06
247.966	648.06
248.2	658.06
248.433	751.06
248.666	787.06
248.899	809.06
249.133	830.06
249.366	941.06
249.599	1015.06
249.832	920.06
250.066	804.06
250.299	822.06
250.532	820.06
250.765	761.06
250.998	710.06
251.231	692.06
251.465	769.06
251.698	825.06
251.931	790.06
252.164	807.06
252.397	893.06
252.63	1020.06
252.863	1144.06
253.096	1156.06
253.329	1105.06
253.562	1017.06
253.795	1174.06
254.028	1270.06
254.261	1313.06
254.494	1200.06
254.727	1140.06
254.96	1074.06
255.193	1122.06
255.426	1057.06
255.659	828.06
255.892	802.06
256.124	832.06
256.357	993.06
256.59	1152.06
256.823	1061.06
257.056	932.06
257.289	890.06
257.521	924.06
257.754	1066.06
257.987	1224.06
258.22	1080.06
258.452	972.06
258.685	1114.06
258.918	1208.06
259.151	1186.06
259.383	1251.06
259.616	1454.06
259.849	1479.06
260.081	1645.06
260.314	1811.06
260.547	1419.06
260.779	1441.06
261.012	1657.06
261.244	1541.06
261.477	1562.06
261.71	1472.06
261.942	1232.06
262.175	1237.06
262.407	1173.06
262.64	1236.06
262.872	1444.06
263.105	1553.06
263.337	1619.06
263.57	1475.06
263.802	995.06
264.035	914.06
264.267	879.06
264.499	741.06
264.732	700.06
264.964	670.06
265.197	703.06
265.429	735.06
265.661	827.06
265.894	843.06
266.126	907.06
266.358	1017.06
266.591	1209.06
266.823	1436.06
267.055	1375.06
267.287	1218.06
267.52	1230.06
267.752	1268.06
267.984	1396.06
268.216	1325.06
268.448	1119.06
268.681	1070.06
268.913	1165.06
269.145	1236.06
269.377	1251.06
269.609	1280.06
269.841	1158.06
270.073	1284.06
270.306	1327.06
270.538	1334.06
270.77	1368.06
271.002	1347.06
271.234	1430.06
271.466	1452.06
271.698	1391.06
271.93	1364.06
272.162	1397.06
272.394	1384.06
272.626	1365.06
272.858	1406.06
273.09	1429.06
273.322	1261.06
273.553	1258.06
273.785	1478.06
274.017	1879.06
274.249	2315.06
274.481	2429.06
274.713	2617.06
274.945	2951.06
275.176	3042.06
275.408	2724.06
275.64	2488.06
275.872	2487.06
276.104	2122.06
276.335	1876.06
276.567	1837.06
276.799	1874.06
277.031	1994.06
277.262	1546.06
277.494	1200.06
277.726	1168.06
277.957	1300.06
278.189	1437.06
278.421	1434.06
278.652	1404.06
278.884	1347.06
279.115	1238.06
279.347	1156.06
279.579	1168.06
279.81	1180.06
280.042	1210.06
280.273	1240.06
280.505	1142.06
280.736	1001.06
280.968	1028.06
281.199	1059.06
281.431	1246.06
281.662	1204.06
281.894	1151.06
282.125	1246.06
282.356	1319.06
282.588	1398.06
282.819	1242.06
283.051	1310.06
283.282	1609.06
283.513	1928.06
283.745	2108.06
283.976	2098.06
284.207	1942.06
284.439	2038.06
284.67	1960.06
284.901	1754.06
285.132	1887.06
285.364	1944.06
285.595	1829.06
285.826	1945.06
286.057	1953.06
286.288	1898.06
286.52	1956.06
286.751	2031.06
286.982	2029.06
287.213	1748.06
287.444	1712.06
287.675	1813.06
287.906	1778.06
288.138	1512.06
288.369	1329.06
288.6	1287.06
288.831	1349.06
289.062	1513.06
289.293	1674.06
289.524	1582.06
289.755	1532.06
289.986	1600.06
290.217	1412.06
290.448	1092.06
290.679	965.06
290.91	920.06
291.141	927.06
291.371	953.06
291.602	972.06
291.833	1004.06
292.064	1057.06
292.295	1218.06
292.526	1363.06
292.757	1438.06
292.987	1505.06
293.218	1550.06
293.449	1564.06
293.68	1631.06
293.91	1553.06
294.141	1622.06
294.372	1540.06
294.603	1392.06
294.833	1510.06
295.064	1782.06
295.295	1699.06
295.525	1262.06
295.756	1148.06
295.987	1000.06
296.217	1012.06
296.448	1023.06
296.679	1071.06
296.909	1236.06
297.14	1335.06
297.37	1438.06
297.601	1348.06
297.831	1140.06
298.062	1225.06
298.292	1365.06
298.523	1516.06
298.753	1728.06
298.984	1562.06
299.214	1249.06
299.445	1078.06
299.675	1038.06
299.905	1034.06
300.136	1082.06
300.366	1164.06
300.597	1144.06
300.827	1037.06
301.057	1029.06
301.288	1030.06
301.518	1085.06
301.748	1230.06
301.979	1329.06
302.209	1470.06
302.439	1466.06
302.669	1284.06
302.9	1232.06
303.13	1134.06
303.36	1106.06
303.59	1103.06
303.82	1113.06
304.051	1225.06
304.281	1333.06
304.511	1280.06
304.741	1144.06
304.971	1186.06
305.201	1291.06
305.431	1193.06
305.661	1066.06
305.891	1046.06
306.121	1052.06
306.352	951.06
306.582	860.06
306.812	840.06
307.042	872.06
307.272	805.06
307.502	816.06
307.731	914.06
307.961	928.06
308.191	844.06
308.421	779.06
308.651	790.06
308.881	764.06
309.111	745.06
309.341	820.06
309.571	880.06
309.8	902.06
310.03	937.06
310.26	999.06
310.49	969.06
310.72	869.06
310.949	862.06
311.179	894.06
311.409	936.06
311.639	1090.06
311.868	1389.06
312.098	1762.06
312.328	1880.06
312.557	1767.06
312.787	1816.06
313.017	1624.06
313.246	1809.06
313.476	1937.06
313.706	1564.06
313.935	1266.06
314.165	1045.06
314.394	944.06
314.624	952.06
314.853	1000.06
315.083	1054.06
315.312	1002.06
315.542	996.06
315.771	942.06
316.001	885.06
316.23	809.06
316.46	818.06
316.689	864.06
316.919	889.06
317.148	896.06
317.377	894.06
317.607	891.06
317.836	960.06
318.065	1122.06
318.295	1218.06
318.524	1129.06
318.753	1001.06
318.983	926.06
319.212	924.06
319.441	1006.06
319.67	1117.06
319.9	1208.06
320.129	1114.06
320.358	996.06
320.587	952.06
320.816	1025.06
321.046	1154.06
321.275	1333.06
321.504	1316.06
321.733	1289.06
321.962	1208.06
322.191	1166.06
322.42	1108.06
322.649	1143.06
322.878	1231.06
323.108	1221.06
323.337	1123.06
323.566	1057.06
323.795	1083.06
324.024	1052.06
324.253	982.06
324.482	965.06
324.71	1093.06
324.939	1184.06
325.168	1154.06
325.397	932.06
325.626	905.06
325.855	906.06
326.084	942.06
326.313	900.06
326.542	821.06
326.77	892.06
326.999	918.06
327.228	971.06
327.457	1017.06
327.686	995.06
327.914	891.06
328.143	854.06
328.372	824.06
328.6	838.06
328.829	872.06
329.058	888.06
329.287	896.06
329.515	920.06
329.744	858.06
329.972	822.06
330.201	796.06
330.43	841.06
330.658	928.06
330.887	1096.06
331.115	1053.06
331.344	1006.06
331.572	940.06
331.801	912.06
332.03	886.06
332.258	880.06
332.486	928.06
332.715	959.06
332.943	905.06
333.172	901.06
333.4	939.06
333.629	1008.06
333.857	1136.06
334.085	1092.06
334.314	1088.06
334.542	1018.06
334.771	968.06
334.999	940.06
335.227	956.06
335.455	970.06
335.684	1021.06
335.912	1197.06
336.14	1308.06
336.369	1240.06
336.597	1171.06
336.825	1353.06
337.053	1488.06
337.281	1230.06
337.51	987.06
337.738	997.06
337.966	1048.06
338.194	1172.06
338.422	1090.06
338.65	984.06
338.878	861.06
339.106	922.06
339.334	1038.06
339.562	1091.06
339.79	989.06
340.018	961.06
340.246	1030.06
340.474	1198.06
340.702	1265.06
340.93	1354.06
341.158	1290.06
341.386	1109.06
341.614	1109.06
341.842	1099.06
342.07	1163.06
342.298	1326.06
342.526	1380.06
342.754	1212.06
342.981	1123.06
343.209	1081.06
343.437	1132.06
343.665	1198.06
343.893	1179.06
344.12	1362.06
344.348	1607.06
344.576	1430.06
344.804	1224.06
345.031	1047.06
345.259	985.06
345.487	1017.06
345.714	1024.06
345.942	1090.06
346.17	1185.06
346.397	1104.06
346.625	963.06
346.853	984.06
347.08	948.06
347.308	1020.06
347.535	1148.06
347.763	1148.06
347.99	974.06
348.218	916.06
348.445	953.06
348.673	970.06
348.9	962.06
349.128	1047.06
349.355	1111.06
349.583	1055.06
349.81	1032.06
350.037	943.06
350.265	822.06
350.492	795.06
350.72	822.06
350.947	822.06
351.174	885.06
351.402	925.06
351.629	993.06
351.856	945.06
352.083	930.06
352.311	989.06
352.538	1100.06
352.765	1160.06
352.992	1066.06
353.22	983.06
353.447	1023.06
353.674	985.06
353.901	956.06
354.128	1008.06
354.355	1012.06
354.583	994.06
354.81	999.06
355.037	1042.06
355.264	1001.06
355.491	1141.06
355.718	1199.06
355.945	1144.06
356.172	1108.06
356.399	1124.06
356.626	1367.06
356.853	1657.06
357.08	1738.06
357.307	1773.06
357.534	1406.06
357.761	1413.06
357.988	1782.06
358.215	2053.06
358.441	1964.06
358.668	1625.06
358.895	1534.06
359.122	1204.06
359.349	1213.06
359.576	1372.06
359.802	1110.06
360.029	985.06
360.256	1037.06
360.483	1314.06
360.709	1605.06
360.936	1695.06
361.163	1460.06
361.39	1157.06
361.616	1052.06
361.843	1217.06
362.07	1502.06
362.296	1380.06
362.523	1086.06
362.749	942.06
362.976	991.06
363.203	1181.06
363.429	1359.06
363.656	1107.06
363.882	1017.06
364.109	1011.06
364.335	1016.06
364.562	986.06
364.788	1137.06
365.015	1347.06
365.241	1168.06
365.468	958.06
365.694	844.06
365.92	788.06
366.147	792.06
366.373	789.06
366.599	799.06
366.826	779.06
367.052	822.06
367.278	846.06
367.505	802.06
367.731	905.06
367.957	1048.06
368.184	1032.06
368.41	1031.06
368.636	1040.06
368.862	1059.06
369.089	1034.06
369.315	933.06
369.541	900.06
369.767	881.06
369.993	846.06
370.219	838.06
370.445	932.06
370.672	1023.06
370.898	1112.06
371.124	1075.06
371.35	953.06
371.576	894.06
371.802	1001.06
372.028	1156.06
372.254	1328.06
372.48	1136.06
372.706	1036.06
372.932	1084.06
373.158	1146.06
373.384	1390.06
373.61	1840.06
373.835	1841.06
374.061	1390.06
374.287	1156.06
374.513	1408.06
374.739	1680.06
374.965	1717.06
375.191	1662.06
375.416	1168.06
375.642	1027.06
375.868	1207.06
376.094	1371.06
376.319	1192.06
376.545	1310.06
376.771	1337.06
376.997	1132.06
377.222	879.06
377.448	760.06
377.674	751.06
377.899	735.06
378.125	755.06
378.35	740.06
378.576	792.06
378.802	880.06
379.027	937.06
379.253	902.06
379.478	929.06
379.704	1050.06
379.929	1091.06
380.155	1106.06
380.38	948.06
380.606	1007.06
380.831	1116.06
381.057	1037.06
381.282	992.06
381.507	1217.06
381.733	1457.06
381.958	1542.06
382.184	1662.06
382.409	1729.06
382.634	1730.06
382.86	1777.06
383.085	1439.06
383.31	1148.06
383.535	1240.06
383.761	1204.06
383.986	1170.06
384.211	1448.06
384.436	1383.06
384.662	1036.06
384.887	1028.06
385.112	1063.06
385.337	1062.06
385.562	1004.06
385.787	1134.06
386.013	1244.06
386.238	1285.06
386.463	1050.06
386.688	965.06
386.913	952.06
387.138	894.06
387.363	987.06
387.588	1001.06
387.813	999.06
388.038	1115.06
388.263	980.06
388.488	972.06
388.713	1168.06
388.938	1215.06
389.163	1044.06
389.387	932.06
389.612	937.06
389.837	968.06
390.062	982.06
390.287	1000.06
390.512	1036.06
390.736	954.06
390.961	918.06
391.186	854.06
391.411	824.06
391.636	866.06
391.86	942.06
392.085	1032.06
392.31	1061.06
392.534	961.06
392.759	946.06
392.984	994.06
393.208	982.06
393.433	877.06
393.658	800.06
393.882	812.06
394.107	765.06
394.331	819.06
394.556	812.06
394.78	826.06
395.005	833.06
395.229	880.06
395.454	876.06
395.678	892.06
395.903	929.06
396.127	864.06
396.352	899.06
396.576	1000.06
396.801	989.06
397.025	1116.06
397.249	1141.06
397.474	942.06
397.698	914.06
397.922	983.06
398.147	901.06
398.371	887.06
398.595	985.06
398.82	949.06
399.044	959.06
399.268	1016.06
399.492	1069.06
399.717	1101.06
399.941	1113.06
400.165	1074.06
400.389	1008.06
400.613	1072.06
400.837	1035.06
401.062	947.06
401.286	932.06
401.51	920.06
401.734	871.06
401.958	935.06
402.182	924.06
402.406	901.06
402.63	901.06
402.854	954.06
403.078	1126.06
403.302	1326.06
403.526	1345.06
403.75	1215.06
403.974	1082.06
404.198	1097.06
404.422	1247.06
404.645	1462.06
404.869	1600.06
405.093	1208.06
405.317	1008.06
405.541	978.06
405.765	1028.06
405.988	1031.06
406.212	1096.06
406.436	1297.06
406.66	1434.06
406.883	1127.06
407.107	1173.06
407.331	1375.06
407.555	1324.06
407.778	1119.06
408.002	1042.06
408.226	1068.06
408.449	1042.06
408.673	1017.06
408.896	952.06
409.12	911.06
409.344	920.06
409.567	871.06
409.791	877.06
410.014	896.06
410.238	895.06
410.461	863.06
410.685	877.06
410.908	894.06
411.132	944.06
411.355	952.06
411.578	947.06
411.802	950.06
412.025	997.06
412.249	999.06
412.472	926.06
412.695	966.06
412.919	965.06
413.142	989.06
413.365	1069.06
413.589	1057.06
413.812	956.06
414.035	929.06
414.258	964.06
414.482	1091.06
414.705	1084.06
414.928	941.06
415.151	887.06
415.374	870.06
415.597	912.06
415.821	906.06
416.044	874.06
416.267	875.06
416.49	864.06
416.713	858.06
416.936	867.06
417.159	866.06
417.382	901.06
417.605	926.06
417.828	898.06
418.051	904.06
418.274	968.06
418.497	947.06
418.72	917.06
418.943	977.06
419.166	984.06
419.389	1071.06
419.611	1039.06
419.834	1054.06
420.057	1119.06
420.28	1145.06
420.503	1033.06
420.726	912.06
420.948	872.06
421.171	871.06
421.394	887.06
421.617	868.06
421.839	866.06
422.062	953.06
422.285	947.06
422.507	930.06
422.73	959.06
422.953	980.06
423.175	933.06
423.398	964.06
423.621	1012.06
423.843	1092.06
424.066	1032.06
424.288	968.06
424.511	928.06
424.733	918.06
424.956	970.06
425.178	1124.06
425.401	1246.06
425.623	1398.06
425.846	1161.06
426.068	1047.06
426.291	1148.06
426.513	1055.06
426.735	954.06
426.958	999.06
427.18	1199.06
427.402	1514.06
427.625	1468.06
427.847	1184.06
428.069	902.06
428.292	932.06
428.514	898.06
428.736	898.06
428.958	969.06
429.181	1159.06
429.403	984.06
429.625	912.06
429.847	848.06
430.069	903.06
430.292	921.06
430.514	856.06
430.736	950.06
430.958	1197.06
431.18	1078.06
431.402	850.06
431.624	812.06
431.846	813.06
432.068	778.06
432.29	832.06
432.512	915.06
432.734	1216.06
432.956	1123.06
433.178	843.06
433.4	818.06
433.622	836.06
433.844	862.06
434.066	933.06
434.287	911.06
434.509	926.06
434.731	947.06
434.953	879.06
435.175	946.06
435.397	1052.06
435.618	894.06
435.84	822.06
436.062	824.06
436.284	838.06
436.505	813.06
436.727	774.06
436.949	785.06
437.17	816.06
437.392	826.06
437.614	828.06
437.835	824.06
438.057	839.06
438.278	989.06
438.5	1388.06
438.721	1383.06
438.943	944.06
439.165	831.06
439.386	791.06
439.608	784.06
439.829	772.06
440.05	800.06
440.272	867.06
440.493	983.06
440.715	1269.06
440.936	1001.06
441.158	873.06
441.379	856.06
441.6	1004.06
441.822	1043.06
442.043	889.06
442.264	880.06
442.486	861.06
442.707	876.06
442.928	874.06
443.149	894.06
443.371	887.06
443.592	908.06
443.813	917.06
444.034	872.06
444.255	906.06
444.476	930.06
444.698	935.06
444.919	938.06
445.14	1041.06
445.361	1023.06
445.582	958.06
445.803	922.06
446.024	927.06
446.245	950.06
446.466	892.06
446.687	881.06
446.908	888.06
447.129	834.06
447.35	814.06
447.571	812.06
447.792	804.06
448.013	782.06
448.234	778.06
448.455	790.06
448.675	788.06
448.896	809.06
449.117	783.06
449.338	822.06
449.559	818.06
449.779	892.06
450	910.06
450.221	835.06
450.442	819.06
450.662	793.06
450.883	786.06
451.104	793.06
451.324	781.06
451.545	806.06
451.766	797.06
451.986	784.06
452.207	767.06
452.428	784.06
452.648	776.06
452.869	841.06
453.089	850.06
453.31	844.06
453.53	776.06
453.751	751.06
453.971	745.06
454.192	767.06
454.412	806.06
454.633	775.06
454.853	745.06
455.073	721.06
455.294	706.06
455.514	720.06
455.734	752.06
455.955	784.06
456.175	824.06
456.395	745.06
456.616	694.06
456.836	732.06
457.056	699.06
457.276	697.06
457.497	701.06
457.717	717.06
457.937	716.06
458.157	730.06
458.377	725.06
458.598	743.06
458.818	754.06
459.038	828.06
459.258	792.06
459.478	862.06
459.698	867.06
459.918	889.06
460.138	870.06
460.358	939.06
460.578	880.06
460.798	877.06
461.018	892.06
461.238	862.06
461.458	881.06
461.678	900.06
461.898	926.06
462.118	918.06
462.338	922.06
462.558	949.06
462.777	993.06
462.997	1018.06
463.217	982.06
463.437	1017.06
463.657	997.06
463.876	960.06
464.096	944.06
464.316	982.06
464.536	976.06
464.755	1044.06
464.975	1033.06
465.195	944.06
465.414	1006.06
465.634	967.06
465.854	936.06
466.073	851.06
466.293	884.06
466.512	910.06
466.732	997.06
466.951	1006.06
467.171	934.06
467.391	883.06
467.61	878.06
467.829	910.06
468.049	945.06
468.268	878.06
468.488	860.06
468.707	916.06
468.927	1055.06
469.146	1120.06
469.365	994.06
469.585	928.06
469.804	980.06
470.023	1068.06
470.243	983.06
470.462	890.06
470.681	910.06
470.901	909.06
471.12	976.06
471.339	945.06
471.558	920.06
471.777	924.06
471.997	1000.06
472.216	1101.06
472.435	1031.06
472.654	961.06
472.873	972.06
473.092	1007.06
473.311	999.06
473.53	947.06
473.749	940.06
473.968	997.06
474.187	991.06
474.406	921.06
474.625	940.06
474.844	988.06
475.063	1014.06
475.282	1026.06
475.501	1040.06
475.72	1133.06
475.939	1102.06
476.158	1096.06
476.377	1259.06
476.596	1432.06
476.814	1476.06
477.033	1201.06
477.252	1060.06
477.471	966.06
477.69	1013.06
477.908	1105.06
478.127	1138.06
478.346	1057.06
478.564	1159.06
478.783	1101.06
479.002	1130.06
479.22	1282.06
479.439	1416.06
479.658	1194.06
479.876	1115.06
480.095	1189.06
480.313	1243.06
480.532	1111.06
480.751	1075.06
480.969	1129.06
481.188	1228.06
481.406	1254.06
481.624	1186.06
481.843	1116.06
482.061	1088.06
482.28	1197.06
482.498	1460.06
482.717	1375.06
482.935	1196.06
483.153	1147.06
483.372	1082.06
483.59	1054.06
483.808	1033.06
484.027	1031.06
484.245	994.06
484.463	972.06
484.681	1010.06
484.9	1082.06
485.118	1201.06
485.336	1108.06
485.554	1034.06
485.772	1061.06
485.99	1178.06
486.209	1249.06
486.427	1237.06
486.645	1190.06
486.863	1224.06
487.081	1189.06
487.299	1379.06
487.517	1367.06
487.735	1226.06
487.953	1205.06
488.171	1249.06
488.389	1152.06
488.607	1124.06
488.825	1180.06
489.043	1295.06
489.261	1424.06
489.479	1552.06
489.696	1329.06
489.914	1157.06
490.132	1109.06
490.35	1094.06
490.568	1150.06
490.786	1106.06
491.003	1108.06
491.221	1143.06
491.439	1136.06
491.657	1145.06
491.874	1213.06
492.092	1490.06
492.31	1808.06
492.527	1774.06
492.745	1500.06
492.963	1298.06
493.18	1278.06
493.398	1298.06
493.615	1273.06
493.833	1236.06
494.05	1226.06
494.268	1233.06
494.485	1236.06
494.703	1174.06
494.92	1217.06
495.138	1194.06
495.355	1209.06
495.573	1248.06
495.79	1409.06
496.008	1840.06
496.225	1543.06
496.442	1334.06
496.66	1338.06
496.877	1419.06
497.094	1401.06
497.312	1293.06
497.529	1336.06
497.746	1307.06
497.963	1359.06
498.181	1474.06
498.398	1565.06
498.615	1646.06
498.832	1687.06
499.049	1667.06
499.267	1495.06
499.484	1508.06
499.701	1622.06
499.918	1727.06
500.135	1886.06
500.352	1897.06
500.569	1941.06
500.786	1988.06
501.003	2032.06
501.22	1830.06
501.437	1708.06
501.654	1674.06
501.871	1623.06
502.088	1611.06
502.305	1498.06
502.522	1491.06
502.739	1477.06
502.956	1380.06
503.172	1358.06
503.389	1291.06
503.606	1280.06
503.823	1276.06
504.04	1304.06
504.256	1337.06
504.473	1348.06
504.69	1328.06
504.907	1352.06
505.123	1315.06
505.34	1434.06
505.557	1407.06
505.773	1319.06
505.99	1307.06
506.207	1362.06
506.423	1249.06
506.64	1187.06
506.856	1234.06
507.073	1346.06
507.289	1309.06
507.506	1338.06
507.722	1371.06
507.939	1410.06
508.155	1426.06
508.372	1287.06
508.588	1269.06
508.805	1217.06
509.021	1194.06
509.238	1176.06
509.454	1132.06
509.67	1159.06
509.887	1181.06
510.103	1298.06
510.319	1317.06
510.536	1183.06
510.752	1078.06
510.968	1061.06
511.184	1006.06
511.401	1017.06
511.617	1025.06
511.833	1023.06
512.049	1041.06
512.265	1079.06
512.481	1126.06
512.698	1226.06
512.914	1344.06
513.13	1242.06
513.346	1141.06
513.562	1172.06
513.778	1156.06
513.994	1105.06
514.21	1245.06
514.426	1201.06
514.642	1170.06
514.858	1109.06
515.074	1170.06
515.29	1261.06
515.506	1395.06
515.721	1345.06
515.937	1240.06
516.153	1147.06
516.369	1145.06
516.585	1218.06
516.801	1398.06
517.016	1604.06
517.232	1558.06
517.448	1521.06
517.664	1375.06
517.879	1309.06
518.095	1246.06
518.311	1255.06
518.527	1324.06
518.742	1388.06
518.958	1469.06
519.173	1374.06
519.389	1380.06
519.605	1413.06
519.82	1483.06
520.036	1708.06
520.251	1681.06
520.467	1630.06
520.682	2516.06
520.898	3060.06
521.113	2874.06
521.329	1746.06
521.544	1486.06
521.76	1471.06
521.975	1325.06
522.19	1265.06
522.406	1322.06
522.621	1445.06
522.836	1470.06
523.052	1587.06
523.267	1261.06
523.482	1305.06
523.698	1398.06
523.913	1350.06
524.128	1206.06
524.343	1160.06
524.559	1196.06
524.774	1128.06
524.989	1162.06
525.204	1209.06
525.419	1296.06
525.634	1255.06
525.849	1244.06
526.064	1242.06
526.28	1256.06
526.495	1477.06
526.71	1522.06
526.925	1348.06
527.14	1452.06
527.355	1391.06
527.57	1151.06
527.785	1200.06
527.999	1140.06
528.214	1062.06
528.429	1066.06
528.644	1093.06
528.859	1018.06
529.074	1005.06
529.289	999.06
529.503	1009.06
529.718	1041.06
529.933	1200.06
530.148	1228.06
530.363	1034.06
530.577	1017.06
530.792	995.06
531.007	1009.06
531.221	962.06
531.436	996.06
531.651	970.06
531.865	1022.06
532.08	991.06
532.295	997.06
532.509	1022.06
532.724	1179.06
532.938	1334.06
533.153	1528.06
533.367	1204.06
533.582	1163.06
533.796	1082.06
534.011	1060.06
534.225	1058.06
534.44	1063.06
534.654	1098.06
534.868	1298.06
535.083	1133.06
535.297	1028.06
535.511	1008.06
535.726	1127.06
535.94	1068.06
536.154	1027.06
536.369	991.06
536.583	1002.06
536.797	1027.06
537.011	1062.06
537.225	1076.06
537.44	1198.06
537.654	1023.06
537.868	1028.06
538.082	994.06
538.296	1040.06
538.51	1078.06
538.724	1112.06
538.938	1063.06
539.153	991.06
539.367	980.06
539.581	973.06
539.795	1037.06
540.009	1140.06
540.222	1064.06
540.436	1086.06
540.65	1166.06
540.864	1191.06
541.078	1216.06
541.292	1435.06
541.506	1127.06
541.72	1057.06
541.934	1029.06
542.147	1063.06
542.361	1032.06
542.575	1056.06
542.789	1041.06
543.002	959.06
543.216	1078.06
543.43	980.06
543.644	929.06
543.857	952.06
544.071	942.06
544.285	955.06
544.498	876.06
544.712	923.06
544.925	1001.06
545.139	939.06
545.352	886.06
545.566	906.06
545.779	1046.06
545.993	981.06
546.206	885.06
546.42	876.06
546.633	918.06
546.847	844.06
547.06	839.06
547.274	857.06
547.487	881.06
547.7	959.06
547.914	1006.06
548.127	1054.06
548.34	1060.06
548.554	982.06
548.767	983.06
548.98	1045.06
549.193	960.06
549.407	989.06
549.62	1133.06
549.833	1094.06
550.046	1129.06
550.259	1142.06
550.473	1016.06
550.686	950.06
550.899	1004.06
551.112	984.06
551.325	1018.06
551.538	1044.06
551.751	931.06
551.964	881.06
552.177	869.06
552.39	892.06
552.603	882.06
552.816	936.06
553.029	873.06
553.242	847.06
553.455	940.06
553.667	994.06
553.88	945.06
554.093	919.06
554.306	823.06
554.519	821.06
554.732	793.06
554.944	782.06
555.157	767.06
555.37	756.06
555.583	781.06
555.795	806.06
556.008	803.06
556.221	804.06
556.433	781.06
556.646	771.06
556.859	772.06
557.071	826.06
557.284	834.06
557.496	829.06
557.709	789.06
557.921	796.06
558.134	744.06
558.346	726.06
558.559	742.06
558.771	762.06
558.984	832.06
559.196	785.06
559.409	750.06
559.621	680.06
559.833	729.06
560.046	696.06
560.258	700.06
560.47	754.06
560.683	726.06
560.895	698.06
561.107	676.06
561.32	681.06
561.532	702.06
561.744	759.06
561.956	812.06
562.168	695.06
562.381	707.06
562.593	722.06
562.805	745.06
563.017	679.06
563.229	678.06
563.441	665.06
563.653	678.06
563.865	704.06
564.077	702.06
564.289	690.06
564.501	689.06
564.713	709.06
564.925	735.06
565.137	708.06
565.349	692.06
565.561	718.06
565.773	724.06
565.985	720.06
566.197	779.06
566.408	848.06
566.62	855.06
566.832	842.06
567.044	841.06
567.255	916.06
567.467	956.06
567.679	864.06
567.891	878.06
568.102	879.06
568.314	889.06
568.526	868.06
568.737	830.06
568.949	848.06
569.161	774.06
569.372	710.06
569.584	686.06
569.795	695.06
570.007	695.06
570.218	743.06
570.43	694.06
570.641	672.06
570.853	667.06
571.064	658.06
571.276	691.06
571.487	711.06
571.698	687.06
571.91	645.06
572.121	670.06
572.333	623.06
572.544	615.06
572.755	611.06
572.966	579.06
573.178	621.06
573.389	638.06
573.6	624.06
573.811	630.06
574.023	583.06
574.234	552.06
574.445	579.06
574.656	562.06
574.867	587.06
575.078	585.06
575.289	569.06
575.501	623.06
575.712	569.06
575.923	542.06
576.134	550.06
576.345	542.06
576.556	564.06
576.767	521.06
576.978	516.06
577.188	533.06
577.399	540.06
577.61	529.06
577.821	517.06
578.032	540.06
578.243	582.06
578.454	580.06
578.665	580.06
578.875	586.06
579.086	550.06
579.297	562.06
579.508	588.06
579.718	560.06
579.929	577.06
580.14	550.06
580.35	509.06
580.561	485.06
580.772	479.06
580.982	489.06
581.193	472.06
581.403	486.06
581.614	471.06
581.825	469.06
582.035	477.06
582.246	451.06
582.456	462.06
582.667	502.06
582.877	489.06
583.087	470.06
583.298	463.06
583.508	457.06
583.719	451.06
583.929	461.06
584.139	462.06
584.35	458.06
584.56	473.06
584.77	476.06
584.981	489.06
585.191	476.06
585.401	450.06
585.611	475.06
585.821	488.06
586.032	487.06
586.242	497.06
586.452	462.06
586.662	442.06
586.872	491.06
587.082	485.06
587.292	464.06
587.502	448.06
587.713	462.06
587.923	479.06
588.133	501.06
588.343	485.06
588.553	447.06
588.762	453.06
588.972	455.06
589.182	473.06
589.392	455.06
589.602	468.06
589.812	468.06
590.022	511.06
590.232	500.06
590.441	462.06
590.651	456.06
590.861	466.06
591.071	494.06
591.281	444.06
591.49	438.06
591.7	450.06
591.91	445.06
592.119	460.06
592.329	448.06
592.539	458.06
592.748	481.06
592.958	481.06
593.167	473.06
593.377	483.06
593.587	500.06
593.796	468.06
594.006	483.06
594.215	485.06
594.424	494.06
594.634	490.06
594.843	481.06
595.053	450.06
595.262	448.06
595.472	417.06
595.681	432.06
595.89	430.06
596.1	454.06
596.309	439.06
596.518	419.06
596.727	420.06
596.937	426.06
597.146	421.06
597.355	456.06
597.564	433.06
597.774	417.06
597.983	406.06
598.192	388.06
598.401	382.06
598.61	391.06
598.819	391.06
599.028	393.06
599.237	390.06
599.446	374.06
599.655	374.06
599.864	386.06
600.073	357.06
600.282	388.06
600.491	378.06
600.7	388.06
600.909	401.06
601.118	384.06
601.327	364.06
601.536	378.06
601.745	388.06
601.953	407.06
602.162	402.06
602.371	405.06
602.58	420.06
602.789	384.06
602.997	366.06
603.206	375.06
603.415	393.06
603.623	358.06
603.832	346.06
604.041	352.06
604.249	378.06
604.458	387.06
604.666	352.06
604.875	372.06
605.084	354.06
605.292	345.06
605.501	367.06
605.709	353.06
605.918	367.06
606.126	360.06
606.334	346.06
606.543	357.06
606.751	369.06
606.96	364.06
607.168	348.06
607.376	345.06
607.585	337.06
607.793	360.06
608.001	358.06
608.21	339.06
608.418	362.06
608.626	370.06
608.834	358.06
609.043	345.06
609.251	362.06
609.459	340.06
609.667	331.06
609.875	342.06
610.083	360.06
610.291	366.06
610.499	342.06
610.707	330.06
610.916	320.06
611.124	321.06
611.332	329.06
611.54	341.06
611.748	356.06
611.955	337.06
612.163	352.06
612.371	321.06
612.579	329.06
612.787	341.06
612.995	322.06
613.203	334.06
613.411	332.06
613.618	335.06
613.826	334.06
614.034	357.06
614.242	331.06
614.449	314.06
614.657	328.06
614.865	317.06
615.072	317.06
615.28	335.06
615.488	316.06
615.695	312.06
615.903	311.06
616.111	322.06
616.318	346.06
616.526	312.06
616.733	312.06
616.941	328.06
617.148	317.06
617.356	308.06
617.563	331.06
617.771	319.06
617.978	316.06
618.185	317.06
618.393	311.06
618.6	309.06
618.807	320.06
619.015	319.06
619.222	300.06
619.429	310.06
619.637	312.06
619.844	299.06
620.051	292.06
620.258	306.06
620.466	305.06
620.673	289.06
620.88	281.06
621.087	292.06
621.294	301.06
621.501	288.06
621.708	289.06
621.915	289.06
622.122	274.06
622.329	291.06
622.536	290.06
622.743	293.06
622.95	297.06
623.157	315.06
623.364	327.06
623.571	303.06
623.778	282.06
623.985	295.06
624.192	317.06
624.399	301.06
624.606	299.06
624.812	308.06
625.019	309.06
625.226	314.06
625.433	311.06
625.639	290.06
625.846	276.06
626.053	285.06
626.259	281.06
626.466	291.06
626.673	308.06
626.879	288.06
627.086	277.06
627.293	292.06
627.499	294.06
627.706	277.06
627.912	271.06
628.119	276.06
628.325	245.06
628.532	263.06
628.738	271.06
628.945	261.06
629.151	260.06
629.357	261.06
629.564	270.06
629.77	261.06
629.976	261.06
630.183	254.06
630.389	264.06
630.595	269.06
630.802	260.06
631.008	260.06
631.214	257.06
631.42	252.06
631.627	260.06
631.833	257.06
632.039	254.06
632.245	253.06
632.451	245.06
632.657	262.06
632.863	243.06
633.069	244.06
633.275	244.06
633.481	253.06
633.688	225.06
633.893	252.06
634.099	251.06
634.305	237.06
634.511	228.06
634.717	231.06
634.923	218.06
635.129	229.06
635.335	225.06
635.541	242.06
635.747	224.06
635.952	229.06
636.158	240.06
636.364	250.06
636.57	236.06
636.775	252.06
636.981	224.06
637.187	232.06
637.392	223.06
637.598	239.06
637.804	227.06
638.009	219.06
638.215	208.06
638.421	210.06
638.626	224.06
638.832	225.06
639.037	221.06
639.243	222.06
639.448	221.06
639.654	232.06
639.859	221.06
640.065	220.06
640.27	241.06
640.475	243.06
640.681	236.06
640.886	212.06
641.091	208.06
641.297	243.06
641.502	237.06
641.707	222.06
641.913	223.06
642.118	214.06
642.323	238.06
642.528	231.06
642.733	230.06
642.939	220.06
643.144	201.06
643.349	205.06
643.554	215.06
643.759	218.06
643.964	213.06
644.169	205.06
644.374	206.06
644.579	214.06
644.784	213.06
644.989	206.06
645.194	212.06
645.399	240.06
645.604	209.06
645.809	209.06
646.014	221.06
646.219	213.06
646.423	214.06
646.628	200.06
646.833	229.06
647.038	215.06
647.243	212.06
647.447	231.06
647.652	196.06
647.857	197.06
648.062	215.06
648.266	207.06
648.471	226.06
648.676	215.06
648.88	212.06
649.085	192.06
649.289	213.06
649.494	193.06
649.698	220.06
649.903	213.06
650.107	224.06
650.312	199.06
650.516	196.06
650.721	205.06
650.925	194.06
651.13	200.06
651.334	182.06
651.539	188.06
651.743	193.06
651.947	186.06
652.152	181.06
652.356	176.06
652.56	187.06
652.764	169.06
652.969	174.06
653.173	180.06
653.377	173.06
653.581	178.06
653.785	159.06
653.99	176.06
654.194	167.06
654.398	163.06
654.602	168.06
654.806	158.06
655.01	176.06
655.214	162.06
655.418	156.06
655.622	164.06
655.826	144.06
656.03	163.06
656.234	165.06
656.438	168.06
656.642	174.06
656.846	156.06
657.049	149.06
657.253	140.06
657.457	157.06
657.661	142.06
657.865	128.06
658.068	133.06
658.272	130.06
658.476	136.06
658.68	133.06
658.883	127.06
659.087	114.06
659.291	114.06
659.494	101.06
659.698	109.06
659.901	115.06
660.105	109.06
660.309	106.06
660.512	87.06
660.716	114.06
660.919	108.06
661.123	98.06
661.326	92.06
661.53	89.06
661.733	77.06
661.936	78.06
662.14	83.06
662.343	94.06
662.546	96.06
662.75	96.06
662.953	85.06
663.156	94.06
663.36	102.06
663.563	83.06
663.766	83.06
663.969	90.06
664.173	80.06
664.376	89.06
664.579	89.06
664.782	84.06
664.985	94.06
665.188	92.06
665.391	88.06
665.594	76.06
665.797	88.06
666	74.06
666.203	84.06
666.406	79.06
666.609	80.06
666.812	77.06
667.015	77.06
667.218	94.06
667.421	87.06
667.624	84.06
667.827	93.06
668.03	68.06
668.232	78.06
668.435	92.06
668.638	87.06
668.841	86.06
669.043	87.06
669.246	80.06
669.449	79.06
669.651	83.06
669.854	89.06
670.057	89.06
670.259	92.06
670.462	77.06
670.665	87.06
670.867	99.06
671.07	91.06
671.272	93.06
671.475	104.06
671.677	83.06
671.88	98.06
672.082	92.06
672.284	90.06
672.487	74.06
672.689	75.06
672.892	64.06
