Data from NickelSpatula.Lamp.E5.5.P2_HRD10591_11-53-43-548.txt Node
Date: Tue Jul 23 11:53:43 EDT 2019
User: cochatt
Spectrometer: HR+D1059
Trigger mode: 1
Integration Time (sec): 1.000000E-1
Scans to average: 1
Electric dark correction enabled: true
Nonlinearity correction enabled: false
Boxcar width: 0
XAxis mode: Wavelengths
Number of Pixels in Spectrum: 2048
>>>>>Begin Spectral Data<<<<<
223.165	-16.25
223.4	-16.25
223.635	-16.25
223.869	-21.25
224.104	-15.25
224.338	-12.25
224.573	-11.25
224.808	-25.25
225.042	-12.25
225.277	-0.25
225.511	6.75
225.746	5.75
225.98	5.75
226.215	4.75
226.449	19.75
226.683	21.75
226.918	20.75
227.152	28.75
227.387	44.75
227.621	41.75
227.856	54.75
228.09	43.75
228.324	50.75
228.559	55.75
228.793	63.75
229.027	51.75
229.262	87.75
229.496	90.75
229.73	83.75
229.964	85.75
230.199	97.75
230.433	108.75
230.667	95.75
230.901	97.75
231.136	98.75
231.37	92.75
231.604	99.75
231.838	113.75
232.072	110.75
232.306	100.75
232.541	107.75
232.775	103.75
233.009	98.75
233.243	104.75
233.477	114.75
233.711	121.75
233.945	125.75
234.179	127.75
234.413	133.75
234.647	122.75
234.881	141.75
235.115	146.75
235.349	109.75
235.583	122.75
235.817	138.75
236.051	145.75
236.285	133.75
236.519	128.75
236.753	137.75
236.987	141.75
237.221	123.75
237.455	141.75
237.689	143.75
237.922	139.75
238.156	138.75
238.39	158.75
238.624	176.75
238.858	162.75
239.091	139.75
239.325	139.75
239.559	149.75
239.793	154.75
240.027	185.75
240.26	162.75
240.494	170.75
240.728	159.75
240.961	180.75
241.195	176.75
241.429	169.75
241.662	165.75
241.896	160.75
242.13	142.75
242.363	144.75
242.597	136.75
242.83	154.75
243.064	155.75
243.298	178.75
243.531	181.75
243.765	168.75
243.998	170.75
244.232	162.75
244.465	187.75
244.699	170.75
244.932	183.75
245.166	168.75
245.399	142.75
245.633	149.75
245.866	154.75
246.099	163.75
246.333	191.75
246.566	190.75
246.8	204.75
247.033	192.75
247.266	195.75
247.5	179.75
247.733	169.75
247.966	170.75
248.2	171.75
248.433	178.75
248.666	204.75
248.899	209.75
249.133	208.75
249.366	235.75
249.599	243.75
249.832	226.75
250.066	202.75
250.299	205.75
250.532	207.75
250.765	203.75
250.998	198.75
251.231	183.75
251.465	210.75
251.698	188.75
251.931	212.75
252.164	204.75
252.397	218.75
252.63	234.75
252.863	257.75
253.096	263.75
253.329	275.75
253.562	260.75
253.795	294.75
254.028	280.75
254.261	296.75
254.494	279.75
254.727	251.75
254.96	264.75
255.193	257.75
255.426	269.75
255.659	217.75
255.892	196.75
256.124	216.75
256.357	244.75
256.59	281.75
256.823	249.75
257.056	223.75
257.289	195.75
257.521	246.75
257.754	272.75
257.987	299.75
258.22	247.75
258.452	238.75
258.685	259.75
258.918	291.75
259.151	290.75
259.383	296.75
259.616	340.75
259.849	334.75
260.081	352.75
260.314	401.75
260.547	321.75
260.779	332.75
261.012	373.75
261.244	367.75
261.477	376.75
261.71	321.75
261.942	281.75
262.175	283.75
262.407	280.75
262.64	291.75
262.872	324.75
263.105	347.75
263.337	383.75
263.57	335.75
263.802	265.75
264.035	226.75
264.267	230.75
264.499	172.75
264.732	179.75
264.964	183.75
265.197	188.75
265.429	188.75
265.661	206.75
265.894	208.75
266.126	233.75
266.358	254.75
266.591	283.75
266.823	326.75
267.055	316.75
267.287	291.75
267.52	294.75
267.752	310.75
267.984	313.75
268.216	311.75
268.448	276.75
268.681	263.75
268.913	265.75
269.145	299.75
269.377	287.75
269.609	301.75
269.841	278.75
270.073	297.75
270.306	300.75
270.538	310.75
270.77	326.75
271.002	333.75
271.234	340.75
271.466	344.75
271.698	303.75
271.93	295.75
272.162	295.75
272.394	293.75
272.626	303.75
272.858	316.75
273.09	323.75
273.322	277.75
273.553	280.75
273.785	308.75
274.017	376.75
274.249	475.75
274.481	500.75
274.713	508.75
274.945	600.75
275.176	639.75
275.408	571.75
275.64	521.75
275.872	531.75
276.104	465.75
276.335	409.75
276.567	400.75
276.799	410.75
277.031	425.75
277.262	355.75
277.494	275.75
277.726	284.75
277.957	290.75
278.189	311.75
278.421	293.75
278.652	328.75
278.884	299.75
279.115	288.75
279.347	289.75
279.579	284.75
279.81	266.75
280.042	279.75
280.273	263.75
280.505	256.75
280.736	232.75
280.968	257.75
281.199	259.75
281.431	285.75
281.662	273.75
281.894	266.75
282.125	284.75
282.356	285.75
282.588	303.75
282.819	275.75
283.051	280.75
283.282	356.75
283.513	410.75
283.745	444.75
283.976	432.75
284.207	405.75
284.439	432.75
284.67	432.75
284.901	377.75
285.132	386.75
285.364	426.75
285.595	392.75
285.826	409.75
286.057	417.75
286.288	412.75
286.52	409.75
286.751	425.75
286.982	424.75
287.213	374.75
287.444	384.75
287.675	380.75
287.906	379.75
288.138	351.75
288.369	305.75
288.6	299.75
288.831	299.75
289.062	363.75
289.293	372.75
289.524	347.75
289.755	359.75
289.986	379.75
290.217	314.75
290.448	258.75
290.679	222.75
290.91	217.75
291.141	221.75
291.371	226.75
291.602	240.75
291.833	240.75
292.064	244.75
292.295	264.75
292.526	299.75
292.757	327.75
292.987	333.75
293.218	357.75
293.449	358.75
293.68	384.75
293.91	340.75
294.141	377.75
294.372	367.75
294.603	305.75
294.833	332.75
295.064	399.75
295.295	389.75
295.525	293.75
295.756	260.75
295.987	234.75
296.217	220.75
296.448	250.75
296.679	249.75
296.909	248.75
297.14	287.75
297.37	325.75
297.601	285.75
297.831	275.75
298.062	275.75
298.292	321.75
298.523	345.75
298.753	356.75
298.984	327.75
299.214	282.75
299.445	270.75
299.675	259.75
299.905	250.75
300.136	259.75
300.366	240.75
300.597	273.75
300.827	232.75
301.057	229.75
301.288	243.75
301.518	269.75
301.748	271.75
301.979	320.75
302.209	314.75
302.439	325.75
302.669	263.75
302.9	271.75
303.13	276.75
303.36	257.75
303.59	267.75
303.82	249.75
304.051	269.75
304.281	303.75
304.511	297.75
304.741	264.75
304.971	261.75
305.201	278.75
305.431	285.75
305.661	234.75
305.891	243.75
306.121	247.75
306.352	224.75
306.582	223.75
306.812	219.75
307.042	212.75
307.272	210.75
307.502	205.75
307.731	195.75
307.961	211.75
308.191	209.75
308.421	205.75
308.651	204.75
308.881	200.75
309.111	182.75
309.341	203.75
309.571	209.75
309.8	224.75
310.03	219.75
310.26	257.75
310.49	227.75
310.72	205.75
310.949	217.75
311.179	234.75
311.409	219.75
311.639	238.75
311.868	297.75
312.098	375.75
312.328	419.75
312.557	396.75
312.787	395.75
313.017	349.75
313.246	368.75
313.476	417.75
313.706	345.75
313.935	289.75
314.165	227.75
314.394	217.75
314.624	243.75
314.853	240.75
315.083	231.75
315.312	227.75
315.542	240.75
315.771	226.75
316.001	216.75
316.23	211.75
316.46	213.75
316.689	220.75
316.919	210.75
317.148	200.75
317.377	197.75
317.607	214.75
317.836	227.75
318.065	249.75
318.295	298.75
318.524	259.75
318.753	220.75
318.983	217.75
319.212	209.75
319.441	230.75
319.67	241.75
319.9	255.75
320.129	265.75
320.358	224.75
320.587	210.75
320.816	236.75
321.046	243.75
321.275	290.75
321.504	241.75
321.733	269.75
321.962	249.75
322.191	257.75
322.42	252.75
322.649	247.75
322.878	250.75
323.108	264.75
323.337	234.75
323.566	235.75
323.795	250.75
324.024	245.75
324.253	228.75
324.482	231.75
324.71	245.75
324.939	271.75
325.168	255.75
325.397	233.75
325.626	223.75
325.855	231.75
326.084	210.75
326.313	219.75
326.542	209.75
326.77	216.75
326.999	205.75
327.228	223.75
327.457	233.75
327.686	232.75
327.914	218.75
328.143	199.75
328.372	210.75
328.6	200.75
328.829	200.75
329.058	213.75
329.287	213.75
329.515	216.75
329.744	213.75
329.972	224.75
330.201	217.75
330.43	212.75
330.658	239.75
330.887	256.75
331.115	240.75
331.344	233.75
331.572	229.75
331.801	230.75
332.03	227.75
332.258	204.75
332.486	221.75
332.715	242.75
332.943	228.75
333.172	241.75
333.4	240.75
333.629	250.75
333.857	262.75
334.085	273.75
334.314	262.75
334.542	271.75
334.771	256.75
334.999	242.75
335.227	224.75
335.455	239.75
335.684	247.75
335.912	248.75
336.14	288.75
336.369	300.75
336.597	274.75
336.825	314.75
337.053	340.75
337.281	266.75
337.51	236.75
337.738	253.75
337.966	241.75
338.194	280.75
338.422	251.75
338.65	235.75
338.878	215.75
339.106	209.75
339.334	257.75
339.562	247.75
339.79	227.75
340.018	211.75
340.246	227.75
340.474	241.75
340.702	280.75
340.93	283.75
341.158	293.75
341.386	252.75
341.614	250.75
341.842	254.75
342.07	253.75
342.298	289.75
342.526	317.75
342.754	275.75
342.981	234.75
343.209	235.75
343.437	280.75
343.665	273.75
343.893	277.75
344.12	322.75
344.348	362.75
344.576	337.75
344.804	268.75
345.031	244.75
345.259	230.75
345.487	235.75
345.714	213.75
345.942	261.75
346.17	288.75
346.397	261.75
346.625	251.75
346.853	214.75
347.08	243.75
347.308	223.75
347.535	277.75
347.763	275.75
347.99	248.75
348.218	235.75
348.445	246.75
348.673	257.75
348.9	235.75
349.128	252.75
349.355	260.75
349.583	243.75
349.81	243.75
350.037	240.75
350.265	219.75
350.492	203.75
350.72	175.75
350.947	204.75
351.174	214.75
351.402	226.75
351.629	248.75
351.856	236.75
352.083	211.75
352.311	236.75
352.538	250.75
352.765	259.75
352.992	252.75
353.22	242.75
353.447	242.75
353.674	219.75
353.901	228.75
354.128	218.75
354.355	239.75
354.583	216.75
354.81	239.75
355.037	252.75
355.264	247.75
355.491	258.75
355.718	268.75
355.945	271.75
356.172	255.75
356.399	256.75
356.626	299.75
356.853	334.75
357.08	365.75
357.307	387.75
357.534	311.75
357.761	307.75
357.988	375.75
358.215	433.75
358.441	407.75
358.668	347.75
358.895	325.75
359.122	293.75
359.349	300.75
359.576	327.75
359.802	266.75
360.029	229.75
360.256	230.75
360.483	303.75
360.709	343.75
360.936	360.75
361.163	315.75
361.39	248.75
361.616	237.75
361.843	259.75
362.07	333.75
362.296	304.75
362.523	227.75
362.749	216.75
362.976	232.75
363.203	266.75
363.429	281.75
363.656	239.75
363.882	234.75
364.109	244.75
364.335	245.75
364.562	219.75
364.788	241.75
365.015	292.75
365.241	268.75
365.468	229.75
365.694	200.75
365.92	208.75
366.147	183.75
366.373	213.75
366.599	187.75
366.826	202.75
367.052	200.75
367.278	201.75
367.505	218.75
367.731	217.75
367.957	247.75
368.184	255.75
368.41	226.75
368.636	224.75
368.862	264.75
369.089	250.75
369.315	224.75
369.541	220.75
369.767	223.75
369.993	204.75
370.219	216.75
370.445	226.75
370.672	242.75
370.898	277.75
371.124	259.75
371.35	246.75
371.576	221.75
371.802	225.75
372.028	263.75
372.254	316.75
372.48	287.75
372.706	259.75
372.932	264.75
373.158	267.75
373.384	303.75
373.61	371.75
373.835	375.75
374.061	314.75
374.287	268.75
374.513	316.75
374.739	355.75
374.965	390.75
375.191	366.75
375.416	273.75
375.642	246.75
375.868	280.75
376.094	304.75
376.319	280.75
376.545	293.75
376.771	303.75
376.997	269.75
377.222	224.75
377.448	204.75
377.674	205.75
377.899	193.75
378.125	186.75
378.35	204.75
378.576	199.75
378.802	205.75
379.027	228.75
379.253	220.75
379.478	239.75
379.704	231.75
379.929	245.75
380.155	245.75
380.38	239.75
380.606	256.75
380.831	273.75
381.057	262.75
381.282	244.75
381.507	256.75
381.733	305.75
381.958	322.75
382.184	346.75
382.409	359.75
382.634	371.75
382.86	367.75
383.085	312.75
383.31	269.75
383.535	280.75
383.761	293.75
383.986	277.75
384.211	315.75
384.436	297.75
384.662	255.75
384.887	267.75
385.112	242.75
385.337	251.75
385.562	257.75
385.787	284.75
386.013	298.75
386.238	296.75
386.463	252.75
386.688	256.75
386.913	240.75
387.138	231.75
387.363	224.75
387.588	247.75
387.813	236.75
388.038	273.75
388.263	233.75
388.488	255.75
388.713	264.75
388.938	281.75
389.163	239.75
389.387	221.75
389.612	215.75
389.837	231.75
390.062	238.75
390.287	245.75
390.512	242.75
390.736	204.75
390.961	211.75
391.186	218.75
391.411	218.75
391.636	232.75
391.86	224.75
392.085	264.75
392.31	265.75
392.534	237.75
392.759	254.75
392.984	236.75
393.208	242.75
393.433	238.75
393.658	213.75
393.882	215.75
394.107	232.75
394.331	203.75
394.556	197.75
394.78	207.75
395.005	220.75
395.229	229.75
395.454	218.75
395.678	222.75
395.903	227.75
396.127	220.75
396.352	220.75
396.576	251.75
396.801	234.75
397.025	255.75
397.249	267.75
397.474	227.75
397.698	217.75
397.922	249.75
398.147	223.75
398.371	216.75
398.595	241.75
398.82	245.75
399.044	260.75
399.268	275.75
399.492	286.75
399.717	281.75
399.941	284.75
400.165	273.75
400.389	253.75
400.613	251.75
400.837	228.75
401.062	235.75
401.286	229.75
401.51	233.75
401.734	219.75
401.958	258.75
402.182	243.75
402.406	251.75
402.63	247.75
402.854	270.75
403.078	285.75
403.302	373.75
403.526	370.75
403.75	332.75
403.974	294.75
404.198	307.75
404.422	315.75
404.645	349.75
404.869	370.75
405.093	306.75
405.317	260.75
405.541	258.75
405.765	260.75
405.988	257.75
406.212	267.75
406.436	305.75
406.66	333.75
406.883	277.75
407.107	307.75
407.331	334.75
407.555	307.75
407.778	302.75
408.002	257.75
408.226	284.75
408.449	283.75
408.673	256.75
408.896	257.75
409.12	239.75
409.344	245.75
409.567	231.75
409.791	259.75
410.014	243.75
410.238	253.75
410.461	236.75
410.685	231.75
410.908	245.75
411.132	255.75
411.355	259.75
411.578	243.75
411.802	230.75
412.025	242.75
412.249	236.75
412.472	241.75
412.695	240.75
412.919	236.75
413.142	247.75
413.365	265.75
413.589	237.75
413.812	234.75
414.035	234.75
414.258	227.75
414.482	246.75
414.705	255.75
414.928	235.75
415.151	204.75
415.374	222.75
415.597	238.75
415.821	240.75
416.044	223.75
416.267	237.75
416.49	243.75
416.713	229.75
416.936	233.75
417.159	237.75
417.382	234.75
417.605	221.75
417.828	227.75
418.051	232.75
418.274	246.75
418.497	259.75
418.72	248.75
418.943	246.75
419.166	259.75
419.389	267.75
419.611	258.75
419.834	264.75
420.057	267.75
420.28	263.75
420.503	267.75
420.726	243.75
420.948	239.75
421.171	246.75
421.394	222.75
421.617	231.75
421.839	231.75
422.062	231.75
422.285	253.75
422.507	251.75
422.73	257.75
422.953	269.75
423.175	257.75
423.398	256.75
423.621	259.75
423.843	247.75
424.066	255.75
424.288	243.75
424.511	232.75
424.733	221.75
424.956	244.75
425.178	292.75
425.401	317.75
425.623	381.75
425.846	317.75
426.068	258.75
426.291	265.75
426.513	267.75
426.735	243.75
426.958	235.75
427.18	282.75
427.402	336.75
427.625	367.75
427.847	331.75
428.069	253.75
428.292	243.75
428.514	245.75
428.736	218.75
428.958	258.75
429.181	299.75
429.403	243.75
429.625	217.75
429.847	229.75
430.069	230.75
430.292	242.75
430.514	216.75
430.736	231.75
430.958	272.75
431.18	280.75
431.402	224.75
431.624	220.75
431.846	209.75
432.068	229.75
432.29	226.75
432.512	255.75
432.734	281.75
432.956	263.75
433.178	241.75
433.4	223.75
433.622	218.75
433.844	235.75
434.066	267.75
434.287	248.75
434.509	236.75
434.731	263.75
434.953	236.75
435.175	259.75
435.397	277.75
435.618	241.75
435.84	230.75
436.062	237.75
436.284	224.75
436.505	220.75
436.727	206.75
436.949	209.75
437.17	222.75
437.392	222.75
437.614	231.75
437.835	229.75
438.057	228.75
438.278	253.75
438.5	331.75
438.721	327.75
438.943	245.75
439.165	217.75
439.386	207.75
439.608	220.75
439.829	214.75
440.05	206.75
440.272	240.75
440.493	271.75
440.715	299.75
440.936	248.75
441.158	233.75
441.379	225.75
441.6	242.75
441.822	262.75
442.043	244.75
442.264	253.75
442.486	244.75
442.707	237.75
442.928	239.75
443.149	243.75
443.371	222.75
443.592	247.75
443.813	242.75
444.034	240.75
444.255	240.75
444.476	252.75
444.698	265.75
444.919	269.75
445.14	348.75
445.361	294.75
445.582	267.75
445.803	239.75
446.024	241.75
446.245	249.75
446.466	236.75
446.687	230.75
446.908	234.75
447.129	220.75
447.35	220.75
447.571	224.75
447.792	208.75
448.013	218.75
448.234	198.75
448.455	207.75
448.675	233.75
448.896	199.75
449.117	217.75
449.338	214.75
449.559	219.75
449.779	235.75
450	229.75
450.221	231.75
450.442	216.75
450.662	220.75
450.883	219.75
451.104	211.75
451.324	210.75
451.545	237.75
451.766	217.75
451.986	216.75
452.207	217.75
452.428	209.75
452.648	204.75
452.869	225.75
453.089	225.75
453.31	223.75
453.53	205.75
453.751	209.75
453.971	222.75
454.192	199.75
454.412	227.75
454.633	197.75
454.853	211.75
455.073	184.75
455.294	198.75
455.514	197.75
455.734	216.75
455.955	200.75
456.175	206.75
456.395	210.75
456.616	204.75
456.836	196.75
457.056	202.75
457.276	187.75
457.497	204.75
457.717	198.75
457.937	191.75
458.157	196.75
458.377	204.75
458.598	212.75
458.818	221.75
459.038	224.75
459.258	216.75
459.478	231.75
459.698	234.75
459.918	230.75
460.138	243.75
460.358	260.75
460.578	247.75
460.798	232.75
461.018	247.75
461.238	235.75
461.458	241.75
461.678	250.75
461.898	276.75
462.118	255.75
462.338	263.75
462.558	260.75
462.777	273.75
462.997	289.75
463.217	297.75
463.437	295.75
463.657	293.75
463.876	279.75
464.096	267.75
464.316	283.75
464.536	274.75
464.755	277.75
464.975	281.75
465.195	256.75
465.414	259.75
465.634	241.75
465.854	227.75
466.073	223.75
466.293	222.75
466.512	243.75
466.732	246.75
466.951	261.75
467.171	240.75
467.391	222.75
467.61	213.75
467.829	239.75
468.049	216.75
468.268	225.75
468.488	210.75
468.707	235.75
468.927	276.75
469.146	275.75
469.365	256.75
469.585	252.75
469.804	243.75
470.023	294.75
470.243	247.75
470.462	241.75
470.681	255.75
470.901	235.75
471.12	239.75
471.339	239.75
471.558	240.75
471.777	228.75
471.997	250.75
472.216	272.75
472.435	255.75
472.654	243.75
472.873	238.75
473.092	235.75
473.311	248.75
473.53	233.75
473.749	237.75
473.968	239.75
474.187	235.75
474.406	239.75
474.625	249.75
474.844	226.75
475.063	222.75
475.282	244.75
475.501	266.75
475.72	291.75
475.939	268.75
476.158	261.75
476.377	284.75
476.596	308.75
476.814	363.75
477.033	294.75
477.252	254.75
477.471	235.75
477.69	233.75
477.908	258.75
478.127	294.75
478.346	261.75
478.564	283.75
478.783	287.75
479.002	267.75
479.22	294.75
479.439	347.75
479.658	290.75
479.876	289.75
480.095	282.75
480.313	294.75
480.532	295.75
480.751	272.75
480.969	275.75
481.188	289.75
481.406	315.75
481.624	279.75
481.843	283.75
482.061	255.75
482.28	278.75
482.498	345.75
482.717	327.75
482.935	291.75
483.153	278.75
483.372	260.75
483.59	277.75
483.808	247.75
484.027	247.75
484.245	237.75
484.463	247.75
484.681	255.75
484.9	268.75
485.118	296.75
485.336	265.75
485.554	267.75
485.772	269.75
485.99	281.75
486.209	307.75
486.427	294.75
486.645	272.75
486.863	299.75
487.081	287.75
487.299	315.75
487.517	321.75
487.735	282.75
487.953	275.75
488.171	287.75
488.389	269.75
488.607	265.75
488.825	281.75
489.043	294.75
489.261	343.75
489.479	329.75
489.696	317.75
489.914	277.75
490.132	267.75
490.35	275.75
490.568	272.75
490.786	275.75
491.003	266.75
491.221	265.75
491.439	266.75
491.657	267.75
491.874	290.75
492.092	321.75
492.31	348.75
492.527	358.75
492.745	328.75
492.963	294.75
493.18	300.75
493.398	306.75
493.615	296.75
493.833	281.75
494.05	285.75
494.268	305.75
494.485	289.75
494.703	282.75
494.92	280.75
495.138	289.75
495.355	293.75
495.573	287.75
495.79	307.75
496.008	392.75
496.225	337.75
496.442	312.75
496.66	299.75
496.877	335.75
497.094	315.75
497.312	305.75
497.529	288.75
497.746	287.75
497.963	308.75
498.181	371.75
498.398	358.75
498.615	361.75
498.832	375.75
499.049	401.75
499.267	373.75
499.484	395.75
499.701	406.75
499.918	453.75
500.135	479.75
500.352	509.75
500.569	523.75
500.786	567.75
501.003	530.75
501.22	489.75
501.437	420.75
501.654	409.75
501.871	374.75
502.088	389.75
502.305	347.75
502.522	361.75
502.739	351.75
502.956	333.75
503.172	320.75
503.389	309.75
503.606	297.75
503.823	307.75
504.04	312.75
504.256	313.75
504.473	328.75
504.69	320.75
504.907	324.75
505.123	323.75
505.34	342.75
505.557	314.75
505.773	303.75
505.99	286.75
506.207	306.75
506.423	282.75
506.64	277.75
506.856	305.75
507.073	316.75
507.289	308.75
507.506	302.75
507.722	328.75
507.939	328.75
508.155	317.75
508.372	289.75
508.588	293.75
508.805	294.75
509.021	278.75
509.238	290.75
509.454	271.75
509.67	286.75
509.887	288.75
510.103	309.75
510.319	298.75
510.536	297.75
510.752	265.75
510.968	235.75
511.184	258.75
511.401	247.75
511.617	272.75
511.833	236.75
512.049	266.75
512.265	269.75
512.481	264.75
512.698	290.75
512.914	333.75
513.13	305.75
513.346	270.75
513.562	273.75
513.778	278.75
513.994	258.75
514.21	278.75
514.426	297.75
514.642	263.75
514.858	270.75
515.074	283.75
515.29	311.75
515.506	332.75
515.721	319.75
515.937	297.75
516.153	271.75
516.369	275.75
516.585	293.75
516.801	312.75
517.016	350.75
517.232	354.75
517.448	352.75
517.664	343.75
517.879	319.75
518.095	299.75
518.311	320.75
518.527	325.75
518.742	340.75
518.958	353.75
519.173	341.75
519.389	331.75
519.605	337.75
519.82	323.75
520.036	373.75
520.251	389.75
520.467	370.75
520.682	601.75
520.898	736.75
521.113	704.75
521.329	402.75
521.544	372.75
521.76	341.75
521.975	295.75
522.19	294.75
522.406	297.75
522.621	331.75
522.836	347.75
523.052	337.75
523.267	292.75
523.482	289.75
523.698	310.75
523.913	295.75
524.128	283.75
524.343	264.75
524.559	267.75
524.774	272.75
524.989	281.75
525.204	277.75
525.419	277.75
525.634	296.75
525.849	295.75
526.064	286.75
526.28	294.75
526.495	324.75
526.71	360.75
526.925	312.75
527.14	327.75
527.355	333.75
527.57	286.75
527.785	308.75
527.999	272.75
528.214	258.75
528.429	261.75
528.644	252.75
528.859	255.75
529.074	228.75
529.289	255.75
529.503	239.75
529.718	254.75
529.933	289.75
530.148	309.75
530.363	263.75
530.577	255.75
530.792	257.75
531.007	239.75
531.221	249.75
531.436	244.75
531.651	261.75
531.865	250.75
532.08	262.75
532.295	261.75
532.509	249.75
532.724	263.75
532.938	305.75
533.153	370.75
533.367	292.75
533.582	281.75
533.796	275.75
534.011	273.75
534.225	274.75
534.44	275.75
534.654	260.75
534.868	312.75
535.083	289.75
535.297	249.75
535.511	269.75
535.726	268.75
535.94	264.75
536.154	264.75
536.369	240.75
536.583	244.75
536.797	247.75
537.011	248.75
537.225	277.75
537.44	293.75
537.654	248.75
537.868	261.75
538.082	275.75
538.296	260.75
538.51	260.75
538.724	269.75
538.938	259.75
539.153	248.75
539.367	233.75
539.581	246.75
539.795	260.75
540.009	280.75
540.222	259.75
540.436	242.75
540.65	282.75
540.864	294.75
541.078	287.75
541.292	325.75
541.506	272.75
541.72	268.75
541.934	260.75
542.147	264.75
542.361	259.75
542.575	247.75
542.789	265.75
543.002	237.75
543.216	261.75
543.43	237.75
543.644	217.75
543.857	232.75
544.071	217.75
544.285	225.75
544.498	232.75
544.712	243.75
544.925	247.75
545.139	234.75
545.352	208.75
545.566	242.75
545.779	261.75
545.993	241.75
546.206	227.75
546.42	228.75
546.633	219.75
546.847	233.75
547.06	226.75
547.274	222.75
547.487	220.75
547.7	249.75
547.914	246.75
548.127	269.75
548.34	258.75
548.554	245.75
548.767	252.75
548.98	287.75
549.193	232.75
549.407	248.75
549.62	272.75
549.833	272.75
550.046	266.75
550.259	285.75
550.473	255.75
550.686	259.75
550.899	244.75
551.112	243.75
551.325	260.75
551.538	280.75
551.751	232.75
551.964	242.75
552.177	239.75
552.39	226.75
552.603	241.75
552.816	245.75
553.029	232.75
553.242	228.75
553.455	219.75
553.667	274.75
553.88	234.75
554.093	245.75
554.306	230.75
554.519	206.75
554.732	195.75
554.944	215.75
555.157	209.75
555.37	212.75
555.583	231.75
555.795	207.75
556.008	228.75
556.221	225.75
556.433	215.75
556.646	222.75
556.859	212.75
557.071	224.75
557.284	219.75
557.496	211.75
557.709	207.75
557.921	223.75
558.134	203.75
558.346	196.75
558.559	206.75
558.771	204.75
558.984	211.75
559.196	221.75
559.409	193.75
559.621	202.75
559.833	207.75
560.046	214.75
560.258	188.75
560.47	219.75
560.683	196.75
560.895	185.75
561.107	190.75
561.32	189.75
561.532	207.75
561.744	213.75
561.956	215.75
562.168	189.75
562.381	210.75
562.593	190.75
562.805	206.75
563.017	213.75
563.229	197.75
563.441	189.75
563.653	191.75
563.865	177.75
564.077	199.75
564.289	202.75
564.501	202.75
564.713	202.75
564.925	206.75
565.137	208.75
565.349	198.75
565.561	210.75
565.773	187.75
565.985	203.75
566.197	231.75
566.408	241.75
566.62	253.75
566.832	252.75
567.044	255.75
567.255	270.75
567.467	277.75
567.679	254.75
567.891	287.75
568.102	270.75
568.314	298.75
568.526	276.75
568.737	252.75
568.949	263.75
569.161	250.75
569.372	200.75
569.584	197.75
569.795	207.75
570.007	212.75
570.218	224.75
570.43	209.75
570.641	213.75
570.853	210.75
571.064	196.75
571.276	205.75
571.487	201.75
571.698	188.75
571.91	205.75
572.121	208.75
572.333	185.75
572.544	189.75
572.755	208.75
572.966	184.75
573.178	183.75
573.389	189.75
573.6	171.75
573.811	188.75
574.023	181.75
574.234	191.75
574.445	187.75
574.656	164.75
574.867	179.75
575.078	187.75
575.289	172.75
575.501	189.75
575.712	176.75
575.923	179.75
576.134	166.75
576.345	183.75
576.556	193.75
576.767	179.75
576.978	165.75
577.188	165.75
577.399	164.75
577.61	170.75
577.821	163.75
578.032	166.75
578.243	175.75
578.454	183.75
578.665	173.75
578.875	195.75
579.086	167.75
579.297	180.75
579.508	172.75
579.718	175.75
579.929	183.75
580.14	201.75
580.35	181.75
580.561	165.75
580.772	173.75
580.982	162.75
581.193	165.75
581.403	160.75
581.614	164.75
581.825	159.75
582.035	161.75
582.246	157.75
582.456	155.75
582.667	160.75
582.877	168.75
583.087	161.75
583.298	172.75
583.508	175.75
583.719	177.75
583.929	160.75
584.139	155.75
584.35	149.75
584.56	154.75
584.77	143.75
584.981	159.75
585.191	172.75
585.401	160.75
585.611	163.75
585.821	152.75
586.032	174.75
586.242	159.75
586.452	167.75
586.662	171.75
586.872	163.75
587.082	159.75
587.292	155.75
587.502	163.75
587.713	163.75
587.923	184.75
588.133	173.75
588.343	161.75
588.553	163.75
588.762	156.75
588.972	161.75
589.182	164.75
589.392	147.75
589.602	162.75
589.812	177.75
590.022	175.75
590.232	169.75
590.441	156.75
590.651	169.75
590.861	161.75
591.071	165.75
591.281	159.75
591.49	170.75
591.7	167.75
591.91	167.75
592.119	165.75
592.329	167.75
592.539	169.75
592.748	172.75
592.958	169.75
593.167	176.75
593.377	186.75
593.587	179.75
593.796	182.75
594.006	168.75
594.215	172.75
594.424	183.75
594.634	188.75
594.843	162.75
595.053	162.75
595.262	164.75
595.472	157.75
595.681	165.75
595.89	169.75
596.1	166.75
596.309	166.75
596.518	149.75
596.727	163.75
596.937	153.75
597.146	179.75
597.355	166.75
597.564	161.75
597.774	142.75
597.983	167.75
598.192	161.75
598.401	147.75
598.61	154.75
598.819	154.75
599.028	143.75
599.237	153.75
599.446	148.75
599.655	147.75
599.864	176.75
600.073	141.75
600.282	142.75
600.491	149.75
600.7	143.75
600.909	160.75
601.118	141.75
601.327	139.75
601.536	141.75
601.745	146.75
601.953	145.75
602.162	156.75
602.371	138.75
602.58	165.75
602.789	159.75
602.997	147.75
603.206	151.75
603.415	153.75
603.623	121.75
603.832	148.75
604.041	159.75
604.249	147.75
604.458	148.75
604.666	143.75
604.875	151.75
605.084	139.75
605.292	141.75
605.501	151.75
605.709	134.75
605.918	148.75
606.126	138.75
606.334	138.75
606.543	147.75
606.751	141.75
606.96	140.75
607.168	127.75
607.376	135.75
607.585	146.75
607.793	147.75
608.001	144.75
608.21	145.75
608.418	152.75
608.626	144.75
608.834	136.75
609.043	132.75
609.251	138.75
609.459	137.75
609.667	142.75
609.875	131.75
610.083	136.75
610.291	133.75
610.499	140.75
610.707	133.75
610.916	129.75
611.124	133.75
611.332	132.75
611.54	121.75
611.748	155.75
611.955	147.75
612.163	141.75
612.371	133.75
612.579	118.75
612.787	125.75
612.995	149.75
613.203	131.75
613.411	142.75
613.618	137.75
613.826	157.75
614.034	136.75
614.242	125.75
614.449	139.75
614.657	135.75
614.865	126.75
615.072	136.75
615.28	147.75
615.488	119.75
615.695	151.75
615.903	141.75
616.111	127.75
616.318	137.75
616.526	130.75
616.733	136.75
616.941	140.75
617.148	146.75
617.356	151.75
617.563	130.75
617.771	131.75
617.978	133.75
618.185	135.75
618.393	146.75
618.6	133.75
618.807	128.75
619.015	129.75
619.222	136.75
619.429	142.75
619.637	149.75
619.844	137.75
620.051	126.75
620.258	136.75
620.466	123.75
620.673	135.75
620.88	143.75
621.087	133.75
621.294	128.75
621.501	130.75
621.708	124.75
621.915	127.75
622.122	134.75
622.329	137.75
622.536	129.75
622.743	131.75
622.95	131.75
623.157	128.75
623.364	133.75
623.571	131.75
623.778	146.75
623.985	145.75
624.192	123.75
624.399	142.75
624.606	144.75
624.812	144.75
625.019	148.75
625.226	119.75
625.433	135.75
625.639	131.75
625.846	124.75
626.053	116.75
626.259	134.75
626.466	137.75
626.673	128.75
626.879	131.75
627.086	123.75
627.293	129.75
627.499	131.75
627.706	123.75
627.912	130.75
628.119	121.75
628.325	120.75
628.532	127.75
628.738	125.75
628.945	113.75
629.151	114.75
629.357	107.75
629.564	113.75
629.77	117.75
629.976	104.75
630.183	115.75
630.389	131.75
630.595	124.75
630.802	115.75
631.008	121.75
631.214	114.75
631.42	125.75
631.627	127.75
631.833	111.75
632.039	101.75
632.245	112.75
632.451	131.75
632.657	123.75
632.863	84.75
633.069	125.75
633.275	106.75
633.481	133.75
633.688	113.75
633.893	107.75
634.099	115.75
634.305	119.75
634.511	114.75
634.717	125.75
634.923	110.75
635.129	122.75
635.335	122.75
635.541	101.75
635.747	100.75
635.952	115.75
636.158	131.75
636.364	135.75
636.57	122.75
636.775	114.75
636.981	129.75
637.187	118.75
637.392	125.75
637.598	114.75
637.804	107.75
638.009	112.75
638.215	105.75
638.421	104.75
638.626	115.75
638.832	123.75
639.037	103.75
639.243	101.75
639.448	119.75
639.654	108.75
639.859	113.75
640.065	117.75
640.27	116.75
640.475	132.75
640.681	99.75
640.886	119.75
641.091	123.75
641.297	120.75
641.502	117.75
641.707	99.75
641.913	119.75
642.118	111.75
642.323	115.75
642.528	115.75
642.733	112.75
642.939	111.75
643.144	108.75
643.349	118.75
643.554	112.75
643.759	121.75
643.964	117.75
644.169	113.75
644.374	98.75
644.579	115.75
644.784	102.75
644.989	112.75
645.194	108.75
645.399	111.75
645.604	110.75
645.809	112.75
646.014	122.75
646.219	105.75
646.423	113.75
646.628	118.75
646.833	105.75
647.038	125.75
647.243	117.75
647.447	102.75
647.652	113.75
647.857	111.75
648.062	124.75
648.266	111.75
648.471	113.75
648.676	127.75
648.88	120.75
649.085	123.75
649.289	121.75
649.494	125.75
649.698	115.75
649.903	109.75
650.107	103.75
650.312	136.75
650.516	106.75
650.721	100.75
650.925	108.75
651.13	113.75
651.334	109.75
651.539	104.75
651.743	109.75
651.947	105.75
652.152	118.75
652.356	108.75
652.56	107.75
652.764	99.75
652.969	129.75
653.173	100.75
653.377	94.75
653.581	113.75
653.785	104.75
653.99	96.75
654.194	98.75
654.398	100.75
654.602	89.75
654.806	108.75
655.01	95.75
655.214	90.75
655.418	95.75
655.622	100.75
655.826	106.75
656.03	87.75
656.234	94.75
656.438	103.75
656.642	105.75
656.846	98.75
657.049	93.75
657.253	98.75
657.457	89.75
657.661	94.75
657.865	110.75
658.068	102.75
658.272	95.75
658.476	93.75
658.68	92.75
658.883	83.75
659.087	95.75
659.291	90.75
659.494	95.75
659.698	98.75
659.901	86.75
660.105	100.75
660.309	98.75
660.512	102.75
660.716	89.75
660.919	78.75
661.123	98.75
661.326	94.75
661.53	90.75
661.733	87.75
661.936	78.75
662.14	84.75
662.343	90.75
662.546	85.75
662.75	95.75
662.953	77.75
663.156	87.75
663.36	90.75
663.563	90.75
663.766	73.75
663.969	102.75
664.173	78.75
664.376	93.75
664.579	80.75
664.782	92.75
664.985	77.75
665.188	81.75
665.391	95.75
665.594	84.75
665.797	91.75
666	91.75
666.203	65.75
666.406	93.75
666.609	81.75
666.812	93.75
667.015	85.75
667.218	80.75
667.421	82.75
667.624	93.75
667.827	102.75
668.03	84.75
668.232	83.75
668.435	90.75
668.638	92.75
668.841	86.75
669.043	94.75
669.246	72.75
669.449	81.75
669.651	95.75
669.854	77.75
670.057	79.75
670.259	77.75
670.462	75.75
670.665	84.75
670.867	81.75
671.07	86.75
671.272	76.75
671.475	84.75
671.677	83.75
671.88	85.75
672.082	89.75
672.284	71.75
672.487	81.75
672.689	88.75
672.892	89.75
