Data from NickelSpatula.Lamp.E10.P2_HRD10591_11-59-11-525.txt Node
Date: Tue Jul 23 11:59:11 EDT 2019
User: cochatt
Spectrometer: HR+D1059
Trigger mode: 1
Integration Time (sec): 1.000000E-1
Scans to average: 1
Electric dark correction enabled: true
Nonlinearity correction enabled: false
Boxcar width: 0
XAxis mode: Wavelengths
Number of Pixels in Spectrum: 2048
>>>>>Begin Spectral Data<<<<<
223.165	-14.62
223.4	-14.62
223.635	-14.62
223.869	-14.62
224.104	-9.62
224.338	-6.62
224.573	-15.62
224.808	-25.62
225.042	-10.62
225.277	-8.62
225.511	2.38
225.746	-9.62
225.98	21.38
226.215	-0.62
226.449	20.38
226.683	18.38
226.918	31.38
227.152	22.38
227.387	20.38
227.621	22.38
227.856	55.38
228.09	66.38
228.324	63.38
228.559	52.38
228.793	86.38
229.027	148.38
229.262	151.38
229.496	160.38
229.73	164.38
229.964	184.38
230.199	212.38
230.433	217.38
230.667	202.38
230.901	203.38
231.136	209.38
231.37	197.38
231.604	214.38
231.838	228.38
232.072	247.38
232.306	236.38
232.541	234.38
232.775	239.38
233.009	258.38
233.243	298.38
233.477	312.38
233.711	343.38
233.945	319.38
234.179	330.38
234.413	332.38
234.647	372.38
234.881	449.38
235.115	414.38
235.349	417.38
235.583	358.38
235.817	351.38
236.051	371.38
236.285	442.38
236.519	452.38
236.753	429.38
236.987	433.38
237.221	398.38
237.455	417.38
237.689	436.38
237.922	469.38
238.156	481.38
238.39	558.38
238.624	656.38
238.858	578.38
239.091	486.38
239.325	511.38
239.559	479.38
239.793	526.38
240.027	653.38
240.26	588.38
240.494	572.38
240.728	582.38
240.961	695.38
241.195	643.38
241.429	670.38
241.662	608.38
241.896	535.38
242.13	484.38
242.363	454.38
242.597	468.38
242.83	511.38
243.064	528.38
243.298	594.38
243.531	614.38
243.765	633.38
243.998	620.38
244.232	585.38
244.465	614.38
244.699	585.38
244.932	663.38
245.166	631.38
245.399	562.38
245.633	507.38
245.866	567.38
246.099	621.38
246.333	721.38
246.566	794.38
246.8	750.38
247.033	724.38
247.266	688.38
247.5	700.38
247.733	706.38
247.966	655.38
248.2	702.38
248.433	801.38
248.666	851.38
248.899	851.38
249.133	860.38
249.366	975.38
249.599	1062.38
249.832	942.38
250.066	840.38
250.299	823.38
250.532	811.38
250.765	783.38
250.998	712.38
251.231	709.38
251.465	762.38
251.698	820.38
251.931	786.38
252.164	833.38
252.397	962.38
252.63	1050.38
252.863	1165.38
253.096	1219.38
253.329	1167.38
253.562	1095.38
253.795	1211.38
254.028	1327.38
254.261	1406.38
254.494	1247.38
254.727	1123.38
254.96	1115.38
255.193	1183.38
255.426	1118.38
255.659	843.38
255.892	786.38
256.124	855.38
256.357	1024.38
256.59	1200.38
256.823	1127.38
257.056	991.38
257.289	934.38
257.521	968.38
257.754	1101.38
257.987	1276.38
258.22	1103.38
258.452	1012.38
258.685	1145.38
258.918	1266.38
259.151	1210.38
259.383	1309.38
259.616	1499.38
259.849	1540.38
260.081	1729.38
260.314	1890.38
260.547	1470.38
260.779	1468.38
261.012	1745.38
261.244	1627.38
261.477	1606.38
261.71	1547.38
261.942	1306.38
262.175	1274.38
262.407	1231.38
262.64	1288.38
262.872	1475.38
263.105	1625.38
263.337	1710.38
263.57	1517.38
263.802	1018.38
264.035	902.38
264.267	871.38
264.499	766.38
264.732	688.38
264.964	700.38
265.197	724.38
265.429	751.38
265.661	821.38
265.894	861.38
266.126	894.38
266.358	1011.38
266.591	1238.38
266.823	1463.38
267.055	1368.38
267.287	1224.38
267.52	1248.38
267.752	1298.38
267.984	1451.38
268.216	1338.38
268.448	1133.38
268.681	1106.38
268.913	1188.38
269.145	1231.38
269.377	1288.38
269.609	1304.38
269.841	1216.38
270.073	1272.38
270.306	1351.38
270.538	1348.38
270.77	1375.38
271.002	1390.38
271.234	1474.38
271.466	1508.38
271.698	1435.38
271.93	1426.38
272.162	1415.38
272.394	1458.38
272.626	1407.38
272.858	1432.38
273.09	1439.38
273.322	1282.38
273.553	1262.38
273.785	1488.38
274.017	1991.38
274.249	2444.38
274.481	2557.38
274.713	2778.38
274.945	3180.38
275.176	3261.38
275.408	2842.38
275.64	2611.38
275.872	2664.38
276.104	2228.38
276.335	1920.38
276.567	1922.38
276.799	1968.38
277.031	2082.38
277.262	1570.38
277.494	1229.38
277.726	1178.38
277.957	1328.38
278.189	1493.38
278.421	1475.38
278.652	1426.38
278.884	1367.38
279.115	1235.38
279.347	1179.38
279.579	1213.38
279.81	1228.38
280.042	1198.38
280.273	1220.38
280.505	1108.38
280.736	1002.38
280.968	987.38
281.199	1073.38
281.431	1216.38
281.662	1194.38
281.894	1144.38
282.125	1239.38
282.356	1341.38
282.588	1367.38
282.819	1221.38
283.051	1390.38
283.282	1678.38
283.513	1979.38
283.745	2117.38
283.976	2179.38
284.207	1988.38
284.439	2092.38
284.67	2022.38
284.901	1787.38
285.132	1889.38
285.364	2003.38
285.595	1830.38
285.826	1962.38
286.057	2026.38
286.288	1974.38
286.52	1972.38
286.751	2087.38
286.982	2102.38
287.213	1784.38
287.444	1699.38
287.675	1841.38
287.906	1790.38
288.138	1491.38
288.369	1315.38
288.6	1259.38
288.831	1310.38
289.062	1543.38
289.293	1683.38
289.524	1582.38
289.755	1583.38
289.986	1606.38
290.217	1407.38
290.448	1085.38
290.679	947.38
290.91	887.38
291.141	923.38
291.371	955.38
291.602	988.38
291.833	980.38
292.064	1050.38
292.295	1204.38
292.526	1364.38
292.757	1438.38
292.987	1533.38
293.218	1546.38
293.449	1586.38
293.68	1688.38
293.91	1606.38
294.141	1608.38
294.372	1495.38
294.603	1398.38
294.833	1538.38
295.064	1795.38
295.295	1701.38
295.525	1292.38
295.756	1134.38
295.987	962.38
296.217	1015.38
296.448	1020.38
296.679	1094.38
296.909	1217.38
297.14	1311.38
297.37	1440.38
297.601	1318.38
297.831	1169.38
298.062	1215.38
298.292	1427.38
298.523	1562.38
298.753	1763.38
298.984	1586.38
299.214	1251.38
299.445	1078.38
299.675	1025.38
299.905	1034.38
300.136	1079.38
300.366	1182.38
300.597	1150.38
300.827	1009.38
301.057	978.38
301.288	1032.38
301.518	1088.38
301.748	1220.38
301.979	1316.38
302.209	1432.38
302.439	1450.38
302.669	1246.38
302.9	1252.38
303.13	1141.38
303.36	1076.38
303.59	1050.38
303.82	1090.38
304.051	1222.38
304.281	1328.38
304.511	1247.38
304.741	1115.38
304.971	1187.38
305.201	1272.38
305.431	1179.38
305.661	1038.38
305.891	1058.38
306.121	1050.38
306.352	963.38
306.582	866.38
306.812	844.38
307.042	838.38
307.272	792.38
307.502	796.38
307.731	890.38
307.961	906.38
308.191	890.38
308.421	778.38
308.651	798.38
308.881	741.38
309.111	756.38
309.341	782.38
309.571	876.38
309.8	916.38
310.03	890.38
310.26	998.38
310.49	945.38
310.72	886.38
310.949	824.38
311.179	878.38
311.409	944.38
311.639	1081.38
311.868	1354.38
312.098	1748.38
312.328	1893.38
312.557	1822.38
312.787	1880.38
313.017	1657.38
313.246	1734.38
313.476	1948.38
313.706	1620.38
313.935	1271.38
314.165	1036.38
314.394	926.38
314.624	926.38
314.853	1021.38
315.083	997.38
315.312	967.38
315.542	982.38
315.771	940.38
316.001	867.38
316.23	825.38
316.46	833.38
316.689	840.38
316.919	851.38
317.148	886.38
317.377	854.38
317.607	868.38
317.836	972.38
318.065	1068.38
318.295	1217.38
318.524	1156.38
318.753	967.38
318.983	909.38
319.212	911.38
319.441	1009.38
319.67	1134.38
319.9	1202.38
320.129	1127.38
320.358	964.38
320.587	965.38
320.816	999.38
321.046	1172.38
321.275	1310.38
321.504	1350.38
321.733	1255.38
321.962	1236.38
322.191	1166.38
322.42	1095.38
322.649	1121.38
322.878	1226.38
323.108	1178.38
323.337	1095.38
323.566	1088.38
323.795	1047.38
324.024	1004.38
324.253	966.38
324.482	943.38
324.71	1054.38
324.939	1263.38
325.168	1107.38
325.397	918.38
325.626	901.38
325.855	895.38
326.084	930.38
326.313	867.38
326.542	828.38
326.77	875.38
326.999	891.38
327.228	933.38
327.457	998.38
327.686	1000.38
327.914	867.38
328.143	818.38
328.372	840.38
328.6	849.38
328.829	886.38
329.058	878.38
329.287	878.38
329.515	895.38
329.744	839.38
329.972	821.38
330.201	811.38
330.43	826.38
330.658	940.38
330.887	1063.38
331.115	1006.38
331.344	1004.38
331.572	952.38
331.801	905.38
332.03	854.38
332.258	871.38
332.486	950.38
332.715	975.38
332.943	879.38
333.172	842.38
333.4	941.38
333.629	1022.38
333.857	1111.38
334.085	1115.38
334.314	1099.38
334.542	1012.38
334.771	948.38
334.999	938.38
335.227	916.38
335.455	965.38
335.684	1035.38
335.912	1157.38
336.14	1298.38
336.369	1260.38
336.597	1183.38
336.825	1366.38
337.053	1509.38
337.281	1221.38
337.51	990.38
337.738	948.38
337.966	1077.38
338.194	1176.38
338.422	1074.38
338.65	942.38
338.878	898.38
339.106	893.38
339.334	1013.38
339.562	1051.38
339.79	972.38
340.018	956.38
340.246	1006.38
340.474	1148.38
340.702	1239.38
340.93	1315.38
341.158	1302.38
341.386	1092.38
341.614	1100.38
341.842	1084.38
342.07	1121.38
342.298	1320.38
342.526	1377.38
342.754	1172.38
342.981	1101.38
343.209	1059.38
343.437	1097.38
343.665	1146.38
343.893	1173.38
344.12	1362.38
344.348	1562.38
344.576	1399.38
344.804	1166.38
345.031	1012.38
345.259	954.38
345.487	977.38
345.714	1010.38
345.942	1109.38
346.17	1202.38
346.397	1107.38
346.625	999.38
346.853	945.38
347.08	941.38
347.308	988.38
347.535	1106.38
347.763	1094.38
347.99	956.38
348.218	931.38
348.445	970.38
348.673	974.38
348.9	967.38
349.128	1044.38
349.355	1070.38
349.583	1045.38
349.81	980.38
350.037	932.38
350.265	812.38
350.492	798.38
350.72	785.38
350.947	821.38
351.174	881.38
351.402	914.38
351.629	972.38
351.856	919.38
352.083	878.38
352.311	969.38
352.538	1046.38
352.765	1112.38
352.992	1019.38
353.22	975.38
353.447	986.38
353.674	950.38
353.901	940.38
354.128	986.38
354.355	1008.38
354.583	980.38
354.81	958.38
355.037	988.38
355.264	990.38
355.491	1072.38
355.718	1149.38
355.945	1112.38
356.172	1076.38
356.399	1089.38
356.626	1294.38
356.853	1599.38
357.08	1695.38
357.307	1761.38
357.534	1356.38
357.761	1380.38
357.988	1744.38
358.215	2004.38
358.441	1896.38
358.668	1586.38
358.895	1494.38
359.122	1200.38
359.349	1197.38
359.576	1306.38
359.802	1057.38
360.029	928.38
360.256	1023.38
360.483	1296.38
360.709	1630.38
360.936	1639.38
361.163	1395.38
361.39	1123.38
361.616	1055.38
361.843	1242.38
362.07	1541.38
362.296	1374.38
362.523	1074.38
362.749	915.38
362.976	980.38
363.203	1173.38
363.429	1337.38
363.656	1095.38
363.882	977.38
364.109	950.38
364.335	974.38
364.562	980.38
364.788	1132.38
365.015	1345.38
365.241	1164.38
365.468	970.38
365.694	827.38
365.92	806.38
366.147	814.38
366.373	772.38
366.599	782.38
366.826	814.38
367.052	813.38
367.278	826.38
367.505	796.38
367.731	897.38
367.957	994.38
368.184	1043.38
368.41	991.38
368.636	1029.38
368.862	1084.38
369.089	1002.38
369.315	903.38
369.541	904.38
369.767	890.38
369.993	849.38
370.219	851.38
370.445	893.38
370.672	1024.38
370.898	1046.38
371.124	1055.38
371.35	927.38
371.576	887.38
371.802	954.38
372.028	1144.38
372.254	1318.38
372.48	1146.38
372.706	1018.38
372.932	1103.38
373.158	1142.38
373.384	1370.38
373.61	1773.38
373.835	1838.38
374.061	1352.38
374.287	1175.38
374.513	1352.38
374.739	1678.38
374.965	1692.38
375.191	1628.38
375.416	1148.38
375.642	1007.38
375.868	1215.38
376.094	1345.38
376.319	1150.38
376.545	1288.38
376.771	1363.38
376.997	1127.38
377.222	859.38
377.448	747.38
377.674	743.38
377.899	728.38
378.125	762.38
378.35	750.38
378.576	791.38
378.802	862.38
379.027	922.38
379.253	908.38
379.478	930.38
379.704	1032.38
379.929	1060.38
380.155	1059.38
380.38	938.38
380.606	964.38
380.831	1118.38
381.057	1047.38
381.282	985.38
381.507	1167.38
381.733	1477.38
381.958	1503.38
382.184	1630.38
382.409	1692.38
382.634	1621.38
382.86	1722.38
383.085	1430.38
383.31	1114.38
383.535	1210.38
383.761	1205.38
383.986	1148.38
384.211	1380.38
384.436	1366.38
384.662	1019.38
384.887	998.38
385.112	1026.38
385.337	1060.38
385.562	1015.38
385.787	1084.38
386.013	1198.38
386.238	1236.38
386.463	1012.38
386.688	982.38
386.913	935.38
387.138	884.38
387.363	945.38
387.588	995.38
387.813	1002.38
388.038	1099.38
388.263	983.38
388.488	954.38
388.713	1126.38
388.938	1206.38
389.163	1033.38
389.387	894.38
389.612	900.38
389.837	925.38
390.062	952.38
390.287	1012.38
390.512	1029.38
390.736	929.38
390.961	871.38
391.186	806.38
391.411	844.38
391.636	858.38
391.86	961.38
392.085	1027.38
392.31	1005.38
392.534	964.38
392.759	928.38
392.984	987.38
393.208	956.38
393.433	847.38
393.658	812.38
393.882	786.38
394.107	770.38
394.331	799.38
394.556	812.38
394.78	819.38
395.005	845.38
395.229	886.38
395.454	848.38
395.678	867.38
395.903	910.38
396.127	860.38
396.352	891.38
396.576	954.38
396.801	1012.38
397.025	1094.38
397.249	1103.38
397.474	920.38
397.698	935.38
397.922	957.38
398.147	896.38
398.371	903.38
398.595	990.38
398.82	949.38
399.044	935.38
399.268	1011.38
399.492	1050.38
399.717	1060.38
399.941	1082.38
400.165	1046.38
400.389	1029.38
400.613	1064.38
400.837	1036.38
401.062	935.38
401.286	883.38
401.51	893.38
401.734	908.38
401.958	927.38
402.182	899.38
402.406	926.38
402.63	903.38
402.854	945.38
403.078	1052.38
403.302	1294.38
403.526	1295.38
403.75	1153.38
403.974	1051.38
404.198	1100.38
404.422	1221.38
404.645	1434.38
404.869	1571.38
405.093	1166.38
405.317	1006.38
405.541	968.38
405.765	993.38
405.988	973.38
406.212	1099.38
406.436	1301.38
406.66	1426.38
406.883	1149.38
407.107	1189.38
407.331	1365.38
407.555	1291.38
407.778	1108.38
408.002	1048.38
408.226	1043.38
408.449	1024.38
408.673	1020.38
408.896	951.38
409.12	927.38
409.344	892.38
409.567	876.38
409.791	865.38
410.014	892.38
410.238	909.38
410.461	886.38
410.685	886.38
410.908	893.38
411.132	928.38
411.355	938.38
411.578	952.38
411.802	935.38
412.025	963.38
412.249	998.38
412.472	962.38
412.695	959.38
412.919	973.38
413.142	955.38
413.365	1031.38
413.589	1040.38
413.812	975.38
414.035	913.38
414.258	950.38
414.482	1045.38
414.705	1087.38
414.928	906.38
415.151	871.38
415.374	878.38
415.597	886.38
415.821	910.38
416.044	909.38
416.267	892.38
416.49	885.38
416.713	856.38
416.936	858.38
417.159	869.38
417.382	895.38
417.605	886.38
417.828	922.38
418.051	893.38
418.274	901.38
418.497	934.38
418.72	914.38
418.943	954.38
419.166	989.38
419.389	1008.38
419.611	1011.38
419.834	1041.38
420.057	1109.38
420.28	1099.38
420.503	992.38
420.726	914.38
420.948	872.38
421.171	890.38
421.394	867.38
421.617	846.38
421.839	881.38
422.062	930.38
422.285	950.38
422.507	919.38
422.73	946.38
422.953	982.38
423.175	966.38
423.398	935.38
423.621	998.38
423.843	1037.38
424.066	942.38
424.288	931.38
424.511	927.38
424.733	909.38
424.956	935.38
425.178	1103.38
425.401	1249.38
425.623	1415.38
425.846	1141.38
426.068	1005.38
426.291	1088.38
426.513	1030.38
426.735	956.38
426.958	986.38
427.18	1122.38
427.402	1491.38
427.625	1431.38
427.847	1158.38
428.069	891.38
428.292	898.38
428.514	894.38
428.736	836.38
428.958	949.38
429.181	1104.38
429.403	970.38
429.625	882.38
429.847	879.38
430.069	892.38
430.292	934.38
430.514	887.38
430.736	956.38
430.958	1181.38
431.18	1098.38
431.402	841.38
431.624	823.38
431.846	818.38
432.068	790.38
432.29	814.38
432.512	951.38
432.734	1223.38
432.956	1135.38
433.178	892.38
433.4	829.38
433.622	838.38
433.844	883.38
434.066	919.38
434.287	908.38
434.509	864.38
434.731	924.38
434.953	867.38
435.175	914.38
435.397	1052.38
435.618	891.38
435.84	805.38
436.062	824.38
436.284	827.38
436.505	795.38
436.727	812.38
436.949	771.38
437.17	835.38
437.392	829.38
437.614	840.38
437.835	833.38
438.057	848.38
438.278	986.38
438.5	1404.38
438.721	1404.38
438.943	935.38
439.165	830.38
439.386	784.38
439.608	778.38
439.829	793.38
440.05	792.38
440.272	848.38
440.493	1004.38
440.715	1230.38
440.936	988.38
441.158	848.38
441.379	880.38
441.6	962.38
441.822	1024.38
442.043	881.38
442.264	895.38
442.486	858.38
442.707	832.38
442.928	865.38
443.149	898.38
443.371	912.38
443.592	923.38
443.813	908.38
444.034	884.38
444.255	891.38
444.476	946.38
444.698	954.38
444.919	936.38
445.14	1064.38
445.361	1003.38
445.582	960.38
445.803	907.38
446.024	947.38
446.245	923.38
446.466	921.38
446.687	869.38
446.908	903.38
447.129	851.38
447.35	799.38
447.571	803.38
447.792	806.38
448.013	786.38
448.234	767.38
448.455	804.38
448.675	824.38
448.896	790.38
449.117	774.38
449.338	795.38
449.559	857.38
449.779	863.38
450	874.38
450.221	837.38
450.442	814.38
450.662	775.38
450.883	799.38
451.104	817.38
451.324	812.38
451.545	817.38
451.766	796.38
451.986	758.38
452.207	741.38
452.428	758.38
452.648	780.38
452.869	818.38
453.089	850.38
453.31	834.38
453.53	739.38
453.751	738.38
453.971	743.38
454.192	772.38
454.412	801.38
454.633	727.38
454.853	754.38
455.073	718.38
455.294	740.38
455.514	718.38
455.734	783.38
455.955	804.38
456.175	834.38
456.395	723.38
456.616	709.38
456.836	704.38
457.056	706.38
457.276	684.38
457.497	711.38
457.717	698.38
457.937	680.38
458.157	710.38
458.377	726.38
458.598	730.38
458.818	754.38
459.038	806.38
459.258	803.38
459.478	865.38
459.698	888.38
459.918	906.38
460.138	892.38
460.358	910.38
460.578	860.38
460.798	860.38
461.018	888.38
461.238	846.38
461.458	833.38
461.678	871.38
461.898	946.38
462.118	908.38
462.338	930.38
462.558	966.38
462.777	971.38
462.997	996.38
463.217	1009.38
463.437	1028.38
463.657	1003.38
463.876	963.38
464.096	960.38
464.316	965.38
464.536	1002.38
464.755	1005.38
464.975	1016.38
465.195	955.38
465.414	1006.38
465.634	949.38
465.854	934.38
466.073	863.38
466.293	876.38
466.512	927.38
466.732	998.38
466.951	1040.38
467.171	912.38
467.391	868.38
467.61	882.38
467.829	931.38
468.049	936.38
468.268	860.38
468.488	872.38
468.707	904.38
468.927	1055.38
469.146	1145.38
469.365	1032.38
469.585	940.38
469.804	1003.38
470.023	1101.38
470.243	942.38
470.462	903.38
470.681	925.38
470.901	882.38
471.12	955.38
471.339	964.38
471.558	906.38
471.777	942.38
471.997	1012.38
472.216	1105.38
472.435	1066.38
472.654	944.38
472.873	926.38
473.092	973.38
473.311	1029.38
473.53	948.38
473.749	916.38
473.968	961.38
474.187	962.38
474.406	927.38
474.625	914.38
474.844	959.38
475.063	1042.38
475.282	1024.38
475.501	1066.38
475.72	1101.38
475.939	1061.38
476.158	1110.38
476.377	1253.38
476.596	1442.38
476.814	1478.38
477.033	1239.38
477.252	1076.38
477.471	997.38
477.69	1006.38
477.908	1094.38
478.127	1166.38
478.346	1040.38
478.564	1124.38
478.783	1082.38
479.002	1095.38
479.22	1300.38
479.439	1406.38
479.658	1213.38
479.876	1125.38
480.095	1218.38
480.313	1234.38
480.532	1115.38
480.751	1086.38
480.969	1108.38
481.188	1256.38
481.406	1303.38
481.624	1212.38
481.843	1119.38
482.061	1096.38
482.28	1206.38
482.498	1483.38
482.717	1374.38
482.935	1223.38
483.153	1135.38
483.372	1046.38
483.59	1066.38
483.808	1086.38
484.027	1000.38
484.245	976.38
484.463	964.38
484.681	989.38
484.9	1110.38
485.118	1192.38
485.336	1118.38
485.554	1053.38
485.772	1083.38
485.99	1184.38
486.209	1214.38
486.427	1238.38
486.645	1173.38
486.863	1248.38
487.081	1220.38
487.299	1383.38
487.517	1322.38
487.735	1216.38
487.953	1247.38
488.171	1272.38
488.389	1155.38
488.607	1103.38
488.825	1141.38
489.043	1288.38
489.261	1446.38
489.479	1531.38
489.696	1274.38
489.914	1171.38
490.132	1097.38
490.35	1141.38
490.568	1144.38
490.786	1108.38
491.003	1114.38
491.221	1156.38
491.439	1132.38
491.657	1123.38
491.874	1218.38
492.092	1467.38
492.31	1788.38
492.527	1707.38
492.745	1512.38
492.963	1319.38
493.18	1286.38
493.398	1272.38
493.615	1300.38
493.833	1236.38
494.05	1228.38
494.268	1238.38
494.485	1195.38
494.703	1189.38
494.92	1247.38
495.138	1182.38
495.355	1194.38
495.573	1212.38
495.79	1409.38
496.008	1775.38
496.225	1559.38
496.442	1362.38
496.66	1345.38
496.877	1415.38
497.094	1386.38
497.312	1300.38
497.529	1333.38
497.746	1304.38
497.963	1352.38
498.181	1484.38
498.398	1565.38
498.615	1637.38
498.832	1687.38
499.049	1713.38
499.267	1542.38
499.484	1527.38
499.701	1619.38
499.918	1743.38
500.135	1853.38
500.352	1875.38
500.569	1950.38
500.786	1998.38
501.003	1997.38
501.22	1823.38
501.437	1680.38
501.654	1627.38
501.871	1612.38
502.088	1632.38
502.305	1506.38
502.522	1521.38
502.739	1502.38
502.956	1366.38
503.172	1338.38
503.389	1294.38
503.606	1245.38
503.823	1323.38
504.04	1280.38
504.256	1311.38
504.473	1340.38
504.69	1347.38
504.907	1398.38
505.123	1380.38
505.34	1439.38
505.557	1412.38
505.773	1352.38
505.99	1309.38
506.207	1362.38
506.423	1281.38
506.64	1186.38
506.856	1236.38
507.073	1379.38
507.289	1314.38
507.506	1347.38
507.722	1401.38
507.939	1392.38
508.155	1436.38
508.372	1297.38
508.588	1275.38
508.805	1239.38
509.021	1219.38
509.238	1198.38
509.454	1208.38
509.67	1196.38
509.887	1197.38
510.103	1342.38
510.319	1287.38
510.536	1219.38
510.752	1071.38
510.968	1050.38
511.184	1031.38
511.401	1018.38
511.617	1019.38
511.833	1051.38
512.049	1043.38
512.265	1084.38
512.481	1114.38
512.698	1252.38
512.914	1391.38
513.13	1237.38
513.346	1134.38
513.562	1154.38
513.778	1166.38
513.994	1143.38
514.21	1230.38
514.426	1166.38
514.642	1132.38
514.858	1161.38
515.074	1212.38
515.29	1280.38
515.506	1440.38
515.721	1324.38
515.937	1239.38
516.153	1151.38
516.369	1152.38
516.585	1208.38
516.801	1380.38
517.016	1594.38
517.232	1533.38
517.448	1543.38
517.664	1366.38
517.879	1316.38
518.095	1272.38
518.311	1263.38
518.527	1304.38
518.742	1377.38
518.958	1494.38
519.173	1406.38
519.389	1334.38
519.605	1383.38
519.82	1516.38
520.036	1740.38
520.251	1706.38
520.467	1585.38
520.682	2350.38
520.898	2849.38
521.113	2733.38
521.329	1712.38
521.544	1496.38
521.76	1521.38
521.975	1358.38
522.19	1306.38
522.406	1268.38
522.621	1460.38
522.836	1531.38
523.052	1562.38
523.267	1306.38
523.482	1293.38
523.698	1350.38
523.913	1333.38
524.128	1216.38
524.343	1202.38
524.559	1190.38
524.774	1127.38
524.989	1159.38
525.204	1159.38
525.419	1325.38
525.634	1220.38
525.849	1243.38
526.064	1247.38
526.28	1258.38
526.495	1500.38
526.71	1494.38
526.925	1347.38
527.14	1374.38
527.355	1339.38
527.57	1146.38
527.785	1184.38
527.999	1134.38
528.214	1064.38
528.429	1060.38
528.644	1069.38
528.859	1028.38
529.074	1004.38
529.289	961.38
529.503	977.38
529.718	1027.38
529.933	1182.38
530.148	1184.38
530.363	1056.38
530.577	1035.38
530.792	1006.38
531.007	989.38
531.221	970.38
531.436	954.38
531.651	955.38
531.865	984.38
532.08	1011.38
532.295	978.38
532.509	1030.38
532.724	1175.38
532.938	1279.38
533.153	1492.38
533.367	1186.38
533.582	1165.38
533.796	1112.38
534.011	1028.38
534.225	1032.38
534.44	1049.38
534.654	1084.38
534.868	1219.38
535.083	1095.38
535.297	999.38
535.511	1026.38
535.726	1153.38
535.94	1064.38
536.154	980.38
536.369	980.38
536.583	1003.38
536.797	993.38
537.011	1032.38
537.225	1097.38
537.44	1190.38
537.654	1029.38
537.868	992.38
538.082	1013.38
538.296	1002.38
538.51	1084.38
538.724	1060.38
538.938	1036.38
539.153	966.38
539.367	951.38
539.581	973.38
539.795	1038.38
540.009	1121.38
540.222	1039.38
540.436	1057.38
540.65	1136.38
540.864	1180.38
541.078	1175.38
541.292	1332.38
541.506	1120.38
541.72	1042.38
541.934	1032.38
542.147	1002.38
542.361	1026.38
542.575	1071.38
542.789	1029.38
543.002	962.38
543.216	1070.38
543.43	933.38
543.644	951.38
543.857	936.38
544.071	927.38
544.285	917.38
544.498	923.38
544.712	921.38
544.925	997.38
545.139	953.38
545.352	888.38
545.566	906.38
545.779	1012.38
545.993	976.38
546.206	876.38
546.42	884.38
546.633	888.38
546.847	847.38
547.06	860.38
547.274	844.38
547.487	898.38
547.7	955.38
547.914	978.38
548.127	1101.38
548.34	1082.38
548.554	975.38
548.767	1002.38
548.98	1042.38
549.193	965.38
549.407	986.38
549.62	1154.38
549.833	1098.38
550.046	1167.38
550.259	1167.38
550.473	1019.38
550.686	982.38
550.899	971.38
551.112	984.38
551.325	1053.38
551.538	1070.38
551.751	924.38
551.964	884.38
552.177	899.38
552.39	885.38
552.603	836.38
552.816	916.38
553.029	894.38
553.242	874.38
553.455	930.38
553.667	1024.38
553.88	963.38
554.093	882.38
554.306	828.38
554.519	788.38
554.732	811.38
554.944	788.38
555.157	780.38
555.37	762.38
555.583	784.38
555.795	783.38
556.008	783.38
556.221	812.38
556.433	763.38
556.646	788.38
556.859	766.38
557.071	803.38
557.284	796.38
557.496	828.38
557.709	791.38
557.921	813.38
558.134	727.38
558.346	726.38
558.559	731.38
558.771	749.38
558.984	840.38
559.196	759.38
559.409	725.38
559.621	720.38
559.833	691.38
560.046	729.38
560.258	740.38
560.47	721.38
560.683	718.38
560.895	644.38
561.107	678.38
561.32	700.38
561.532	682.38
561.744	772.38
561.956	782.38
562.168	711.38
562.381	698.38
562.593	725.38
562.805	718.38
563.017	700.38
563.229	658.38
563.441	652.38
563.653	658.38
563.865	686.38
564.077	694.38
564.289	671.38
564.501	674.38
564.713	746.38
564.925	715.38
565.137	679.38
565.349	690.38
565.561	704.38
565.773	728.38
565.985	763.38
566.197	781.38
566.408	832.38
566.62	859.38
566.832	856.38
567.044	832.38
567.255	879.38
567.467	952.38
567.679	864.38
567.891	850.38
568.102	869.38
568.314	935.38
568.526	830.38
568.737	803.38
568.949	889.38
569.161	749.38
569.372	686.38
569.584	674.38
569.795	676.38
570.007	680.38
570.218	743.38
570.43	736.38
570.641	686.38
570.853	655.38
571.064	629.38
571.276	670.38
571.487	702.38
571.698	672.38
571.91	660.38
572.121	683.38
572.333	621.38
572.544	612.38
572.755	608.38
572.966	626.38
573.178	610.38
573.389	624.38
573.6	607.38
573.811	628.38
574.023	587.38
574.234	584.38
574.445	584.38
574.656	563.38
574.867	578.38
575.078	585.38
575.289	587.38
575.501	630.38
575.712	598.38
575.923	538.38
576.134	541.38
576.345	542.38
576.556	550.38
576.767	516.38
576.978	535.38
577.188	526.38
577.399	495.38
577.61	510.38
577.821	519.38
578.032	533.38
578.243	562.38
578.454	578.38
578.665	555.38
578.875	545.38
579.086	554.38
579.297	550.38
579.508	556.38
579.718	570.38
579.929	558.38
580.14	531.38
580.35	512.38
580.561	491.38
580.772	475.38
580.982	476.38
581.193	459.38
581.403	466.38
581.614	474.38
581.825	468.38
582.035	466.38
582.246	465.38
582.456	473.38
582.667	466.38
582.877	447.38
583.087	464.38
583.298	436.38
583.508	447.38
583.719	435.38
583.929	462.38
584.139	447.38
584.35	451.38
584.56	493.38
584.77	475.38
584.981	465.38
585.191	453.38
585.401	473.38
585.611	478.38
585.821	476.38
586.032	493.38
586.242	472.38
586.452	470.38
586.662	478.38
586.872	472.38
587.082	490.38
587.292	456.38
587.502	454.38
587.713	450.38
587.923	464.38
588.133	495.38
588.343	475.38
588.553	462.38
588.762	456.38
588.972	456.38
589.182	470.38
589.392	452.38
589.602	460.38
589.812	460.38
590.022	502.38
590.232	500.38
590.441	454.38
590.651	448.38
590.861	442.38
591.071	470.38
591.281	462.38
591.49	434.38
591.7	471.38
591.91	457.38
592.119	463.38
592.329	446.38
592.539	446.38
592.748	445.38
592.958	460.38
593.167	471.38
593.377	480.38
593.587	495.38
593.796	471.38
594.006	474.38
594.215	477.38
594.424	468.38
594.634	491.38
594.843	477.38
595.053	472.38
595.262	442.38
595.472	449.38
595.681	415.38
595.89	435.38
596.1	450.38
596.309	448.38
596.518	403.38
596.727	413.38
596.937	413.38
597.146	445.38
597.355	438.38
597.564	447.38
597.774	414.38
597.983	405.38
598.192	407.38
598.401	399.38
598.61	382.38
598.819	392.38
599.028	387.38
599.237	392.38
599.446	397.38
599.655	389.38
599.864	366.38
600.073	378.38
600.282	381.38
600.491	380.38
600.7	385.38
600.909	381.38
601.118	371.38
601.327	364.38
601.536	374.38
601.745	383.38
601.953	403.38
602.162	388.38
602.371	410.38
602.58	378.38
602.789	389.38
602.997	375.38
603.206	357.38
603.415	372.38
603.623	357.38
603.832	371.38
604.041	372.38
604.249	358.38
604.458	372.38
604.666	364.38
604.875	344.38
605.084	330.38
605.292	341.38
605.501	349.38
605.709	381.38
605.918	356.38
606.126	347.38
606.334	339.38
606.543	367.38
606.751	364.38
606.96	334.38
607.168	351.38
607.376	340.38
607.585	322.38
607.793	348.38
608.001	349.38
608.21	334.38
608.418	347.38
608.626	364.38
608.834	352.38
609.043	360.38
609.251	351.38
609.459	346.38
609.667	362.38
609.875	354.38
610.083	347.38
610.291	344.38
610.499	355.38
610.707	323.38
610.916	312.38
611.124	334.38
611.332	320.38
611.54	325.38
611.748	348.38
611.955	336.38
612.163	324.38
612.371	338.38
612.579	316.38
612.787	314.38
612.995	332.38
613.203	328.38
613.411	323.38
613.618	332.38
613.826	354.38
614.034	363.38
614.242	306.38
614.449	321.38
614.657	337.38
614.865	332.38
615.072	320.38
615.28	325.38
615.488	316.38
615.695	329.38
615.903	333.38
616.111	323.38
616.318	320.38
616.526	319.38
616.733	326.38
616.941	320.38
617.148	330.38
617.356	324.38
617.563	299.38
617.771	316.38
617.978	315.38
618.185	306.38
618.393	305.38
618.6	311.38
618.807	313.38
619.015	304.38
619.222	326.38
619.429	327.38
619.637	301.38
619.844	311.38
620.051	297.38
620.258	302.38
620.466	302.38
620.673	309.38
620.88	285.38
621.087	272.38
621.294	287.38
621.501	277.38
621.708	291.38
621.915	303.38
622.122	307.38
622.329	295.38
622.536	314.38
622.743	274.38
622.95	263.38
623.157	274.38
623.364	304.38
623.571	310.38
623.778	294.38
623.985	307.38
624.192	314.38
624.399	309.38
624.606	300.38
624.812	302.38
625.019	296.38
625.226	306.38
625.433	311.38
625.639	287.38
625.846	274.38
626.053	276.38
626.259	292.38
626.466	291.38
626.673	295.38
626.879	273.38
627.086	267.38
627.293	276.38
627.499	284.38
627.706	269.38
627.912	280.38
628.119	268.38
628.325	274.38
628.532	238.38
628.738	254.38
628.945	255.38
629.151	267.38
629.357	268.38
629.564	255.38
629.77	251.38
629.976	244.38
630.183	242.38
630.389	278.38
630.595	268.38
630.802	257.38
631.008	259.38
631.214	242.38
631.42	245.38
631.627	240.38
631.833	230.38
632.039	240.38
632.245	255.38
632.451	255.38
632.657	220.38
632.863	236.38
633.069	238.38
633.275	239.38
633.481	229.38
633.688	252.38
633.893	234.38
634.099	252.38
634.305	239.38
634.511	244.38
634.717	243.38
634.923	234.38
635.129	243.38
635.335	221.38
635.541	223.38
635.747	229.38
635.952	246.38
636.158	235.38
636.364	221.38
636.57	222.38
636.775	231.38
636.981	245.38
637.187	245.38
637.392	243.38
637.598	226.38
637.804	233.38
638.009	231.38
638.215	228.38
638.421	219.38
638.626	223.38
638.832	213.38
639.037	225.38
639.243	212.38
639.448	236.38
639.654	228.38
639.859	245.38
640.065	225.38
640.27	250.38
640.475	238.38
640.681	222.38
640.886	217.38
641.091	234.38
641.297	241.38
641.502	221.38
641.707	200.38
641.913	213.38
642.118	211.38
642.323	224.38
642.528	229.38
642.733	198.38
642.939	217.38
643.144	211.38
643.349	207.38
643.554	213.38
643.759	215.38
643.964	225.38
644.169	218.38
644.374	198.38
644.579	219.38
644.784	216.38
644.989	204.38
645.194	210.38
645.399	212.38
645.604	217.38
645.809	211.38
646.014	205.38
646.219	213.38
646.423	204.38
646.628	214.38
646.833	210.38
647.038	215.38
647.243	198.38
647.447	200.38
647.652	205.38
647.857	209.38
648.062	215.38
648.266	210.38
648.471	203.38
648.676	227.38
648.88	193.38
649.085	204.38
649.289	218.38
649.494	206.38
649.698	222.38
649.903	213.38
650.107	202.38
650.312	205.38
650.516	210.38
650.721	194.38
650.925	186.38
651.13	195.38
651.334	180.38
651.539	176.38
651.743	171.38
651.947	179.38
652.152	186.38
652.356	178.38
652.56	173.38
652.764	172.38
652.969	165.38
653.173	178.38
653.377	179.38
653.581	172.38
653.785	152.38
653.99	172.38
654.194	164.38
654.398	165.38
654.602	167.38
654.806	161.38
655.01	175.38
655.214	173.38
655.418	167.38
655.622	149.38
655.826	175.38
656.03	152.38
656.234	158.38
656.438	160.38
656.642	181.38
656.846	161.38
657.049	155.38
657.253	151.38
657.457	132.38
657.661	136.38
657.865	141.38
658.068	117.38
658.272	115.38
658.476	116.38
658.68	115.38
658.883	113.38
659.087	116.38
659.291	124.38
659.494	123.38
659.698	103.38
659.901	99.38
660.105	101.38
660.309	106.38
660.512	104.38
660.716	107.38
660.919	110.38
661.123	96.38
661.326	90.38
661.53	95.38
661.733	87.38
661.936	98.38
662.14	93.38
662.343	86.38
662.546	89.38
662.75	86.38
662.953	103.38
663.156	86.38
663.36	80.38
663.563	75.38
663.766	81.38
663.969	83.38
664.173	85.38
664.376	99.38
664.579	82.38
664.782	79.38
664.985	84.38
665.188	94.38
665.391	88.38
665.594	71.38
665.797	81.38
666	81.38
666.203	95.38
666.406	88.38
666.609	94.38
666.812	84.38
667.015	80.38
667.218	81.38
667.421	74.38
667.624	85.38
667.827	77.38
668.03	72.38
668.232	82.38
668.435	99.38
668.638	79.38
668.841	80.38
669.043	72.38
669.246	90.38
669.449	69.38
669.651	76.38
669.854	69.38
670.057	76.38
670.259	86.38
670.462	84.38
670.665	78.38
670.867	94.38
671.07	86.38
671.272	68.38
671.475	86.38
671.677	78.38
671.88	96.38
672.082	66.38
672.284	84.38
672.487	87.38
672.689	91.38
672.892	83.38
