Data from NickelSpatula.Lamp.E10.P2_HRD10591_11-56-44-536.txt Node
Date: Tue Jul 23 11:56:44 EDT 2019
User: cochatt
Spectrometer: HR+D1059
Trigger mode: 1
Integration Time (sec): 1.000000E-1
Scans to average: 1
Electric dark correction enabled: true
Nonlinearity correction enabled: false
Boxcar width: 0
XAxis mode: Wavelengths
Number of Pixels in Spectrum: 2048
>>>>>Begin Spectral Data<<<<<
223.165	-3.75
223.4	-3.75
223.635	-3.75
223.869	-15.75
224.104	-16.75
224.338	-14.75
224.573	-6.75
224.808	-8.75
225.042	-18.75
225.277	-8.75
225.511	1.25
225.746	9.25
225.98	1.25
226.215	8.25
226.449	8.25
226.683	21.25
226.918	24.25
227.152	20.25
227.387	22.25
227.621	40.25
227.856	47.25
228.09	30.25
228.324	41.25
228.559	64.25
228.793	78.25
229.027	121.25
229.262	156.25
229.496	156.25
229.73	153.25
229.964	169.25
230.199	190.25
230.433	177.25
230.667	197.25
230.901	185.25
231.136	174.25
231.37	189.25
231.604	202.25
231.838	219.25
232.072	224.25
232.306	208.25
232.541	210.25
232.775	209.25
233.009	220.25
233.243	244.25
233.477	271.25
233.711	294.25
233.945	283.25
234.179	267.25
234.413	295.25
234.647	334.25
234.881	366.25
235.115	366.25
235.349	344.25
235.583	292.25
235.817	304.25
236.051	321.25
236.285	337.25
236.519	375.25
236.753	364.25
236.987	356.25
237.221	346.25
237.455	358.25
237.689	354.25
237.922	386.25
238.156	397.25
238.39	442.25
238.624	554.25
238.858	484.25
239.091	408.25
239.325	401.25
239.559	406.25
239.793	465.25
240.027	530.25
240.26	504.25
240.494	485.25
240.728	504.25
240.961	548.25
241.195	520.25
241.429	541.25
241.662	510.25
241.896	441.25
242.13	404.25
242.363	390.25
242.597	416.25
242.83	458.25
243.064	463.25
243.298	503.25
243.531	524.25
243.765	529.25
243.998	542.25
244.232	522.25
244.465	516.25
244.699	509.25
244.932	558.25
245.166	521.25
245.399	486.25
245.633	497.25
245.866	524.25
246.099	523.25
246.333	596.25
246.566	630.25
246.8	626.25
247.033	606.25
247.266	548.25
247.5	571.25
247.733	572.25
247.966	552.25
248.2	538.25
248.433	621.25
248.666	676.25
248.899	675.25
249.133	666.25
249.366	769.25
249.599	824.25
249.832	760.25
250.066	684.25
250.299	687.25
250.532	676.25
250.765	644.25
250.998	617.25
251.231	617.25
251.465	661.25
251.698	674.25
251.931	681.25
252.164	704.25
252.397	791.25
252.63	856.25
252.863	920.25
253.096	942.25
253.329	936.25
253.562	893.25
253.795	976.25
254.028	1096.25
254.261	1122.25
254.494	1033.25
254.727	936.25
254.96	929.25
255.193	992.25
255.426	934.25
255.659	759.25
255.892	704.25
256.124	728.25
256.357	876.25
256.59	1008.25
256.823	957.25
257.056	817.25
257.289	779.25
257.521	877.25
257.754	1017.25
257.987	1168.25
258.22	1002.25
258.452	870.25
258.685	977.25
258.918	1098.25
259.151	1077.25
259.383	1174.25
259.616	1336.25
259.849	1335.25
260.081	1410.25
260.314	1598.25
260.547	1255.25
260.779	1300.25
261.012	1478.25
261.244	1388.25
261.477	1395.25
261.71	1245.25
261.942	1113.25
262.175	1090.25
262.407	1025.25
262.64	1075.25
262.872	1241.25
263.105	1333.25
263.337	1413.25
263.57	1286.25
263.802	896.25
264.035	841.25
264.267	842.25
264.499	701.25
264.732	646.25
264.964	654.25
265.197	676.25
265.429	717.25
265.661	745.25
265.894	772.25
266.126	846.25
266.358	924.25
266.591	1093.25
266.823	1310.25
267.055	1238.25
267.287	1098.25
267.52	1159.25
267.752	1227.25
267.984	1344.25
268.216	1235.25
268.448	1033.25
268.681	984.25
268.913	1076.25
269.145	1180.25
269.377	1161.25
269.609	1180.25
269.841	1091.25
270.073	1164.25
270.306	1232.25
270.538	1265.25
270.77	1291.25
271.002	1253.25
271.234	1351.25
271.466	1301.25
271.698	1233.25
271.93	1180.25
272.162	1206.25
272.394	1165.25
272.626	1172.25
272.858	1224.25
273.09	1207.25
273.322	1090.25
273.553	1015.25
273.785	1184.25
274.017	1530.25
274.249	1902.25
274.481	1966.25
274.713	2160.25
274.945	2430.25
275.176	2590.25
275.408	2291.25
275.64	2087.25
275.872	2160.25
276.104	1870.25
276.335	1640.25
276.567	1632.25
276.799	1675.25
277.031	1738.25
277.262	1383.25
277.494	1088.25
277.726	1052.25
277.957	1170.25
278.189	1285.25
278.421	1264.25
278.652	1220.25
278.884	1154.25
279.115	1108.25
279.347	1060.25
279.579	1084.25
279.81	1073.25
280.042	1068.25
280.273	1124.25
280.505	1043.25
280.736	946.25
280.968	940.25
281.199	998.25
281.431	1148.25
281.662	1101.25
281.894	1058.25
282.125	1148.25
282.356	1232.25
282.588	1218.25
282.819	1151.25
283.051	1200.25
283.282	1511.25
283.513	1720.25
283.745	1912.25
283.976	1901.25
284.207	1750.25
284.439	1833.25
284.67	1732.25
284.901	1560.25
285.132	1673.25
285.364	1750.25
285.595	1614.25
285.826	1684.25
286.057	1740.25
286.288	1653.25
286.52	1705.25
286.751	1814.25
286.982	1783.25
287.213	1562.25
287.444	1556.25
287.675	1613.25
287.906	1623.25
288.138	1376.25
288.369	1239.25
288.6	1183.25
288.831	1256.25
289.062	1409.25
289.293	1601.25
289.524	1497.25
289.755	1438.25
289.986	1463.25
290.217	1321.25
290.448	1038.25
290.679	901.25
290.91	857.25
291.141	846.25
291.371	896.25
291.602	896.25
291.833	915.25
292.064	961.25
292.295	1102.25
292.526	1255.25
292.757	1288.25
292.987	1378.25
293.218	1438.25
293.449	1489.25
293.68	1580.25
293.91	1437.25
294.141	1522.25
294.372	1448.25
294.603	1311.25
294.833	1381.25
295.064	1688.25
295.295	1587.25
295.525	1201.25
295.756	1000.25
295.987	870.25
296.217	905.25
296.448	908.25
296.679	914.25
296.909	972.25
297.14	1078.25
297.37	1222.25
297.601	1164.25
297.831	1007.25
298.062	1070.25
298.292	1196.25
298.523	1280.25
298.753	1440.25
298.984	1295.25
299.214	1061.25
299.445	905.25
299.675	877.25
299.905	872.25
300.136	862.25
300.366	892.25
300.597	892.25
300.827	847.25
301.057	801.25
301.288	821.25
301.518	876.25
301.748	956.25
301.979	1037.25
302.209	1066.25
302.439	1052.25
302.669	957.25
302.9	1048.25
303.13	975.25
303.36	956.25
303.59	944.25
303.82	970.25
304.051	1046.25
304.281	1144.25
304.511	1140.25
304.741	997.25
304.971	1034.25
305.201	1085.25
305.431	1040.25
305.661	902.25
305.891	839.25
306.121	816.25
306.352	794.25
306.582	765.25
306.812	735.25
307.042	723.25
307.272	725.25
307.502	722.25
307.731	753.25
307.961	796.25
308.191	739.25
308.421	697.25
308.651	716.25
308.881	700.25
309.111	719.25
309.341	728.25
309.571	811.25
309.8	776.25
310.03	805.25
310.26	810.25
310.49	829.25
310.72	771.25
310.949	799.25
311.179	787.25
311.409	835.25
311.639	980.25
311.868	1198.25
312.098	1509.25
312.328	1641.25
312.557	1602.25
312.787	1631.25
313.017	1464.25
313.246	1550.25
313.476	1675.25
313.706	1367.25
313.935	1112.25
314.165	925.25
314.394	862.25
314.624	836.25
314.853	852.25
315.083	945.25
315.312	906.25
315.542	886.25
315.771	812.25
316.001	768.25
316.23	725.25
316.46	753.25
316.689	768.25
316.919	791.25
317.148	792.25
317.377	776.25
317.607	780.25
317.836	829.25
318.065	932.25
318.295	1049.25
318.524	978.25
318.753	849.25
318.983	796.25
319.212	792.25
319.441	824.25
319.67	910.25
319.9	984.25
320.129	940.25
320.358	842.25
320.587	817.25
320.816	837.25
321.046	940.25
321.275	1018.25
321.504	1004.25
321.733	972.25
321.962	960.25
322.191	932.25
322.42	863.25
322.649	857.25
322.878	913.25
323.108	936.25
323.337	890.25
323.566	897.25
323.795	908.25
324.024	879.25
324.253	827.25
324.482	819.25
324.71	843.25
324.939	926.25
325.168	847.25
325.397	776.25
325.626	764.25
325.855	804.25
326.084	803.25
326.313	784.25
326.542	739.25
326.77	766.25
326.999	792.25
327.228	822.25
327.457	841.25
327.686	800.25
327.914	764.25
328.143	713.25
328.372	714.25
328.6	737.25
328.829	757.25
329.058	768.25
329.287	750.25
329.515	804.25
329.744	792.25
329.972	779.25
330.201	743.25
330.43	768.25
330.658	822.25
330.887	888.25
331.115	889.25
331.344	872.25
331.572	847.25
331.801	825.25
332.03	749.25
332.258	806.25
332.486	845.25
332.715	878.25
332.943	822.25
333.172	791.25
333.4	848.25
333.629	920.25
333.857	1024.25
334.085	976.25
334.314	960.25
334.542	926.25
334.771	863.25
334.999	880.25
335.227	860.25
335.455	841.25
335.684	929.25
335.912	1066.25
336.14	1142.25
336.369	1115.25
336.597	1063.25
336.825	1203.25
337.053	1281.25
337.281	1052.25
337.51	898.25
337.738	848.25
337.966	921.25
338.194	981.25
338.422	932.25
338.65	852.25
338.878	794.25
339.106	801.25
339.334	863.25
339.562	892.25
339.79	851.25
340.018	827.25
340.246	879.25
340.474	1008.25
340.702	1045.25
340.93	1085.25
341.158	1063.25
341.386	887.25
341.614	880.25
341.842	919.25
342.07	952.25
342.298	1126.25
342.526	1138.25
342.754	962.25
342.981	882.25
343.209	886.25
343.437	941.25
343.665	983.25
343.893	978.25
344.12	1104.25
344.348	1253.25
344.576	1164.25
344.804	963.25
345.031	846.25
345.259	826.25
345.487	823.25
345.714	868.25
345.942	914.25
346.17	996.25
346.397	946.25
346.625	839.25
346.853	819.25
347.08	792.25
347.308	846.25
347.535	944.25
347.763	924.25
347.99	830.25
348.218	786.25
348.445	837.25
348.673	833.25
348.9	815.25
349.128	853.25
349.355	880.25
349.583	869.25
349.81	852.25
350.037	805.25
350.265	743.25
350.492	708.25
350.72	708.25
350.947	703.25
351.174	758.25
351.402	762.25
351.629	792.25
351.856	748.25
352.083	749.25
352.311	774.25
352.538	812.25
352.765	820.25
352.992	815.25
353.22	794.25
353.447	801.25
353.674	794.25
353.901	763.25
354.128	758.25
354.355	746.25
354.583	802.25
354.81	788.25
355.037	834.25
355.264	823.25
355.491	800.25
355.718	879.25
355.945	836.25
356.172	846.25
356.399	848.25
356.626	963.25
356.853	1110.25
357.08	1155.25
357.307	1187.25
357.534	990.25
357.761	1029.25
357.988	1212.25
358.215	1302.25
358.441	1264.25
358.668	1120.25
358.895	1066.25
359.122	947.25
359.349	927.25
359.576	975.25
359.802	847.25
360.029	743.25
360.256	816.25
360.483	916.25
360.709	1116.25
360.936	1133.25
361.163	986.25
361.39	850.25
361.616	810.25
361.843	906.25
362.07	983.25
362.296	952.25
362.523	817.25
362.749	727.25
362.976	777.25
363.203	894.25
363.429	930.25
363.656	805.25
363.882	795.25
364.109	795.25
364.335	783.25
364.562	791.25
364.788	849.25
365.015	911.25
365.241	851.25
365.468	770.25
365.694	709.25
365.92	704.25
366.147	689.25
366.373	662.25
366.599	666.25
366.826	681.25
367.052	714.25
367.278	719.25
367.505	706.25
367.731	732.25
367.957	808.25
368.184	813.25
368.41	811.25
368.636	794.25
368.862	812.25
369.089	796.25
369.315	732.25
369.541	754.25
369.767	713.25
369.993	710.25
370.219	697.25
370.445	754.25
370.672	774.25
370.898	808.25
371.124	827.25
371.35	784.25
371.576	748.25
371.802	793.25
372.028	866.25
372.254	950.25
372.48	849.25
372.706	814.25
372.932	848.25
373.158	860.25
373.384	962.25
373.61	1188.25
373.835	1202.25
374.061	960.25
374.287	842.25
374.513	968.25
374.739	1120.25
374.965	1163.25
375.191	1132.25
375.416	915.25
375.642	818.25
375.868	914.25
376.094	956.25
376.319	856.25
376.545	945.25
376.771	929.25
376.997	871.25
377.222	722.25
377.448	684.25
377.674	676.25
377.899	673.25
378.125	687.25
378.35	680.25
378.576	682.25
378.802	719.25
379.027	765.25
379.253	724.25
379.478	746.25
379.704	794.25
379.929	824.25
380.155	816.25
380.38	769.25
380.606	764.25
380.831	847.25
381.057	793.25
381.282	820.25
381.507	883.25
381.733	1010.25
381.958	1053.25
382.184	1117.25
382.409	1145.25
382.634	1144.25
382.86	1129.25
383.085	1011.25
383.31	905.25
383.535	952.25
383.761	938.25
383.986	894.25
384.211	1023.25
384.436	982.25
384.662	842.25
384.887	806.25
385.112	834.25
385.337	836.25
385.562	865.25
385.787	888.25
386.013	922.25
386.238	964.25
386.463	845.25
386.688	811.25
386.913	813.25
387.138	778.25
387.363	792.25
387.588	814.25
387.813	845.25
388.038	876.25
388.263	824.25
388.488	818.25
388.713	904.25
388.938	895.25
389.163	815.25
389.387	794.25
389.612	791.25
389.837	813.25
390.062	794.25
390.287	829.25
390.512	825.25
390.736	815.25
390.961	791.25
391.186	777.25
391.411	752.25
391.636	763.25
391.86	806.25
392.085	868.25
392.31	848.25
392.534	823.25
392.759	820.25
392.984	840.25
393.208	819.25
393.433	797.25
393.658	756.25
393.882	743.25
394.107	739.25
394.331	764.25
394.556	752.25
394.78	750.25
395.005	763.25
395.229	751.25
395.454	787.25
395.678	765.25
395.903	781.25
396.127	776.25
396.352	799.25
396.576	843.25
396.801	853.25
397.025	905.25
397.249	946.25
397.474	836.25
397.698	803.25
397.922	866.25
398.147	841.25
398.371	846.25
398.595	848.25
398.82	865.25
399.044	883.25
399.268	933.25
399.492	983.25
399.717	1041.25
399.941	1007.25
400.165	984.25
400.389	979.25
400.613	946.25
400.837	907.25
401.062	868.25
401.286	823.25
401.51	839.25
401.734	820.25
401.958	845.25
402.182	838.25
402.406	841.25
402.63	870.25
402.854	876.25
403.078	988.25
403.302	1153.25
403.526	1204.25
403.75	1085.25
403.974	951.25
404.198	983.25
404.422	1048.25
404.645	1124.25
404.869	1185.25
405.093	993.25
405.317	922.25
405.541	893.25
405.765	928.25
405.988	950.25
406.212	969.25
406.436	1026.25
406.66	1126.25
406.883	964.25
407.107	1019.25
407.331	1095.25
407.555	1088.25
407.778	993.25
408.002	1007.25
408.226	976.25
408.449	986.25
408.673	928.25
408.896	908.25
409.12	850.25
409.344	863.25
409.567	852.25
409.791	857.25
410.014	892.25
410.238	848.25
410.461	854.25
410.685	860.25
410.908	842.25
411.132	884.25
411.355	866.25
411.578	873.25
411.802	869.25
412.025	882.25
412.249	882.25
412.472	910.25
412.695	893.25
412.919	861.25
413.142	871.25
413.365	909.25
413.589	918.25
413.812	839.25
414.035	846.25
414.258	868.25
414.482	912.25
414.705	904.25
414.928	807.25
415.151	839.25
415.374	822.25
415.597	826.25
415.821	840.25
416.044	836.25
416.267	814.25
416.49	801.25
416.713	805.25
416.936	805.25
417.159	778.25
417.382	798.25
417.605	817.25
417.828	828.25
418.051	855.25
418.274	840.25
418.497	848.25
418.72	814.25
418.943	846.25
419.166	892.25
419.389	907.25
419.611	915.25
419.834	906.25
420.057	918.25
420.28	918.25
420.503	866.25
420.726	803.25
420.948	836.25
421.171	817.25
421.394	812.25
421.617	777.25
421.839	831.25
422.062	846.25
422.285	849.25
422.507	856.25
422.73	869.25
422.953	854.25
423.175	856.25
423.398	841.25
423.621	917.25
423.843	945.25
424.066	872.25
424.288	856.25
424.511	843.25
424.733	860.25
424.956	867.25
425.178	899.25
425.401	1012.25
425.623	1106.25
425.846	993.25
426.068	876.25
426.291	908.25
426.513	880.25
426.735	847.25
426.958	864.25
427.18	985.25
427.402	1140.25
427.625	1137.25
427.847	986.25
428.069	820.25
428.292	816.25
428.514	809.25
428.736	812.25
428.958	860.25
429.181	987.25
429.403	873.25
429.625	796.25
429.847	788.25
430.069	813.25
430.292	783.25
430.514	782.25
430.736	850.25
430.958	929.25
431.18	892.25
431.402	763.25
431.624	727.25
431.846	769.25
432.068	742.25
432.29	773.25
432.512	810.25
432.734	974.25
432.956	920.25
433.178	797.25
433.4	798.25
433.622	802.25
433.844	817.25
434.066	864.25
434.287	838.25
434.509	814.25
434.731	875.25
434.953	818.25
435.175	836.25
435.397	906.25
435.618	830.25
435.84	788.25
436.062	798.25
436.284	796.25
436.505	760.25
436.727	771.25
436.949	767.25
437.17	769.25
437.392	788.25
437.614	769.25
437.835	764.25
438.057	795.25
438.278	842.25
438.5	1023.25
438.721	1060.25
438.943	846.25
439.165	758.25
439.386	722.25
439.608	711.25
439.829	724.25
440.05	742.25
440.272	778.25
440.493	851.25
440.715	943.25
440.936	864.25
441.158	803.25
441.379	818.25
441.6	858.25
441.822	880.25
442.043	806.25
442.264	828.25
442.486	820.25
442.707	774.25
442.928	810.25
443.149	810.25
443.371	822.25
443.592	898.25
443.813	863.25
444.034	872.25
444.255	870.25
444.476	877.25
444.698	892.25
444.919	907.25
445.14	1001.25
445.361	952.25
445.582	919.25
445.803	876.25
446.024	880.25
446.245	850.25
446.466	835.25
446.687	811.25
446.908	830.25
447.129	785.25
447.35	775.25
447.571	742.25
447.792	725.25
448.013	730.25
448.234	776.25
448.455	741.25
448.675	737.25
448.896	764.25
449.117	749.25
449.338	755.25
449.559	774.25
449.779	792.25
450	825.25
450.221	770.25
450.442	761.25
450.662	723.25
450.883	764.25
451.104	778.25
451.324	750.25
451.545	749.25
451.766	745.25
451.986	725.25
452.207	730.25
452.428	734.25
452.648	713.25
452.869	750.25
453.089	740.25
453.31	735.25
453.53	692.25
453.751	701.25
453.971	705.25
454.192	723.25
454.412	724.25
454.633	703.25
454.853	714.25
455.073	673.25
455.294	695.25
455.514	700.25
455.734	738.25
455.955	758.25
456.175	769.25
456.395	697.25
456.616	684.25
456.836	688.25
457.056	673.25
457.276	667.25
457.497	676.25
457.717	697.25
457.937	670.25
458.157	694.25
458.377	705.25
458.598	729.25
458.818	716.25
459.038	728.25
459.258	772.25
459.478	778.25
459.698	815.25
459.918	830.25
460.138	816.25
460.358	833.25
460.578	820.25
460.798	876.25
461.018	854.25
461.238	807.25
461.458	829.25
461.678	847.25
461.898	888.25
462.118	891.25
462.338	854.25
462.558	893.25
462.777	933.25
462.997	909.25
463.217	934.25
463.437	957.25
463.657	937.25
463.876	893.25
464.096	902.25
464.316	904.25
464.536	951.25
464.755	942.25
464.975	953.25
465.195	886.25
465.414	927.25
465.634	854.25
465.854	876.25
466.073	799.25
466.293	801.25
466.512	829.25
466.732	895.25
466.951	936.25
467.171	855.25
467.391	806.25
467.61	774.25
467.829	874.25
468.049	853.25
468.268	808.25
468.488	795.25
468.707	831.25
468.927	950.25
469.146	1004.25
469.365	931.25
469.585	872.25
469.804	887.25
470.023	966.25
470.243	870.25
470.462	850.25
470.681	860.25
470.901	829.25
471.12	863.25
471.339	894.25
471.558	845.25
471.777	856.25
471.997	896.25
472.216	962.25
472.435	981.25
472.654	878.25
472.873	854.25
473.092	916.25
473.311	936.25
473.53	864.25
473.749	859.25
473.968	898.25
474.187	853.25
474.406	837.25
474.625	846.25
474.844	892.25
475.063	928.25
475.282	916.25
475.501	960.25
475.72	1019.25
475.939	935.25
476.158	965.25
476.377	1103.25
476.596	1287.25
476.814	1312.25
477.033	1103.25
477.252	956.25
477.471	871.25
477.69	937.25
477.908	1014.25
478.127	1040.25
478.346	993.25
478.564	1072.25
478.783	994.25
479.002	996.25
479.22	1130.25
479.439	1259.25
479.658	1116.25
479.876	1017.25
480.095	1119.25
480.313	1121.25
480.532	1038.25
480.751	1051.25
480.969	1046.25
481.188	1163.25
481.406	1151.25
481.624	1104.25
481.843	1045.25
482.061	1024.25
482.28	1089.25
482.498	1292.25
482.717	1223.25
482.935	1075.25
483.153	1001.25
483.372	952.25
483.59	968.25
483.808	974.25
484.027	961.25
484.245	947.25
484.463	914.25
484.681	982.25
484.9	975.25
485.118	1070.25
485.336	1039.25
485.554	967.25
485.772	966.25
485.99	1071.25
486.209	1071.25
486.427	1094.25
486.645	1072.25
486.863	1118.25
487.081	1097.25
487.299	1125.25
487.517	1080.25
487.735	1070.25
487.953	1098.25
488.171	1103.25
488.389	1062.25
488.607	1010.25
488.825	1034.25
489.043	1100.25
489.261	1178.25
489.479	1212.25
489.696	1116.25
489.914	1061.25
490.132	1016.25
490.35	1034.25
490.568	1035.25
490.786	1010.25
491.003	1049.25
491.221	1059.25
491.439	1054.25
491.657	1018.25
491.874	1076.25
492.092	1214.25
492.31	1329.25
492.527	1371.25
492.745	1237.25
492.963	1156.25
493.18	1127.25
493.398	1155.25
493.615	1149.25
493.833	1115.25
494.05	1095.25
494.268	1137.25
494.485	1103.25
494.703	1056.25
494.92	1097.25
495.138	1080.25
495.355	1092.25
495.573	1141.25
495.79	1164.25
496.008	1296.25
496.225	1205.25
496.442	1164.25
496.66	1201.25
496.877	1232.25
497.094	1225.25
497.312	1148.25
497.529	1197.25
497.746	1170.25
497.963	1239.25
498.181	1298.25
498.398	1364.25
498.615	1392.25
498.832	1458.25
499.049	1509.25
499.267	1428.25
499.484	1450.25
499.701	1521.25
499.918	1611.25
500.135	1725.25
500.352	1761.25
500.569	1781.25
500.786	1846.25
501.003	1823.25
501.22	1724.25
501.437	1556.25
501.654	1509.25
501.871	1466.25
502.088	1449.25
502.305	1325.25
502.522	1372.25
502.739	1358.25
502.956	1262.25
503.172	1267.25
503.389	1188.25
503.606	1194.25
503.823	1193.25
504.04	1167.25
504.256	1217.25
504.473	1232.25
504.69	1242.25
504.907	1266.25
505.123	1229.25
505.34	1268.25
505.557	1253.25
505.773	1190.25
505.99	1171.25
506.207	1176.25
506.423	1104.25
506.64	1066.25
506.856	1106.25
507.073	1190.25
507.289	1184.25
507.506	1172.25
507.722	1217.25
507.939	1232.25
508.155	1228.25
508.372	1129.25
508.588	1107.25
508.805	1112.25
509.021	1085.25
509.238	1009.25
509.454	1019.25
509.67	1018.25
509.887	1077.25
510.103	1171.25
510.319	1143.25
510.536	1059.25
510.752	982.25
510.968	965.25
511.184	918.25
511.401	928.25
511.617	975.25
511.833	981.25
512.049	1001.25
512.265	1030.25
512.481	1018.25
512.698	1100.25
512.914	1212.25
513.13	1101.25
513.346	1036.25
513.562	1022.25
513.778	1031.25
513.994	995.25
514.21	1053.25
514.426	1023.25
514.642	1035.25
514.858	1055.25
515.074	1076.25
515.29	1146.25
515.506	1295.25
515.721	1215.25
515.937	1107.25
516.153	1068.25
516.369	1087.25
516.585	1078.25
516.801	1187.25
517.016	1296.25
517.232	1308.25
517.448	1318.25
517.664	1221.25
517.879	1191.25
518.095	1184.25
518.311	1191.25
518.527	1191.25
518.742	1266.25
518.958	1353.25
519.173	1284.25
519.389	1162.25
519.605	1155.25
519.82	1286.25
520.036	1488.25
520.251	1438.25
520.467	1355.25
520.682	1948.25
520.898	2213.25
521.113	2092.25
521.329	1446.25
521.544	1331.25
521.76	1269.25
521.975	1144.25
522.19	1093.25
522.406	1166.25
522.621	1249.25
522.836	1272.25
523.052	1241.25
523.267	1061.25
523.482	1062.25
523.698	1143.25
523.913	1180.25
524.128	1086.25
524.343	1058.25
524.559	1040.25
524.774	1021.25
524.989	1033.25
525.204	1062.25
525.419	1156.25
525.634	1086.25
525.849	1090.25
526.064	1098.25
526.28	1112.25
526.495	1276.25
526.71	1312.25
526.925	1106.25
527.14	1111.25
527.355	1108.25
527.57	1007.25
527.785	1059.25
527.999	1001.25
528.214	993.25
528.429	960.25
528.644	968.25
528.859	921.25
529.074	944.25
529.289	936.25
529.503	930.25
529.718	936.25
529.933	1080.25
530.148	1098.25
530.363	967.25
530.577	927.25
530.792	908.25
531.007	933.25
531.221	930.25
531.436	903.25
531.651	910.25
531.865	933.25
532.08	937.25
532.295	921.25
532.509	932.25
532.724	1018.25
532.938	1086.25
533.153	1225.25
533.367	1080.25
533.582	1052.25
533.796	1009.25
534.011	957.25
534.225	958.25
534.44	958.25
534.654	998.25
534.868	1154.25
535.083	1055.25
535.297	952.25
535.511	979.25
535.726	1090.25
535.94	994.25
536.154	940.25
536.369	891.25
536.583	912.25
536.797	863.25
537.011	894.25
537.225	956.25
537.44	961.25
537.654	946.25
537.868	919.25
538.082	955.25
538.296	892.25
538.51	940.25
538.724	963.25
538.938	944.25
539.153	888.25
539.367	893.25
539.581	892.25
539.795	928.25
540.009	1007.25
540.222	933.25
540.436	937.25
540.65	964.25
540.864	1011.25
541.078	1018.25
541.292	1155.25
541.506	982.25
541.72	944.25
541.934	931.25
542.147	942.25
542.361	937.25
542.575	943.25
542.789	894.25
543.002	833.25
543.216	911.25
543.43	852.25
543.644	847.25
543.857	880.25
544.071	865.25
544.285	854.25
544.498	856.25
544.712	865.25
544.925	867.25
545.139	867.25
545.352	854.25
545.566	870.25
545.779	906.25
545.993	861.25
546.206	826.25
546.42	822.25
546.633	809.25
546.847	784.25
547.06	806.25
547.274	797.25
547.487	836.25
547.7	864.25
547.914	886.25
548.127	954.25
548.34	968.25
548.554	890.25
548.767	913.25
548.98	942.25
549.193	888.25
549.407	911.25
549.62	1010.25
549.833	973.25
550.046	988.25
550.259	1031.25
550.473	925.25
550.686	912.25
550.899	914.25
551.112	898.25
551.325	946.25
551.538	958.25
551.751	870.25
551.964	834.25
552.177	847.25
552.39	831.25
552.603	852.25
552.816	902.25
553.029	828.25
553.242	787.25
553.455	886.25
553.667	941.25
553.88	899.25
554.093	849.25
554.306	806.25
554.519	754.25
554.732	748.25
554.944	724.25
555.157	757.25
555.37	720.25
555.583	746.25
555.795	733.25
556.008	765.25
556.221	758.25
556.433	722.25
556.646	744.25
556.859	738.25
557.071	773.25
557.284	730.25
557.496	741.25
557.709	744.25
557.921	717.25
558.134	694.25
558.346	702.25
558.559	690.25
558.771	707.25
558.984	730.25
559.196	690.25
559.409	682.25
559.621	670.25
559.833	677.25
560.046	684.25
560.258	682.25
560.47	693.25
560.683	668.25
560.895	649.25
561.107	638.25
561.32	627.25
561.532	648.25
561.744	664.25
561.956	670.25
562.168	656.25
562.381	660.25
562.593	689.25
562.805	705.25
563.017	663.25
563.229	656.25
563.441	648.25
563.653	641.25
563.865	659.25
564.077	681.25
564.289	657.25
564.501	641.25
564.713	706.25
564.925	694.25
565.137	667.25
565.349	648.25
565.561	667.25
565.773	672.25
565.985	701.25
566.197	742.25
566.408	786.25
566.62	807.25
566.832	787.25
567.044	823.25
567.255	866.25
567.467	916.25
567.679	870.25
567.891	839.25
568.102	850.25
568.314	864.25
568.526	816.25
568.737	776.25
568.949	788.25
569.161	728.25
569.372	679.25
569.584	666.25
569.795	677.25
570.007	680.25
570.218	687.25
570.43	693.25
570.641	649.25
570.853	636.25
571.064	639.25
571.276	638.25
571.487	675.25
571.698	635.25
571.91	634.25
572.121	634.25
572.333	585.25
572.544	597.25
572.755	588.25
572.966	595.25
573.178	593.25
573.389	613.25
573.6	625.25
573.811	601.25
574.023	569.25
574.234	573.25
574.445	549.25
574.656	548.25
574.867	541.25
575.078	550.25
575.289	568.25
575.501	589.25
575.712	581.25
575.923	530.25
576.134	522.25
576.345	506.25
576.556	512.25
576.767	508.25
576.978	489.25
577.188	491.25
577.399	484.25
577.61	496.25
577.821	508.25
578.032	516.25
578.243	546.25
578.454	533.25
578.665	520.25
578.875	525.25
579.086	520.25
579.297	534.25
579.508	528.25
579.718	519.25
579.929	510.25
580.14	498.25
580.35	479.25
580.561	477.25
580.772	473.25
580.982	472.25
581.193	449.25
581.403	445.25
581.614	439.25
581.825	445.25
582.035	450.25
582.246	448.25
582.456	453.25
582.667	467.25
582.877	455.25
583.087	447.25
583.298	455.25
583.508	427.25
583.719	441.25
583.929	448.25
584.139	416.25
584.35	454.25
584.56	467.25
584.77	453.25
584.981	456.25
585.191	436.25
585.401	443.25
585.611	460.25
585.821	493.25
586.032	477.25
586.242	463.25
586.452	437.25
586.662	469.25
586.872	464.25
587.082	465.25
587.292	453.25
587.502	414.25
587.713	449.25
587.923	439.25
588.133	486.25
588.343	458.25
588.553	448.25
588.762	444.25
588.972	450.25
589.182	448.25
589.392	451.25
589.602	456.25
589.812	456.25
590.022	480.25
590.232	497.25
590.441	440.25
590.651	455.25
590.861	446.25
591.071	419.25
591.281	429.25
591.49	440.25
591.7	460.25
591.91	410.25
592.119	452.25
592.329	415.25
592.539	432.25
592.748	437.25
592.958	463.25
593.167	474.25
593.377	470.25
593.587	465.25
593.796	469.25
594.006	455.25
594.215	478.25
594.424	457.25
594.634	500.25
594.843	486.25
595.053	434.25
595.262	429.25
595.472	399.25
595.681	415.25
595.89	426.25
596.1	402.25
596.309	427.25
596.518	410.25
596.727	408.25
596.937	397.25
597.146	424.25
597.355	438.25
597.564	429.25
597.774	400.25
597.983	394.25
598.192	409.25
598.401	393.25
598.61	385.25
598.819	390.25
599.028	382.25
599.237	359.25
599.446	359.25
599.655	379.25
599.864	372.25
600.073	360.25
600.282	364.25
600.491	359.25
600.7	371.25
600.909	365.25
601.118	377.25
601.327	366.25
601.536	372.25
601.745	382.25
601.953	386.25
602.162	378.25
602.371	370.25
602.58	396.25
602.789	372.25
602.997	354.25
603.206	380.25
603.415	360.25
603.623	348.25
603.832	344.25
604.041	343.25
604.249	345.25
604.458	357.25
604.666	357.25
604.875	319.25
605.084	324.25
605.292	344.25
605.501	355.25
605.709	346.25
605.918	370.25
606.126	351.25
606.334	328.25
606.543	339.25
606.751	340.25
606.96	352.25
607.168	354.25
607.376	323.25
607.585	347.25
607.793	347.25
608.001	334.25
608.21	333.25
608.418	346.25
608.626	358.25
608.834	332.25
609.043	352.25
609.251	332.25
609.459	329.25
609.667	334.25
609.875	316.25
610.083	316.25
610.291	342.25
610.499	342.25
610.707	342.25
610.916	334.25
611.124	327.25
611.332	336.25
611.54	344.25
611.748	311.25
611.955	322.25
612.163	306.25
612.371	312.25
612.579	310.25
612.787	337.25
612.995	320.25
613.203	323.25
613.411	339.25
613.618	324.25
613.826	326.25
614.034	336.25
614.242	303.25
614.449	294.25
614.657	316.25
614.865	308.25
615.072	321.25
615.28	314.25
615.488	314.25
615.695	318.25
615.903	327.25
616.111	334.25
616.318	318.25
616.526	332.25
616.733	321.25
616.941	323.25
617.148	307.25
617.356	316.25
617.563	300.25
617.771	319.25
617.978	312.25
618.185	329.25
618.393	323.25
618.6	303.25
618.807	320.25
619.015	301.25
619.222	299.25
619.429	314.25
619.637	301.25
619.844	290.25
620.051	293.25
620.258	302.25
620.466	314.25
620.673	305.25
620.88	298.25
621.087	270.25
621.294	281.25
621.501	305.25
621.708	288.25
621.915	291.25
622.122	288.25
622.329	287.25
622.536	286.25
622.743	278.25
622.95	293.25
623.157	283.25
623.364	282.25
623.571	308.25
623.778	298.25
623.985	300.25
624.192	296.25
624.399	312.25
624.606	301.25
624.812	302.25
625.019	280.25
625.226	308.25
625.433	319.25
625.639	282.25
625.846	284.25
626.053	258.25
626.259	258.25
626.466	277.25
626.673	276.25
626.879	276.25
627.086	251.25
627.293	276.25
627.499	271.25
627.706	263.25
627.912	254.25
628.119	276.25
628.325	260.25
628.532	265.25
628.738	240.25
628.945	268.25
629.151	255.25
629.357	254.25
629.564	276.25
629.77	262.25
629.976	240.25
630.183	250.25
630.389	249.25
630.595	259.25
630.802	274.25
631.008	237.25
631.214	244.25
631.42	251.25
631.627	233.25
631.833	265.25
632.039	238.25
632.245	231.25
632.451	234.25
632.657	240.25
632.863	238.25
633.069	256.25
633.275	246.25
633.481	228.25
633.688	221.25
633.893	245.25
634.099	232.25
634.305	234.25
634.511	220.25
634.717	251.25
634.923	226.25
635.129	238.25
635.335	225.25
635.541	232.25
635.747	244.25
635.952	240.25
636.158	221.25
636.364	229.25
636.57	236.25
636.775	226.25
636.981	222.25
637.187	254.25
637.392	235.25
637.598	238.25
637.804	232.25
638.009	220.25
638.215	236.25
638.421	230.25
638.626	242.25
638.832	232.25
639.037	221.25
639.243	217.25
639.448	214.25
639.654	232.25
639.859	220.25
640.065	207.25
640.27	238.25
640.475	223.25
640.681	215.25
640.886	220.25
641.091	214.25
641.297	217.25
641.502	213.25
641.707	242.25
641.913	238.25
642.118	222.25
642.323	214.25
642.528	200.25
642.733	213.25
642.939	212.25
643.144	198.25
643.349	223.25
643.554	222.25
643.759	200.25
643.964	204.25
644.169	221.25
644.374	214.25
644.579	208.25
644.784	212.25
644.989	196.25
645.194	208.25
645.399	215.25
645.604	212.25
645.809	223.25
646.014	208.25
646.219	195.25
646.423	192.25
646.628	208.25
646.833	200.25
647.038	192.25
647.243	196.25
647.447	207.25
647.652	214.25
647.857	208.25
648.062	219.25
648.266	218.25
648.471	212.25
648.676	201.25
648.88	210.25
649.085	230.25
649.289	213.25
649.494	203.25
649.698	201.25
649.903	194.25
650.107	204.25
650.312	185.25
650.516	196.25
650.721	194.25
650.925	190.25
651.13	179.25
651.334	190.25
651.539	185.25
651.743	197.25
651.947	192.25
652.152	185.25
652.356	159.25
652.56	165.25
652.764	172.25
652.969	176.25
653.173	167.25
653.377	173.25
653.581	161.25
653.785	163.25
653.99	150.25
654.194	169.25
654.398	168.25
654.602	165.25
654.806	152.25
655.01	170.25
655.214	162.25
655.418	142.25
655.622	159.25
655.826	145.25
656.03	150.25
656.234	151.25
656.438	156.25
656.642	149.25
656.846	142.25
657.049	153.25
657.253	122.25
657.457	134.25
657.661	143.25
657.865	142.25
658.068	117.25
658.272	122.25
658.476	113.25
658.68	113.25
658.883	112.25
659.087	121.25
659.291	117.25
659.494	121.25
659.698	112.25
659.901	86.25
660.105	105.25
660.309	93.25
660.512	84.25
660.716	89.25
660.919	111.25
661.123	96.25
661.326	114.25
661.53	104.25
661.733	94.25
661.936	97.25
662.14	81.25
662.343	94.25
662.546	92.25
662.75	80.25
662.953	80.25
663.156	86.25
663.36	94.25
663.563	83.25
663.766	89.25
663.969	87.25
664.173	102.25
664.376	81.25
664.579	90.25
664.782	85.25
664.985	88.25
665.188	93.25
665.391	83.25
665.594	84.25
665.797	86.25
666	82.25
666.203	74.25
666.406	82.25
666.609	73.25
666.812	83.25
667.015	88.25
667.218	78.25
667.421	78.25
667.624	87.25
667.827	83.25
668.03	80.25
668.232	93.25
668.435	79.25
668.638	84.25
668.841	97.25
669.043	77.25
669.246	85.25
669.449	77.25
669.651	60.25
669.854	82.25
670.057	74.25
670.259	80.25
670.462	78.25
670.665	78.25
670.867	91.25
671.07	90.25
671.272	89.25
671.475	95.25
671.677	80.25
671.88	88.25
672.082	70.25
672.284	89.25
672.487	82.25
672.689	87.25
672.892	69.25
