Data from NickelSpatula.Lamp.E10.P2_HRD10591_11-59-12-526.txt Node
Date: Tue Jul 23 11:59:12 EDT 2019
User: cochatt
Spectrometer: HR+D1059
Trigger mode: 1
Integration Time (sec): 1.000000E-1
Scans to average: 1
Electric dark correction enabled: true
Nonlinearity correction enabled: false
Boxcar width: 0
XAxis mode: Wavelengths
Number of Pixels in Spectrum: 2048
>>>>>Begin Spectral Data<<<<<
223.165	-25.44
223.4	-25.44
223.635	-25.44
223.869	-26.44
224.104	-22.44
224.338	-20.44
224.573	-1.44
224.808	-2.44
225.042	-14.44
225.277	-11.44
225.511	-8.44
225.746	13.56
225.98	7.56
226.215	15.56
226.449	26.56
226.683	15.56
226.918	21.56
227.152	32.56
227.387	28.56
227.621	41.56
227.856	37.56
228.09	41.56
228.324	51.56
228.559	59.56
228.793	76.56
229.027	129.56
229.262	136.56
229.496	142.56
229.73	157.56
229.964	177.56
230.199	209.56
230.433	236.56
230.667	200.56
230.901	205.56
231.136	187.56
231.37	197.56
231.604	225.56
231.838	238.56
232.072	245.56
232.306	249.56
232.541	245.56
232.775	245.56
233.009	251.56
233.243	292.56
233.477	302.56
233.711	345.56
233.945	308.56
234.179	345.56
234.413	367.56
234.647	419.56
234.881	439.56
235.115	414.56
235.349	396.56
235.583	332.56
235.817	350.56
236.051	373.56
236.285	425.56
236.519	468.56
236.753	457.56
236.987	427.56
237.221	410.56
237.455	421.56
237.689	445.56
237.922	466.56
238.156	466.56
238.39	533.56
238.624	677.56
238.858	603.56
239.091	501.56
239.325	516.56
239.559	480.56
239.793	549.56
240.027	651.56
240.26	605.56
240.494	608.56
240.728	589.56
240.961	702.56
241.195	653.56
241.429	642.56
241.662	621.56
241.896	527.56
242.13	464.56
242.363	433.56
242.597	447.56
242.83	545.56
243.064	541.56
243.298	606.56
243.531	614.56
243.765	652.56
243.998	629.56
244.232	605.56
244.465	597.56
244.699	574.56
244.932	667.56
245.166	634.56
245.399	570.56
245.633	546.56
245.866	561.56
246.099	608.56
246.333	701.56
246.566	780.56
246.8	781.56
247.033	764.56
247.266	705.56
247.5	684.56
247.733	684.56
247.966	641.56
248.2	694.56
248.433	771.56
248.666	838.56
248.899	850.56
249.133	893.56
249.366	993.56
249.599	1101.56
249.832	961.56
250.066	833.56
250.299	823.56
250.532	828.56
250.765	825.56
250.998	725.56
251.231	740.56
251.465	796.56
251.698	842.56
251.931	817.56
252.164	846.56
252.397	931.56
252.63	1064.56
252.863	1174.56
253.096	1220.56
253.329	1153.56
253.562	1110.56
253.795	1253.56
254.028	1373.56
254.261	1411.56
254.494	1243.56
254.727	1149.56
254.96	1124.56
255.193	1194.56
255.426	1137.56
255.659	867.56
255.892	785.56
256.124	855.56
256.357	1028.56
256.59	1237.56
256.823	1148.56
257.056	973.56
257.289	923.56
257.521	970.56
257.754	1172.56
257.987	1291.56
258.22	1118.56
258.452	1033.56
258.685	1157.56
258.918	1267.56
259.151	1245.56
259.383	1285.56
259.616	1543.56
259.849	1541.56
260.081	1722.56
260.314	1895.56
260.547	1474.56
260.779	1501.56
261.012	1734.56
261.244	1618.56
261.477	1628.56
261.71	1527.56
261.942	1289.56
262.175	1265.56
262.407	1231.56
262.64	1294.56
262.872	1533.56
263.105	1655.56
263.337	1732.56
263.57	1550.56
263.802	1029.56
264.035	909.56
264.267	861.56
264.499	782.56
264.732	698.56
264.964	710.56
265.197	709.56
265.429	788.56
265.661	863.56
265.894	825.56
266.126	935.56
266.358	1044.56
266.591	1224.56
266.823	1476.56
267.055	1433.56
267.287	1271.56
267.52	1273.56
267.752	1309.56
267.984	1454.56
268.216	1376.56
268.448	1147.56
268.681	1109.56
268.913	1225.56
269.145	1262.56
269.377	1306.56
269.609	1306.56
269.841	1202.56
270.073	1313.56
270.306	1388.56
270.538	1395.56
270.77	1407.56
271.002	1393.56
271.234	1467.56
271.466	1507.56
271.698	1462.56
271.93	1452.56
272.162	1430.56
272.394	1406.56
272.626	1385.56
272.858	1484.56
273.09	1463.56
273.322	1341.56
273.553	1292.56
273.785	1527.56
274.017	2032.56
274.249	2480.56
274.481	2523.56
274.713	2795.56
274.945	3183.56
275.176	3343.56
275.408	2912.56
275.64	2685.56
275.872	2621.56
276.104	2218.56
276.335	1952.56
276.567	1901.56
276.799	1950.56
277.031	2065.56
277.262	1621.56
277.494	1257.56
277.726	1185.56
277.957	1323.56
278.189	1529.56
278.421	1476.56
278.652	1441.56
278.884	1361.56
279.115	1284.56
279.347	1175.56
279.579	1210.56
279.81	1219.56
280.042	1205.56
280.273	1259.56
280.505	1141.56
280.736	1019.56
280.968	999.56
281.199	1110.56
281.431	1233.56
281.662	1205.56
281.894	1163.56
282.125	1234.56
282.356	1354.56
282.588	1392.56
282.819	1237.56
283.051	1382.56
283.282	1676.56
283.513	1953.56
283.745	2185.56
283.976	2198.56
284.207	2001.56
284.439	2133.56
284.67	2032.56
284.901	1819.56
285.132	1955.56
285.364	2033.56
285.595	1860.56
285.826	1997.56
286.057	2068.56
286.288	1985.56
286.52	2001.56
286.751	2119.56
286.982	2129.56
287.213	1835.56
287.444	1826.56
287.675	1832.56
287.906	1805.56
288.138	1561.56
288.369	1378.56
288.6	1281.56
288.831	1332.56
289.062	1579.56
289.293	1708.56
289.524	1613.56
289.755	1590.56
289.986	1636.56
290.217	1423.56
290.448	1134.56
290.679	969.56
290.91	929.56
291.141	917.56
291.371	958.56
291.602	973.56
291.833	1022.56
292.064	1060.56
292.295	1206.56
292.526	1393.56
292.757	1461.56
292.987	1565.56
293.218	1564.56
293.449	1584.56
293.68	1673.56
293.91	1571.56
294.141	1566.56
294.372	1526.56
294.603	1405.56
294.833	1581.56
295.064	1817.56
295.295	1718.56
295.525	1301.56
295.756	1147.56
295.987	987.56
296.217	1005.56
296.448	1047.56
296.679	1107.56
296.909	1218.56
297.14	1279.56
297.37	1456.56
297.601	1353.56
297.831	1166.56
298.062	1249.56
298.292	1413.56
298.523	1566.56
298.753	1762.56
298.984	1566.56
299.214	1271.56
299.445	1098.56
299.675	1039.56
299.905	1066.56
300.136	1069.56
300.366	1179.56
300.597	1139.56
300.827	1016.56
301.057	987.56
301.288	1019.56
301.518	1083.56
301.748	1226.56
301.979	1320.56
302.209	1465.56
302.439	1425.56
302.669	1241.56
302.9	1248.56
303.13	1149.56
303.36	1081.56
303.59	1041.56
303.82	1084.56
304.051	1210.56
304.281	1351.56
304.511	1285.56
304.741	1124.56
304.971	1193.56
305.201	1314.56
305.431	1207.56
305.661	1070.56
305.891	1059.56
306.121	1084.56
306.352	970.56
306.582	878.56
306.812	854.56
307.042	861.56
307.272	796.56
307.502	800.56
307.731	883.56
307.961	918.56
308.191	838.56
308.421	791.56
308.651	773.56
308.881	758.56
309.111	756.56
309.341	824.56
309.571	907.56
309.8	921.56
310.03	917.56
310.26	989.56
310.49	966.56
310.72	891.56
310.949	831.56
311.179	891.56
311.409	914.56
311.639	1108.56
311.868	1390.56
312.098	1797.56
312.328	1963.56
312.557	1871.56
312.787	1886.56
313.017	1663.56
313.246	1826.56
313.476	1966.56
313.706	1614.56
313.935	1263.56
314.165	1030.56
314.394	962.56
314.624	961.56
314.853	998.56
315.083	1028.56
315.312	1027.56
315.542	1011.56
315.771	933.56
316.001	830.56
316.23	830.56
316.46	829.56
316.689	860.56
316.919	889.56
317.148	897.56
317.377	894.56
317.607	889.56
317.836	950.56
318.065	1099.56
318.295	1241.56
318.524	1171.56
318.753	978.56
318.983	939.56
319.212	895.56
319.441	976.56
319.67	1143.56
319.9	1181.56
320.129	1141.56
320.358	988.56
320.587	917.56
320.816	1008.56
321.046	1153.56
321.275	1325.56
321.504	1340.56
321.733	1274.56
321.962	1235.56
322.191	1159.56
322.42	1105.56
322.649	1137.56
322.878	1202.56
323.108	1224.56
323.337	1105.56
323.566	1095.56
323.795	1067.56
324.024	1030.56
324.253	958.56
324.482	953.56
324.71	1057.56
324.939	1215.56
325.168	1147.56
325.397	920.56
325.626	937.56
325.855	921.56
326.084	916.56
326.313	870.56
326.542	828.56
326.77	858.56
326.999	906.56
327.228	952.56
327.457	992.56
327.686	1012.56
327.914	857.56
328.143	866.56
328.372	831.56
328.6	849.56
328.829	857.56
329.058	893.56
329.287	885.56
329.515	892.56
329.744	883.56
329.972	815.56
330.201	804.56
330.43	844.56
330.658	928.56
330.887	1062.56
331.115	1034.56
331.344	995.56
331.572	962.56
331.801	908.56
332.03	861.56
332.258	899.56
332.486	954.56
332.715	972.56
332.943	895.56
333.172	895.56
333.4	943.56
333.629	1014.56
333.857	1102.56
334.085	1095.56
334.314	1098.56
334.542	1057.56
334.771	971.56
334.999	927.56
335.227	901.56
335.455	945.56
335.684	1016.56
335.912	1177.56
336.14	1324.56
336.369	1271.56
336.597	1194.56
336.825	1393.56
337.053	1529.56
337.281	1206.56
337.51	983.56
337.738	967.56
337.966	1060.56
338.194	1180.56
338.422	1111.56
338.65	945.56
338.878	910.56
339.106	890.56
339.334	1009.56
339.562	1121.56
339.79	975.56
340.018	971.56
340.246	999.56
340.474	1175.56
340.702	1278.56
340.93	1317.56
341.158	1331.56
341.386	1109.56
341.614	1085.56
341.842	1125.56
342.07	1157.56
342.298	1333.56
342.526	1399.56
342.754	1185.56
342.981	1107.56
343.209	1031.56
343.437	1112.56
343.665	1172.56
343.893	1177.56
344.12	1363.56
344.348	1617.56
344.576	1429.56
344.804	1182.56
345.031	1007.56
345.259	963.56
345.487	1005.56
345.714	993.56
345.942	1097.56
346.17	1182.56
346.397	1129.56
346.625	979.56
346.853	948.56
347.08	949.56
347.308	997.56
347.535	1106.56
347.763	1107.56
347.99	978.56
348.218	915.56
348.445	958.56
348.673	981.56
348.9	984.56
349.128	1032.56
349.355	1092.56
349.583	1070.56
349.81	982.56
350.037	917.56
350.265	798.56
350.492	788.56
350.72	788.56
350.947	822.56
351.174	880.56
351.402	947.56
351.629	993.56
351.856	955.56
352.083	897.56
352.311	943.56
352.538	1076.56
352.765	1135.56
352.992	1035.56
353.22	973.56
353.447	1003.56
353.674	941.56
353.901	958.56
354.128	951.56
354.355	1006.56
354.583	966.56
354.81	973.56
355.037	1035.56
355.264	996.56
355.491	1063.56
355.718	1155.56
355.945	1147.56
356.172	1085.56
356.399	1111.56
356.626	1317.56
356.853	1574.56
357.08	1705.56
357.307	1800.56
357.534	1333.56
357.761	1393.56
357.988	1750.56
358.215	2043.56
358.441	1919.56
358.668	1626.56
358.895	1512.56
359.122	1207.56
359.349	1197.56
359.576	1359.56
359.802	1063.56
360.029	939.56
360.256	1055.56
360.483	1237.56
360.709	1591.56
360.936	1654.56
361.163	1433.56
361.39	1117.56
361.616	1033.56
361.843	1237.56
362.07	1522.56
362.296	1359.56
362.523	1074.56
362.749	930.56
362.976	968.56
363.203	1186.56
363.429	1384.56
363.656	1114.56
363.882	1001.56
364.109	1019.56
364.335	985.56
364.562	991.56
364.788	1119.56
365.015	1307.56
365.241	1161.56
365.468	970.56
365.694	824.56
365.92	793.56
366.147	780.56
366.373	788.56
366.599	774.56
366.826	769.56
367.052	836.56
367.278	837.56
367.505	809.56
367.731	902.56
367.957	994.56
368.184	1053.56
368.41	998.56
368.636	1033.56
368.862	1060.56
369.089	1006.56
369.315	902.56
369.541	865.56
369.767	876.56
369.993	841.56
370.219	883.56
370.445	916.56
370.672	1023.56
370.898	1074.56
371.124	1088.56
371.35	938.56
371.576	885.56
371.802	1007.56
372.028	1168.56
372.254	1323.56
372.48	1139.56
372.706	1039.56
372.932	1109.56
373.158	1132.56
373.384	1369.56
373.61	1804.56
373.835	1874.56
374.061	1381.56
374.287	1163.56
374.513	1397.56
374.739	1654.56
374.965	1748.56
375.191	1670.56
375.416	1148.56
375.642	1015.56
375.868	1226.56
376.094	1345.56
376.319	1159.56
376.545	1303.56
376.771	1351.56
376.997	1162.56
377.222	888.56
377.448	756.56
377.674	747.56
377.899	754.56
378.125	755.56
378.35	758.56
378.576	760.56
378.802	876.56
379.027	915.56
379.253	877.56
379.478	917.56
379.704	1021.56
379.929	1072.56
380.155	1092.56
380.38	934.56
380.606	975.56
380.831	1103.56
381.057	1014.56
381.282	945.56
381.507	1177.56
381.733	1467.56
381.958	1555.56
382.184	1635.56
382.409	1708.56
382.634	1670.56
382.86	1803.56
383.085	1413.56
383.31	1159.56
383.535	1223.56
383.761	1228.56
383.986	1165.56
384.211	1437.56
384.436	1351.56
384.662	1037.56
384.887	975.56
385.112	1046.56
385.337	1033.56
385.562	981.56
385.787	1117.56
386.013	1230.56
386.238	1249.56
386.463	1003.56
386.688	966.56
386.913	954.56
387.138	887.56
387.363	974.56
387.588	975.56
387.813	985.56
388.038	1109.56
388.263	986.56
388.488	959.56
388.713	1089.56
388.938	1213.56
389.163	1018.56
389.387	917.56
389.612	932.56
389.837	968.56
390.062	973.56
390.287	979.56
390.512	998.56
390.736	940.56
390.961	933.56
391.186	839.56
391.411	843.56
391.636	871.56
391.86	918.56
392.085	1031.56
392.31	1003.56
392.534	957.56
392.759	927.56
392.984	983.56
393.208	954.56
393.433	869.56
393.658	808.56
393.882	799.56
394.107	786.56
394.331	806.56
394.556	770.56
394.78	813.56
395.005	835.56
395.229	848.56
395.454	859.56
395.678	893.56
395.903	903.56
396.127	857.56
396.352	875.56
396.576	965.56
396.801	993.56
397.025	1137.56
397.249	1134.56
397.474	907.56
397.698	917.56
397.922	973.56
398.147	888.56
398.371	919.56
398.595	962.56
398.82	951.56
399.044	948.56
399.268	983.56
399.492	1025.56
399.717	1061.56
399.941	1074.56
400.165	1049.56
400.389	1022.56
400.613	1051.56
400.837	1042.56
401.062	894.56
401.286	870.56
401.51	915.56
401.734	909.56
401.958	893.56
402.182	898.56
402.406	908.56
402.63	939.56
402.854	940.56
403.078	1034.56
403.302	1299.56
403.526	1317.56
403.75	1189.56
403.974	1012.56
404.198	1097.56
404.422	1207.56
404.645	1425.56
404.869	1606.56
405.093	1154.56
405.317	976.56
405.541	1009.56
405.765	1041.56
405.988	1042.56
406.212	1098.56
406.436	1311.56
406.66	1449.56
406.883	1122.56
407.107	1164.56
407.331	1335.56
407.555	1303.56
407.778	1089.56
408.002	1057.56
408.226	1027.56
408.449	1066.56
408.673	967.56
408.896	941.56
409.12	914.56
409.344	887.56
409.567	873.56
409.791	868.56
410.014	871.56
410.238	869.56
410.461	903.56
410.685	893.56
410.908	882.56
411.132	945.56
411.355	920.56
411.578	950.56
411.802	911.56
412.025	979.56
412.249	995.56
412.472	970.56
412.695	973.56
412.919	938.56
413.142	1001.56
413.365	1057.56
413.589	1047.56
413.812	936.56
414.035	913.56
414.258	943.56
414.482	1046.56
414.705	1068.56
414.928	877.56
415.151	865.56
415.374	887.56
415.597	924.56
415.821	895.56
416.044	897.56
416.267	865.56
416.49	871.56
416.713	842.56
416.936	844.56
417.159	867.56
417.382	859.56
417.605	900.56
417.828	902.56
418.051	900.56
418.274	918.56
418.497	911.56
418.72	914.56
418.943	964.56
419.166	991.56
419.389	1052.56
419.611	1009.56
419.834	1041.56
420.057	1106.56
420.28	1091.56
420.503	1030.56
420.726	922.56
420.948	881.56
421.171	862.56
421.394	875.56
421.617	852.56
421.839	887.56
422.062	924.56
422.285	940.56
422.507	923.56
422.73	937.56
422.953	973.56
423.175	922.56
423.398	947.56
423.621	980.56
423.843	1056.56
424.066	991.56
424.288	923.56
424.511	917.56
424.733	915.56
424.956	945.56
425.178	1089.56
425.401	1277.56
425.623	1351.56
425.846	1138.56
426.068	1022.56
426.291	1131.56
426.513	1035.56
426.735	954.56
426.958	968.56
427.18	1166.56
427.402	1483.56
427.625	1498.56
427.847	1153.56
428.069	919.56
428.292	907.56
428.514	918.56
428.736	866.56
428.958	961.56
429.181	1134.56
429.403	987.56
429.625	911.56
429.847	862.56
430.069	902.56
430.292	935.56
430.514	869.56
430.736	931.56
430.958	1195.56
431.18	1104.56
431.402	850.56
431.624	799.56
431.846	795.56
432.068	784.56
432.29	825.56
432.512	925.56
432.734	1223.56
432.956	1122.56
433.178	879.56
433.4	835.56
433.622	839.56
433.844	883.56
434.066	943.56
434.287	928.56
434.509	869.56
434.731	929.56
434.953	875.56
435.175	902.56
435.397	1058.56
435.618	889.56
435.84	817.56
436.062	828.56
436.284	858.56
436.505	785.56
436.727	790.56
436.949	808.56
437.17	834.56
437.392	854.56
437.614	819.56
437.835	811.56
438.057	847.56
438.278	970.56
438.5	1403.56
438.721	1388.56
438.943	947.56
439.165	819.56
439.386	794.56
439.608	800.56
439.829	759.56
440.05	787.56
440.272	868.56
440.493	997.56
440.715	1248.56
440.936	977.56
441.158	863.56
441.379	881.56
441.6	945.56
441.822	1036.56
442.043	877.56
442.264	885.56
442.486	882.56
442.707	846.56
442.928	847.56
443.149	876.56
443.371	909.56
443.592	952.56
443.813	923.56
444.034	901.56
444.255	915.56
444.476	941.56
444.698	925.56
444.919	961.56
445.14	1079.56
445.361	1025.56
445.582	963.56
445.803	903.56
446.024	922.56
446.245	950.56
446.466	917.56
446.687	889.56
446.908	881.56
447.129	833.56
447.35	806.56
447.571	791.56
447.792	783.56
448.013	797.56
448.234	787.56
448.455	781.56
448.675	804.56
448.896	802.56
449.117	781.56
449.338	805.56
449.559	819.56
449.779	858.56
450	860.56
450.221	802.56
450.442	808.56
450.662	793.56
450.883	795.56
451.104	815.56
451.324	839.56
451.545	798.56
451.766	803.56
451.986	777.56
452.207	785.56
452.428	783.56
452.648	783.56
452.869	799.56
453.089	868.56
453.31	829.56
453.53	729.56
453.751	741.56
453.971	733.56
454.192	768.56
454.412	784.56
454.633	732.56
454.853	751.56
455.073	721.56
455.294	730.56
455.514	755.56
455.734	789.56
455.955	814.56
456.175	825.56
456.395	773.56
456.616	677.56
456.836	691.56
457.056	702.56
457.276	673.56
457.497	667.56
457.717	700.56
457.937	716.56
458.157	738.56
458.377	720.56
458.598	723.56
458.818	745.56
459.038	794.56
459.258	806.56
459.478	866.56
459.698	910.56
459.918	886.56
460.138	886.56
460.358	902.56
460.578	874.56
460.798	905.56
461.018	889.56
461.238	860.56
461.458	836.56
461.678	885.56
461.898	909.56
462.118	904.56
462.338	939.56
462.558	947.56
462.777	978.56
462.997	1007.56
463.217	1009.56
463.437	1039.56
463.657	997.56
463.876	954.56
464.096	953.56
464.316	948.56
464.536	991.56
464.755	1023.56
464.975	1020.56
465.195	971.56
465.414	992.56
465.634	973.56
465.854	934.56
466.073	882.56
466.293	875.56
466.512	936.56
466.732	1041.56
466.951	1030.56
467.171	957.56
467.391	882.56
467.61	889.56
467.829	943.56
468.049	923.56
468.268	897.56
468.488	894.56
468.707	926.56
468.927	1085.56
469.146	1161.56
469.365	1058.56
469.585	954.56
469.804	998.56
470.023	1086.56
470.243	974.56
470.462	933.56
470.681	927.56
470.901	902.56
471.12	950.56
471.339	982.56
471.558	926.56
471.777	972.56
471.997	1011.56
472.216	1115.56
472.435	1116.56
472.654	970.56
472.873	955.56
473.092	989.56
473.311	1052.56
473.53	942.56
473.749	919.56
473.968	1001.56
474.187	992.56
474.406	919.56
474.625	908.56
474.844	957.56
475.063	1019.56
475.282	1029.56
475.501	1069.56
475.72	1119.56
475.939	1090.56
476.158	1099.56
476.377	1227.56
476.596	1411.56
476.814	1535.56
477.033	1263.56
477.252	1067.56
477.471	1014.56
477.69	1015.56
477.908	1114.56
478.127	1157.56
478.346	1087.56
478.564	1149.56
478.783	1098.56
479.002	1108.56
479.22	1310.56
479.439	1416.56
479.658	1204.56
479.876	1159.56
480.095	1250.56
480.313	1233.56
480.532	1118.56
480.751	1098.56
480.969	1133.56
481.188	1287.56
481.406	1307.56
481.624	1207.56
481.843	1125.56
482.061	1061.56
482.28	1217.56
482.498	1453.56
482.717	1411.56
482.935	1218.56
483.153	1121.56
483.372	1053.56
483.59	1073.56
483.808	1064.56
484.027	1024.56
484.245	989.56
484.463	998.56
484.681	1016.56
484.9	1097.56
485.118	1219.56
485.336	1129.56
485.554	1082.56
485.772	1079.56
485.99	1160.56
486.209	1219.56
486.427	1244.56
486.645	1220.56
486.863	1215.56
487.081	1203.56
487.299	1361.56
487.517	1342.56
487.735	1209.56
487.953	1223.56
488.171	1266.56
488.389	1167.56
488.607	1092.56
488.825	1159.56
489.043	1252.56
489.261	1459.56
489.479	1519.56
489.696	1287.56
489.914	1213.56
490.132	1131.56
490.35	1107.56
490.568	1157.56
490.786	1109.56
491.003	1135.56
491.221	1168.56
491.439	1139.56
491.657	1149.56
491.874	1261.56
492.092	1528.56
492.31	1801.56
492.527	1733.56
492.745	1539.56
492.963	1345.56
493.18	1348.56
493.398	1307.56
493.615	1297.56
493.833	1295.56
494.05	1234.56
494.268	1263.56
494.485	1220.56
494.703	1193.56
494.92	1234.56
495.138	1231.56
495.355	1226.56
495.573	1238.56
495.79	1387.56
496.008	1829.56
496.225	1590.56
496.442	1379.56
496.66	1350.56
496.877	1423.56
497.094	1397.56
497.312	1301.56
497.529	1334.56
497.746	1311.56
497.963	1384.56
498.181	1493.56
498.398	1653.56
498.615	1671.56
498.832	1711.56
499.049	1680.56
499.267	1539.56
499.484	1562.56
499.701	1627.56
499.918	1758.56
500.135	1876.56
500.352	1916.56
500.569	1956.56
500.786	2043.56
501.003	1970.56
501.22	1814.56
501.437	1716.56
501.654	1657.56
501.871	1627.56
502.088	1671.56
502.305	1519.56
502.522	1520.56
502.739	1518.56
502.956	1378.56
503.172	1364.56
503.389	1296.56
503.606	1290.56
503.823	1279.56
504.04	1321.56
504.256	1339.56
504.473	1346.56
504.69	1352.56
504.907	1387.56
505.123	1376.56
505.34	1456.56
505.557	1398.56
505.773	1347.56
505.99	1310.56
506.207	1390.56
506.423	1269.56
506.64	1211.56
506.856	1259.56
507.073	1392.56
507.289	1365.56
507.506	1349.56
507.722	1436.56
507.939	1441.56
508.155	1458.56
508.372	1340.56
508.588	1294.56
508.805	1241.56
509.021	1227.56
509.238	1197.56
509.454	1186.56
509.67	1159.56
509.887	1183.56
510.103	1361.56
510.319	1339.56
510.536	1208.56
510.752	1113.56
510.968	1065.56
511.184	1027.56
511.401	1066.56
511.617	1071.56
511.833	1046.56
512.049	1058.56
512.265	1072.56
512.481	1132.56
512.698	1281.56
512.914	1409.56
513.13	1237.56
513.346	1109.56
513.562	1207.56
513.778	1187.56
513.994	1158.56
514.21	1234.56
514.426	1167.56
514.642	1172.56
514.858	1146.56
515.074	1213.56
515.29	1273.56
515.506	1420.56
515.721	1328.56
515.937	1252.56
516.153	1149.56
516.369	1163.56
516.585	1211.56
516.801	1366.56
517.016	1615.56
517.232	1573.56
517.448	1528.56
517.664	1405.56
517.879	1269.56
518.095	1259.56
518.311	1273.56
518.527	1343.56
518.742	1398.56
518.958	1443.56
519.173	1387.56
519.389	1373.56
519.605	1409.56
519.82	1495.56
520.036	1753.56
520.251	1724.56
520.467	1589.56
520.682	2370.56
520.898	2909.56
521.113	2729.56
521.329	1712.56
521.544	1566.56
521.76	1497.56
521.975	1373.56
522.19	1283.56
522.406	1303.56
522.621	1442.56
522.836	1500.56
523.052	1581.56
523.267	1284.56
523.482	1316.56
523.698	1384.56
523.913	1347.56
524.128	1213.56
524.343	1163.56
524.559	1219.56
524.774	1145.56
524.989	1190.56
525.204	1179.56
525.419	1298.56
525.634	1202.56
525.849	1269.56
526.064	1246.56
526.28	1287.56
526.495	1494.56
526.71	1506.56
526.925	1365.56
527.14	1405.56
527.355	1323.56
527.57	1148.56
527.785	1193.56
527.999	1122.56
528.214	1079.56
528.429	1074.56
528.644	1093.56
528.859	1043.56
529.074	998.56
529.289	996.56
529.503	968.56
529.718	1014.56
529.933	1180.56
530.148	1210.56
530.363	1060.56
530.577	1027.56
530.792	973.56
531.007	991.56
531.221	978.56
531.436	967.56
531.651	978.56
531.865	1019.56
532.08	1029.56
532.295	994.56
532.509	1045.56
532.724	1173.56
532.938	1303.56
533.153	1529.56
533.367	1249.56
533.582	1193.56
533.796	1112.56
534.011	1045.56
534.225	1066.56
534.44	1071.56
534.654	1101.56
534.868	1249.56
535.083	1135.56
535.297	988.56
535.511	1007.56
535.726	1122.56
535.94	1085.56
536.154	1043.56
536.369	990.56
536.583	991.56
536.797	1049.56
537.011	1007.56
537.225	1104.56
537.44	1186.56
537.654	1037.56
537.868	1009.56
538.082	1049.56
538.296	999.56
538.51	1100.56
538.724	1111.56
538.938	1033.56
539.153	954.56
539.367	950.56
539.581	978.56
539.795	1031.56
540.009	1125.56
540.222	1057.56
540.436	1058.56
540.65	1129.56
540.864	1170.56
541.078	1186.56
541.292	1374.56
541.506	1114.56
541.72	1069.56
541.934	1059.56
542.147	1043.56
542.361	1034.56
542.575	1062.56
542.789	1047.56
543.002	984.56
543.216	1086.56
543.43	946.56
543.644	933.56
543.857	934.56
544.071	972.56
544.285	949.56
544.498	915.56
544.712	925.56
544.925	1005.56
545.139	938.56
545.352	912.56
545.566	929.56
545.779	1069.56
545.993	964.56
546.206	860.56
546.42	907.56
546.633	901.56
546.847	837.56
547.06	878.56
547.274	849.56
547.487	880.56
547.7	960.56
547.914	1020.56
548.127	1147.56
548.34	1093.56
548.554	955.56
548.767	1034.56
548.98	1083.56
549.193	945.56
549.407	1027.56
549.62	1161.56
549.833	1097.56
550.046	1158.56
550.259	1167.56
550.473	1017.56
550.686	991.56
550.899	1001.56
551.112	1003.56
551.325	1083.56
551.538	1122.56
551.751	962.56
551.964	907.56
552.177	899.56
552.39	860.56
552.603	861.56
552.816	933.56
553.029	883.56
553.242	861.56
553.455	933.56
553.667	1037.56
553.88	946.56
554.093	885.56
554.306	838.56
554.519	803.56
554.732	788.56
554.944	785.56
555.157	790.56
555.37	761.56
555.583	767.56
555.795	797.56
556.008	821.56
556.221	802.56
556.433	785.56
556.646	782.56
556.859	803.56
557.071	833.56
557.284	808.56
557.496	817.56
557.709	806.56
557.921	794.56
558.134	734.56
558.346	716.56
558.559	725.56
558.771	769.56
558.984	791.56
559.196	774.56
559.409	746.56
559.621	719.56
559.833	704.56
560.046	734.56
560.258	724.56
560.47	730.56
560.683	720.56
560.895	674.56
561.107	661.56
561.32	695.56
561.532	694.56
561.744	746.56
561.956	801.56
562.168	688.56
562.381	697.56
562.593	719.56
562.805	733.56
563.017	713.56
563.229	678.56
563.441	696.56
563.653	681.56
563.865	708.56
564.077	683.56
564.289	691.56
564.501	714.56
564.713	743.56
564.925	737.56
565.137	701.56
565.349	698.56
565.561	691.56
565.773	710.56
565.985	721.56
566.197	771.56
566.408	823.56
566.62	851.56
566.832	852.56
567.044	866.56
567.255	888.56
567.467	975.56
567.679	887.56
567.891	854.56
568.102	880.56
568.314	885.56
568.526	832.56
568.737	825.56
568.949	857.56
569.161	766.56
569.372	701.56
569.584	697.56
569.795	693.56
570.007	671.56
570.218	738.56
570.43	721.56
570.641	714.56
570.853	651.56
571.064	659.56
571.276	663.56
571.487	690.56
571.698	661.56
571.91	683.56
572.121	670.56
572.333	625.56
572.544	626.56
572.755	635.56
572.966	611.56
573.178	623.56
573.389	635.56
573.6	643.56
573.811	598.56
574.023	578.56
574.234	611.56
574.445	582.56
574.656	561.56
574.867	572.56
575.078	600.56
575.289	591.56
575.501	638.56
575.712	586.56
575.923	550.56
576.134	553.56
576.345	535.56
576.556	558.56
576.767	520.56
576.978	509.56
577.188	509.56
577.399	525.56
577.61	532.56
577.821	531.56
578.032	554.56
578.243	567.56
578.454	565.56
578.665	555.56
578.875	564.56
579.086	556.56
579.297	569.56
579.508	566.56
579.718	557.56
579.929	564.56
580.14	534.56
580.35	505.56
580.561	472.56
580.772	475.56
580.982	476.56
581.193	476.56
581.403	467.56
581.614	462.56
581.825	494.56
582.035	455.56
582.246	462.56
582.456	482.56
582.667	466.56
582.877	438.56
583.087	450.56
583.298	466.56
583.508	470.56
583.719	448.56
583.929	442.56
584.139	453.56
584.35	474.56
584.56	492.56
584.77	478.56
584.981	480.56
585.191	493.56
585.401	453.56
585.611	485.56
585.821	482.56
586.032	487.56
586.242	474.56
586.452	452.56
586.662	467.56
586.872	503.56
587.082	478.56
587.292	462.56
587.502	435.56
587.713	465.56
587.923	461.56
588.133	510.56
588.343	486.56
588.553	449.56
588.762	458.56
588.972	436.56
589.182	437.56
589.392	451.56
589.602	457.56
589.812	471.56
590.022	514.56
590.232	505.56
590.441	465.56
590.651	444.56
590.861	463.56
591.071	478.56
591.281	438.56
591.49	437.56
591.7	479.56
591.91	439.56
592.119	433.56
592.329	452.56
592.539	460.56
592.748	468.56
592.958	466.56
593.167	459.56
593.377	483.56
593.587	485.56
593.796	489.56
594.006	465.56
594.215	481.56
594.424	481.56
594.634	501.56
594.843	480.56
595.053	459.56
595.262	457.56
595.472	446.56
595.681	445.56
595.89	433.56
596.1	421.56
596.309	455.56
596.518	430.56
596.727	444.56
596.937	425.56
597.146	445.56
597.355	463.56
597.564	459.56
597.774	401.56
597.983	402.56
598.192	415.56
598.401	387.56
598.61	381.56
598.819	394.56
599.028	407.56
599.237	404.56
599.446	385.56
599.655	392.56
599.864	364.56
600.073	378.56
600.282	395.56
600.491	393.56
600.7	380.56
600.909	397.56
601.118	388.56
601.327	376.56
601.536	384.56
601.745	406.56
601.953	400.56
602.162	406.56
602.371	409.56
602.58	413.56
602.789	398.56
602.997	378.56
603.206	389.56
603.415	361.56
603.623	346.56
603.832	359.56
604.041	356.56
604.249	374.56
604.458	374.56
604.666	366.56
604.875	351.56
605.084	339.56
605.292	331.56
605.501	365.56
605.709	362.56
605.918	358.56
606.126	337.56
606.334	363.56
606.543	349.56
606.751	346.56
606.96	348.56
607.168	332.56
607.376	322.56
607.585	329.56
607.793	341.56
608.001	341.56
608.21	347.56
608.418	378.56
608.626	387.56
608.834	333.56
609.043	352.56
609.251	319.56
609.459	337.56
609.667	336.56
609.875	353.56
610.083	347.56
610.291	356.56
610.499	350.56
610.707	335.56
610.916	369.56
611.124	339.56
611.332	334.56
611.54	325.56
611.748	342.56
611.955	332.56
612.163	339.56
612.371	323.56
612.579	334.56
612.787	336.56
612.995	310.56
613.203	340.56
613.411	320.56
613.618	312.56
613.826	340.56
614.034	341.56
614.242	335.56
614.449	329.56
614.657	337.56
614.865	324.56
615.072	310.56
615.28	308.56
615.488	320.56
615.695	299.56
615.903	328.56
616.111	332.56
616.318	319.56
616.526	329.56
616.733	340.56
616.941	336.56
617.148	308.56
617.356	337.56
617.563	320.56
617.771	331.56
617.978	303.56
618.185	324.56
618.393	307.56
618.6	310.56
618.807	302.56
619.015	309.56
619.222	309.56
619.429	314.56
619.637	293.56
619.844	321.56
620.051	316.56
620.258	301.56
620.466	318.56
620.673	279.56
620.88	280.56
621.087	281.56
621.294	294.56
621.501	287.56
621.708	300.56
621.915	311.56
622.122	291.56
622.329	312.56
622.536	311.56
622.743	283.56
622.95	276.56
623.157	290.56
623.364	300.56
623.571	286.56
623.778	275.56
623.985	298.56
624.192	308.56
624.399	310.56
624.606	299.56
624.812	310.56
625.019	294.56
625.226	325.56
625.433	292.56
625.639	288.56
625.846	285.56
626.053	292.56
626.259	268.56
626.466	272.56
626.673	293.56
626.879	265.56
627.086	279.56
627.293	281.56
627.499	273.56
627.706	263.56
627.912	270.56
628.119	256.56
628.325	278.56
628.532	277.56
628.738	272.56
628.945	263.56
629.151	268.56
629.357	255.56
629.564	260.56
629.77	267.56
629.976	260.56
630.183	271.56
630.389	265.56
630.595	277.56
630.802	259.56
631.008	241.56
631.214	244.56
631.42	265.56
631.627	232.56
631.833	244.56
632.039	253.56
632.245	258.56
632.451	248.56
632.657	244.56
632.863	229.56
633.069	227.56
633.275	219.56
633.481	237.56
633.688	228.56
633.893	247.56
634.099	247.56
634.305	235.56
634.511	236.56
634.717	255.56
634.923	234.56
635.129	218.56
635.335	218.56
635.541	234.56
635.747	246.56
635.952	230.56
636.158	243.56
636.364	233.56
636.57	233.56
636.775	218.56
636.981	226.56
637.187	235.56
637.392	221.56
637.598	242.56
637.804	233.56
638.009	228.56
638.215	220.56
638.421	233.56
638.626	222.56
638.832	211.56
639.037	228.56
639.243	231.56
639.448	221.56
639.654	232.56
639.859	218.56
640.065	228.56
640.27	234.56
640.475	213.56
640.681	216.56
640.886	205.56
641.091	219.56
641.297	228.56
641.502	228.56
641.707	222.56
641.913	200.56
642.118	216.56
642.323	228.56
642.528	225.56
642.733	217.56
642.939	206.56
643.144	215.56
643.349	210.56
643.554	202.56
643.759	223.56
643.964	203.56
644.169	205.56
644.374	197.56
644.579	211.56
644.784	218.56
644.989	225.56
645.194	211.56
645.399	196.56
645.604	193.56
645.809	214.56
646.014	199.56
646.219	208.56
646.423	197.56
646.628	204.56
646.833	218.56
647.038	216.56
647.243	197.56
647.447	196.56
647.652	213.56
647.857	223.56
648.062	210.56
648.266	199.56
648.471	200.56
648.676	211.56
648.88	205.56
649.085	213.56
649.289	204.56
649.494	186.56
649.698	208.56
649.903	214.56
650.107	192.56
650.312	197.56
650.516	180.56
650.721	208.56
650.925	174.56
651.13	182.56
651.334	189.56
651.539	175.56
651.743	185.56
651.947	176.56
652.152	171.56
652.356	171.56
652.56	173.56
652.764	179.56
652.969	165.56
653.173	165.56
653.377	173.56
653.581	164.56
653.785	175.56
653.99	161.56
654.194	165.56
654.398	162.56
654.602	146.56
654.806	150.56
655.01	149.56
655.214	163.56
655.418	146.56
655.622	160.56
655.826	157.56
656.03	160.56
656.234	164.56
656.438	176.56
656.642	173.56
656.846	164.56
657.049	154.56
657.253	162.56
657.457	154.56
657.661	134.56
657.865	128.56
658.068	135.56
658.272	126.56
658.476	116.56
658.68	122.56
658.883	103.56
659.087	101.56
659.291	109.56
659.494	107.56
659.698	118.56
659.901	106.56
660.105	102.56
660.309	114.56
660.512	96.56
660.716	100.56
660.919	92.56
661.123	88.56
661.326	107.56
661.53	96.56
661.733	91.56
661.936	91.56
662.14	83.56
662.343	85.56
662.546	83.56
662.75	81.56
662.953	84.56
663.156	82.56
663.36	89.56
663.563	83.56
663.766	79.56
663.969	82.56
664.173	72.56
664.376	82.56
664.579	87.56
664.782	83.56
664.985	89.56
665.188	79.56
665.391	81.56
665.594	81.56
665.797	82.56
666	78.56
666.203	79.56
666.406	78.56
666.609	96.56
666.812	74.56
667.015	78.56
667.218	66.56
667.421	63.56
667.624	70.56
667.827	89.56
668.03	82.56
668.232	84.56
668.435	76.56
668.638	72.56
668.841	91.56
669.043	82.56
669.246	80.56
669.449	78.56
669.651	79.56
669.854	82.56
670.057	84.56
670.259	71.56
670.462	90.56
670.665	85.56
670.867	78.56
671.07	86.56
671.272	79.56
671.475	82.56
671.677	70.56
671.88	77.56
672.082	74.56
672.284	91.56
672.487	83.56
672.689	77.56
672.892	79.56
