Data from NickelSpatula.Lamp.E10.P2_HRD10591_11-58-05-529.txt Node
Date: Tue Jul 23 11:58:05 EDT 2019
User: cochatt
Spectrometer: HR+D1059
Trigger mode: 1
Integration Time (sec): 1.000000E-1
Scans to average: 1
Electric dark correction enabled: true
Nonlinearity correction enabled: false
Boxcar width: 0
XAxis mode: Wavelengths
Number of Pixels in Spectrum: 2048
>>>>>Begin Spectral Data<<<<<
223.165	-14.88
223.4	-14.88
223.635	-14.88
223.869	-13.88
224.104	-30.88
224.338	-24.88
224.573	-10.88
224.808	-7.88
225.042	-10.88
225.277	-10.88
225.511	-8.88
225.746	14.12
225.98	19.12
226.215	5.12
226.449	18.12
226.683	25.12
226.918	22.12
227.152	30.12
227.387	28.12
227.621	46.12
227.856	43.12
228.09	44.12
228.324	51.12
228.559	49.12
228.793	77.12
229.027	146.12
229.262	148.12
229.496	161.12
229.73	165.12
229.964	180.12
230.199	209.12
230.433	203.12
230.667	211.12
230.901	192.12
231.136	195.12
231.37	192.12
231.604	216.12
231.838	233.12
232.072	245.12
232.306	236.12
232.541	241.12
232.775	239.12
233.009	255.12
233.243	279.12
233.477	299.12
233.711	335.12
233.945	331.12
234.179	310.12
234.413	350.12
234.647	375.12
234.881	459.12
235.115	394.12
235.349	385.12
235.583	348.12
235.817	350.12
236.051	367.12
236.285	393.12
236.519	442.12
236.753	405.12
236.987	400.12
237.221	386.12
237.455	412.12
237.689	428.12
237.922	459.12
238.156	454.12
238.39	529.12
238.624	633.12
238.858	571.12
239.091	499.12
239.325	495.12
239.559	483.12
239.793	543.12
240.027	629.12
240.26	594.12
240.494	573.12
240.728	562.12
240.961	658.12
241.195	618.12
241.429	596.12
241.662	606.12
241.896	501.12
242.13	462.12
242.363	451.12
242.597	461.12
242.83	532.12
243.064	511.12
243.298	566.12
243.531	601.12
243.765	629.12
243.998	605.12
244.232	594.12
244.465	576.12
244.699	565.12
244.932	652.12
245.166	613.12
245.399	537.12
245.633	529.12
245.866	572.12
246.099	595.12
246.333	711.12
246.566	768.12
246.8	736.12
247.033	710.12
247.266	660.12
247.5	672.12
247.733	654.12
247.966	653.12
248.2	653.12
248.433	741.12
248.666	820.12
248.899	833.12
249.133	837.12
249.366	965.12
249.599	1021.12
249.832	907.12
250.066	804.12
250.299	811.12
250.532	799.12
250.765	781.12
250.998	721.12
251.231	721.12
251.465	774.12
251.698	807.12
251.931	765.12
252.164	811.12
252.397	893.12
252.63	1032.12
252.863	1134.12
253.096	1169.12
253.329	1101.12
253.562	1069.12
253.795	1185.12
254.028	1274.12
254.261	1339.12
254.494	1205.12
254.727	1131.12
254.96	1119.12
255.193	1139.12
255.426	1095.12
255.659	850.12
255.892	776.12
256.124	858.12
256.357	997.12
256.59	1161.12
256.823	1124.12
257.056	939.12
257.289	929.12
257.521	943.12
257.754	1108.12
257.987	1255.12
258.22	1077.12
258.452	1018.12
258.685	1129.12
258.918	1266.12
259.151	1201.12
259.383	1286.12
259.616	1452.12
259.849	1518.12
260.081	1645.12
260.314	1866.12
260.547	1439.12
260.779	1467.12
261.012	1703.12
261.244	1543.12
261.477	1615.12
261.71	1500.12
261.942	1260.12
262.175	1252.12
262.407	1209.12
262.64	1219.12
262.872	1442.12
263.105	1598.12
263.337	1636.12
263.57	1492.12
263.802	1011.12
264.035	877.12
264.267	867.12
264.499	761.12
264.732	710.12
264.964	678.12
265.197	710.12
265.429	734.12
265.661	809.12
265.894	826.12
266.126	899.12
266.358	1007.12
266.591	1226.12
266.823	1465.12
267.055	1365.12
267.287	1221.12
267.52	1261.12
267.752	1298.12
267.984	1407.12
268.216	1341.12
268.448	1104.12
268.681	1085.12
268.913	1214.12
269.145	1260.12
269.377	1284.12
269.609	1266.12
269.841	1225.12
270.073	1273.12
270.306	1349.12
270.538	1367.12
270.77	1359.12
271.002	1379.12
271.234	1430.12
271.466	1457.12
271.698	1455.12
271.93	1419.12
272.162	1404.12
272.394	1377.12
272.626	1340.12
272.858	1414.12
273.09	1453.12
273.322	1277.12
273.553	1260.12
273.785	1476.12
274.017	1939.12
274.249	2331.12
274.481	2458.12
274.713	2671.12
274.945	3081.12
275.176	3186.12
275.408	2759.12
275.64	2582.12
275.872	2565.12
276.104	2157.12
276.335	1884.12
276.567	1830.12
276.799	1938.12
277.031	2058.12
277.262	1560.12
277.494	1220.12
277.726	1172.12
277.957	1288.12
278.189	1478.12
278.421	1451.12
278.652	1422.12
278.884	1333.12
279.115	1256.12
279.347	1195.12
279.579	1186.12
279.81	1223.12
280.042	1202.12
280.273	1227.12
280.505	1143.12
280.736	1022.12
280.968	990.12
281.199	1062.12
281.431	1197.12
281.662	1218.12
281.894	1187.12
282.125	1243.12
282.356	1343.12
282.588	1376.12
282.819	1204.12
283.051	1379.12
283.282	1649.12
283.513	1921.12
283.745	2097.12
283.976	2127.12
284.207	1996.12
284.439	2060.12
284.67	1996.12
284.901	1781.12
285.132	1921.12
285.364	1955.12
285.595	1807.12
285.826	1943.12
286.057	1978.12
286.288	1907.12
286.52	1948.12
286.751	2055.12
286.982	2073.12
287.213	1788.12
287.444	1731.12
287.675	1779.12
287.906	1773.12
288.138	1494.12
288.369	1331.12
288.6	1246.12
288.831	1318.12
289.062	1531.12
289.293	1673.12
289.524	1575.12
289.755	1585.12
289.986	1610.12
290.217	1429.12
290.448	1077.12
290.679	942.12
290.91	895.12
291.141	909.12
291.371	982.12
291.602	985.12
291.833	976.12
292.064	1030.12
292.295	1197.12
292.526	1346.12
292.757	1431.12
292.987	1538.12
293.218	1507.12
293.449	1554.12
293.68	1693.12
293.91	1554.12
294.141	1577.12
294.372	1517.12
294.603	1416.12
294.833	1531.12
295.064	1845.12
295.295	1699.12
295.525	1307.12
295.756	1174.12
295.987	979.12
296.217	976.12
296.448	1026.12
296.679	1091.12
296.909	1200.12
297.14	1276.12
297.37	1413.12
297.601	1378.12
297.831	1145.12
298.062	1251.12
298.292	1434.12
298.523	1546.12
298.753	1697.12
298.984	1528.12
299.214	1254.12
299.445	1047.12
299.675	994.12
299.905	1026.12
300.136	1040.12
300.366	1153.12
300.597	1109.12
300.827	1009.12
301.057	952.12
301.288	1030.12
301.518	1049.12
301.748	1180.12
301.979	1306.12
302.209	1382.12
302.439	1426.12
302.669	1238.12
302.9	1209.12
303.13	1129.12
303.36	1092.12
303.59	1059.12
303.82	1069.12
304.051	1222.12
304.281	1327.12
304.511	1239.12
304.741	1146.12
304.971	1179.12
305.201	1234.12
305.431	1181.12
305.661	1058.12
305.891	1024.12
306.121	1055.12
306.352	954.12
306.582	844.12
306.812	843.12
307.042	843.12
307.272	828.12
307.502	800.12
307.731	859.12
307.961	909.12
308.191	855.12
308.421	788.12
308.651	776.12
308.881	751.12
309.111	785.12
309.341	821.12
309.571	883.12
309.8	916.12
310.03	917.12
310.26	974.12
310.49	956.12
310.72	853.12
310.949	844.12
311.179	863.12
311.409	918.12
311.639	1075.12
311.868	1352.12
312.098	1723.12
312.328	1913.12
312.557	1838.12
312.787	1849.12
313.017	1608.12
313.246	1738.12
313.476	1906.12
313.706	1569.12
313.935	1244.12
314.165	1010.12
314.394	946.12
314.624	961.12
314.853	980.12
315.083	1019.12
315.312	1005.12
315.542	1021.12
315.771	927.12
316.001	857.12
316.23	828.12
316.46	837.12
316.689	854.12
316.919	859.12
317.148	899.12
317.377	849.12
317.607	903.12
317.836	963.12
318.065	1105.12
318.295	1208.12
318.524	1109.12
318.753	949.12
318.983	914.12
319.212	923.12
319.441	1004.12
319.67	1085.12
319.9	1164.12
320.129	1085.12
320.358	951.12
320.587	926.12
320.816	994.12
321.046	1145.12
321.275	1299.12
321.504	1323.12
321.733	1243.12
321.962	1187.12
322.191	1153.12
322.42	1075.12
322.649	1094.12
322.878	1203.12
323.108	1160.12
323.337	1105.12
323.566	1087.12
323.795	1033.12
324.024	990.12
324.253	958.12
324.482	949.12
324.71	1053.12
324.939	1173.12
325.168	1109.12
325.397	940.12
325.626	898.12
325.855	895.12
326.084	932.12
326.313	862.12
326.542	831.12
326.77	843.12
326.999	878.12
327.228	926.12
327.457	1014.12
327.686	1014.12
327.914	879.12
328.143	819.12
328.372	838.12
328.6	835.12
328.829	849.12
329.058	869.12
329.287	877.12
329.515	895.12
329.744	849.12
329.972	790.12
330.201	786.12
330.43	836.12
330.658	946.12
330.887	1041.12
331.115	990.12
331.344	973.12
331.572	941.12
331.801	886.12
332.03	858.12
332.258	880.12
332.486	948.12
332.715	930.12
332.943	909.12
333.172	889.12
333.4	945.12
333.629	1019.12
333.857	1124.12
334.085	1089.12
334.314	1100.12
334.542	1031.12
334.771	948.12
334.999	940.12
335.227	914.12
335.455	891.12
335.684	989.12
335.912	1160.12
336.14	1295.12
336.369	1222.12
336.597	1186.12
336.825	1351.12
337.053	1534.12
337.281	1217.12
337.51	971.12
337.738	934.12
337.966	1055.12
338.194	1145.12
338.422	1095.12
338.65	930.12
338.878	857.12
339.106	896.12
339.334	990.12
339.562	1069.12
339.79	997.12
340.018	949.12
340.246	1035.12
340.474	1195.12
340.702	1231.12
340.93	1303.12
341.158	1300.12
341.386	1088.12
341.614	1101.12
341.842	1073.12
342.07	1118.12
342.298	1277.12
342.526	1351.12
342.754	1202.12
342.981	1109.12
343.209	1059.12
343.437	1127.12
343.665	1169.12
343.893	1161.12
344.12	1359.12
344.348	1557.12
344.576	1405.12
344.804	1191.12
345.031	1003.12
345.259	981.12
345.487	978.12
345.714	1018.12
345.942	1062.12
346.17	1153.12
346.397	1066.12
346.625	975.12
346.853	966.12
347.08	895.12
347.308	988.12
347.535	1103.12
347.763	1123.12
347.99	1005.12
348.218	932.12
348.445	934.12
348.673	945.12
348.9	962.12
349.128	1047.12
349.355	1063.12
349.583	1042.12
349.81	997.12
350.037	937.12
350.265	809.12
350.492	791.12
350.72	799.12
350.947	790.12
351.174	862.12
351.402	917.12
351.629	969.12
351.856	919.12
352.083	884.12
352.311	966.12
352.538	1029.12
352.765	1108.12
352.992	1006.12
353.22	949.12
353.447	957.12
353.674	922.12
353.901	926.12
354.128	953.12
354.355	984.12
354.583	966.12
354.81	953.12
355.037	985.12
355.264	1011.12
355.491	1060.12
355.718	1109.12
355.945	1102.12
356.172	1080.12
356.399	1089.12
356.626	1306.12
356.853	1593.12
357.08	1687.12
357.307	1705.12
357.534	1332.12
357.761	1378.12
357.988	1734.12
358.215	2045.12
358.441	1889.12
358.668	1605.12
358.895	1473.12
359.122	1197.12
359.349	1194.12
359.576	1272.12
359.802	1113.12
360.029	923.12
360.256	1028.12
360.483	1224.12
360.709	1590.12
360.936	1606.12
361.163	1449.12
361.39	1126.12
361.616	1033.12
361.843	1205.12
362.07	1491.12
362.296	1361.12
362.523	1064.12
362.749	916.12
362.976	954.12
363.203	1146.12
363.429	1311.12
363.656	1074.12
363.882	986.12
364.109	998.12
364.335	971.12
364.562	942.12
364.788	1088.12
365.015	1277.12
365.241	1153.12
365.468	922.12
365.694	835.12
365.92	779.12
366.147	771.12
366.373	754.12
366.599	764.12
366.826	770.12
367.052	809.12
367.278	823.12
367.505	818.12
367.731	879.12
367.957	1019.12
368.184	1008.12
368.41	1001.12
368.636	1001.12
368.862	1061.12
369.089	1022.12
369.315	889.12
369.541	885.12
369.767	864.12
369.993	842.12
370.219	817.12
370.445	902.12
370.672	979.12
370.898	1067.12
371.124	1050.12
371.35	955.12
371.576	906.12
371.802	953.12
372.028	1159.12
372.254	1362.12
372.48	1106.12
372.706	1011.12
372.932	1053.12
373.158	1103.12
373.384	1355.12
373.61	1761.12
373.835	1841.12
374.061	1320.12
374.287	1132.12
374.513	1322.12
374.739	1580.12
374.965	1651.12
375.191	1633.12
375.416	1121.12
375.642	967.12
375.868	1181.12
376.094	1313.12
376.319	1151.12
376.545	1237.12
376.771	1309.12
376.997	1131.12
377.222	839.12
377.448	721.12
377.674	731.12
377.899	737.12
378.125	747.12
378.35	728.12
378.576	763.12
378.802	860.12
379.027	909.12
379.253	850.12
379.478	897.12
379.704	999.12
379.929	1065.12
380.155	1074.12
380.38	930.12
380.606	975.12
380.831	1102.12
381.057	993.12
381.282	982.12
381.507	1125.12
381.733	1421.12
381.958	1531.12
382.184	1571.12
382.409	1680.12
382.634	1615.12
382.86	1709.12
383.085	1426.12
383.31	1095.12
383.535	1185.12
383.761	1227.12
383.986	1154.12
384.211	1391.12
384.436	1351.12
384.662	1035.12
384.887	1001.12
385.112	989.12
385.337	996.12
385.562	964.12
385.787	1091.12
386.013	1209.12
386.238	1230.12
386.463	992.12
386.688	999.12
386.913	937.12
387.138	893.12
387.363	917.12
387.588	975.12
387.813	951.12
388.038	1050.12
388.263	961.12
388.488	950.12
388.713	1084.12
388.938	1161.12
389.163	1001.12
389.387	905.12
389.612	874.12
389.837	916.12
390.062	927.12
390.287	973.12
390.512	999.12
390.736	930.12
390.961	854.12
391.186	861.12
391.411	836.12
391.636	833.12
391.86	906.12
392.085	997.12
392.31	1028.12
392.534	938.12
392.759	918.12
392.984	975.12
393.208	956.12
393.433	896.12
393.658	820.12
393.882	784.12
394.107	748.12
394.331	779.12
394.556	798.12
394.78	806.12
395.005	819.12
395.229	841.12
395.454	868.12
395.678	869.12
395.903	878.12
396.127	866.12
396.352	866.12
396.576	933.12
396.801	977.12
397.025	1081.12
397.249	1095.12
397.474	903.12
397.698	937.12
397.922	965.12
398.147	911.12
398.371	891.12
398.595	955.12
398.82	927.12
399.044	945.12
399.268	1021.12
399.492	1028.12
399.717	1044.12
399.941	1076.12
400.165	1048.12
400.389	1036.12
400.613	1002.12
400.837	1031.12
401.062	929.12
401.286	879.12
401.51	882.12
401.734	903.12
401.958	903.12
402.182	903.12
402.406	873.12
402.63	879.12
402.854	924.12
403.078	1071.12
403.302	1312.12
403.526	1316.12
403.75	1189.12
403.974	1022.12
404.198	1078.12
404.422	1190.12
404.645	1417.12
404.869	1517.12
405.093	1170.12
405.317	976.12
405.541	958.12
405.765	1027.12
405.988	989.12
406.212	1078.12
406.436	1265.12
406.66	1418.12
406.883	1129.12
407.107	1135.12
407.331	1355.12
407.555	1290.12
407.778	1077.12
408.002	1034.12
408.226	1035.12
408.449	1052.12
408.673	985.12
408.896	926.12
409.12	925.12
409.344	906.12
409.567	877.12
409.791	881.12
410.014	886.12
410.238	863.12
410.461	911.12
410.685	895.12
410.908	886.12
411.132	906.12
411.355	930.12
411.578	934.12
411.802	928.12
412.025	974.12
412.249	973.12
412.472	959.12
412.695	934.12
412.919	911.12
413.142	966.12
413.365	1037.12
413.589	1067.12
413.812	938.12
414.035	917.12
414.258	932.12
414.482	1042.12
414.705	1032.12
414.928	902.12
415.151	879.12
415.374	893.12
415.597	890.12
415.821	908.12
416.044	878.12
416.267	855.12
416.49	875.12
416.713	843.12
416.936	823.12
417.159	879.12
417.382	873.12
417.605	866.12
417.828	889.12
418.051	907.12
418.274	902.12
418.497	914.12
418.72	906.12
418.943	941.12
419.166	974.12
419.389	1030.12
419.611	1001.12
419.834	1009.12
420.057	1094.12
420.28	1109.12
420.503	1021.12
420.726	881.12
420.948	845.12
421.171	862.12
421.394	902.12
421.617	868.12
421.839	899.12
422.062	928.12
422.285	898.12
422.507	927.12
422.73	947.12
422.953	990.12
423.175	929.12
423.398	933.12
423.621	984.12
423.843	1023.12
424.066	965.12
424.288	911.12
424.511	882.12
424.733	910.12
424.956	943.12
425.178	1055.12
425.401	1217.12
425.623	1376.12
425.846	1115.12
426.068	1007.12
426.291	1114.12
426.513	1017.12
426.735	941.12
426.958	1001.12
427.18	1131.12
427.402	1470.12
427.625	1443.12
427.847	1165.12
428.069	900.12
428.292	891.12
428.514	891.12
428.736	822.12
428.958	969.12
429.181	1138.12
429.403	964.12
429.625	893.12
429.847	855.12
430.069	882.12
430.292	902.12
430.514	852.12
430.736	907.12
430.958	1154.12
431.18	1084.12
431.402	844.12
431.624	806.12
431.846	826.12
432.068	777.12
432.29	826.12
432.512	913.12
432.734	1205.12
432.956	1094.12
433.178	865.12
433.4	825.12
433.622	833.12
433.844	881.12
434.066	924.12
434.287	882.12
434.509	876.12
434.731	924.12
434.953	882.12
435.175	906.12
435.397	1028.12
435.618	892.12
435.84	814.12
436.062	837.12
436.284	835.12
436.505	795.12
436.727	767.12
436.949	781.12
437.17	828.12
437.392	870.12
437.614	837.12
437.835	820.12
438.057	808.12
438.278	965.12
438.5	1365.12
438.721	1361.12
438.943	927.12
439.165	799.12
439.386	767.12
439.608	773.12
439.829	768.12
440.05	784.12
440.272	835.12
440.493	994.12
440.715	1188.12
440.936	970.12
441.158	838.12
441.379	856.12
441.6	949.12
441.822	997.12
442.043	873.12
442.264	860.12
442.486	887.12
442.707	854.12
442.928	853.12
443.149	881.12
443.371	851.12
443.592	933.12
443.813	933.12
444.034	894.12
444.255	864.12
444.476	955.12
444.698	928.12
444.919	922.12
445.14	1037.12
445.361	969.12
445.582	934.12
445.803	918.12
446.024	927.12
446.245	942.12
446.466	899.12
446.687	845.12
446.908	901.12
447.129	842.12
447.35	815.12
447.571	806.12
447.792	796.12
448.013	785.12
448.234	789.12
448.455	770.12
448.675	789.12
448.896	801.12
449.117	791.12
449.338	829.12
449.559	825.12
449.779	884.12
450	849.12
450.221	818.12
450.442	786.12
450.662	793.12
450.883	798.12
451.104	781.12
451.324	789.12
451.545	794.12
451.766	793.12
451.986	781.12
452.207	757.12
452.428	770.12
452.648	792.12
452.869	838.12
453.089	846.12
453.31	822.12
453.53	721.12
453.751	736.12
453.971	726.12
454.192	771.12
454.412	798.12
454.633	754.12
454.853	740.12
455.073	729.12
455.294	717.12
455.514	739.12
455.734	763.12
455.955	800.12
456.175	808.12
456.395	736.12
456.616	708.12
456.836	706.12
457.056	661.12
457.276	699.12
457.497	702.12
457.717	677.12
457.937	702.12
458.157	732.12
458.377	711.12
458.598	732.12
458.818	766.12
459.038	810.12
459.258	813.12
459.478	873.12
459.698	878.12
459.918	873.12
460.138	870.12
460.358	904.12
460.578	880.12
460.798	878.12
461.018	864.12
461.238	857.12
461.458	855.12
461.678	897.12
461.898	910.12
462.118	924.12
462.338	932.12
462.558	945.12
462.777	1021.12
462.997	983.12
463.217	997.12
463.437	1044.12
463.657	1003.12
463.876	952.12
464.096	963.12
464.316	954.12
464.536	955.12
464.755	1006.12
464.975	1004.12
465.195	964.12
465.414	1001.12
465.634	939.12
465.854	952.12
466.073	874.12
466.293	846.12
466.512	916.12
466.732	1018.12
466.951	1041.12
467.171	933.12
467.391	874.12
467.61	873.12
467.829	913.12
468.049	929.12
468.268	864.12
468.488	856.12
468.707	900.12
468.927	1047.12
469.146	1120.12
469.365	1032.12
469.585	911.12
469.804	1021.12
470.023	1101.12
470.243	974.12
470.462	920.12
470.681	887.12
470.901	902.12
471.12	958.12
471.339	975.12
471.558	907.12
471.777	946.12
471.997	981.12
472.216	1089.12
472.435	1046.12
472.654	941.12
472.873	937.12
473.092	1003.12
473.311	1029.12
473.53	938.12
473.749	926.12
473.968	951.12
474.187	967.12
474.406	909.12
474.625	898.12
474.844	923.12
475.063	1015.12
475.282	1005.12
475.501	1073.12
475.72	1107.12
475.939	1083.12
476.158	1069.12
476.377	1234.12
476.596	1397.12
476.814	1475.12
477.033	1197.12
477.252	1043.12
477.471	973.12
477.69	1005.12
477.908	1114.12
478.127	1145.12
478.346	1046.12
478.564	1133.12
478.783	1067.12
479.002	1111.12
479.22	1268.12
479.439	1374.12
479.658	1196.12
479.876	1106.12
480.095	1177.12
480.313	1233.12
480.532	1111.12
480.751	1099.12
480.969	1103.12
481.188	1251.12
481.406	1273.12
481.624	1219.12
481.843	1093.12
482.061	1060.12
482.28	1167.12
482.498	1457.12
482.717	1357.12
482.935	1195.12
483.153	1136.12
483.372	1051.12
483.59	1009.12
483.808	1026.12
484.027	1030.12
484.245	977.12
484.463	959.12
484.681	1008.12
484.9	1105.12
485.118	1189.12
485.336	1080.12
485.554	1043.12
485.772	1082.12
485.99	1149.12
486.209	1205.12
486.427	1189.12
486.645	1171.12
486.863	1187.12
487.081	1202.12
487.299	1357.12
487.517	1303.12
487.735	1169.12
487.953	1210.12
488.171	1234.12
488.389	1195.12
488.607	1141.12
488.825	1135.12
489.043	1226.12
489.261	1439.12
489.479	1518.12
489.696	1245.12
489.914	1159.12
490.132	1099.12
490.35	1122.12
490.568	1115.12
490.786	1118.12
491.003	1120.12
491.221	1155.12
491.439	1110.12
491.657	1126.12
491.874	1216.12
492.092	1487.12
492.31	1731.12
492.527	1745.12
492.745	1490.12
492.963	1329.12
493.18	1291.12
493.398	1258.12
493.615	1265.12
493.833	1239.12
494.05	1247.12
494.268	1239.12
494.485	1224.12
494.703	1175.12
494.92	1230.12
495.138	1183.12
495.355	1186.12
495.573	1219.12
495.79	1349.12
496.008	1775.12
496.225	1550.12
496.442	1355.12
496.66	1337.12
496.877	1420.12
497.094	1379.12
497.312	1305.12
497.529	1310.12
497.746	1314.12
497.963	1330.12
498.181	1465.12
498.398	1593.12
498.615	1620.12
498.832	1664.12
499.049	1684.12
499.267	1492.12
499.484	1538.12
499.701	1609.12
499.918	1725.12
500.135	1894.12
500.352	1859.12
500.569	1953.12
500.786	2041.12
501.003	1973.12
501.22	1778.12
501.437	1713.12
501.654	1651.12
501.871	1609.12
502.088	1619.12
502.305	1492.12
502.522	1491.12
502.739	1445.12
502.956	1352.12
503.172	1351.12
503.389	1330.12
503.606	1265.12
503.823	1281.12
504.04	1342.12
504.256	1302.12
504.473	1368.12
504.69	1349.12
504.907	1351.12
505.123	1333.12
505.34	1454.12
505.557	1402.12
505.773	1307.12
505.99	1277.12
506.207	1377.12
506.423	1239.12
506.64	1180.12
506.856	1230.12
507.073	1347.12
507.289	1298.12
507.506	1309.12
507.722	1367.12
507.939	1403.12
508.155	1430.12
508.372	1296.12
508.588	1234.12
508.805	1231.12
509.021	1207.12
509.238	1155.12
509.454	1136.12
509.67	1153.12
509.887	1175.12
510.103	1278.12
510.319	1279.12
510.536	1147.12
510.752	1089.12
510.968	1038.12
511.184	1028.12
511.401	1050.12
511.617	1017.12
511.833	1012.12
512.049	1052.12
512.265	1081.12
512.481	1110.12
512.698	1231.12
512.914	1337.12
513.13	1215.12
513.346	1126.12
513.562	1163.12
513.778	1170.12
513.994	1115.12
514.21	1241.12
514.426	1203.12
514.642	1122.12
514.858	1114.12
515.074	1190.12
515.29	1266.12
515.506	1410.12
515.721	1314.12
515.937	1232.12
516.153	1160.12
516.369	1178.12
516.585	1213.12
516.801	1367.12
517.016	1593.12
517.232	1537.12
517.448	1506.12
517.664	1348.12
517.879	1294.12
518.095	1244.12
518.311	1269.12
518.527	1287.12
518.742	1373.12
518.958	1410.12
519.173	1395.12
519.389	1337.12
519.605	1381.12
519.82	1468.12
520.036	1694.12
520.251	1662.12
520.467	1556.12
520.682	2321.12
520.898	2890.12
521.113	2721.12
521.329	1712.12
521.544	1496.12
521.76	1467.12
521.975	1334.12
522.19	1261.12
522.406	1320.12
522.621	1414.12
522.836	1478.12
523.052	1527.12
523.267	1249.12
523.482	1260.12
523.698	1381.12
523.913	1321.12
524.128	1197.12
524.343	1156.12
524.559	1185.12
524.774	1107.12
524.989	1145.12
525.204	1168.12
525.419	1281.12
525.634	1211.12
525.849	1213.12
526.064	1214.12
526.28	1235.12
526.495	1462.12
526.71	1474.12
526.925	1295.12
527.14	1361.12
527.355	1371.12
527.57	1121.12
527.785	1184.12
527.999	1084.12
528.214	1084.12
528.429	1064.12
528.644	1027.12
528.859	1012.12
529.074	981.12
529.289	973.12
529.503	977.12
529.718	1045.12
529.933	1163.12
530.148	1218.12
530.363	1018.12
530.577	1033.12
530.792	979.12
531.007	978.12
531.221	952.12
531.436	952.12
531.651	976.12
531.865	1017.12
532.08	1004.12
532.295	982.12
532.509	1043.12
532.724	1157.12
532.938	1284.12
533.153	1492.12
533.367	1181.12
533.582	1168.12
533.796	1068.12
534.011	1029.12
534.225	1027.12
534.44	1065.12
534.654	1089.12
534.868	1234.12
535.083	1104.12
535.297	979.12
535.511	1020.12
535.726	1119.12
535.94	1058.12
536.154	1000.12
536.369	976.12
536.583	965.12
536.797	1013.12
537.011	1034.12
537.225	1091.12
537.44	1152.12
537.654	993.12
537.868	1005.12
538.082	1017.12
538.296	1018.12
538.51	1081.12
538.724	1106.12
538.938	1054.12
539.153	956.12
539.367	989.12
539.581	998.12
539.795	1009.12
540.009	1134.12
540.222	1050.12
540.436	1048.12
540.65	1139.12
540.864	1163.12
541.078	1174.12
541.292	1324.12
541.506	1083.12
541.72	1072.12
541.934	1046.12
542.147	1027.12
542.361	1030.12
542.575	1046.12
542.789	1022.12
543.002	917.12
543.216	1055.12
543.43	943.12
543.644	938.12
543.857	948.12
544.071	945.12
544.285	933.12
544.498	909.12
544.712	894.12
544.925	981.12
545.139	940.12
545.352	883.12
545.566	900.12
545.779	1035.12
545.993	961.12
546.206	876.12
546.42	865.12
546.633	848.12
546.847	827.12
547.06	836.12
547.274	832.12
547.487	876.12
547.7	960.12
547.914	978.12
548.127	1116.12
548.34	1086.12
548.554	953.12
548.767	991.12
548.98	1021.12
549.193	969.12
549.407	1001.12
549.62	1165.12
549.833	1093.12
550.046	1092.12
550.259	1138.12
550.473	998.12
550.686	972.12
550.899	1003.12
551.112	964.12
551.325	1035.12
551.538	1065.12
551.751	930.12
551.964	876.12
552.177	884.12
552.39	869.12
552.603	871.12
552.816	915.12
553.029	871.12
553.242	879.12
553.455	931.12
553.667	1005.12
553.88	954.12
554.093	895.12
554.306	838.12
554.519	795.12
554.732	779.12
554.944	757.12
555.157	767.12
555.37	770.12
555.583	735.12
555.795	781.12
556.008	786.12
556.221	823.12
556.433	816.12
556.646	775.12
556.859	796.12
557.071	830.12
557.284	798.12
557.496	848.12
557.709	775.12
557.921	782.12
558.134	743.12
558.346	721.12
558.559	739.12
558.771	738.12
558.984	816.12
559.196	777.12
559.409	727.12
559.621	710.12
559.833	697.12
560.046	705.12
560.258	732.12
560.47	730.12
560.683	711.12
560.895	662.12
561.107	669.12
561.32	682.12
561.532	690.12
561.744	751.12
561.956	773.12
562.168	683.12
562.381	695.12
562.593	711.12
562.805	726.12
563.017	697.12
563.229	666.12
563.441	670.12
563.653	668.12
563.865	665.12
564.077	696.12
564.289	695.12
564.501	709.12
564.713	738.12
564.925	719.12
565.137	695.12
565.349	681.12
565.561	684.12
565.773	722.12
565.985	725.12
566.197	780.12
566.408	828.12
566.62	862.12
566.832	841.12
567.044	817.12
567.255	906.12
567.467	934.12
567.679	882.12
567.891	878.12
568.102	891.12
568.314	916.12
568.526	845.12
568.737	802.12
568.949	874.12
569.161	753.12
569.372	681.12
569.584	655.12
569.795	650.12
570.007	675.12
570.218	736.12
570.43	741.12
570.641	671.12
570.853	659.12
571.064	654.12
571.276	678.12
571.487	721.12
571.698	663.12
571.91	666.12
572.121	646.12
572.333	605.12
572.544	609.12
572.755	618.12
572.966	601.12
573.178	610.12
573.389	631.12
573.6	633.12
573.811	630.12
574.023	588.12
574.234	562.12
574.445	558.12
574.656	545.12
574.867	567.12
575.078	589.12
575.289	601.12
575.501	605.12
575.712	575.12
575.923	534.12
576.134	523.12
576.345	543.12
576.556	553.12
576.767	525.12
576.978	518.12
577.188	512.12
577.399	526.12
577.61	512.12
577.821	529.12
578.032	532.12
578.243	569.12
578.454	579.12
578.665	562.12
578.875	553.12
579.086	544.12
579.297	554.12
579.508	550.12
579.718	585.12
579.929	532.12
580.14	498.12
580.35	494.12
580.561	483.12
580.772	471.12
580.982	470.12
581.193	473.12
581.403	464.12
581.614	459.12
581.825	456.12
582.035	459.12
582.246	458.12
582.456	455.12
582.667	451.12
582.877	460.12
583.087	454.12
583.298	452.12
583.508	446.12
583.719	422.12
583.929	468.12
584.139	467.12
584.35	453.12
584.56	484.12
584.77	463.12
584.981	454.12
585.191	448.12
585.401	450.12
585.611	489.12
585.821	470.12
586.032	475.12
586.242	461.12
586.452	461.12
586.662	476.12
586.872	489.12
587.082	477.12
587.292	464.12
587.502	450.12
587.713	427.12
587.923	472.12
588.133	482.12
588.343	470.12
588.553	446.12
588.762	447.12
588.972	415.12
589.182	462.12
589.392	454.12
589.602	450.12
589.812	465.12
590.022	501.12
590.232	494.12
590.441	451.12
590.651	435.12
590.861	436.12
591.071	429.12
591.281	459.12
591.49	441.12
591.7	468.12
591.91	455.12
592.119	444.12
592.329	468.12
592.539	469.12
592.748	473.12
592.958	463.12
593.167	459.12
593.377	494.12
593.587	501.12
593.796	479.12
594.006	444.12
594.215	463.12
594.424	476.12
594.634	483.12
594.843	485.12
595.053	473.12
595.262	443.12
595.472	440.12
595.681	422.12
595.89	422.12
596.1	430.12
596.309	445.12
596.518	438.12
596.727	431.12
596.937	425.12
597.146	440.12
597.355	468.12
597.564	429.12
597.774	403.12
597.983	401.12
598.192	405.12
598.401	391.12
598.61	401.12
598.819	383.12
599.028	380.12
599.237	386.12
599.446	375.12
599.655	385.12
599.864	365.12
600.073	356.12
600.282	367.12
600.491	380.12
600.7	370.12
600.909	388.12
601.118	395.12
601.327	371.12
601.536	372.12
601.745	406.12
601.953	401.12
602.162	401.12
602.371	396.12
602.58	389.12
602.789	384.12
602.997	356.12
603.206	355.12
603.415	362.12
603.623	366.12
603.832	354.12
604.041	364.12
604.249	354.12
604.458	386.12
604.666	356.12
604.875	340.12
605.084	332.12
605.292	356.12
605.501	364.12
605.709	355.12
605.918	348.12
606.126	338.12
606.334	350.12
606.543	343.12
606.751	364.12
606.96	339.12
607.168	340.12
607.376	326.12
607.585	336.12
607.793	345.12
608.001	343.12
608.21	348.12
608.418	354.12
608.626	332.12
608.834	325.12
609.043	325.12
609.251	330.12
609.459	336.12
609.667	339.12
609.875	355.12
610.083	345.12
610.291	350.12
610.499	349.12
610.707	330.12
610.916	346.12
611.124	340.12
611.332	315.12
611.54	329.12
611.748	347.12
611.955	343.12
612.163	327.12
612.371	318.12
612.579	338.12
612.787	339.12
612.995	338.12
613.203	325.12
613.411	337.12
613.618	337.12
613.826	340.12
614.034	346.12
614.242	319.12
614.449	305.12
614.657	313.12
614.865	315.12
615.072	331.12
615.28	322.12
615.488	323.12
615.695	322.12
615.903	331.12
616.111	315.12
616.318	320.12
616.526	321.12
616.733	324.12
616.941	320.12
617.148	311.12
617.356	334.12
617.563	308.12
617.771	322.12
617.978	292.12
618.185	307.12
618.393	318.12
618.6	306.12
618.807	313.12
619.015	324.12
619.222	302.12
619.429	315.12
619.637	299.12
619.844	295.12
620.051	302.12
620.258	307.12
620.466	303.12
620.673	292.12
620.88	307.12
621.087	284.12
621.294	289.12
621.501	316.12
621.708	311.12
621.915	294.12
622.122	284.12
622.329	293.12
622.536	278.12
622.743	273.12
622.95	300.12
623.157	285.12
623.364	297.12
623.571	318.12
623.778	289.12
623.985	291.12
624.192	306.12
624.399	305.12
624.606	295.12
624.812	287.12
625.019	307.12
625.226	315.12
625.433	297.12
625.639	301.12
625.846	260.12
626.053	269.12
626.259	261.12
626.466	287.12
626.673	290.12
626.879	271.12
627.086	269.12
627.293	262.12
627.499	257.12
627.706	263.12
627.912	253.12
628.119	266.12
628.325	261.12
628.532	278.12
628.738	261.12
628.945	264.12
629.151	266.12
629.357	268.12
629.564	261.12
629.77	269.12
629.976	254.12
630.183	228.12
630.389	253.12
630.595	255.12
630.802	250.12
631.008	252.12
631.214	233.12
631.42	252.12
631.627	237.12
631.833	253.12
632.039	250.12
632.245	237.12
632.451	255.12
632.657	245.12
632.863	237.12
633.069	227.12
633.275	236.12
633.481	230.12
633.688	252.12
633.893	239.12
634.099	237.12
634.305	219.12
634.511	228.12
634.717	247.12
634.923	232.12
635.129	220.12
635.335	235.12
635.541	224.12
635.747	233.12
635.952	237.12
636.158	229.12
636.364	234.12
636.57	222.12
636.775	237.12
636.981	234.12
637.187	234.12
637.392	222.12
637.598	229.12
637.804	224.12
638.009	222.12
638.215	227.12
638.421	233.12
638.626	227.12
638.832	228.12
639.037	228.12
639.243	227.12
639.448	217.12
639.654	227.12
639.859	217.12
640.065	216.12
640.27	228.12
640.475	228.12
640.681	223.12
640.886	214.12
641.091	206.12
641.297	214.12
641.502	215.12
641.707	211.12
641.913	215.12
642.118	223.12
642.323	212.12
642.528	197.12
642.733	204.12
642.939	202.12
643.144	197.12
643.349	218.12
643.554	209.12
643.759	208.12
643.964	201.12
644.169	214.12
644.374	209.12
644.579	209.12
644.784	202.12
644.989	212.12
645.194	199.12
645.399	210.12
645.604	217.12
645.809	215.12
646.014	224.12
646.219	200.12
646.423	212.12
646.628	198.12
646.833	214.12
647.038	194.12
647.243	195.12
647.447	212.12
647.652	192.12
647.857	206.12
648.062	218.12
648.266	217.12
648.471	210.12
648.676	207.12
648.88	204.12
649.085	214.12
649.289	205.12
649.494	199.12
649.698	210.12
649.903	221.12
650.107	205.12
650.312	193.12
650.516	181.12
650.721	192.12
650.925	179.12
651.13	185.12
651.334	189.12
651.539	174.12
651.743	180.12
651.947	185.12
652.152	183.12
652.356	166.12
652.56	180.12
652.764	169.12
652.969	187.12
653.173	173.12
653.377	165.12
653.581	144.12
653.785	143.12
653.99	160.12
654.194	155.12
654.398	151.12
654.602	167.12
654.806	152.12
655.01	163.12
655.214	154.12
655.418	145.12
655.622	171.12
655.826	165.12
656.03	153.12
656.234	162.12
656.438	148.12
656.642	171.12
656.846	158.12
657.049	156.12
657.253	143.12
657.457	144.12
657.661	132.12
657.865	134.12
658.068	125.12
658.272	126.12
658.476	132.12
658.68	107.12
658.883	97.12
659.087	117.12
659.291	100.12
659.494	113.12
659.698	93.12
659.901	96.12
660.105	100.12
660.309	100.12
660.512	112.12
660.716	102.12
660.919	95.12
661.123	113.12
661.326	88.12
661.53	89.12
661.733	91.12
661.936	98.12
662.14	92.12
662.343	78.12
662.546	82.12
662.75	82.12
662.953	84.12
663.156	93.12
663.36	82.12
663.563	87.12
663.766	79.12
663.969	81.12
664.173	84.12
664.376	78.12
664.579	75.12
664.782	74.12
664.985	72.12
665.188	78.12
665.391	93.12
665.594	85.12
665.797	79.12
666	69.12
666.203	59.12
666.406	85.12
666.609	96.12
666.812	87.12
667.015	77.12
667.218	70.12
667.421	93.12
667.624	85.12
667.827	78.12
668.03	85.12
668.232	70.12
668.435	83.12
668.638	77.12
668.841	71.12
669.043	70.12
669.246	79.12
669.449	71.12
669.651	84.12
669.854	74.12
670.057	73.12
670.259	77.12
670.462	80.12
670.665	72.12
670.867	80.12
671.07	84.12
671.272	82.12
671.475	90.12
671.677	84.12
671.88	74.12
672.082	81.12
672.284	94.12
672.487	74.12
672.689	79.12
672.892	72.12
