Data from NickelSpatula.Lamp.E5.5.P2_HRD10591_11-53-53-547.txt Node
Date: Tue Jul 23 11:53:53 EDT 2019
User: cochatt
Spectrometer: HR+D1059
Trigger mode: 1
Integration Time (sec): 1.000000E-1
Scans to average: 1
Electric dark correction enabled: true
Nonlinearity correction enabled: false
Boxcar width: 0
XAxis mode: Wavelengths
Number of Pixels in Spectrum: 2048
>>>>>Begin Spectral Data<<<<<
223.165	-9.12
223.4	-9.12
223.635	-9.12
223.869	-15.12
224.104	-15.12
224.338	-17.12
224.573	-15.12
224.808	-21.12
225.042	1.88
225.277	-0.12
225.511	-5.12
225.746	-1.12
225.98	7.88
226.215	15.88
226.449	7.88
226.683	13.88
226.918	18.88
227.152	32.88
227.387	35.88
227.621	31.88
227.856	38.88
228.09	40.88
228.324	39.88
228.559	50.88
228.793	70.88
229.027	77.88
229.262	77.88
229.496	81.88
229.73	95.88
229.964	99.88
230.199	89.88
230.433	95.88
230.667	96.88
230.901	110.88
231.136	104.88
231.37	96.88
231.604	95.88
231.838	103.88
232.072	88.88
232.306	116.88
232.541	103.88
232.775	107.88
233.009	108.88
233.243	105.88
233.477	119.88
233.711	129.88
233.945	130.88
234.179	126.88
234.413	122.88
234.647	131.88
234.881	148.88
235.115	141.88
235.349	119.88
235.583	133.88
235.817	119.88
236.051	123.88
236.285	148.88
236.519	144.88
236.753	122.88
236.987	115.88
237.221	146.88
237.455	121.88
237.689	132.88
237.922	133.88
238.156	136.88
238.39	161.88
238.624	163.88
238.858	175.88
239.091	131.88
239.325	153.88
239.559	147.88
239.793	139.88
240.027	181.88
240.26	174.88
240.494	145.88
240.728	170.88
240.961	180.88
241.195	166.88
241.429	164.88
241.662	177.88
241.896	149.88
242.13	138.88
242.363	139.88
242.597	137.88
242.83	157.88
243.064	148.88
243.298	163.88
243.531	163.88
243.765	158.88
243.998	163.88
244.232	168.88
244.465	165.88
244.699	144.88
244.932	174.88
245.166	165.88
245.399	146.88
245.633	144.88
245.866	149.88
246.099	167.88
246.333	186.88
246.566	194.88
246.8	171.88
247.033	195.88
247.266	183.88
247.5	178.88
247.733	182.88
247.966	178.88
248.2	192.88
248.433	196.88
248.666	193.88
248.899	206.88
249.133	193.88
249.366	231.88
249.599	233.88
249.832	234.88
250.066	200.88
250.299	208.88
250.532	199.88
250.765	190.88
250.998	182.88
251.231	192.88
251.465	199.88
251.698	194.88
251.931	204.88
252.164	180.88
252.397	214.88
252.63	231.88
252.863	262.88
253.096	282.88
253.329	286.88
253.562	241.88
253.795	266.88
254.028	297.88
254.261	304.88
254.494	254.88
254.727	249.88
254.96	261.88
255.193	254.88
255.426	254.88
255.659	208.88
255.892	195.88
256.124	218.88
256.357	240.88
256.59	277.88
256.823	245.88
257.056	224.88
257.289	218.88
257.521	211.88
257.754	268.88
257.987	302.88
258.22	257.88
258.452	222.88
258.685	254.88
258.918	279.88
259.151	279.88
259.383	295.88
259.616	340.88
259.849	350.88
260.081	361.88
260.314	404.88
260.547	334.88
260.779	330.88
261.012	351.88
261.244	341.88
261.477	358.88
261.71	352.88
261.942	286.88
262.175	291.88
262.407	257.88
262.64	286.88
262.872	331.88
263.105	351.88
263.337	374.88
263.57	338.88
263.802	240.88
264.035	219.88
264.267	220.88
264.499	195.88
264.732	189.88
264.964	172.88
265.197	187.88
265.429	212.88
265.661	220.88
265.894	206.88
266.126	220.88
266.358	245.88
266.591	298.88
266.823	336.88
267.055	306.88
267.287	272.88
267.52	288.88
267.752	290.88
267.984	308.88
268.216	298.88
268.448	248.88
268.681	258.88
268.913	278.88
269.145	269.88
269.377	305.88
269.609	301.88
269.841	285.88
270.073	288.88
270.306	307.88
270.538	314.88
270.77	335.88
271.002	306.88
271.234	327.88
271.466	316.88
271.698	297.88
271.93	278.88
272.162	273.88
272.394	295.88
272.626	300.88
272.858	304.88
273.09	320.88
273.322	272.88
273.553	265.88
273.785	320.88
274.017	373.88
274.249	457.88
274.481	495.88
274.713	525.88
274.945	608.88
275.176	603.88
275.408	571.88
275.64	509.88
275.872	544.88
276.104	442.88
276.335	380.88
276.567	377.88
276.799	411.88
277.031	412.88
277.262	340.88
277.494	244.88
277.726	277.88
277.957	290.88
278.189	298.88
278.421	305.88
278.652	306.88
278.884	308.88
279.115	274.88
279.347	260.88
279.579	273.88
279.81	270.88
280.042	264.88
280.273	241.88
280.505	248.88
280.736	227.88
280.968	246.88
281.199	261.88
281.431	280.88
281.662	266.88
281.894	270.88
282.125	293.88
282.356	308.88
282.588	296.88
282.819	266.88
283.051	293.88
283.282	344.88
283.513	384.88
283.745	428.88
283.976	455.88
284.207	418.88
284.439	418.88
284.67	421.88
284.901	367.88
285.132	382.88
285.364	418.88
285.595	371.88
285.826	410.88
286.057	421.88
286.288	395.88
286.52	407.88
286.751	426.88
286.982	416.88
287.213	384.88
287.444	373.88
287.675	382.88
287.906	398.88
288.138	338.88
288.369	302.88
288.6	281.88
288.831	277.88
289.062	340.88
289.293	365.88
289.524	338.88
289.755	326.88
289.986	350.88
290.217	304.88
290.448	261.88
290.679	230.88
290.91	208.88
291.141	211.88
291.371	242.88
291.602	228.88
291.833	223.88
292.064	229.88
292.295	263.88
292.526	296.88
292.757	284.88
292.987	333.88
293.218	352.88
293.449	349.88
293.68	361.88
293.91	347.88
294.141	384.88
294.372	354.88
294.603	316.88
294.833	342.88
295.064	380.88
295.295	387.88
295.525	294.88
295.756	260.88
295.987	226.88
296.217	240.88
296.448	252.88
296.679	254.88
296.909	267.88
297.14	289.88
297.37	316.88
297.601	297.88
297.831	272.88
298.062	283.88
298.292	322.88
298.523	336.88
298.753	376.88
298.984	342.88
299.214	288.88
299.445	257.88
299.675	238.88
299.905	245.88
300.136	244.88
300.366	241.88
300.597	274.88
300.827	232.88
301.057	232.88
301.288	242.88
301.518	246.88
301.748	272.88
301.979	283.88
302.209	310.88
302.439	304.88
302.669	267.88
302.9	273.88
303.13	246.88
303.36	260.88
303.59	243.88
303.82	248.88
304.051	276.88
304.281	284.88
304.511	312.88
304.741	263.88
304.971	278.88
305.201	299.88
305.431	272.88
305.661	235.88
305.891	232.88
306.121	227.88
306.352	232.88
306.582	211.88
306.812	221.88
307.042	204.88
307.272	205.88
307.502	190.88
307.731	210.88
307.961	200.88
308.191	203.88
308.421	194.88
308.651	194.88
308.881	202.88
309.111	205.88
309.341	201.88
309.571	206.88
309.8	219.88
310.03	206.88
310.26	226.88
310.49	211.88
310.72	204.88
310.949	219.88
311.179	215.88
311.409	209.88
311.639	240.88
311.868	290.88
312.098	370.88
312.328	377.88
312.557	375.88
312.787	380.88
313.017	351.88
313.246	378.88
313.476	394.88
313.706	349.88
313.935	284.88
314.165	247.88
314.394	210.88
314.624	216.88
314.853	231.88
315.083	223.88
315.312	216.88
315.542	238.88
315.771	211.88
316.001	212.88
316.23	218.88
316.46	197.88
316.689	194.88
316.919	195.88
317.148	211.88
317.377	211.88
317.607	201.88
317.836	230.88
318.065	249.88
318.295	250.88
318.524	259.88
318.753	225.88
318.983	221.88
319.212	205.88
319.441	210.88
319.67	250.88
319.9	254.88
320.129	252.88
320.358	222.88
320.587	198.88
320.816	222.88
321.046	258.88
321.275	265.88
321.504	259.88
321.733	271.88
321.962	242.88
322.191	247.88
322.42	248.88
322.649	229.88
322.878	268.88
323.108	245.88
323.337	233.88
323.566	232.88
323.795	238.88
324.024	212.88
324.253	214.88
324.482	217.88
324.71	246.88
324.939	244.88
325.168	243.88
325.397	233.88
325.626	198.88
325.855	216.88
326.084	224.88
326.313	216.88
326.542	208.88
326.77	223.88
326.999	207.88
327.228	209.88
327.457	235.88
327.686	231.88
327.914	202.88
328.143	194.88
328.372	201.88
328.6	202.88
328.829	211.88
329.058	198.88
329.287	208.88
329.515	218.88
329.744	191.88
329.972	195.88
330.201	189.88
330.43	197.88
330.658	200.88
330.887	230.88
331.115	222.88
331.344	226.88
331.572	222.88
331.801	216.88
332.03	193.88
332.258	202.88
332.486	213.88
332.715	217.88
332.943	228.88
333.172	233.88
333.4	218.88
333.629	224.88
333.857	247.88
334.085	256.88
334.314	272.88
334.542	238.88
334.771	213.88
334.999	222.88
335.227	204.88
335.455	234.88
335.684	230.88
335.912	247.88
336.14	283.88
336.369	283.88
336.597	265.88
336.825	305.88
337.053	314.88
337.281	278.88
337.51	225.88
337.738	227.88
337.966	235.88
338.194	256.88
338.422	246.88
338.65	213.88
338.878	213.88
339.106	202.88
339.334	235.88
339.562	246.88
339.79	251.88
340.018	212.88
340.246	231.88
340.474	271.88
340.702	282.88
340.93	282.88
341.158	279.88
341.386	250.88
341.614	225.88
341.842	246.88
342.07	249.88
342.298	260.88
342.526	294.88
342.754	255.88
342.981	233.88
343.209	238.88
343.437	253.88
343.665	263.88
343.893	283.88
344.12	306.88
344.348	355.88
344.576	330.88
344.804	274.88
345.031	222.88
345.259	232.88
345.487	220.88
345.714	220.88
345.942	269.88
346.17	268.88
346.397	258.88
346.625	228.88
346.853	227.88
347.08	210.88
347.308	242.88
347.535	242.88
347.763	266.88
347.99	231.88
348.218	230.88
348.445	243.88
348.673	226.88
348.9	219.88
349.128	233.88
349.355	227.88
349.583	238.88
349.81	238.88
350.037	226.88
350.265	201.88
350.492	186.88
350.72	191.88
350.947	206.88
351.174	207.88
351.402	237.88
351.629	227.88
351.856	235.88
352.083	229.88
352.311	214.88
352.538	233.88
352.765	256.88
352.992	234.88
353.22	231.88
353.447	223.88
353.674	223.88
353.901	220.88
354.128	217.88
354.355	226.88
354.583	217.88
354.81	227.88
355.037	224.88
355.264	230.88
355.491	246.88
355.718	232.88
355.945	235.88
356.172	239.88
356.399	248.88
356.626	287.88
356.853	310.88
357.08	336.88
357.307	355.88
357.534	291.88
357.761	299.88
357.988	380.88
358.215	407.88
358.441	388.88
358.668	327.88
358.895	301.88
359.122	284.88
359.349	274.88
359.576	302.88
359.802	246.88
360.029	205.88
360.256	228.88
360.483	276.88
360.709	344.88
360.936	344.88
361.163	319.88
361.39	238.88
361.616	227.88
361.843	259.88
362.07	297.88
362.296	290.88
362.523	239.88
362.749	224.88
362.976	220.88
363.203	246.88
363.429	277.88
363.656	243.88
363.882	230.88
364.109	227.88
364.335	231.88
364.562	222.88
364.788	241.88
365.015	291.88
365.241	250.88
365.468	208.88
365.694	205.88
365.92	198.88
366.147	198.88
366.373	185.88
366.599	198.88
366.826	200.88
367.052	196.88
367.278	199.88
367.505	209.88
367.731	193.88
367.957	220.88
368.184	222.88
368.41	228.88
368.636	233.88
368.862	226.88
369.089	224.88
369.315	221.88
369.541	208.88
369.767	223.88
369.993	197.88
370.219	205.88
370.445	197.88
370.672	227.88
370.898	251.88
371.124	238.88
371.35	226.88
371.576	214.88
371.802	219.88
372.028	269.88
372.254	277.88
372.48	250.88
372.706	242.88
372.932	259.88
373.158	254.88
373.384	282.88
373.61	352.88
373.835	395.88
374.061	289.88
374.287	251.88
374.513	286.88
374.739	356.88
374.965	362.88
375.191	360.88
375.416	268.88
375.642	244.88
375.868	274.88
376.094	290.88
376.319	247.88
376.545	241.88
376.771	288.88
376.997	278.88
377.222	210.88
377.448	202.88
377.674	186.88
377.899	194.88
378.125	195.88
378.35	207.88
378.576	195.88
378.802	214.88
379.027	219.88
379.253	210.88
379.478	212.88
379.704	231.88
379.929	236.88
380.155	252.88
380.38	238.88
380.606	234.88
380.831	243.88
381.057	250.88
381.282	229.88
381.507	241.88
381.733	298.88
381.958	321.88
382.184	321.88
382.409	356.88
382.634	335.88
382.86	354.88
383.085	311.88
383.31	244.88
383.535	276.88
383.761	267.88
383.986	248.88
384.211	298.88
384.436	272.88
384.662	249.88
384.887	228.88
385.112	256.88
385.337	247.88
385.562	249.88
385.787	257.88
386.013	273.88
386.238	273.88
386.463	247.88
386.688	238.88
386.913	229.88
387.138	229.88
387.363	225.88
387.588	239.88
387.813	236.88
388.038	280.88
388.263	215.88
388.488	221.88
388.713	263.88
388.938	266.88
389.163	228.88
389.387	213.88
389.612	205.88
389.837	202.88
390.062	219.88
390.287	209.88
390.512	236.88
390.736	220.88
390.961	225.88
391.186	229.88
391.411	199.88
391.636	210.88
391.86	243.88
392.085	242.88
392.31	247.88
392.534	229.88
392.759	225.88
392.984	250.88
393.208	232.88
393.433	233.88
393.658	221.88
393.882	202.88
394.107	215.88
394.331	206.88
394.556	210.88
394.78	206.88
395.005	209.88
395.229	203.88
395.454	203.88
395.678	229.88
395.903	226.88
396.127	213.88
396.352	223.88
396.576	220.88
396.801	232.88
397.025	236.88
397.249	267.88
397.474	235.88
397.698	205.88
397.922	238.88
398.147	229.88
398.371	224.88
398.595	238.88
398.82	242.88
399.044	244.88
399.268	251.88
399.492	282.88
399.717	286.88
399.941	287.88
400.165	262.88
400.389	258.88
400.613	265.88
400.837	250.88
401.062	235.88
401.286	228.88
401.51	222.88
401.734	215.88
401.958	242.88
402.182	238.88
402.406	239.88
402.63	228.88
402.854	268.88
403.078	280.88
403.302	348.88
403.526	369.88
403.75	331.88
403.974	271.88
404.198	287.88
404.422	307.88
404.645	314.88
404.869	365.88
405.093	291.88
405.317	263.88
405.541	250.88
405.765	263.88
405.988	269.88
406.212	264.88
406.436	291.88
406.66	312.88
406.883	271.88
407.107	273.88
407.331	310.88
407.555	328.88
407.778	252.88
408.002	271.88
408.226	273.88
408.449	266.88
408.673	282.88
408.896	238.88
409.12	258.88
409.344	243.88
409.567	246.88
409.791	225.88
410.014	244.88
410.238	206.88
410.461	226.88
410.685	229.88
410.908	230.88
411.132	243.88
411.355	225.88
411.578	230.88
411.802	243.88
412.025	254.88
412.249	246.88
412.472	216.88
412.695	240.88
412.919	228.88
413.142	248.88
413.365	250.88
413.589	259.88
413.812	231.88
414.035	248.88
414.258	219.88
414.482	245.88
414.705	244.88
414.928	214.88
415.151	240.88
415.374	213.88
415.597	219.88
415.821	235.88
416.044	230.88
416.267	218.88
416.49	226.88
416.713	222.88
416.936	219.88
417.159	218.88
417.382	227.88
417.605	226.88
417.828	216.88
418.051	246.88
418.274	230.88
418.497	221.88
418.72	243.88
418.943	228.88
419.166	239.88
419.389	242.88
419.611	249.88
419.834	247.88
420.057	262.88
420.28	254.88
420.503	249.88
420.726	221.88
420.948	238.88
421.171	232.88
421.394	223.88
421.617	224.88
421.839	226.88
422.062	223.88
422.285	231.88
422.507	245.88
422.73	231.88
422.953	231.88
423.175	239.88
423.398	247.88
423.621	251.88
423.843	257.88
424.066	258.88
424.288	233.88
424.511	240.88
424.733	231.88
424.956	245.88
425.178	254.88
425.401	282.88
425.623	346.88
425.846	290.88
426.068	245.88
426.291	261.88
426.513	242.88
426.735	234.88
426.958	230.88
427.18	256.88
427.402	325.88
427.625	362.88
427.847	311.88
428.069	240.88
428.292	257.88
428.514	232.88
428.736	212.88
428.958	234.88
429.181	292.88
429.403	261.88
429.625	235.88
429.847	239.88
430.069	230.88
430.292	229.88
430.514	217.88
430.736	244.88
430.958	265.88
431.18	256.88
431.402	219.88
431.624	212.88
431.846	224.88
432.068	212.88
432.29	222.88
432.512	233.88
432.734	283.88
432.956	262.88
433.178	204.88
433.4	192.88
433.622	212.88
433.844	217.88
434.066	254.88
434.287	240.88
434.509	253.88
434.731	261.88
434.953	259.88
435.175	233.88
435.397	276.88
435.618	243.88
435.84	213.88
436.062	214.88
436.284	226.88
436.505	207.88
436.727	223.88
436.949	211.88
437.17	214.88
437.392	219.88
437.614	224.88
437.835	201.88
438.057	202.88
438.278	224.88
438.5	304.88
438.721	321.88
438.943	220.88
439.165	208.88
439.386	194.88
439.608	204.88
439.829	197.88
440.05	220.88
440.272	216.88
440.493	242.88
440.715	278.88
440.936	255.88
441.158	230.88
441.379	248.88
441.6	258.88
441.822	257.88
442.043	235.88
442.264	216.88
442.486	238.88
442.707	222.88
442.928	228.88
443.149	233.88
443.371	243.88
443.592	224.88
443.813	241.88
444.034	225.88
444.255	248.88
444.476	250.88
444.698	246.88
444.919	246.88
445.14	362.88
445.361	296.88
445.582	259.88
445.803	235.88
446.024	219.88
446.245	221.88
446.466	241.88
446.687	238.88
446.908	223.88
447.129	200.88
447.35	198.88
447.571	204.88
447.792	230.88
448.013	215.88
448.234	201.88
448.455	204.88
448.675	222.88
448.896	222.88
449.117	202.88
449.338	209.88
449.559	213.88
449.779	223.88
450	233.88
450.221	210.88
450.442	201.88
450.662	202.88
450.883	213.88
451.104	232.88
451.324	204.88
451.545	211.88
451.766	214.88
451.986	210.88
452.207	216.88
452.428	220.88
452.648	215.88
452.869	201.88
453.089	226.88
453.31	209.88
453.53	203.88
453.751	199.88
453.971	200.88
454.192	209.88
454.412	209.88
454.633	210.88
454.853	202.88
455.073	206.88
455.294	187.88
455.514	209.88
455.734	182.88
455.955	196.88
456.175	208.88
456.395	211.88
456.616	181.88
456.836	198.88
457.056	192.88
457.276	186.88
457.497	211.88
457.717	196.88
457.937	197.88
458.157	186.88
458.377	174.88
458.598	187.88
458.818	185.88
459.038	213.88
459.258	211.88
459.478	227.88
459.698	240.88
459.918	234.88
460.138	222.88
460.358	239.88
460.578	260.88
460.798	242.88
461.018	235.88
461.238	240.88
461.458	224.88
461.678	247.88
461.898	243.88
462.118	223.88
462.338	240.88
462.558	248.88
462.777	259.88
462.997	266.88
463.217	285.88
463.437	309.88
463.657	281.88
463.876	269.88
464.096	254.88
464.316	267.88
464.536	259.88
464.755	260.88
464.975	260.88
465.195	238.88
465.414	253.88
465.634	254.88
465.854	258.88
466.073	217.88
466.293	216.88
466.512	241.88
466.732	256.88
466.951	259.88
467.171	246.88
467.391	211.88
467.61	228.88
467.829	226.88
468.049	234.88
468.268	235.88
468.488	228.88
468.707	224.88
468.927	264.88
469.146	263.88
469.365	244.88
469.585	224.88
469.804	227.88
470.023	253.88
470.243	259.88
470.462	228.88
470.681	230.88
470.901	226.88
471.12	225.88
471.339	232.88
471.558	225.88
471.777	236.88
471.997	243.88
472.216	269.88
472.435	256.88
472.654	238.88
472.873	230.88
473.092	232.88
473.311	256.88
473.53	233.88
473.749	227.88
473.968	230.88
474.187	235.88
474.406	231.88
474.625	235.88
474.844	234.88
475.063	228.88
475.282	239.88
475.501	247.88
475.72	273.88
475.939	260.88
476.158	244.88
476.377	288.88
476.596	313.88
476.814	333.88
477.033	280.88
477.252	251.88
477.471	258.88
477.69	223.88
477.908	259.88
478.127	267.88
478.346	260.88
478.564	284.88
478.783	263.88
479.002	273.88
479.22	290.88
479.439	310.88
479.658	287.88
479.876	264.88
480.095	287.88
480.313	292.88
480.532	288.88
480.751	263.88
480.969	268.88
481.188	286.88
481.406	320.88
481.624	289.88
481.843	269.88
482.061	280.88
482.28	270.88
482.498	356.88
482.717	323.88
482.935	281.88
483.153	251.88
483.372	252.88
483.59	252.88
483.808	255.88
484.027	253.88
484.245	236.88
484.463	228.88
484.681	231.88
484.9	246.88
485.118	258.88
485.336	262.88
485.554	230.88
485.772	258.88
485.99	278.88
486.209	295.88
486.427	279.88
486.645	296.88
486.863	296.88
487.081	280.88
487.299	302.88
487.517	317.88
487.735	281.88
487.953	288.88
488.171	282.88
488.389	268.88
488.607	242.88
488.825	267.88
489.043	275.88
489.261	315.88
489.479	330.88
489.696	302.88
489.914	284.88
490.132	255.88
490.35	262.88
490.568	256.88
490.786	258.88
491.003	251.88
491.221	281.88
491.439	268.88
491.657	265.88
491.874	274.88
492.092	299.88
492.31	369.88
492.527	348.88
492.745	334.88
492.963	302.88
493.18	277.88
493.398	300.88
493.615	264.88
493.833	282.88
494.05	304.88
494.268	264.88
494.485	280.88
494.703	272.88
494.92	274.88
495.138	286.88
495.355	270.88
495.573	277.88
495.79	306.88
496.008	366.88
496.225	319.88
496.442	283.88
496.66	299.88
496.877	321.88
497.094	323.88
497.312	295.88
497.529	291.88
497.746	285.88
497.963	294.88
498.181	316.88
498.398	351.88
498.615	363.88
498.832	386.88
499.049	384.88
499.267	373.88
499.484	404.88
499.701	396.88
499.918	424.88
500.135	468.88
500.352	512.88
500.569	531.88
500.786	533.88
501.003	530.88
501.22	463.88
501.437	425.88
501.654	380.88
501.871	393.88
502.088	368.88
502.305	358.88
502.522	342.88
502.739	354.88
502.956	302.88
503.172	306.88
503.389	303.88
503.606	299.88
503.823	308.88
504.04	324.88
504.256	302.88
504.473	317.88
504.69	326.88
504.907	328.88
505.123	303.88
505.34	314.88
505.557	307.88
505.773	307.88
505.99	287.88
506.207	310.88
506.423	267.88
506.64	255.88
506.856	280.88
507.073	311.88
507.289	281.88
507.506	285.88
507.722	316.88
507.939	338.88
508.155	321.88
508.372	274.88
508.588	297.88
508.805	283.88
509.021	271.88
509.238	275.88
509.454	274.88
509.67	272.88
509.887	275.88
510.103	295.88
510.319	308.88
510.536	288.88
510.752	260.88
510.968	240.88
511.184	250.88
511.401	239.88
511.617	231.88
511.833	245.88
512.049	242.88
512.265	265.88
512.481	272.88
512.698	270.88
512.914	302.88
513.13	282.88
513.346	268.88
513.562	282.88
513.778	274.88
513.994	243.88
514.21	281.88
514.426	266.88
514.642	257.88
514.858	260.88
515.074	277.88
515.29	279.88
515.506	320.88
515.721	313.88
515.937	299.88
516.153	270.88
516.369	282.88
516.585	290.88
516.801	324.88
517.016	367.88
517.232	347.88
517.448	347.88
517.664	334.88
517.879	319.88
518.095	317.88
518.311	302.88
518.527	309.88
518.742	337.88
518.958	337.88
519.173	325.88
519.389	317.88
519.605	315.88
519.82	331.88
520.036	385.88
520.251	352.88
520.467	350.88
520.682	545.88
520.898	674.88
521.113	617.88
521.329	395.88
521.544	343.88
521.76	340.88
521.975	315.88
522.19	282.88
522.406	313.88
522.621	326.88
522.836	335.88
523.052	317.88
523.267	283.88
523.482	264.88
523.698	291.88
523.913	316.88
524.128	280.88
524.343	266.88
524.559	257.88
524.774	283.88
524.989	252.88
525.204	274.88
525.419	292.88
525.634	297.88
525.849	284.88
526.064	308.88
526.28	291.88
526.495	335.88
526.71	341.88
526.925	298.88
527.14	316.88
527.355	306.88
527.57	268.88
527.785	262.88
527.999	276.88
528.214	239.88
528.429	256.88
528.644	254.88
528.859	229.88
529.074	240.88
529.289	225.88
529.503	244.88
529.718	259.88
529.933	294.88
530.148	291.88
530.363	260.88
530.577	259.88
530.792	258.88
531.007	249.88
531.221	236.88
531.436	252.88
531.651	238.88
531.865	246.88
532.08	242.88
532.295	232.88
532.509	260.88
532.724	265.88
532.938	304.88
533.153	342.88
533.367	296.88
533.582	278.88
533.796	261.88
534.011	260.88
534.225	260.88
534.44	238.88
534.654	266.88
534.868	305.88
535.083	273.88
535.297	268.88
535.511	242.88
535.726	295.88
535.94	258.88
536.154	256.88
536.369	254.88
536.583	240.88
536.797	241.88
537.011	228.88
537.225	260.88
537.44	282.88
537.654	265.88
537.868	226.88
538.082	254.88
538.296	231.88
538.51	267.88
538.724	254.88
538.938	256.88
539.153	256.88
539.367	242.88
539.581	253.88
539.795	231.88
540.009	270.88
540.222	274.88
540.436	255.88
540.65	250.88
540.864	253.88
541.078	289.88
541.292	314.88
541.506	258.88
541.72	258.88
541.934	239.88
542.147	231.88
542.361	244.88
542.575	244.88
542.789	254.88
543.002	232.88
543.216	261.88
543.43	252.88
543.644	259.88
543.857	216.88
544.071	223.88
544.285	252.88
544.498	227.88
544.712	237.88
544.925	248.88
545.139	240.88
545.352	232.88
545.566	226.88
545.779	235.88
545.993	239.88
546.206	225.88
546.42	230.88
546.633	220.88
546.847	225.88
547.06	213.88
547.274	212.88
547.487	209.88
547.7	254.88
547.914	264.88
548.127	271.88
548.34	263.88
548.554	238.88
548.767	246.88
548.98	245.88
549.193	244.88
549.407	253.88
549.62	289.88
549.833	276.88
550.046	278.88
550.259	268.88
550.473	251.88
550.686	223.88
550.899	238.88
551.112	234.88
551.325	275.88
551.538	267.88
551.751	246.88
551.964	234.88
552.177	222.88
552.39	226.88
552.603	227.88
552.816	248.88
553.029	237.88
553.242	252.88
553.455	239.88
553.667	283.88
553.88	259.88
554.093	240.88
554.306	235.88
554.519	224.88
554.732	208.88
554.944	210.88
555.157	199.88
555.37	195.88
555.583	201.88
555.795	216.88
556.008	222.88
556.221	206.88
556.433	209.88
556.646	209.88
556.859	185.88
557.071	208.88
557.284	207.88
557.496	203.88
557.709	215.88
557.921	227.88
558.134	192.88
558.346	199.88
558.559	209.88
558.771	184.88
558.984	223.88
559.196	211.88
559.409	198.88
559.621	188.88
559.833	191.88
560.046	198.88
560.258	178.88
560.47	208.88
560.683	194.88
560.895	192.88
561.107	196.88
561.32	191.88
561.532	194.88
561.744	197.88
561.956	207.88
562.168	198.88
562.381	204.88
562.593	204.88
562.805	204.88
563.017	194.88
563.229	189.88
563.441	184.88
563.653	197.88
563.865	194.88
564.077	185.88
564.289	192.88
564.501	188.88
564.713	218.88
564.925	200.88
565.137	190.88
565.349	201.88
565.561	223.88
565.773	188.88
565.985	221.88
566.197	231.88
566.408	254.88
566.62	242.88
566.832	252.88
567.044	234.88
567.255	265.88
567.467	283.88
567.679	271.88
567.891	293.88
568.102	294.88
568.314	258.88
568.526	255.88
568.737	238.88
568.949	242.88
569.161	215.88
569.372	202.88
569.584	195.88
569.795	216.88
570.007	204.88
570.218	208.88
570.43	202.88
570.641	192.88
570.853	196.88
571.064	207.88
571.276	195.88
571.487	195.88
571.698	199.88
571.91	206.88
572.121	202.88
572.333	180.88
572.544	176.88
572.755	199.88
572.966	185.88
573.178	184.88
573.389	196.88
573.6	203.88
573.811	187.88
574.023	182.88
574.234	175.88
574.445	200.88
574.656	172.88
574.867	179.88
575.078	188.88
575.289	163.88
575.501	182.88
575.712	166.88
575.923	167.88
576.134	176.88
576.345	162.88
576.556	159.88
576.767	160.88
576.978	182.88
577.188	167.88
577.399	174.88
577.61	181.88
577.821	153.88
578.032	160.88
578.243	177.88
578.454	176.88
578.665	175.88
578.875	162.88
579.086	182.88
579.297	142.88
579.508	188.88
579.718	176.88
579.929	188.88
580.14	172.88
580.35	187.88
580.561	159.88
580.772	160.88
580.982	171.88
581.193	171.88
581.403	166.88
581.614	159.88
581.825	158.88
582.035	159.88
582.246	166.88
582.456	165.88
582.667	164.88
582.877	144.88
583.087	156.88
583.298	147.88
583.508	155.88
583.719	157.88
583.929	164.88
584.139	160.88
584.35	136.88
584.56	166.88
584.77	156.88
584.981	164.88
585.191	149.88
585.401	168.88
585.611	161.88
585.821	170.88
586.032	176.88
586.242	162.88
586.452	174.88
586.662	159.88
586.872	160.88
587.082	153.88
587.292	156.88
587.502	158.88
587.713	170.88
587.923	163.88
588.133	171.88
588.343	168.88
588.553	156.88
588.762	140.88
588.972	143.88
589.182	154.88
589.392	170.88
589.602	169.88
589.812	151.88
590.022	171.88
590.232	159.88
590.441	167.88
590.651	159.88
590.861	158.88
591.071	150.88
591.281	164.88
591.49	150.88
591.7	162.88
591.91	170.88
592.119	155.88
592.329	161.88
592.539	154.88
592.748	163.88
592.958	167.88
593.167	164.88
593.377	184.88
593.587	180.88
593.796	192.88
594.006	175.88
594.215	164.88
594.424	174.88
594.634	178.88
594.843	175.88
595.053	165.88
595.262	160.88
595.472	179.88
595.681	164.88
595.89	157.88
596.1	159.88
596.309	160.88
596.518	161.88
596.727	152.88
596.937	174.88
597.146	138.88
597.355	158.88
597.564	150.88
597.774	152.88
597.983	149.88
598.192	141.88
598.401	141.88
598.61	135.88
598.819	140.88
599.028	138.88
599.237	139.88
599.446	143.88
599.655	135.88
599.864	147.88
600.073	140.88
600.282	141.88
600.491	142.88
600.7	151.88
600.909	157.88
601.118	140.88
601.327	139.88
601.536	139.88
601.745	141.88
601.953	158.88
602.162	147.88
602.371	155.88
602.58	146.88
602.789	151.88
602.997	141.88
603.206	140.88
603.415	156.88
603.623	136.88
603.832	142.88
604.041	130.88
604.249	151.88
604.458	139.88
604.666	142.88
604.875	142.88
605.084	132.88
605.292	126.88
605.501	147.88
605.709	126.88
605.918	128.88
606.126	160.88
606.334	146.88
606.543	141.88
606.751	145.88
606.96	136.88
607.168	128.88
607.376	145.88
607.585	135.88
607.793	134.88
608.001	126.88
608.21	146.88
608.418	132.88
608.626	136.88
608.834	135.88
609.043	144.88
609.251	136.88
609.459	140.88
609.667	151.88
609.875	130.88
610.083	137.88
610.291	142.88
610.499	131.88
610.707	149.88
610.916	127.88
611.124	126.88
611.332	133.88
611.54	139.88
611.748	135.88
611.955	142.88
612.163	134.88
612.371	138.88
612.579	132.88
612.787	146.88
612.995	122.88
613.203	125.88
613.411	127.88
613.618	126.88
613.826	140.88
614.034	150.88
614.242	148.88
614.449	144.88
614.657	131.88
614.865	141.88
615.072	156.88
615.28	124.88
615.488	124.88
615.695	135.88
615.903	119.88
616.111	124.88
616.318	131.88
616.526	120.88
616.733	144.88
616.941	141.88
617.148	139.88
617.356	148.88
617.563	131.88
617.771	120.88
617.978	121.88
618.185	130.88
618.393	125.88
618.6	133.88
618.807	128.88
619.015	138.88
619.222	139.88
619.429	131.88
619.637	122.88
619.844	112.88
620.051	140.88
620.258	130.88
620.466	134.88
620.673	127.88
620.88	128.88
621.087	127.88
621.294	125.88
621.501	132.88
621.708	125.88
621.915	130.88
622.122	116.88
622.329	111.88
622.536	120.88
622.743	140.88
622.95	125.88
623.157	138.88
623.364	149.88
623.571	143.88
623.778	124.88
623.985	133.88
624.192	135.88
624.399	122.88
624.606	132.88
624.812	119.88
625.019	124.88
625.226	128.88
625.433	130.88
625.639	114.88
625.846	114.88
626.053	123.88
626.259	119.88
626.466	138.88
626.673	134.88
626.879	124.88
627.086	115.88
627.293	104.88
627.499	119.88
627.706	131.88
627.912	123.88
628.119	113.88
628.325	124.88
628.532	117.88
628.738	132.88
628.945	128.88
629.151	121.88
629.357	117.88
629.564	105.88
629.77	130.88
629.976	120.88
630.183	122.88
630.389	122.88
630.595	126.88
630.802	122.88
631.008	112.88
631.214	118.88
631.42	132.88
631.627	132.88
631.833	130.88
632.039	117.88
632.245	113.88
632.451	114.88
632.657	115.88
632.863	124.88
633.069	109.88
633.275	104.88
633.481	119.88
633.688	112.88
633.893	122.88
634.099	112.88
634.305	120.88
634.511	134.88
634.717	116.88
634.923	119.88
635.129	119.88
635.335	108.88
635.541	104.88
635.747	131.88
635.952	109.88
636.158	127.88
636.364	117.88
636.57	119.88
636.775	117.88
636.981	113.88
637.187	104.88
637.392	116.88
637.598	122.88
637.804	113.88
638.009	108.88
638.215	124.88
638.421	108.88
638.626	115.88
638.832	136.88
639.037	124.88
639.243	96.88
639.448	114.88
639.654	112.88
639.859	117.88
640.065	101.88
640.27	108.88
640.475	122.88
640.681	113.88
640.886	122.88
641.091	131.88
641.297	120.88
641.502	122.88
641.707	112.88
641.913	122.88
642.118	110.88
642.323	106.88
642.528	107.88
642.733	118.88
642.939	126.88
643.144	123.88
643.349	121.88
643.554	119.88
643.759	110.88
643.964	103.88
644.169	110.88
644.374	104.88
644.579	104.88
644.784	115.88
644.989	107.88
645.194	118.88
645.399	110.88
645.604	114.88
645.809	118.88
646.014	115.88
646.219	111.88
646.423	118.88
646.628	105.88
646.833	122.88
647.038	120.88
647.243	110.88
647.447	121.88
647.652	97.88
647.857	114.88
648.062	113.88
648.266	101.88
648.471	111.88
648.676	115.88
648.88	114.88
649.085	117.88
649.289	108.88
649.494	103.88
649.698	105.88
649.903	98.88
650.107	95.88
650.312	114.88
650.516	123.88
650.721	106.88
650.925	106.88
651.13	103.88
651.334	96.88
651.539	108.88
651.743	115.88
651.947	113.88
652.152	114.88
652.356	112.88
652.56	100.88
652.764	108.88
652.969	89.88
653.173	99.88
653.377	100.88
653.581	97.88
653.785	87.88
653.99	97.88
654.194	116.88
654.398	87.88
654.602	89.88
654.806	100.88
655.01	105.88
655.214	110.88
655.418	98.88
655.622	105.88
655.826	93.88
656.03	94.88
656.234	105.88
656.438	100.88
656.642	107.88
656.846	95.88
657.049	95.88
657.253	109.88
657.457	99.88
657.661	104.88
657.865	106.88
658.068	93.88
658.272	97.88
658.476	85.88
658.68	94.88
658.883	82.88
659.087	102.88
659.291	92.88
659.494	90.88
659.698	106.88
659.901	91.88
660.105	73.88
660.309	84.88
660.512	80.88
660.716	84.88
660.919	89.88
661.123	104.88
661.326	83.88
661.53	87.88
661.733	81.88
661.936	94.88
662.14	90.88
662.343	77.88
662.546	86.88
662.75	85.88
662.953	95.88
663.156	80.88
663.36	82.88
663.563	88.88
663.766	83.88
663.969	91.88
664.173	87.88
664.376	87.88
664.579	92.88
664.782	88.88
664.985	88.88
665.188	81.88
665.391	93.88
665.594	84.88
665.797	92.88
666	79.88
666.203	79.88
666.406	84.88
666.609	92.88
666.812	81.88
667.015	75.88
667.218	77.88
667.421	87.88
667.624	78.88
667.827	81.88
668.03	85.88
668.232	76.88
668.435	87.88
668.638	87.88
668.841	79.88
669.043	95.88
669.246	82.88
669.449	75.88
669.651	100.88
669.854	87.88
670.057	76.88
670.259	82.88
670.462	101.88
670.665	82.88
670.867	79.88
671.07	85.88
671.272	68.88
671.475	89.88
671.677	90.88
671.88	82.88
672.082	80.88
672.284	90.88
672.487	80.88
672.689	75.88
672.892	84.88
