Data from NickelSpatula.Lamp.E10.P2_HRD10591_12-00-00-524.txt Node
Date: Tue Jul 23 12:00:00 EDT 2019
User: cochatt
Spectrometer: HR+D1059
Trigger mode: 1
Integration Time (sec): 1.000000E-1
Scans to average: 1
Electric dark correction enabled: true
Nonlinearity correction enabled: false
Boxcar width: 0
XAxis mode: Wavelengths
Number of Pixels in Spectrum: 2048
>>>>>Begin Spectral Data<<<<<
223.165	-18.62
223.4	-18.62
223.635	-18.62
223.869	-25.62
224.104	-14.62
224.338	-27.62
224.573	-27.62
224.808	-3.62
225.042	-0.62
225.277	-14.62
225.511	-0.62
225.746	2.38
225.98	11.38
226.215	15.38
226.449	32.38
226.683	20.38
226.918	26.38
227.152	25.38
227.387	47.38
227.621	25.38
227.856	39.38
228.09	46.38
228.324	40.38
228.559	60.38
228.793	67.38
229.027	151.38
229.262	157.38
229.496	151.38
229.73	165.38
229.964	190.38
230.199	201.38
230.433	217.38
230.667	211.38
230.901	201.38
231.136	204.38
231.37	201.38
231.604	219.38
231.838	259.38
232.072	260.38
232.306	237.38
232.541	225.38
232.775	259.38
233.009	263.38
233.243	293.38
233.477	321.38
233.711	345.38
233.945	331.38
234.179	323.38
234.413	343.38
234.647	392.38
234.881	471.38
235.115	455.38
235.349	411.38
235.583	368.38
235.817	347.38
236.051	371.38
236.285	411.38
236.519	472.38
236.753	435.38
236.987	423.38
237.221	399.38
237.455	396.38
237.689	441.38
237.922	465.38
238.156	467.38
238.39	567.38
238.624	657.38
238.858	597.38
239.091	508.38
239.325	508.38
239.559	469.38
239.793	552.38
240.027	655.38
240.26	615.38
240.494	578.38
240.728	610.38
240.961	706.38
241.195	640.38
241.429	635.38
241.662	623.38
241.896	528.38
242.13	476.38
242.363	456.38
242.597	487.38
242.83	562.38
243.064	549.38
243.298	588.38
243.531	647.38
243.765	643.38
243.998	648.38
244.232	603.38
244.465	603.38
244.699	592.38
244.932	675.38
245.166	633.38
245.399	567.38
245.633	564.38
245.866	585.38
246.099	600.38
246.333	735.38
246.566	792.38
246.8	778.38
247.033	754.38
247.266	691.38
247.5	697.38
247.733	694.38
247.966	668.38
248.2	712.38
248.433	765.38
248.666	867.38
248.899	877.38
249.133	864.38
249.366	1011.38
249.599	1075.38
249.832	961.38
250.066	827.38
250.299	848.38
250.532	844.38
250.765	817.38
250.998	756.38
251.231	739.38
251.465	818.38
251.698	844.38
251.931	808.38
252.164	854.38
252.397	925.38
252.63	1086.38
252.863	1197.38
253.096	1203.38
253.329	1185.38
253.562	1098.38
253.795	1220.38
254.028	1358.38
254.261	1415.38
254.494	1263.38
254.727	1163.38
254.96	1177.38
255.193	1202.38
255.426	1124.38
255.659	897.38
255.892	787.38
256.124	875.38
256.357	1088.38
256.59	1201.38
256.823	1148.38
257.056	1020.38
257.289	930.38
257.521	978.38
257.754	1136.38
257.987	1293.38
258.22	1118.38
258.452	991.38
258.685	1202.38
258.918	1309.38
259.151	1291.38
259.383	1325.38
259.616	1503.38
259.849	1607.38
260.081	1718.38
260.314	1959.38
260.547	1463.38
260.779	1470.38
261.012	1682.38
261.244	1649.38
261.477	1632.38
261.71	1569.38
261.942	1290.38
262.175	1293.38
262.407	1261.38
262.64	1289.38
262.872	1540.38
263.105	1687.38
263.337	1766.38
263.57	1603.38
263.802	1057.38
264.035	923.38
264.267	890.38
264.499	790.38
264.732	732.38
264.964	692.38
265.197	717.38
265.429	800.38
265.661	809.38
265.894	860.38
266.126	911.38
266.358	1025.38
266.591	1282.38
266.823	1531.38
267.055	1397.38
267.287	1255.38
267.52	1240.38
267.752	1338.38
267.984	1473.38
268.216	1369.38
268.448	1137.38
268.681	1137.38
268.913	1176.38
269.145	1269.38
269.377	1315.38
269.609	1303.38
269.841	1252.38
270.073	1337.38
270.306	1395.38
270.538	1395.38
270.77	1442.38
271.002	1456.38
271.234	1469.38
271.466	1545.38
271.698	1479.38
271.93	1447.38
272.162	1462.38
272.394	1441.38
272.626	1425.38
272.858	1476.38
273.09	1514.38
273.322	1379.38
273.553	1316.38
273.785	1550.38
274.017	2001.38
274.249	2461.38
274.481	2553.38
274.713	2777.38
274.945	3240.38
275.176	3306.38
275.408	2905.38
275.64	2679.38
275.872	2669.38
276.104	2235.38
276.335	1912.38
276.567	1907.38
276.799	1992.38
277.031	2061.38
277.262	1627.38
277.494	1255.38
277.726	1226.38
277.957	1375.38
278.189	1524.38
278.421	1486.38
278.652	1478.38
278.884	1382.38
279.115	1281.38
279.347	1236.38
279.579	1211.38
279.81	1205.38
280.042	1214.38
280.273	1276.38
280.505	1160.38
280.736	1052.38
280.968	1031.38
281.199	1096.38
281.431	1267.38
281.662	1223.38
281.894	1188.38
282.125	1243.38
282.356	1365.38
282.588	1388.38
282.819	1241.38
283.051	1394.38
283.282	1749.38
283.513	1965.38
283.745	2175.38
283.976	2195.38
284.207	2056.38
284.439	2161.38
284.67	2069.38
284.901	1821.38
285.132	1950.38
285.364	2026.38
285.595	1899.38
285.826	1985.38
286.057	2065.38
286.288	1985.38
286.52	2041.38
286.751	2149.38
286.982	2091.38
287.213	1839.38
287.444	1806.38
287.675	1870.38
287.906	1831.38
288.138	1560.38
288.369	1391.38
288.6	1333.38
288.831	1369.38
289.062	1552.38
289.293	1716.38
289.524	1599.38
289.755	1597.38
289.986	1656.38
290.217	1437.38
290.448	1103.38
290.679	971.38
290.91	895.38
291.141	918.38
291.371	989.38
291.602	1000.38
291.833	1019.38
292.064	1077.38
292.295	1258.38
292.526	1409.38
292.757	1508.38
292.987	1545.38
293.218	1568.38
293.449	1649.38
293.68	1715.38
293.91	1617.38
294.141	1640.38
294.372	1531.38
294.603	1415.38
294.833	1598.38
295.064	1883.38
295.295	1765.38
295.525	1346.38
295.756	1177.38
295.987	1019.38
296.217	1023.38
296.448	1077.38
296.679	1129.38
296.909	1240.38
297.14	1365.38
297.37	1478.38
297.601	1394.38
297.831	1189.38
298.062	1291.38
298.292	1499.38
298.523	1629.38
298.753	1827.38
298.984	1641.38
299.214	1287.38
299.445	1109.38
299.675	1073.38
299.905	1084.38
300.136	1128.38
300.366	1230.38
300.597	1192.38
300.827	1056.38
301.057	1010.38
301.288	1041.38
301.518	1137.38
301.748	1248.38
301.979	1371.38
302.209	1474.38
302.439	1550.38
302.669	1307.38
302.9	1293.38
303.13	1188.38
303.36	1149.38
303.59	1111.38
303.82	1131.38
304.051	1261.38
304.281	1360.38
304.511	1334.38
304.741	1195.38
304.971	1229.38
305.201	1321.38
305.431	1232.38
305.661	1072.38
305.891	1118.38
306.121	1121.38
306.352	993.38
306.582	876.38
306.812	894.38
307.042	905.38
307.272	832.38
307.502	852.38
307.731	895.38
307.961	967.38
308.191	877.38
308.421	841.38
308.651	850.38
308.881	817.38
309.111	779.38
309.341	815.38
309.571	872.38
309.8	943.38
310.03	979.38
310.26	1045.38
310.49	1034.38
310.72	891.38
310.949	883.38
311.179	898.38
311.409	935.38
311.639	1115.38
311.868	1397.38
312.098	1832.38
312.328	1980.38
312.557	1897.38
312.787	1883.38
313.017	1667.38
313.246	1820.38
313.476	1980.38
313.706	1612.38
313.935	1324.38
314.165	1070.38
314.394	989.38
314.624	999.38
314.853	1043.38
315.083	1068.38
315.312	1040.38
315.542	1010.38
315.771	1000.38
316.001	871.38
316.23	857.38
316.46	854.38
316.689	856.38
316.919	884.38
317.148	911.38
317.377	901.38
317.607	880.38
317.836	968.38
318.065	1115.38
318.295	1247.38
318.524	1157.38
318.753	999.38
318.983	959.38
319.212	964.38
319.441	1006.38
319.67	1197.38
319.9	1235.38
320.129	1169.38
320.358	1029.38
320.587	979.38
320.816	1056.38
321.046	1200.38
321.275	1393.38
321.504	1383.38
321.733	1330.38
321.962	1285.38
322.191	1177.38
322.42	1158.38
322.649	1198.38
322.878	1281.38
323.108	1242.38
323.337	1117.38
323.566	1134.38
323.795	1067.38
324.024	1037.38
324.253	996.38
324.482	1007.38
324.71	1103.38
324.939	1212.38
325.168	1157.38
325.397	932.38
325.626	935.38
325.855	944.38
326.084	932.38
326.313	904.38
326.542	856.38
326.77	919.38
326.999	909.38
327.228	980.38
327.457	1036.38
327.686	1030.38
327.914	921.38
328.143	879.38
328.372	854.38
328.6	869.38
328.829	908.38
329.058	918.38
329.287	917.38
329.515	941.38
329.744	890.38
329.972	869.38
330.201	834.38
330.43	851.38
330.658	978.38
330.887	1119.38
331.115	1027.38
331.344	1005.38
331.572	993.38
331.801	892.38
332.03	890.38
332.258	879.38
332.486	1027.38
332.715	993.38
332.943	921.38
333.172	920.38
333.4	946.38
333.629	1035.38
333.857	1128.38
334.085	1121.38
334.314	1142.38
334.542	1062.38
334.771	995.38
334.999	967.38
335.227	946.38
335.455	953.38
335.684	1051.38
335.912	1218.38
336.14	1355.38
336.369	1315.38
336.597	1236.38
336.825	1375.38
337.053	1549.38
337.281	1275.38
337.51	1006.38
337.738	987.38
337.966	1076.38
338.194	1224.38
338.422	1137.38
338.65	982.38
338.878	927.38
339.106	938.38
339.334	1028.38
339.562	1112.38
339.79	996.38
340.018	975.38
340.246	1082.38
340.474	1211.38
340.702	1314.38
340.93	1369.38
341.158	1387.38
341.386	1175.38
341.614	1149.38
341.842	1144.38
342.07	1181.38
342.298	1363.38
342.526	1435.38
342.754	1245.38
342.981	1140.38
343.209	1083.38
343.437	1158.38
343.665	1191.38
343.893	1220.38
344.12	1429.38
344.348	1677.38
344.576	1471.38
344.804	1256.38
345.031	1079.38
345.259	987.38
345.487	1043.38
345.714	1059.38
345.942	1137.38
346.17	1265.38
346.397	1169.38
346.625	1041.38
346.853	1005.38
347.08	955.38
347.308	1012.38
347.535	1144.38
347.763	1161.38
347.99	1050.38
348.218	903.38
348.445	981.38
348.673	980.38
348.9	981.38
349.128	1049.38
349.355	1128.38
349.583	1109.38
349.81	1048.38
350.037	955.38
350.265	861.38
350.492	816.38
350.72	815.38
350.947	865.38
351.174	896.38
351.402	980.38
351.629	1007.38
351.856	962.38
352.083	918.38
352.311	1019.38
352.538	1134.38
352.765	1219.38
352.992	1088.38
353.22	1022.38
353.447	1059.38
353.674	1031.38
353.901	995.38
354.128	1000.38
354.355	1017.38
354.583	1028.38
354.81	1021.38
355.037	1044.38
355.264	1029.38
355.491	1154.38
355.718	1260.38
355.945	1187.38
356.172	1139.38
356.399	1137.38
356.626	1402.38
356.853	1758.38
357.08	1819.38
357.307	1901.38
357.534	1453.38
357.761	1489.38
357.988	1829.38
358.215	2146.38
358.441	2080.38
358.668	1710.38
358.895	1588.38
359.122	1287.38
359.349	1273.38
359.576	1370.38
359.802	1151.38
360.029	973.38
360.256	1118.38
360.483	1345.38
360.709	1684.38
360.936	1769.38
361.163	1484.38
361.39	1173.38
361.616	1121.38
361.843	1300.38
362.07	1572.38
362.296	1467.38
362.523	1141.38
362.749	982.38
362.976	1042.38
363.203	1251.38
363.429	1403.38
363.656	1145.38
363.882	1035.38
364.109	1037.38
364.335	1042.38
364.562	1024.38
364.788	1164.38
365.015	1398.38
365.241	1238.38
365.468	987.38
365.694	861.38
365.92	821.38
366.147	831.38
366.373	817.38
366.599	805.38
366.826	829.38
367.052	851.38
367.278	881.38
367.505	818.38
367.731	929.38
367.957	1085.38
368.184	1084.38
368.41	1070.38
368.636	1060.38
368.862	1095.38
369.089	1073.38
369.315	972.38
369.541	921.38
369.767	911.38
369.993	867.38
370.219	905.38
370.445	943.38
370.672	1080.38
370.898	1153.38
371.124	1140.38
371.35	978.38
371.576	925.38
371.802	1016.38
372.028	1233.38
372.254	1397.38
372.48	1175.38
372.706	1083.38
372.932	1153.38
373.158	1191.38
373.384	1438.38
373.61	1956.38
373.835	1990.38
374.061	1462.38
374.287	1216.38
374.513	1435.38
374.739	1767.38
374.965	1781.38
375.191	1748.38
375.416	1193.38
375.642	1083.38
375.868	1244.38
376.094	1433.38
376.319	1221.38
376.545	1368.38
376.771	1410.38
376.997	1215.38
377.222	889.38
377.448	757.38
377.674	783.38
377.899	764.38
378.125	759.38
378.35	789.38
378.576	804.38
378.802	883.38
379.027	945.38
379.253	921.38
379.478	957.38
379.704	1075.38
379.929	1171.38
380.155	1166.38
380.38	973.38
380.606	1019.38
380.831	1164.38
381.057	1087.38
381.282	999.38
381.507	1239.38
381.733	1519.38
381.958	1636.38
382.184	1742.38
382.409	1840.38
382.634	1776.38
382.86	1869.38
383.085	1529.38
383.31	1203.38
383.535	1260.38
383.761	1310.38
383.986	1243.38
384.211	1519.38
384.436	1440.38
384.662	1081.38
384.887	1032.38
385.112	1055.38
385.337	1090.38
385.562	1028.38
385.787	1150.38
386.013	1323.38
386.238	1327.38
386.463	1069.38
386.688	1026.38
386.913	994.38
387.138	907.38
387.363	1034.38
387.588	1006.38
387.813	1005.38
388.038	1140.38
388.263	1023.38
388.488	1024.38
388.713	1163.38
388.938	1259.38
389.163	1068.38
389.387	941.38
389.612	937.38
389.837	984.38
390.062	1011.38
390.287	1020.38
390.512	1059.38
390.736	993.38
390.961	911.38
391.186	868.38
391.411	847.38
391.636	908.38
391.86	957.38
392.085	1064.38
392.31	1047.38
392.534	985.38
392.759	972.38
392.984	1029.38
393.208	1015.38
393.433	906.38
393.658	837.38
393.882	831.38
394.107	831.38
394.331	808.38
394.556	817.38
394.78	825.38
395.005	881.38
395.229	889.38
395.454	896.38
395.678	905.38
395.903	937.38
396.127	900.38
396.352	917.38
396.576	1055.38
396.801	1062.38
397.025	1169.38
397.249	1205.38
397.474	985.38
397.698	929.38
397.922	997.38
398.147	920.38
398.371	937.38
398.595	997.38
398.82	948.38
399.044	959.38
399.268	1030.38
399.492	1060.38
399.717	1057.38
399.941	1108.38
400.165	1102.38
400.389	1069.38
400.613	1102.38
400.837	1037.38
401.062	959.38
401.286	918.38
401.51	920.38
401.734	927.38
401.958	902.38
402.182	913.38
402.406	939.38
402.63	934.38
402.854	990.38
403.078	1086.38
403.302	1382.38
403.526	1407.38
403.75	1261.38
403.974	1055.38
404.198	1107.38
404.422	1259.38
404.645	1508.38
404.869	1699.38
405.093	1190.38
405.317	1039.38
405.541	1027.38
405.765	1062.38
405.988	1047.38
406.212	1147.38
406.436	1324.38
406.66	1480.38
406.883	1179.38
407.107	1236.38
407.331	1423.38
407.555	1352.38
407.778	1112.38
408.002	1069.38
408.226	1091.38
408.449	1061.38
408.673	1021.38
408.896	963.38
409.12	936.38
409.344	946.38
409.567	907.38
409.791	899.38
410.014	906.38
410.238	893.38
410.461	920.38
410.685	921.38
410.908	909.38
411.132	936.38
411.355	945.38
411.578	968.38
411.802	959.38
412.025	1020.38
412.249	1030.38
412.472	986.38
412.695	966.38
412.919	944.38
413.142	1007.38
413.365	1075.38
413.589	1092.38
413.812	965.38
414.035	935.38
414.258	963.38
414.482	1070.38
414.705	1110.38
414.928	955.38
415.151	893.38
415.374	896.38
415.597	933.38
415.821	962.38
416.044	905.38
416.267	911.38
416.49	886.38
416.713	875.38
416.936	859.38
417.159	905.38
417.382	937.38
417.605	900.38
417.828	907.38
418.051	927.38
418.274	952.38
418.497	950.38
418.72	949.38
418.943	972.38
419.166	1041.38
419.389	1067.38
419.611	1053.38
419.834	1071.38
420.057	1157.38
420.28	1163.38
420.503	1058.38
420.726	952.38
420.948	880.38
421.171	901.38
421.394	907.38
421.617	893.38
421.839	896.38
422.062	952.38
422.285	937.38
422.507	959.38
422.73	987.38
422.953	993.38
423.175	989.38
423.398	997.38
423.621	1044.38
423.843	1091.38
424.066	1007.38
424.288	973.38
424.511	915.38
424.733	931.38
424.956	1002.38
425.178	1141.38
425.401	1293.38
425.623	1442.38
425.846	1179.38
426.068	1024.38
426.291	1155.38
426.513	1062.38
426.735	962.38
426.958	1023.38
427.18	1211.38
427.402	1558.38
427.625	1525.38
427.847	1207.38
428.069	920.38
428.292	939.38
428.514	906.38
428.736	885.38
428.958	1013.38
429.181	1168.38
429.403	997.38
429.625	909.38
429.847	892.38
430.069	923.38
430.292	926.38
430.514	873.38
430.736	1010.38
430.958	1265.38
431.18	1113.38
431.402	855.38
431.624	822.38
431.846	825.38
432.068	794.38
432.29	843.38
432.512	954.38
432.734	1277.38
432.956	1176.38
433.178	897.38
433.4	852.38
433.622	869.38
433.844	913.38
434.066	968.38
434.287	917.38
434.509	894.38
434.731	927.38
434.953	931.38
435.175	943.38
435.397	1076.38
435.618	900.38
435.84	866.38
436.062	830.38
436.284	855.38
436.505	808.38
436.727	811.38
436.949	826.38
437.17	864.38
437.392	873.38
437.614	848.38
437.835	850.38
438.057	848.38
438.278	1012.38
438.5	1455.38
438.721	1413.38
438.943	961.38
439.165	822.38
439.386	811.38
439.608	773.38
439.829	788.38
440.05	782.38
440.272	859.38
440.493	1045.38
440.715	1291.38
440.936	1022.38
441.158	872.38
441.379	897.38
441.6	995.38
441.822	1056.38
442.043	903.38
442.264	896.38
442.486	904.38
442.707	895.38
442.928	885.38
443.149	895.38
443.371	915.38
443.592	949.38
443.813	940.38
444.034	919.38
444.255	948.38
444.476	977.38
444.698	965.38
444.919	973.38
445.14	1075.38
445.361	1042.38
445.582	988.38
445.803	978.38
446.024	953.38
446.245	936.38
446.466	944.38
446.687	899.38
446.908	890.38
447.129	843.38
447.35	837.38
447.571	815.38
447.792	800.38
448.013	777.38
448.234	777.38
448.455	784.38
448.675	830.38
448.896	804.38
449.117	827.38
449.338	831.38
449.559	825.38
449.779	894.38
450	896.38
450.221	851.38
450.442	823.38
450.662	811.38
450.883	841.38
451.104	828.38
451.324	798.38
451.545	809.38
451.766	835.38
451.986	782.38
452.207	789.38
452.428	775.38
452.648	807.38
452.869	848.38
453.089	867.38
453.31	868.38
453.53	752.38
453.751	771.38
453.971	763.38
454.192	784.38
454.412	792.38
454.633	776.38
454.853	779.38
455.073	738.38
455.294	734.38
455.514	734.38
455.734	783.38
455.955	835.38
456.175	845.38
456.395	761.38
456.616	712.38
456.836	726.38
457.056	703.38
457.276	717.38
457.497	735.38
457.717	727.38
457.937	733.38
458.157	702.38
458.377	765.38
458.598	771.38
458.818	808.38
459.038	845.38
459.258	824.38
459.478	852.38
459.698	908.38
459.918	914.38
460.138	907.38
460.358	905.38
460.578	871.38
460.798	886.38
461.018	906.38
461.238	845.38
461.458	869.38
461.678	890.38
461.898	962.38
462.118	948.38
462.338	935.38
462.558	984.38
462.777	1007.38
462.997	1005.38
463.217	1027.38
463.437	1051.38
463.657	1028.38
463.876	1001.38
464.096	989.38
464.316	971.38
464.536	997.38
464.755	1054.38
464.975	1046.38
465.195	947.38
465.414	1013.38
465.634	1016.38
465.854	949.38
466.073	853.38
466.293	892.38
466.512	935.38
466.732	1050.38
466.951	1057.38
467.171	956.38
467.391	899.38
467.61	887.38
467.829	940.38
468.049	939.38
468.268	883.38
468.488	910.38
468.707	915.38
468.927	1085.38
469.146	1162.38
469.365	1049.38
469.585	970.38
469.804	1052.38
470.023	1129.38
470.243	1007.38
470.462	929.38
470.681	920.38
470.901	981.38
471.12	999.38
471.339	973.38
471.558	905.38
471.777	971.38
471.997	1040.38
472.216	1177.38
472.435	1073.38
472.654	980.38
472.873	965.38
473.092	1019.38
473.311	1084.38
473.53	967.38
473.749	941.38
473.968	991.38
474.187	1009.38
474.406	960.38
474.625	944.38
474.844	972.38
475.063	1070.38
475.282	1060.38
475.501	1109.38
475.72	1162.38
475.939	1143.38
476.158	1128.38
476.377	1293.38
476.596	1488.38
476.814	1520.38
477.033	1280.38
477.252	1078.38
477.471	1000.38
477.69	1027.38
477.908	1122.38
478.127	1164.38
478.346	1067.38
478.564	1163.38
478.783	1112.38
479.002	1139.38
479.22	1288.38
479.439	1451.38
479.658	1269.38
479.876	1115.38
480.095	1221.38
480.313	1237.38
480.532	1174.38
480.751	1107.38
480.969	1141.38
481.188	1299.38
481.406	1308.38
481.624	1235.38
481.843	1158.38
482.061	1080.38
482.28	1214.38
482.498	1473.38
482.717	1423.38
482.935	1264.38
483.153	1129.38
483.372	1096.38
483.59	1064.38
483.808	1043.38
484.027	1064.38
484.245	993.38
484.463	1028.38
484.681	1034.38
484.9	1151.38
485.118	1219.38
485.336	1118.38
485.554	1055.38
485.772	1117.38
485.99	1196.38
486.209	1273.38
486.427	1243.38
486.645	1230.38
486.863	1235.38
487.081	1223.38
487.299	1432.38
487.517	1402.38
487.735	1233.38
487.953	1245.38
488.171	1320.38
488.389	1154.38
488.607	1111.38
488.825	1209.38
489.043	1291.38
489.261	1489.38
489.479	1620.38
489.696	1328.38
489.914	1209.38
490.132	1127.38
490.35	1167.38
490.568	1175.38
490.786	1160.38
491.003	1168.38
491.221	1206.38
491.439	1134.38
491.657	1146.38
491.874	1234.38
492.092	1529.38
492.31	1843.38
492.527	1792.38
492.745	1556.38
492.963	1359.38
493.18	1309.38
493.398	1297.38
493.615	1303.38
493.833	1283.38
494.05	1243.38
494.268	1286.38
494.485	1221.38
494.703	1225.38
494.92	1282.38
495.138	1269.38
495.355	1221.38
495.573	1234.38
495.79	1417.38
496.008	1929.38
496.225	1638.38
496.442	1403.38
496.66	1373.38
496.877	1466.38
497.094	1419.38
497.312	1344.38
497.529	1349.38
497.746	1327.38
497.963	1434.38
498.181	1535.38
498.398	1585.38
498.615	1663.38
498.832	1758.38
499.049	1734.38
499.267	1557.38
499.484	1583.38
499.701	1656.38
499.918	1779.38
500.135	1930.38
500.352	1943.38
500.569	2060.38
500.786	2134.38
501.003	2057.38
501.22	1859.38
501.437	1760.38
501.654	1712.38
501.871	1688.38
502.088	1727.38
502.305	1545.38
502.522	1523.38
502.739	1521.38
502.956	1430.38
503.172	1373.38
503.389	1320.38
503.606	1304.38
503.823	1323.38
504.04	1332.38
504.256	1340.38
504.473	1365.38
504.69	1378.38
504.907	1431.38
505.123	1391.38
505.34	1507.38
505.557	1448.38
505.773	1360.38
505.99	1348.38
506.207	1382.38
506.423	1289.38
506.64	1209.38
506.856	1277.38
507.073	1378.38
507.289	1380.38
507.506	1378.38
507.722	1429.38
507.939	1480.38
508.155	1468.38
508.372	1322.38
508.588	1313.38
508.805	1252.38
509.021	1213.38
509.238	1236.38
509.454	1187.38
509.67	1187.38
509.887	1212.38
510.103	1337.38
510.319	1348.38
510.536	1195.38
510.752	1117.38
510.968	1100.38
511.184	1045.38
511.401	1058.38
511.617	1063.38
511.833	1072.38
512.049	1077.38
512.265	1122.38
512.481	1117.38
512.698	1306.38
512.914	1384.38
513.13	1260.38
513.346	1167.38
513.562	1209.38
513.778	1214.38
513.994	1204.38
514.21	1277.38
514.426	1231.38
514.642	1168.38
514.858	1156.38
515.074	1215.38
515.29	1311.38
515.506	1436.38
515.721	1349.38
515.937	1246.38
516.153	1171.38
516.369	1179.38
516.585	1256.38
516.801	1439.38
517.016	1647.38
517.232	1581.38
517.448	1550.38
517.664	1383.38
517.879	1310.38
518.095	1283.38
518.311	1291.38
518.527	1356.38
518.742	1435.38
518.958	1493.38
519.173	1433.38
519.389	1446.38
519.605	1475.38
519.82	1560.38
520.036	1794.38
520.251	1707.38
520.467	1629.38
520.682	2521.38
520.898	3069.38
521.113	2905.38
521.329	1793.38
521.544	1549.38
521.76	1534.38
521.975	1393.38
522.19	1314.38
522.406	1340.38
522.621	1485.38
522.836	1567.38
523.052	1609.38
523.267	1336.38
523.482	1353.38
523.698	1430.38
523.913	1401.38
524.128	1225.38
524.343	1215.38
524.559	1188.38
524.774	1157.38
524.989	1192.38
525.204	1224.38
525.419	1325.38
525.634	1211.38
525.849	1269.38
526.064	1256.38
526.28	1316.38
526.495	1537.38
526.71	1592.38
526.925	1399.38
527.14	1431.38
527.355	1418.38
527.57	1191.38
527.785	1240.38
527.999	1178.38
528.214	1093.38
528.429	1077.38
528.644	1117.38
528.859	1058.38
529.074	1015.38
529.289	1031.38
529.503	1029.38
529.718	1083.38
529.933	1213.38
530.148	1263.38
530.363	1077.38
530.577	1053.38
530.792	1018.38
531.007	1000.38
531.221	1005.38
531.436	1022.38
531.651	1011.38
531.865	1041.38
532.08	1036.38
532.295	1024.38
532.509	1111.38
532.724	1212.38
532.938	1382.38
533.153	1557.38
533.367	1250.38
533.582	1215.38
533.796	1074.38
534.011	1073.38
534.225	1059.38
534.44	1091.38
534.654	1142.38
534.868	1291.38
535.083	1129.38
535.297	1053.38
535.511	1007.38
535.726	1147.38
535.94	1104.38
536.154	1059.38
536.369	993.38
536.583	1008.38
536.797	1021.38
537.011	1032.38
537.225	1153.38
537.44	1227.38
537.654	1047.38
537.868	1025.38
538.082	1059.38
538.296	1058.38
538.51	1099.38
538.724	1140.38
538.938	1099.38
539.153	1013.38
539.367	982.38
539.581	1036.38
539.795	1083.38
540.009	1188.38
540.222	1079.38
540.436	1086.38
540.65	1195.38
540.864	1220.38
541.078	1238.38
541.292	1400.38
541.506	1143.38
541.72	1076.38
541.934	1061.38
542.147	1046.38
542.361	1075.38
542.575	1127.38
542.789	1078.38
543.002	982.38
543.216	1084.38
543.43	973.38
543.644	984.38
543.857	975.38
544.071	1004.38
544.285	968.38
544.498	924.38
544.712	934.38
544.925	1044.38
545.139	957.38
545.352	919.38
545.566	921.38
545.779	1076.38
545.993	989.38
546.206	905.38
546.42	927.38
546.633	927.38
546.847	861.38
547.06	869.38
547.274	896.38
547.487	893.38
547.7	995.38
547.914	1033.38
548.127	1141.38
548.34	1117.38
548.554	984.38
548.767	1024.38
548.98	1083.38
549.193	989.38
549.407	1008.38
549.62	1203.38
549.833	1143.38
550.046	1191.38
550.259	1174.38
550.473	1051.38
550.686	963.38
550.899	992.38
551.112	1005.38
551.325	1103.38
551.538	1123.38
551.751	953.38
551.964	909.38
552.177	923.38
552.39	879.38
552.603	910.38
552.816	960.38
553.029	898.38
553.242	895.38
553.455	957.38
553.667	1010.38
553.88	982.38
554.093	896.38
554.306	836.38
554.519	828.38
554.732	814.38
554.944	765.38
555.157	784.38
555.37	795.38
555.583	790.38
555.795	790.38
556.008	798.38
556.221	824.38
556.433	807.38
556.646	802.38
556.859	789.38
557.071	835.38
557.284	848.38
557.496	860.38
557.709	835.38
557.921	820.38
558.134	740.38
558.346	725.38
558.559	729.38
558.771	773.38
558.984	846.38
559.196	812.38
559.409	732.38
559.621	717.38
559.833	740.38
560.046	741.38
560.258	755.38
560.47	783.38
560.683	755.38
560.895	687.38
561.107	692.38
561.32	695.38
561.532	716.38
561.744	786.38
561.956	790.38
562.168	723.38
562.381	719.38
562.593	740.38
562.805	778.38
563.017	731.38
563.229	689.38
563.441	681.38
563.653	689.38
563.865	706.38
564.077	704.38
564.289	680.38
564.501	695.38
564.713	769.38
564.925	736.38
565.137	696.38
565.349	687.38
565.561	734.38
565.773	726.38
565.985	727.38
566.197	781.38
566.408	857.38
566.62	855.38
566.832	864.38
567.044	864.38
567.255	900.38
567.467	991.38
567.679	882.38
567.891	889.38
568.102	893.38
568.314	895.38
568.526	889.38
568.737	829.38
568.949	873.38
569.161	770.38
569.372	708.38
569.584	714.38
569.795	684.38
570.007	706.38
570.218	763.38
570.43	716.38
570.641	697.38
570.853	687.38
571.064	673.38
571.276	689.38
571.487	741.38
571.698	709.38
571.91	686.38
572.121	675.38
572.333	619.38
572.544	645.38
572.755	638.38
572.966	636.38
573.178	615.38
573.389	649.38
573.6	643.38
573.811	610.38
574.023	580.38
574.234	570.38
574.445	589.38
574.656	592.38
574.867	579.38
575.078	592.38
575.289	584.38
575.501	632.38
575.712	595.38
575.923	556.38
576.134	546.38
576.345	549.38
576.556	577.38
576.767	541.38
576.978	557.38
577.188	519.38
577.399	501.38
577.61	534.38
577.821	533.38
578.032	560.38
578.243	589.38
578.454	606.38
578.665	574.38
578.875	568.38
579.086	574.38
579.297	573.38
579.508	579.38
579.718	574.38
579.929	562.38
580.14	558.38
580.35	512.38
580.561	477.38
580.772	503.38
580.982	491.38
581.193	491.38
581.403	463.38
581.614	491.38
581.825	457.38
582.035	465.38
582.246	470.38
582.456	480.38
582.667	476.38
582.877	476.38
583.087	439.38
583.298	478.38
583.508	462.38
583.719	449.38
583.929	463.38
584.139	477.38
584.35	472.38
584.56	483.38
584.77	494.38
584.981	483.38
585.191	482.38
585.401	463.38
585.611	513.38
585.821	510.38
586.032	509.38
586.242	485.38
586.452	485.38
586.662	469.38
586.872	505.38
587.082	507.38
587.292	483.38
587.502	461.38
587.713	473.38
587.923	479.38
588.133	521.38
588.343	496.38
588.553	473.38
588.762	463.38
588.972	475.38
589.182	471.38
589.392	464.38
589.602	472.38
589.812	485.38
590.022	504.38
590.232	516.38
590.441	460.38
590.651	444.38
590.861	459.38
591.071	482.38
591.281	460.38
591.49	445.38
591.7	467.38
591.91	435.38
592.119	460.38
592.329	443.38
592.539	458.38
592.748	449.38
592.958	465.38
593.167	478.38
593.377	491.38
593.587	521.38
593.796	488.38
594.006	480.38
594.215	488.38
594.424	493.38
594.634	503.38
594.843	486.38
595.053	472.38
595.262	447.38
595.472	452.38
595.681	457.38
595.89	430.38
596.1	434.38
596.309	438.38
596.518	441.38
596.727	442.38
596.937	419.38
597.146	454.38
597.355	467.38
597.564	438.38
597.774	410.38
597.983	416.38
598.192	414.38
598.401	395.38
598.61	408.38
598.819	407.38
599.028	389.38
599.237	404.38
599.446	406.38
599.655	411.38
599.864	379.38
600.073	391.38
600.282	389.38
600.491	392.38
600.7	383.38
600.909	394.38
601.118	406.38
601.327	400.38
601.536	391.38
601.745	396.38
601.953	413.38
602.162	391.38
602.371	392.38
602.58	412.38
602.789	380.38
602.997	403.38
603.206	399.38
603.415	397.38
603.623	373.38
603.832	367.38
604.041	364.38
604.249	376.38
604.458	399.38
604.666	371.38
604.875	355.38
605.084	335.38
605.292	375.38
605.501	371.38
605.709	362.38
605.918	350.38
606.126	360.38
606.334	354.38
606.543	351.38
606.751	365.38
606.96	359.38
607.168	348.38
607.376	335.38
607.585	345.38
607.793	368.38
608.001	348.38
608.21	356.38
608.418	375.38
608.626	359.38
608.834	341.38
609.043	352.38
609.251	361.38
609.459	335.38
609.667	340.38
609.875	345.38
610.083	364.38
610.291	363.38
610.499	364.38
610.707	317.38
610.916	327.38
611.124	348.38
611.332	348.38
611.54	329.38
611.748	349.38
611.955	327.38
612.163	353.38
612.371	343.38
612.579	343.38
612.787	336.38
612.995	340.38
613.203	350.38
613.411	319.38
613.618	341.38
613.826	350.38
614.034	358.38
614.242	325.38
614.449	337.38
614.657	324.38
614.865	329.38
615.072	333.38
615.28	342.38
615.488	319.38
615.695	334.38
615.903	333.38
616.111	341.38
616.318	305.38
616.526	327.38
616.733	326.38
616.941	320.38
617.148	320.38
617.356	306.38
617.563	312.38
617.771	338.38
617.978	323.38
618.185	319.38
618.393	312.38
618.6	322.38
618.807	329.38
619.015	336.38
619.222	333.38
619.429	347.38
619.637	325.38
619.844	296.38
620.051	303.38
620.258	301.38
620.466	306.38
620.673	310.38
620.88	288.38
621.087	295.38
621.294	293.38
621.501	292.38
621.708	294.38
621.915	307.38
622.122	309.38
622.329	297.38
622.536	316.38
622.743	294.38
622.95	299.38
623.157	291.38
623.364	305.38
623.571	307.38
623.778	283.38
623.985	308.38
624.192	302.38
624.399	313.38
624.606	300.38
624.812	295.38
625.019	291.38
625.226	314.38
625.433	315.38
625.639	293.38
625.846	291.38
626.053	280.38
626.259	281.38
626.466	289.38
626.673	297.38
626.879	289.38
627.086	287.38
627.293	283.38
627.499	275.38
627.706	272.38
627.912	257.38
628.119	253.38
628.325	277.38
628.532	277.38
628.738	276.38
628.945	257.38
629.151	269.38
629.357	264.38
629.564	269.38
629.77	271.38
629.976	253.38
630.183	262.38
630.389	282.38
630.595	267.38
630.802	265.38
631.008	269.38
631.214	269.38
631.42	253.38
631.627	240.38
631.833	243.38
632.039	247.38
632.245	239.38
632.451	245.38
632.657	259.38
632.863	253.38
633.069	263.38
633.275	237.38
633.481	246.38
633.688	251.38
633.893	241.38
634.099	245.38
634.305	230.38
634.511	228.38
634.717	248.38
634.923	231.38
635.129	242.38
635.335	239.38
635.541	237.38
635.747	223.38
635.952	248.38
636.158	232.38
636.364	259.38
636.57	230.38
636.775	257.38
636.981	224.38
637.187	215.38
637.392	246.38
637.598	219.38
637.804	235.38
638.009	232.38
638.215	239.38
638.421	241.38
638.626	239.38
638.832	226.38
639.037	225.38
639.243	220.38
639.448	230.38
639.654	227.38
639.859	230.38
640.065	232.38
640.27	229.38
640.475	228.38
640.681	223.38
640.886	209.38
641.091	221.38
641.297	222.38
641.502	227.38
641.707	223.38
641.913	223.38
642.118	232.38
642.323	232.38
642.528	223.38
642.733	219.38
642.939	229.38
643.144	213.38
643.349	226.38
643.554	203.38
643.759	222.38
643.964	207.38
644.169	196.38
644.374	221.38
644.579	203.38
644.784	206.38
644.989	209.38
645.194	194.38
645.399	191.38
645.604	205.38
645.809	226.38
646.014	209.38
646.219	227.38
646.423	214.38
646.628	202.38
646.833	214.38
647.038	220.38
647.243	217.38
647.447	220.38
647.652	195.38
647.857	211.38
648.062	216.38
648.266	212.38
648.471	224.38
648.676	220.38
648.88	210.38
649.085	199.38
649.289	228.38
649.494	214.38
649.698	229.38
649.903	234.38
650.107	197.38
650.312	193.38
650.516	193.38
650.721	205.38
650.925	196.38
651.13	199.38
651.334	176.38
651.539	185.38
651.743	192.38
651.947	187.38
652.152	177.38
652.356	157.38
652.56	183.38
652.764	169.38
652.969	178.38
653.173	178.38
653.377	179.38
653.581	179.38
653.785	143.38
653.99	168.38
654.194	168.38
654.398	176.38
654.602	159.38
654.806	153.38
655.01	162.38
655.214	156.38
655.418	171.38
655.622	150.38
655.826	172.38
656.03	177.38
656.234	165.38
656.438	163.38
656.642	161.38
656.846	166.38
657.049	155.38
657.253	147.38
657.457	140.38
657.661	143.38
657.865	137.38
658.068	139.38
658.272	116.38
658.476	116.38
658.68	125.38
658.883	120.38
659.087	113.38
659.291	105.38
659.494	105.38
659.698	116.38
659.901	102.38
660.105	100.38
660.309	91.38
660.512	104.38
660.716	106.38
660.919	103.38
661.123	91.38
661.326	79.38
661.53	95.38
661.733	97.38
661.936	109.38
662.14	93.38
662.343	91.38
662.546	78.38
662.75	71.38
662.953	94.38
663.156	86.38
663.36	87.38
663.563	83.38
663.766	87.38
663.969	95.38
664.173	73.38
664.376	81.38
664.579	71.38
664.782	83.38
664.985	72.38
665.188	84.38
665.391	85.38
665.594	97.38
665.797	79.38
666	96.38
666.203	83.38
666.406	76.38
666.609	84.38
666.812	76.38
667.015	88.38
667.218	88.38
667.421	94.38
667.624	81.38
667.827	68.38
668.03	81.38
668.232	80.38
668.435	80.38
668.638	80.38
668.841	71.38
669.043	86.38
669.246	80.38
669.449	78.38
669.651	86.38
669.854	79.38
670.057	93.38
670.259	82.38
670.462	69.38
670.665	88.38
670.867	96.38
671.07	71.38
671.272	83.38
671.475	87.38
671.677	97.38
671.88	81.38
672.082	82.38
672.284	86.38
672.487	86.38
672.689	83.38
672.892	82.38
