Data from NickelSpatula.Lamp.E10.P2_HRD10591_11-57-53-530.txt Node
Date: Tue Jul 23 11:57:53 EDT 2019
User: cochatt
Spectrometer: HR+D1059
Trigger mode: 1
Integration Time (sec): 1.000000E-1
Scans to average: 1
Electric dark correction enabled: true
Nonlinearity correction enabled: false
Boxcar width: 0
XAxis mode: Wavelengths
Number of Pixels in Spectrum: 2048
>>>>>Begin Spectral Data<<<<<
223.165	-17.25
223.4	-17.25
223.635	-17.25
223.869	-26.25
224.104	-14.25
224.338	-8.25
224.573	-14.25
224.808	-31.25
225.042	-9.25
225.277	-14.25
225.511	17.75
225.746	18.75
225.98	-1.25
226.215	-4.25
226.449	28.75
226.683	5.75
226.918	31.75
227.152	37.75
227.387	34.75
227.621	23.75
227.856	43.75
228.09	31.75
228.324	53.75
228.559	55.75
228.793	81.75
229.027	140.75
229.262	147.75
229.496	148.75
229.73	153.75
229.964	194.75
230.199	212.75
230.433	208.75
230.667	213.75
230.901	205.75
231.136	198.75
231.37	200.75
231.604	215.75
231.838	232.75
232.072	240.75
232.306	230.75
232.541	240.75
232.775	243.75
233.009	270.75
233.243	296.75
233.477	302.75
233.711	338.75
233.945	326.75
234.179	310.75
234.413	341.75
234.647	387.75
234.881	447.75
235.115	427.75
235.349	385.75
235.583	342.75
235.817	353.75
236.051	374.75
236.285	419.75
236.519	449.75
236.753	427.75
236.987	401.75
237.221	389.75
237.455	405.75
237.689	441.75
237.922	439.75
238.156	475.75
238.39	571.75
238.624	647.75
238.858	603.75
239.091	495.75
239.325	489.75
239.559	475.75
239.793	542.75
240.027	644.75
240.26	593.75
240.494	577.75
240.728	584.75
240.961	665.75
241.195	631.75
241.429	648.75
241.662	616.75
241.896	529.75
242.13	468.75
242.363	450.75
242.597	457.75
242.83	535.75
243.064	536.75
243.298	568.75
243.531	607.75
243.765	628.75
243.998	630.75
244.232	623.75
244.465	602.75
244.699	591.75
244.932	655.75
245.166	609.75
245.399	544.75
245.633	548.75
245.866	583.75
246.099	608.75
246.333	697.75
246.566	733.75
246.8	755.75
247.033	717.75
247.266	687.75
247.5	683.75
247.733	694.75
247.966	657.75
248.2	706.75
248.433	790.75
248.666	857.75
248.899	843.75
249.133	815.75
249.366	963.75
249.599	1025.75
249.832	939.75
250.066	803.75
250.299	839.75
250.532	811.75
250.765	794.75
250.998	721.75
251.231	709.75
251.465	754.75
251.698	817.75
251.931	783.75
252.164	806.75
252.397	934.75
252.63	1071.75
252.863	1131.75
253.096	1203.75
253.329	1131.75
253.562	1111.75
253.795	1231.75
254.028	1379.75
254.261	1381.75
254.494	1233.75
254.727	1107.75
254.96	1119.75
255.193	1169.75
255.426	1132.75
255.659	854.75
255.892	789.75
256.124	835.75
256.357	997.75
256.59	1191.75
256.823	1138.75
257.056	949.75
257.289	930.75
257.521	977.75
257.754	1143.75
257.987	1291.75
258.22	1105.75
258.452	981.75
258.685	1135.75
258.918	1248.75
259.151	1239.75
259.383	1303.75
259.616	1473.75
259.849	1517.75
260.081	1692.75
260.314	1837.75
260.547	1478.75
260.779	1476.75
261.012	1710.75
261.244	1613.75
261.477	1645.75
261.71	1551.75
261.942	1261.75
262.175	1290.75
262.407	1223.75
262.64	1285.75
262.872	1515.75
263.105	1643.75
263.337	1696.75
263.57	1513.75
263.802	1027.75
264.035	895.75
264.267	902.75
264.499	760.75
264.732	702.75
264.964	684.75
265.197	717.75
265.429	759.75
265.661	820.75
265.894	834.75
266.126	902.75
266.358	1030.75
266.591	1237.75
266.823	1485.75
267.055	1400.75
267.287	1235.75
267.52	1256.75
267.752	1314.75
267.984	1446.75
268.216	1346.75
268.448	1125.75
268.681	1093.75
268.913	1206.75
269.145	1259.75
269.377	1313.75
269.609	1313.75
269.841	1188.75
270.073	1282.75
270.306	1368.75
270.538	1347.75
270.77	1390.75
271.002	1403.75
271.234	1442.75
271.466	1486.75
271.698	1437.75
271.93	1399.75
272.162	1402.75
272.394	1431.75
272.626	1357.75
272.858	1448.75
273.09	1466.75
273.322	1283.75
273.553	1247.75
273.785	1529.75
274.017	1936.75
274.249	2401.75
274.481	2521.75
274.713	2731.75
274.945	3090.75
275.176	3240.75
275.408	2799.75
275.64	2581.75
275.872	2610.75
276.104	2247.75
276.335	1899.75
276.567	1900.75
276.799	1960.75
277.031	2043.75
277.262	1587.75
277.494	1281.75
277.726	1181.75
277.957	1305.75
278.189	1459.75
278.421	1456.75
278.652	1406.75
278.884	1358.75
279.115	1251.75
279.347	1182.75
279.579	1159.75
279.81	1223.75
280.042	1215.75
280.273	1254.75
280.505	1145.75
280.736	1023.75
280.968	1019.75
281.199	1066.75
281.431	1193.75
281.662	1219.75
281.894	1169.75
282.125	1278.75
282.356	1372.75
282.588	1377.75
282.819	1253.75
283.051	1367.75
283.282	1691.75
283.513	1911.75
283.745	2136.75
283.976	2184.75
284.207	1991.75
284.439	2024.75
284.67	1953.75
284.901	1775.75
285.132	1910.75
285.364	2015.75
285.595	1845.75
285.826	1976.75
286.057	2015.75
286.288	1952.75
286.52	1995.75
286.751	2110.75
286.982	2064.75
287.213	1759.75
287.444	1767.75
287.675	1864.75
287.906	1833.75
288.138	1504.75
288.369	1339.75
288.6	1279.75
288.831	1327.75
289.062	1539.75
289.293	1655.75
289.524	1603.75
289.755	1593.75
289.986	1620.75
290.217	1434.75
290.448	1104.75
290.679	967.75
290.91	903.75
291.141	906.75
291.371	970.75
291.602	964.75
291.833	1011.75
292.064	1045.75
292.295	1186.75
292.526	1401.75
292.757	1437.75
292.987	1531.75
293.218	1517.75
293.449	1590.75
293.68	1667.75
293.91	1558.75
294.141	1600.75
294.372	1534.75
294.603	1417.75
294.833	1521.75
295.064	1807.75
295.295	1732.75
295.525	1335.75
295.756	1133.75
295.987	975.75
296.217	987.75
296.448	1046.75
296.679	1093.75
296.909	1209.75
297.14	1309.75
297.37	1413.75
297.601	1335.75
297.831	1154.75
298.062	1215.75
298.292	1414.75
298.523	1537.75
298.753	1759.75
298.984	1563.75
299.214	1237.75
299.445	1093.75
299.675	1025.75
299.905	1028.75
300.136	1072.75
300.366	1142.75
300.597	1154.75
300.827	1011.75
301.057	952.75
301.288	991.75
301.518	1035.75
301.748	1197.75
301.979	1336.75
302.209	1425.75
302.439	1441.75
302.669	1186.75
302.9	1191.75
303.13	1138.75
303.36	1075.75
303.59	1041.75
303.82	1090.75
304.051	1237.75
304.281	1363.75
304.511	1302.75
304.741	1143.75
304.971	1224.75
305.201	1283.75
305.431	1176.75
305.661	1062.75
305.891	1077.75
306.121	1059.75
306.352	947.75
306.582	880.75
306.812	843.75
307.042	845.75
307.272	782.75
307.502	804.75
307.731	870.75
307.961	895.75
308.191	838.75
308.421	800.75
308.651	798.75
308.881	759.75
309.111	768.75
309.341	824.75
309.571	892.75
309.8	918.75
310.03	896.75
310.26	972.75
310.49	965.75
310.72	813.75
310.949	840.75
311.179	884.75
311.409	903.75
311.639	1065.75
311.868	1367.75
312.098	1726.75
312.328	1939.75
312.557	1830.75
312.787	1865.75
313.017	1661.75
313.246	1752.75
313.476	1955.75
313.706	1601.75
313.935	1298.75
314.165	1053.75
314.394	905.75
314.624	939.75
314.853	982.75
315.083	1024.75
315.312	991.75
315.542	987.75
315.771	929.75
316.001	859.75
316.23	824.75
316.46	815.75
316.689	859.75
316.919	886.75
317.148	903.75
317.377	865.75
317.607	872.75
317.836	952.75
318.065	1093.75
318.295	1200.75
318.524	1113.75
318.753	934.75
318.983	946.75
319.212	890.75
319.441	1010.75
319.67	1107.75
319.9	1194.75
320.129	1105.75
320.358	973.75
320.587	923.75
320.816	1010.75
321.046	1167.75
321.275	1303.75
321.504	1298.75
321.733	1260.75
321.962	1186.75
322.191	1151.75
322.42	1064.75
322.649	1080.75
322.878	1187.75
323.108	1205.75
323.337	1107.75
323.566	1073.75
323.795	1073.75
324.024	1025.75
324.253	969.75
324.482	947.75
324.71	1046.75
324.939	1213.75
325.168	1108.75
325.397	915.75
325.626	898.75
325.855	900.75
326.084	939.75
326.313	855.75
326.542	822.75
326.77	885.75
326.999	901.75
327.228	963.75
327.457	1014.75
327.686	1000.75
327.914	888.75
328.143	832.75
328.372	794.75
328.6	838.75
328.829	859.75
329.058	878.75
329.287	885.75
329.515	885.75
329.744	880.75
329.972	838.75
330.201	784.75
330.43	838.75
330.658	919.75
330.887	1033.75
331.115	1025.75
331.344	992.75
331.572	939.75
331.801	888.75
332.03	857.75
332.258	867.75
332.486	958.75
332.715	950.75
332.943	865.75
333.172	899.75
333.4	912.75
333.629	1050.75
333.857	1122.75
334.085	1116.75
334.314	1104.75
334.542	1024.75
334.771	927.75
334.999	932.75
335.227	892.75
335.455	952.75
335.684	1005.75
335.912	1182.75
336.14	1331.75
336.369	1264.75
336.597	1204.75
336.825	1344.75
337.053	1497.75
337.281	1226.75
337.51	981.75
337.738	958.75
337.966	1031.75
338.194	1181.75
338.422	1098.75
338.65	942.75
338.878	879.75
339.106	925.75
339.334	998.75
339.562	1048.75
339.79	963.75
340.018	943.75
340.246	1027.75
340.474	1188.75
340.702	1254.75
340.93	1295.75
341.158	1294.75
341.386	1075.75
341.614	1088.75
341.842	1090.75
342.07	1149.75
342.298	1330.75
342.526	1382.75
342.754	1192.75
342.981	1095.75
343.209	1015.75
343.437	1123.75
343.665	1168.75
343.893	1157.75
344.12	1367.75
344.348	1583.75
344.576	1427.75
344.804	1163.75
345.031	1023.75
345.259	951.75
345.487	988.75
345.714	1031.75
345.942	1089.75
346.17	1139.75
346.397	1128.75
346.625	995.75
346.853	943.75
347.08	953.75
347.308	988.75
347.535	1083.75
347.763	1145.75
347.99	1011.75
348.218	947.75
348.445	974.75
348.673	955.75
348.9	971.75
349.128	1033.75
349.355	1077.75
349.583	1047.75
349.81	993.75
350.037	931.75
350.265	869.75
350.492	787.75
350.72	812.75
350.947	821.75
351.174	853.75
351.402	912.75
351.629	960.75
351.856	907.75
352.083	901.75
352.311	969.75
352.538	1049.75
352.765	1122.75
352.992	1016.75
353.22	1000.75
353.447	1003.75
353.674	945.75
353.901	943.75
354.128	955.75
354.355	981.75
354.583	975.75
354.81	949.75
355.037	1015.75
355.264	983.75
355.491	1043.75
355.718	1131.75
355.945	1123.75
356.172	1072.75
356.399	1080.75
356.626	1321.75
356.853	1567.75
357.08	1660.75
357.307	1694.75
357.534	1334.75
357.761	1334.75
357.988	1732.75
358.215	2033.75
358.441	1893.75
358.668	1656.75
358.895	1480.75
359.122	1196.75
359.349	1183.75
359.576	1291.75
359.802	1097.75
360.029	941.75
360.256	1013.75
360.483	1270.75
360.709	1569.75
360.936	1625.75
361.163	1435.75
361.39	1108.75
361.616	1031.75
361.843	1188.75
362.07	1463.75
362.296	1333.75
362.523	1045.75
362.749	948.75
362.976	1012.75
363.203	1190.75
363.429	1311.75
363.656	1042.75
363.882	992.75
364.109	977.75
364.335	983.75
364.562	983.75
364.788	1108.75
365.015	1291.75
365.241	1125.75
365.468	947.75
365.694	814.75
365.92	807.75
366.147	761.75
366.373	761.75
366.599	797.75
366.826	807.75
367.052	784.75
367.278	809.75
367.505	831.75
367.731	868.75
367.957	996.75
368.184	1025.75
368.41	982.75
368.636	1001.75
368.862	1040.75
369.089	1015.75
369.315	889.75
369.541	883.75
369.767	893.75
369.993	840.75
370.219	859.75
370.445	921.75
370.672	969.75
370.898	1093.75
371.124	1062.75
371.35	943.75
371.576	864.75
371.802	995.75
372.028	1124.75
372.254	1318.75
372.48	1162.75
372.706	997.75
372.932	1067.75
373.158	1121.75
373.384	1327.75
373.61	1811.75
373.835	1795.75
374.061	1327.75
374.287	1115.75
374.513	1365.75
374.739	1623.75
374.965	1632.75
375.191	1655.75
375.416	1149.75
375.642	995.75
375.868	1195.75
376.094	1336.75
376.319	1147.75
376.545	1247.75
376.771	1342.75
376.997	1142.75
377.222	842.75
377.448	767.75
377.674	755.75
377.899	722.75
378.125	738.75
378.35	733.75
378.576	791.75
378.802	845.75
379.027	929.75
379.253	890.75
379.478	911.75
379.704	1037.75
379.929	1080.75
380.155	1052.75
380.38	949.75
380.606	1011.75
380.831	1079.75
381.057	1031.75
381.282	957.75
381.507	1161.75
381.733	1412.75
381.958	1479.75
382.184	1576.75
382.409	1698.75
382.634	1626.75
382.86	1745.75
383.085	1391.75
383.31	1109.75
383.535	1192.75
383.761	1216.75
383.986	1127.75
384.211	1373.75
384.436	1331.75
384.662	1028.75
384.887	981.75
385.112	998.75
385.337	1015.75
385.562	953.75
385.787	1032.75
386.013	1179.75
386.238	1208.75
386.463	996.75
386.688	943.75
386.913	929.75
387.138	874.75
387.363	979.75
387.588	981.75
387.813	959.75
388.038	1078.75
388.263	997.75
388.488	943.75
388.713	1111.75
388.938	1191.75
389.163	1019.75
389.387	896.75
389.612	894.75
389.837	922.75
390.062	944.75
390.287	982.75
390.512	1000.75
390.736	919.75
390.961	885.75
391.186	846.75
391.411	837.75
391.636	854.75
391.86	939.75
392.085	1007.75
392.31	1013.75
392.534	960.75
392.759	912.75
392.984	982.75
393.208	965.75
393.433	881.75
393.658	797.75
393.882	767.75
394.107	778.75
394.331	776.75
394.556	792.75
394.78	797.75
395.005	830.75
395.229	863.75
395.454	873.75
395.678	899.75
395.903	926.75
396.127	872.75
396.352	884.75
396.576	961.75
396.801	941.75
397.025	1088.75
397.249	1124.75
397.474	931.75
397.698	907.75
397.922	954.75
398.147	882.75
398.371	909.75
398.595	974.75
398.82	949.75
399.044	954.75
399.268	1007.75
399.492	1032.75
399.717	1069.75
399.941	1052.75
400.165	1035.75
400.389	1037.75
400.613	1058.75
400.837	1039.75
401.062	932.75
401.286	911.75
401.51	895.75
401.734	913.75
401.958	915.75
402.182	898.75
402.406	904.75
402.63	900.75
402.854	933.75
403.078	1069.75
403.302	1293.75
403.526	1311.75
403.75	1175.75
403.974	1049.75
404.198	1085.75
404.422	1219.75
404.645	1420.75
404.869	1530.75
405.093	1170.75
405.317	995.75
405.541	954.75
405.765	1023.75
405.988	1021.75
406.212	1101.75
406.436	1317.75
406.66	1397.75
406.883	1098.75
407.107	1154.75
407.331	1341.75
407.555	1288.75
407.778	1072.75
408.002	1038.75
408.226	1019.75
408.449	1010.75
408.673	1003.75
408.896	913.75
409.12	915.75
409.344	916.75
409.567	868.75
409.791	913.75
410.014	870.75
410.238	895.75
410.461	889.75
410.685	915.75
410.908	884.75
411.132	890.75
411.355	949.75
411.578	945.75
411.802	903.75
412.025	987.75
412.249	953.75
412.472	937.75
412.695	936.75
412.919	930.75
413.142	979.75
413.365	1045.75
413.589	1047.75
413.812	941.75
414.035	905.75
414.258	924.75
414.482	1019.75
414.705	1063.75
414.928	908.75
415.151	881.75
415.374	888.75
415.597	914.75
415.821	899.75
416.044	886.75
416.267	879.75
416.49	857.75
416.713	842.75
416.936	835.75
417.159	845.75
417.382	923.75
417.605	919.75
417.828	895.75
418.051	931.75
418.274	900.75
418.497	910.75
418.72	946.75
418.943	926.75
419.166	980.75
419.389	1027.75
419.611	985.75
419.834	1006.75
420.057	1087.75
420.28	1095.75
420.503	1005.75
420.726	911.75
420.948	834.75
421.171	877.75
421.394	856.75
421.617	845.75
421.839	867.75
422.062	939.75
422.285	936.75
422.507	927.75
422.73	932.75
422.953	945.75
423.175	924.75
423.398	916.75
423.621	992.75
423.843	1067.75
424.066	967.75
424.288	968.75
424.511	893.75
424.733	909.75
424.956	951.75
425.178	1074.75
425.401	1230.75
425.623	1378.75
425.846	1151.75
426.068	1009.75
426.291	1126.75
426.513	1035.75
426.735	942.75
426.958	984.75
427.18	1143.75
427.402	1454.75
427.625	1392.75
427.847	1167.75
428.069	909.75
428.292	906.75
428.514	879.75
428.736	848.75
428.958	924.75
429.181	1117.75
429.403	974.75
429.625	900.75
429.847	859.75
430.069	839.75
430.292	929.75
430.514	878.75
430.736	951.75
430.958	1189.75
431.18	1095.75
431.402	835.75
431.624	824.75
431.846	807.75
432.068	785.75
432.29	816.75
432.512	901.75
432.734	1181.75
432.956	1119.75
433.178	872.75
433.4	824.75
433.622	853.75
433.844	877.75
434.066	920.75
434.287	887.75
434.509	894.75
434.731	876.75
434.953	877.75
435.175	929.75
435.397	1021.75
435.618	915.75
435.84	841.75
436.062	828.75
436.284	829.75
436.505	793.75
436.727	802.75
436.949	796.75
437.17	834.75
437.392	867.75
437.614	851.75
437.835	775.75
438.057	831.75
438.278	995.75
438.5	1368.75
438.721	1360.75
438.943	928.75
439.165	790.75
439.386	801.75
439.608	804.75
439.829	778.75
440.05	781.75
440.272	831.75
440.493	976.75
440.715	1250.75
440.936	970.75
441.158	849.75
441.379	847.75
441.6	984.75
441.822	989.75
442.043	879.75
442.264	878.75
442.486	856.75
442.707	862.75
442.928	852.75
443.149	889.75
443.371	883.75
443.592	943.75
443.813	912.75
444.034	900.75
444.255	928.75
444.476	938.75
444.698	932.75
444.919	953.75
445.14	1049.75
445.361	1023.75
445.582	969.75
445.803	933.75
446.024	920.75
446.245	940.75
446.466	913.75
446.687	856.75
446.908	866.75
447.129	825.75
447.35	816.75
447.571	790.75
447.792	799.75
448.013	774.75
448.234	771.75
448.455	796.75
448.675	780.75
448.896	792.75
449.117	806.75
449.338	832.75
449.559	803.75
449.779	878.75
450	880.75
450.221	848.75
450.442	806.75
450.662	802.75
450.883	785.75
451.104	803.75
451.324	814.75
451.545	798.75
451.766	798.75
451.986	769.75
452.207	750.75
452.428	787.75
452.648	776.75
452.869	791.75
453.089	849.75
453.31	865.75
453.53	773.75
453.751	760.75
453.971	726.75
454.192	755.75
454.412	781.75
454.633	755.75
454.853	715.75
455.073	727.75
455.294	742.75
455.514	701.75
455.734	762.75
455.955	810.75
456.175	825.75
456.395	735.75
456.616	715.75
456.836	714.75
457.056	700.75
457.276	692.75
457.497	715.75
457.717	713.75
457.937	723.75
458.157	723.75
458.377	711.75
458.598	746.75
458.818	773.75
459.038	785.75
459.258	813.75
459.478	867.75
459.698	887.75
459.918	897.75
460.138	862.75
460.358	899.75
460.578	864.75
460.798	883.75
461.018	871.75
461.238	847.75
461.458	871.75
461.678	891.75
461.898	929.75
462.118	910.75
462.338	931.75
462.558	969.75
462.777	964.75
462.997	1005.75
463.217	996.75
463.437	1053.75
463.657	1012.75
463.876	960.75
464.096	971.75
464.316	952.75
464.536	963.75
464.755	996.75
464.975	992.75
465.195	978.75
465.414	992.75
465.634	945.75
465.854	927.75
466.073	855.75
466.293	877.75
466.512	932.75
466.732	1014.75
466.951	1033.75
467.171	945.75
467.391	889.75
467.61	878.75
467.829	907.75
468.049	947.75
468.268	880.75
468.488	883.75
468.707	896.75
468.927	1058.75
469.146	1142.75
469.365	1020.75
469.585	964.75
469.804	992.75
470.023	1064.75
470.243	957.75
470.462	931.75
470.681	898.75
470.901	926.75
471.12	952.75
471.339	991.75
471.558	911.75
471.777	926.75
471.997	975.75
472.216	1123.75
472.435	1088.75
472.654	959.75
472.873	928.75
473.092	969.75
473.311	1046.75
473.53	958.75
473.749	941.75
473.968	963.75
474.187	980.75
474.406	933.75
474.625	928.75
474.844	935.75
475.063	1017.75
475.282	1027.75
475.501	1073.75
475.72	1128.75
475.939	1069.75
476.158	1092.75
476.377	1224.75
476.596	1428.75
476.814	1512.75
477.033	1217.75
477.252	1063.75
477.471	981.75
477.69	969.75
477.908	1087.75
478.127	1152.75
478.346	1056.75
478.564	1141.75
478.783	1085.75
479.002	1123.75
479.22	1275.75
479.439	1423.75
479.658	1250.75
479.876	1114.75
480.095	1217.75
480.313	1237.75
480.532	1108.75
480.751	1111.75
480.969	1108.75
481.188	1296.75
481.406	1287.75
481.624	1217.75
481.843	1091.75
482.061	1070.75
482.28	1214.75
482.498	1411.75
482.717	1344.75
482.935	1198.75
483.153	1104.75
483.372	1065.75
483.59	1043.75
483.808	1048.75
484.027	1019.75
484.245	1000.75
484.463	969.75
484.681	1042.75
484.9	1087.75
485.118	1208.75
485.336	1105.75
485.554	1049.75
485.772	1061.75
485.99	1161.75
486.209	1212.75
486.427	1211.75
486.645	1228.75
486.863	1223.75
487.081	1199.75
487.299	1353.75
487.517	1337.75
487.735	1185.75
487.953	1245.75
488.171	1260.75
488.389	1168.75
488.607	1097.75
488.825	1145.75
489.043	1267.75
489.261	1416.75
489.479	1557.75
489.696	1288.75
489.914	1174.75
490.132	1097.75
490.35	1123.75
490.568	1142.75
490.786	1109.75
491.003	1103.75
491.221	1161.75
491.439	1120.75
491.657	1133.75
491.874	1200.75
492.092	1491.75
492.31	1711.75
492.527	1743.75
492.745	1511.75
492.963	1300.75
493.18	1260.75
493.398	1275.75
493.615	1301.75
493.833	1249.75
494.05	1227.75
494.268	1230.75
494.485	1261.75
494.703	1198.75
494.92	1246.75
495.138	1229.75
495.355	1210.75
495.573	1262.75
495.79	1408.75
496.008	1781.75
496.225	1558.75
496.442	1371.75
496.66	1335.75
496.877	1428.75
497.094	1405.75
497.312	1327.75
497.529	1318.75
497.746	1289.75
497.963	1363.75
498.181	1455.75
498.398	1616.75
498.615	1633.75
498.832	1708.75
499.049	1688.75
499.267	1539.75
499.484	1565.75
499.701	1602.75
499.918	1710.75
500.135	1846.75
500.352	1884.75
500.569	1996.75
500.786	1999.75
501.003	2014.75
501.22	1836.75
501.437	1692.75
501.654	1675.75
501.871	1609.75
502.088	1626.75
502.305	1519.75
502.522	1528.75
502.739	1458.75
502.956	1352.75
503.172	1335.75
503.389	1315.75
503.606	1278.75
503.823	1270.75
504.04	1308.75
504.256	1292.75
504.473	1320.75
504.69	1320.75
504.907	1371.75
505.123	1358.75
505.34	1431.75
505.557	1428.75
505.773	1319.75
505.99	1278.75
506.207	1359.75
506.423	1282.75
506.64	1201.75
506.856	1234.75
507.073	1353.75
507.289	1314.75
507.506	1341.75
507.722	1415.75
507.939	1416.75
508.155	1441.75
508.372	1299.75
508.588	1272.75
508.805	1215.75
509.021	1217.75
509.238	1137.75
509.454	1158.75
509.67	1167.75
509.887	1196.75
510.103	1305.75
510.319	1311.75
510.536	1172.75
510.752	1064.75
510.968	1058.75
511.184	1024.75
511.401	1034.75
511.617	1021.75
511.833	1031.75
512.049	1056.75
512.265	1071.75
512.481	1115.75
512.698	1235.75
512.914	1368.75
513.13	1207.75
513.346	1126.75
513.562	1167.75
513.778	1135.75
513.994	1128.75
514.21	1243.75
514.426	1191.75
514.642	1112.75
514.858	1136.75
515.074	1150.75
515.29	1258.75
515.506	1391.75
515.721	1333.75
515.937	1224.75
516.153	1141.75
516.369	1171.75
516.585	1228.75
516.801	1376.75
517.016	1585.75
517.232	1533.75
517.448	1513.75
517.664	1356.75
517.879	1297.75
518.095	1248.75
518.311	1287.75
518.527	1295.75
518.742	1389.75
518.958	1448.75
519.173	1394.75
519.389	1367.75
519.605	1392.75
519.82	1487.75
520.036	1682.75
520.251	1683.75
520.467	1553.75
520.682	2327.75
520.898	2841.75
521.113	2686.75
521.329	1707.75
521.544	1543.75
521.76	1474.75
521.975	1369.75
522.19	1264.75
522.406	1309.75
522.621	1423.75
522.836	1497.75
523.052	1577.75
523.267	1284.75
523.482	1246.75
523.698	1338.75
523.913	1306.75
524.128	1217.75
524.343	1171.75
524.559	1183.75
524.774	1127.75
524.989	1155.75
525.204	1186.75
525.419	1325.75
525.634	1229.75
525.849	1223.75
526.064	1246.75
526.28	1233.75
526.495	1482.75
526.71	1495.75
526.925	1330.75
527.14	1407.75
527.355	1360.75
527.57	1133.75
527.785	1203.75
527.999	1123.75
528.214	1069.75
528.429	1095.75
528.644	1083.75
528.859	1011.75
529.074	1027.75
529.289	994.75
529.503	991.75
529.718	1038.75
529.933	1187.75
530.148	1218.75
530.363	1060.75
530.577	1012.75
530.792	990.75
531.007	957.75
531.221	967.75
531.436	947.75
531.651	997.75
531.865	1004.75
532.08	1024.75
532.295	991.75
532.509	1023.75
532.724	1183.75
532.938	1267.75
533.153	1440.75
533.367	1205.75
533.582	1167.75
533.796	1109.75
534.011	1027.75
534.225	1058.75
534.44	1072.75
534.654	1095.75
534.868	1238.75
535.083	1118.75
535.297	1023.75
535.511	1040.75
535.726	1157.75
535.94	1081.75
536.154	963.75
536.369	968.75
536.583	995.75
536.797	995.75
537.011	1034.75
537.225	1093.75
537.44	1167.75
537.654	1033.75
537.868	1025.75
538.082	1005.75
538.296	1018.75
538.51	1080.75
538.724	1084.75
538.938	1011.75
539.153	986.75
539.367	984.75
539.581	983.75
539.795	1059.75
540.009	1141.75
540.222	1073.75
540.436	1033.75
540.65	1175.75
540.864	1179.75
541.078	1182.75
541.292	1325.75
541.506	1096.75
541.72	1052.75
541.934	1031.75
542.147	1017.75
542.361	1036.75
542.575	1047.75
542.789	1030.75
543.002	945.75
543.216	1071.75
543.43	969.75
543.644	930.75
543.857	929.75
544.071	955.75
544.285	929.75
544.498	913.75
544.712	907.75
544.925	993.75
545.139	982.75
545.352	909.75
545.566	936.75
545.779	1040.75
545.993	972.75
546.206	893.75
546.42	879.75
546.633	885.75
546.847	860.75
547.06	857.75
547.274	817.75
547.487	877.75
547.7	966.75
547.914	984.75
548.127	1096.75
548.34	1081.75
548.554	973.75
548.767	992.75
548.98	1072.75
549.193	970.75
549.407	999.75
549.62	1143.75
549.833	1095.75
550.046	1136.75
550.259	1163.75
550.473	1006.75
550.686	956.75
550.899	977.75
551.112	973.75
551.325	1055.75
551.538	1080.75
551.751	929.75
551.964	888.75
552.177	880.75
552.39	857.75
552.603	880.75
552.816	919.75
553.029	843.75
553.242	864.75
553.455	947.75
553.667	1034.75
553.88	989.75
554.093	915.75
554.306	823.75
554.519	811.75
554.732	772.75
554.944	771.75
555.157	755.75
555.37	769.75
555.583	777.75
555.795	790.75
556.008	772.75
556.221	790.75
556.433	800.75
556.646	765.75
556.859	773.75
557.071	820.75
557.284	821.75
557.496	819.75
557.709	796.75
557.921	793.75
558.134	731.75
558.346	714.75
558.559	747.75
558.771	753.75
558.984	816.75
559.196	777.75
559.409	736.75
559.621	710.75
559.833	713.75
560.046	736.75
560.258	740.75
560.47	763.75
560.683	717.75
560.895	694.75
561.107	680.75
561.32	685.75
561.532	655.75
561.744	749.75
561.956	787.75
562.168	721.75
562.381	707.75
562.593	717.75
562.805	727.75
563.017	697.75
563.229	678.75
563.441	659.75
563.653	669.75
563.865	696.75
564.077	716.75
564.289	695.75
564.501	701.75
564.713	737.75
564.925	714.75
565.137	678.75
565.349	692.75
565.561	688.75
565.773	705.75
565.985	739.75
566.197	781.75
566.408	853.75
566.62	832.75
566.832	838.75
567.044	853.75
567.255	897.75
567.467	969.75
567.679	891.75
567.891	869.75
568.102	893.75
568.314	907.75
568.526	853.75
568.737	810.75
568.949	889.75
569.161	783.75
569.372	699.75
569.584	694.75
569.795	669.75
570.007	709.75
570.218	773.75
570.43	707.75
570.641	681.75
570.853	650.75
571.064	644.75
571.276	661.75
571.487	720.75
571.698	676.75
571.91	662.75
572.121	668.75
572.333	601.75
572.544	591.75
572.755	622.75
572.966	606.75
573.178	621.75
573.389	643.75
573.6	632.75
573.811	637.75
574.023	575.75
574.234	570.75
574.445	607.75
574.656	588.75
574.867	581.75
575.078	577.75
575.289	584.75
575.501	619.75
575.712	596.75
575.923	582.75
576.134	545.75
576.345	556.75
576.556	542.75
576.767	551.75
576.978	534.75
577.188	520.75
577.399	525.75
577.61	539.75
577.821	535.75
578.032	555.75
578.243	561.75
578.454	569.75
578.665	582.75
578.875	574.75
579.086	553.75
579.297	562.75
579.508	541.75
579.718	572.75
579.929	563.75
580.14	532.75
580.35	527.75
580.561	480.75
580.772	487.75
580.982	467.75
581.193	478.75
581.403	467.75
581.614	459.75
581.825	458.75
582.035	445.75
582.246	441.75
582.456	469.75
582.667	471.75
582.877	469.75
583.087	477.75
583.298	447.75
583.508	436.75
583.719	457.75
583.929	468.75
584.139	448.75
584.35	448.75
584.56	483.75
584.77	482.75
584.981	470.75
585.191	477.75
585.401	448.75
585.611	469.75
585.821	492.75
586.032	497.75
586.242	464.75
586.452	471.75
586.662	459.75
586.872	486.75
587.082	490.75
587.292	485.75
587.502	458.75
587.713	457.75
587.923	467.75
588.133	507.75
588.343	462.75
588.553	451.75
588.762	457.75
588.972	441.75
589.182	452.75
589.392	449.75
589.602	475.75
589.812	486.75
590.022	506.75
590.232	512.75
590.441	456.75
590.651	455.75
590.861	447.75
591.071	447.75
591.281	462.75
591.49	438.75
591.7	437.75
591.91	454.75
592.119	449.75
592.329	456.75
592.539	466.75
592.748	455.75
592.958	451.75
593.167	463.75
593.377	478.75
593.587	478.75
593.796	473.75
594.006	458.75
594.215	505.75
594.424	504.75
594.634	482.75
594.843	479.75
595.053	454.75
595.262	455.75
595.472	439.75
595.681	425.75
595.89	413.75
596.1	455.75
596.309	450.75
596.518	409.75
596.727	432.75
596.937	424.75
597.146	445.75
597.355	451.75
597.564	450.75
597.774	429.75
597.983	399.75
598.192	411.75
598.401	393.75
598.61	371.75
598.819	400.75
599.028	397.75
599.237	399.75
599.446	399.75
599.655	349.75
599.864	367.75
600.073	376.75
600.282	383.75
600.491	371.75
600.7	392.75
600.909	405.75
601.118	393.75
601.327	387.75
601.536	384.75
601.745	373.75
601.953	387.75
602.162	390.75
602.371	398.75
602.58	397.75
602.789	399.75
602.997	380.75
603.206	367.75
603.415	376.75
603.623	375.75
603.832	379.75
604.041	374.75
604.249	365.75
604.458	368.75
604.666	358.75
604.875	349.75
605.084	349.75
605.292	352.75
605.501	380.75
605.709	367.75
605.918	371.75
606.126	353.75
606.334	361.75
606.543	362.75
606.751	351.75
606.96	353.75
607.168	349.75
607.376	332.75
607.585	331.75
607.793	357.75
608.001	338.75
608.21	341.75
608.418	371.75
608.626	337.75
608.834	335.75
609.043	351.75
609.251	352.75
609.459	342.75
609.667	359.75
609.875	346.75
610.083	331.75
610.291	368.75
610.499	349.75
610.707	342.75
610.916	335.75
611.124	337.75
611.332	337.75
611.54	316.75
611.748	349.75
611.955	337.75
612.163	345.75
612.371	311.75
612.579	312.75
612.787	328.75
612.995	333.75
613.203	330.75
613.411	311.75
613.618	321.75
613.826	350.75
614.034	343.75
614.242	321.75
614.449	313.75
614.657	331.75
614.865	322.75
615.072	335.75
615.28	334.75
615.488	311.75
615.695	312.75
615.903	314.75
616.111	306.75
616.318	339.75
616.526	323.75
616.733	320.75
616.941	320.75
617.148	316.75
617.356	340.75
617.563	316.75
617.771	311.75
617.978	302.75
618.185	315.75
618.393	327.75
618.6	320.75
618.807	320.75
619.015	321.75
619.222	318.75
619.429	327.75
619.637	301.75
619.844	321.75
620.051	300.75
620.258	309.75
620.466	289.75
620.673	285.75
620.88	285.75
621.087	285.75
621.294	285.75
621.501	306.75
621.708	307.75
621.915	284.75
622.122	293.75
622.329	283.75
622.536	285.75
622.743	290.75
622.95	294.75
623.157	300.75
623.364	309.75
623.571	308.75
623.778	286.75
623.985	291.75
624.192	321.75
624.399	324.75
624.606	285.75
624.812	301.75
625.019	301.75
625.226	322.75
625.433	312.75
625.639	283.75
625.846	285.75
626.053	283.75
626.259	275.75
626.466	291.75
626.673	299.75
626.879	297.75
627.086	281.75
627.293	297.75
627.499	282.75
627.706	275.75
627.912	264.75
628.119	273.75
628.325	271.75
628.532	260.75
628.738	269.75
628.945	262.75
629.151	291.75
629.357	251.75
629.564	277.75
629.77	280.75
629.976	249.75
630.183	271.75
630.389	271.75
630.595	267.75
630.802	261.75
631.008	247.75
631.214	259.75
631.42	256.75
631.627	266.75
631.833	247.75
632.039	253.75
632.245	255.75
632.451	251.75
632.657	260.75
632.863	259.75
633.069	229.75
633.275	237.75
633.481	248.75
633.688	239.75
633.893	256.75
634.099	240.75
634.305	230.75
634.511	230.75
634.717	235.75
634.923	215.75
635.129	241.75
635.335	228.75
635.541	239.75
635.747	231.75
635.952	243.75
636.158	224.75
636.364	246.75
636.57	251.75
636.775	244.75
636.981	215.75
637.187	239.75
637.392	215.75
637.598	222.75
637.804	217.75
638.009	220.75
638.215	239.75
638.421	224.75
638.626	215.75
638.832	215.75
639.037	236.75
639.243	218.75
639.448	213.75
639.654	251.75
639.859	235.75
640.065	217.75
640.27	240.75
640.475	235.75
640.681	215.75
640.886	229.75
641.091	231.75
641.297	232.75
641.502	207.75
641.707	227.75
641.913	232.75
642.118	233.75
642.323	224.75
642.528	216.75
642.733	215.75
642.939	215.75
643.144	217.75
643.349	209.75
643.554	197.75
643.759	211.75
643.964	216.75
644.169	205.75
644.374	200.75
644.579	205.75
644.784	216.75
644.989	209.75
645.194	216.75
645.399	200.75
645.604	195.75
645.809	204.75
646.014	213.75
646.219	214.75
646.423	201.75
646.628	203.75
646.833	193.75
647.038	206.75
647.243	218.75
647.447	209.75
647.652	209.75
647.857	204.75
648.062	215.75
648.266	206.75
648.471	213.75
648.676	226.75
648.88	192.75
649.085	207.75
649.289	197.75
649.494	199.75
649.698	208.75
649.903	201.75
650.107	201.75
650.312	209.75
650.516	203.75
650.721	200.75
650.925	209.75
651.13	188.75
651.334	195.75
651.539	183.75
651.743	195.75
651.947	180.75
652.152	184.75
652.356	184.75
652.56	189.75
652.764	178.75
652.969	168.75
653.173	167.75
653.377	163.75
653.581	163.75
653.785	172.75
653.99	165.75
654.194	157.75
654.398	174.75
654.602	157.75
654.806	169.75
655.01	153.75
655.214	164.75
655.418	149.75
655.622	145.75
655.826	163.75
656.03	163.75
656.234	154.75
656.438	163.75
656.642	190.75
656.846	164.75
657.049	149.75
657.253	151.75
657.457	146.75
657.661	147.75
657.865	124.75
658.068	121.75
658.272	115.75
658.476	120.75
658.68	112.75
658.883	114.75
659.087	110.75
659.291	105.75
659.494	102.75
659.698	97.75
659.901	97.75
660.105	112.75
660.309	111.75
660.512	92.75
660.716	99.75
660.919	94.75
661.123	105.75
661.326	96.75
661.53	107.75
661.733	101.75
661.936	91.75
662.14	95.75
662.343	87.75
662.546	88.75
662.75	78.75
662.953	84.75
663.156	93.75
663.36	81.75
663.563	90.75
663.766	87.75
663.969	90.75
664.173	99.75
664.376	85.75
664.579	80.75
664.782	79.75
664.985	83.75
665.188	73.75
665.391	75.75
665.594	86.75
665.797	73.75
666	79.75
666.203	83.75
666.406	76.75
666.609	82.75
666.812	97.75
667.015	83.75
667.218	77.75
667.421	90.75
667.624	72.75
667.827	81.75
668.03	82.75
668.232	79.75
668.435	90.75
668.638	83.75
668.841	88.75
669.043	73.75
669.246	97.75
669.449	101.75
669.651	83.75
669.854	95.75
670.057	85.75
670.259	71.75
670.462	76.75
670.665	64.75
670.867	92.75
671.07	96.75
671.272	82.75
671.475	84.75
671.677	73.75
671.88	70.75
672.082	79.75
672.284	88.75
672.487	90.75
672.689	83.75
672.892	91.75
