Data from NickelSpatula.Lamp.E10.P2_HRD10591_11-58-57-526.txt Node
Date: Tue Jul 23 11:58:57 EDT 2019
User: cochatt
Spectrometer: HR+D1059
Trigger mode: 1
Integration Time (sec): 1.000000E-1
Scans to average: 1
Electric dark correction enabled: true
Nonlinearity correction enabled: false
Boxcar width: 0
XAxis mode: Wavelengths
Number of Pixels in Spectrum: 2048
>>>>>Begin Spectral Data<<<<<
223.165	-10.56
223.4	-10.56
223.635	-10.56
223.869	-12.56
224.104	-20.56
224.338	-20.56
224.573	-5.56
224.808	-16.56
225.042	-16.56
225.277	-12.56
225.511	-2.56
225.746	0.44
225.98	3.44
226.215	18.44
226.449	16.44
226.683	12.44
226.918	39.44
227.152	27.44
227.387	25.44
227.621	35.44
227.856	43.44
228.09	43.44
228.324	48.44
228.559	56.44
228.793	86.44
229.027	139.44
229.262	150.44
229.496	135.44
229.73	160.44
229.964	187.44
230.199	229.44
230.433	210.44
230.667	193.44
230.901	205.44
231.136	214.44
231.37	210.44
231.604	222.44
231.838	246.44
232.072	237.44
232.306	240.44
232.541	239.44
232.775	260.44
233.009	252.44
233.243	280.44
233.477	300.44
233.711	334.44
233.945	328.44
234.179	338.44
234.413	359.44
234.647	391.44
234.881	444.44
235.115	410.44
235.349	397.44
235.583	336.44
235.817	342.44
236.051	365.44
236.285	390.44
236.519	448.44
236.753	424.44
236.987	407.44
237.221	431.44
237.455	398.44
237.689	415.44
237.922	430.44
238.156	462.44
238.39	543.44
238.624	666.44
238.858	589.44
239.091	472.44
239.325	495.44
239.559	456.44
239.793	541.44
240.027	625.44
240.26	594.44
240.494	569.44
240.728	567.44
240.961	685.44
241.195	656.44
241.429	625.44
241.662	582.44
241.896	516.44
242.13	469.44
242.363	460.44
242.597	473.44
242.83	552.44
243.064	539.44
243.298	588.44
243.531	628.44
243.765	628.44
243.998	639.44
244.232	622.44
244.465	593.44
244.699	554.44
244.932	670.44
245.166	597.44
245.399	544.44
245.633	526.44
245.866	543.44
246.099	605.44
246.333	686.44
246.566	766.44
246.8	751.44
247.033	725.44
247.266	677.44
247.5	645.44
247.733	674.44
247.966	659.44
248.2	672.44
248.433	786.44
248.666	848.44
248.899	836.44
249.133	864.44
249.366	982.44
249.599	1069.44
249.832	919.44
250.066	802.44
250.299	839.44
250.532	795.44
250.765	787.44
250.998	712.44
251.231	696.44
251.465	793.44
251.698	816.44
251.931	776.44
252.164	813.44
252.397	926.44
252.63	1028.44
252.863	1157.44
253.096	1212.44
253.329	1141.44
253.562	1077.44
253.795	1239.44
254.028	1351.44
254.261	1367.44
254.494	1248.44
254.727	1119.44
254.96	1106.44
255.193	1147.44
255.426	1120.44
255.659	850.44
255.892	801.44
256.124	868.44
256.357	1008.44
256.59	1196.44
256.823	1130.44
257.056	961.44
257.289	904.44
257.521	951.44
257.754	1112.44
257.987	1302.44
258.22	1088.44
258.452	988.44
258.685	1121.44
258.918	1264.44
259.151	1207.44
259.383	1256.44
259.616	1460.44
259.849	1527.44
260.081	1697.44
260.314	1863.44
260.547	1436.44
260.779	1464.44
261.012	1692.44
261.244	1601.44
261.477	1606.44
261.71	1479.44
261.942	1277.44
262.175	1237.44
262.407	1202.44
262.64	1252.44
262.872	1510.44
263.105	1619.44
263.337	1686.44
263.57	1535.44
263.802	1031.44
264.035	858.44
264.267	837.44
264.499	780.44
264.732	684.44
264.964	692.44
265.197	712.44
265.429	763.44
265.661	821.44
265.894	840.44
266.126	886.44
266.358	1050.44
266.591	1219.44
266.823	1460.44
267.055	1367.44
267.287	1202.44
267.52	1219.44
267.752	1310.44
267.984	1394.44
268.216	1346.44
268.448	1110.44
268.681	1090.44
268.913	1186.44
269.145	1264.44
269.377	1260.44
269.609	1273.44
269.841	1181.44
270.073	1277.44
270.306	1319.44
270.538	1333.44
270.77	1380.44
271.002	1383.44
271.234	1435.44
271.466	1498.44
271.698	1438.44
271.93	1384.44
272.162	1418.44
272.394	1390.44
272.626	1374.44
272.858	1455.44
273.09	1436.44
273.322	1306.44
273.553	1280.44
273.785	1505.44
274.017	1932.44
274.249	2373.44
274.481	2459.44
274.713	2703.44
274.945	3103.44
275.176	3235.44
275.408	2842.44
275.64	2578.44
275.872	2581.44
276.104	2203.44
276.335	1860.44
276.567	1849.44
276.799	1918.44
277.031	1993.44
277.262	1540.44
277.494	1207.44
277.726	1159.44
277.957	1304.44
278.189	1455.44
278.421	1422.44
278.652	1404.44
278.884	1340.44
279.115	1236.44
279.347	1172.44
279.579	1199.44
279.81	1176.44
280.042	1164.44
280.273	1191.44
280.505	1118.44
280.736	1024.44
280.968	997.44
281.199	1092.44
281.431	1200.44
281.662	1219.44
281.894	1138.44
282.125	1218.44
282.356	1291.44
282.588	1360.44
282.819	1227.44
283.051	1319.44
283.282	1662.44
283.513	1933.44
283.745	2175.44
283.976	2125.44
284.207	1962.44
284.439	2053.44
284.67	1999.44
284.901	1757.44
285.132	1872.44
285.364	1992.44
285.595	1862.44
285.826	1935.44
286.057	1991.44
286.288	1932.44
286.52	1986.44
286.751	2097.44
286.982	2032.44
287.213	1786.44
287.444	1722.44
287.675	1792.44
287.906	1759.44
288.138	1470.44
288.369	1314.44
288.6	1249.44
288.831	1312.44
289.062	1488.44
289.293	1662.44
289.524	1573.44
289.755	1519.44
289.986	1594.44
290.217	1402.44
290.448	1087.44
290.679	934.44
290.91	928.44
291.141	917.44
291.371	931.44
291.602	945.44
291.833	938.44
292.064	1011.44
292.295	1205.44
292.526	1378.44
292.757	1411.44
292.987	1498.44
293.218	1525.44
293.449	1580.44
293.68	1650.44
293.91	1570.44
294.141	1589.44
294.372	1494.44
294.603	1371.44
294.833	1537.44
295.064	1791.44
295.295	1737.44
295.525	1318.44
295.756	1130.44
295.987	962.44
296.217	1003.44
296.448	1027.44
296.679	1069.44
296.909	1205.44
297.14	1300.44
297.37	1395.44
297.601	1303.44
297.831	1130.44
298.062	1216.44
298.292	1423.44
298.523	1537.44
298.753	1752.44
298.984	1538.44
299.214	1202.44
299.445	1053.44
299.675	1011.44
299.905	997.44
300.136	1047.44
300.366	1140.44
300.597	1131.44
300.827	1007.44
301.057	948.44
301.288	989.44
301.518	1071.44
301.748	1203.44
301.979	1278.44
302.209	1382.44
302.439	1410.44
302.669	1216.44
302.9	1210.44
303.13	1130.44
303.36	1047.44
303.59	1009.44
303.82	1097.44
304.051	1202.44
304.281	1304.44
304.511	1262.44
304.741	1147.44
304.971	1172.44
305.201	1270.44
305.431	1171.44
305.661	1043.44
305.891	1040.44
306.121	1049.44
306.352	953.44
306.582	867.44
306.812	846.44
307.042	838.44
307.272	779.44
307.502	793.44
307.731	844.44
307.961	877.44
308.191	838.44
308.421	799.44
308.651	778.44
308.881	735.44
309.111	746.44
309.341	803.44
309.571	850.44
309.8	925.44
310.03	900.44
310.26	976.44
310.49	958.44
310.72	863.44
310.949	863.44
311.179	874.44
311.409	910.44
311.639	1064.44
311.868	1361.44
312.098	1742.44
312.328	1942.44
312.557	1797.44
312.787	1861.44
313.017	1624.44
313.246	1736.44
313.476	1920.44
313.706	1623.44
313.935	1243.44
314.165	1038.44
314.394	948.44
314.624	947.44
314.853	975.44
315.083	1029.44
315.312	989.44
315.542	965.44
315.771	928.44
316.001	829.44
316.23	829.44
316.46	827.44
316.689	831.44
316.919	840.44
317.148	879.44
317.377	843.44
317.607	847.44
317.836	923.44
318.065	1077.44
318.295	1203.44
318.524	1105.44
318.753	950.44
318.983	916.44
319.212	896.44
319.441	988.44
319.67	1107.44
319.9	1197.44
320.129	1117.44
320.358	964.44
320.587	928.44
320.816	982.44
321.046	1144.44
321.275	1271.44
321.504	1255.44
321.733	1255.44
321.962	1194.44
322.191	1134.44
322.42	1083.44
322.649	1096.44
322.878	1194.44
323.108	1142.44
323.337	1078.44
323.566	1072.44
323.795	1021.44
324.024	992.44
324.253	947.44
324.482	963.44
324.71	1064.44
324.939	1159.44
325.168	1106.44
325.397	922.44
325.626	926.44
325.855	884.44
326.084	893.44
326.313	854.44
326.542	830.44
326.77	892.44
326.999	876.44
327.228	917.44
327.457	951.44
327.686	986.44
327.914	875.44
328.143	802.44
328.372	833.44
328.6	834.44
328.829	876.44
329.058	848.44
329.287	892.44
329.515	886.44
329.744	837.44
329.972	814.44
330.201	780.44
330.43	815.44
330.658	950.44
330.887	1054.44
331.115	1027.44
331.344	990.44
331.572	931.44
331.801	884.44
332.03	831.44
332.258	854.44
332.486	937.44
332.715	942.44
332.943	896.44
333.172	894.44
333.4	911.44
333.629	1020.44
333.857	1102.44
334.085	1074.44
334.314	1095.44
334.542	1016.44
334.771	942.44
334.999	940.44
335.227	904.44
335.455	902.44
335.684	997.44
335.912	1175.44
336.14	1296.44
336.369	1220.44
336.597	1196.44
336.825	1334.44
337.053	1463.44
337.281	1219.44
337.51	947.44
337.738	951.44
337.966	1026.44
338.194	1166.44
338.422	1068.44
338.65	919.44
338.878	853.44
339.106	899.44
339.334	1016.44
339.562	1086.44
339.79	989.44
340.018	951.44
340.246	1008.44
340.474	1166.44
340.702	1229.44
340.93	1268.44
341.158	1308.44
341.386	1101.44
341.614	1098.44
341.842	1088.44
342.07	1156.44
342.298	1296.44
342.526	1358.44
342.754	1184.44
342.981	1076.44
343.209	1049.44
343.437	1098.44
343.665	1183.44
343.893	1184.44
344.12	1358.44
344.348	1580.44
344.576	1410.44
344.804	1149.44
345.031	1052.44
345.259	955.44
345.487	958.44
345.714	994.44
345.942	1064.44
346.17	1161.44
346.397	1070.44
346.625	969.44
346.853	959.44
347.08	929.44
347.308	973.44
347.535	1074.44
347.763	1111.44
347.99	948.44
348.218	896.44
348.445	954.44
348.673	951.44
348.9	951.44
349.128	1059.44
349.355	1051.44
349.583	1060.44
349.81	975.44
350.037	945.44
350.265	802.44
350.492	770.44
350.72	750.44
350.947	837.44
351.174	857.44
351.402	928.44
351.629	971.44
351.856	944.44
352.083	865.44
352.311	981.44
352.538	1072.44
352.765	1152.44
352.992	1003.44
353.22	978.44
353.447	976.44
353.674	950.44
353.901	928.44
354.128	942.44
354.355	983.44
354.583	976.44
354.81	955.44
355.037	992.44
355.264	978.44
355.491	1071.44
355.718	1152.44
355.945	1107.44
356.172	1066.44
356.399	1090.44
356.626	1286.44
356.853	1584.44
357.08	1690.44
357.307	1652.44
357.534	1344.44
357.761	1398.44
357.988	1692.44
358.215	2006.44
358.441	1863.44
358.668	1612.44
358.895	1456.44
359.122	1188.44
359.349	1188.44
359.576	1270.44
359.802	1076.44
360.029	950.44
360.256	999.44
360.483	1257.44
360.709	1594.44
360.936	1639.44
361.163	1407.44
361.39	1076.44
361.616	1036.44
361.843	1216.44
362.07	1500.44
362.296	1347.44
362.523	1042.44
362.749	939.44
362.976	975.44
363.203	1166.44
363.429	1274.44
363.656	1060.44
363.882	970.44
364.109	954.44
364.335	964.44
364.562	940.44
364.788	1094.44
365.015	1291.44
365.241	1172.44
365.468	930.44
365.694	815.44
365.92	801.44
366.147	782.44
366.373	756.44
366.599	788.44
366.826	802.44
367.052	792.44
367.278	803.44
367.505	819.44
367.731	876.44
367.957	990.44
368.184	1009.44
368.41	987.44
368.636	1007.44
368.862	1030.44
369.089	1016.44
369.315	862.44
369.541	864.44
369.767	843.44
369.993	828.44
370.219	793.44
370.445	883.44
370.672	996.44
370.898	1057.44
371.124	1061.44
371.35	946.44
371.576	875.44
371.802	947.44
372.028	1142.44
372.254	1275.44
372.48	1150.44
372.706	1031.44
372.932	1080.44
373.158	1113.44
373.384	1316.44
373.61	1808.44
373.835	1861.44
374.061	1357.44
374.287	1110.44
374.513	1355.44
374.739	1588.44
374.965	1644.44
375.191	1623.44
375.416	1156.44
375.642	1018.44
375.868	1165.44
376.094	1335.44
376.319	1168.44
376.545	1254.44
376.771	1296.44
376.997	1137.44
377.222	880.44
377.448	733.44
377.674	731.44
377.899	746.44
378.125	750.44
378.35	726.44
378.576	747.44
378.802	851.44
379.027	908.44
379.253	919.44
379.478	903.44
379.704	1008.44
379.929	1072.44
380.155	1076.44
380.38	924.44
380.606	1022.44
380.831	1082.44
381.057	970.44
381.282	962.44
381.507	1138.44
381.733	1409.44
381.958	1498.44
382.184	1576.44
382.409	1650.44
382.634	1616.44
382.86	1713.44
383.085	1408.44
383.31	1119.44
383.535	1189.44
383.761	1210.44
383.986	1114.44
384.211	1378.44
384.436	1341.44
384.662	1013.44
384.887	987.44
385.112	1011.44
385.337	1011.44
385.562	994.44
385.787	1101.44
386.013	1201.44
386.238	1238.44
386.463	997.44
386.688	978.44
386.913	949.44
387.138	843.44
387.363	926.44
387.588	970.44
387.813	976.44
388.038	1094.44
388.263	928.44
388.488	931.44
388.713	1090.44
388.938	1173.44
389.163	1000.44
389.387	896.44
389.612	913.44
389.837	925.44
390.062	938.44
390.287	976.44
390.512	998.44
390.736	922.44
390.961	860.44
391.186	829.44
391.411	829.44
391.636	843.44
391.86	925.44
392.085	1018.44
392.31	963.44
392.534	954.44
392.759	918.44
392.984	986.44
393.208	922.44
393.433	867.44
393.658	791.44
393.882	771.44
394.107	779.44
394.331	802.44
394.556	782.44
394.78	811.44
395.005	844.44
395.229	864.44
395.454	861.44
395.678	874.44
395.903	912.44
396.127	849.44
396.352	882.44
396.576	959.44
396.801	976.44
397.025	1093.44
397.249	1106.44
397.474	894.44
397.698	916.44
397.922	958.44
398.147	900.44
398.371	887.44
398.595	946.44
398.82	904.44
399.044	933.44
399.268	986.44
399.492	1002.44
399.717	1050.44
399.941	1089.44
400.165	1054.44
400.389	1022.44
400.613	1052.44
400.837	1020.44
401.062	934.44
401.286	893.44
401.51	879.44
401.734	884.44
401.958	907.44
402.182	895.44
402.406	902.44
402.63	897.44
402.854	918.44
403.078	1024.44
403.302	1280.44
403.526	1277.44
403.75	1159.44
403.974	1023.44
404.198	1066.44
404.422	1188.44
404.645	1391.44
404.869	1540.44
405.093	1144.44
405.317	990.44
405.541	956.44
405.765	966.44
405.988	994.44
406.212	1076.44
406.436	1246.44
406.66	1418.44
406.883	1130.44
407.107	1185.44
407.331	1314.44
407.555	1282.44
407.778	1099.44
408.002	1025.44
408.226	1035.44
408.449	1030.44
408.673	994.44
408.896	945.44
409.12	890.44
409.344	890.44
409.567	871.44
409.791	901.44
410.014	884.44
410.238	865.44
410.461	865.44
410.685	853.44
410.908	904.44
411.132	920.44
411.355	907.44
411.578	933.44
411.802	930.44
412.025	972.44
412.249	974.44
412.472	936.44
412.695	948.44
412.919	945.44
413.142	962.44
413.365	1015.44
413.589	1028.44
413.812	950.44
414.035	892.44
414.258	940.44
414.482	1050.44
414.705	1075.44
414.928	886.44
415.151	890.44
415.374	872.44
415.597	925.44
415.821	944.44
416.044	888.44
416.267	855.44
416.49	828.44
416.713	874.44
416.936	832.44
417.159	861.44
417.382	876.44
417.605	888.44
417.828	878.44
418.051	892.44
418.274	917.44
418.497	924.44
418.72	918.44
418.943	945.44
419.166	993.44
419.389	1026.44
419.611	992.44
419.834	994.44
420.057	1102.44
420.28	1112.44
420.503	1023.44
420.726	887.44
420.948	866.44
421.171	888.44
421.394	854.44
421.617	833.44
421.839	887.44
422.062	917.44
422.285	906.44
422.507	906.44
422.73	938.44
422.953	965.44
423.175	932.44
423.398	931.44
423.621	975.44
423.843	1062.44
424.066	973.44
424.288	912.44
424.511	864.44
424.733	901.44
424.956	948.44
425.178	1062.44
425.401	1194.44
425.623	1359.44
425.846	1096.44
426.068	994.44
426.291	1089.44
426.513	991.44
426.735	952.44
426.958	946.44
427.18	1102.44
427.402	1495.44
427.625	1452.44
427.847	1154.44
428.069	920.44
428.292	875.44
428.514	915.44
428.736	869.44
428.958	945.44
429.181	1096.44
429.403	962.44
429.625	877.44
429.847	855.44
430.069	893.44
430.292	910.44
430.514	847.44
430.736	923.44
430.958	1176.44
431.18	1083.44
431.402	832.44
431.624	807.44
431.846	787.44
432.068	772.44
432.29	811.44
432.512	939.44
432.734	1210.44
432.956	1112.44
433.178	866.44
433.4	838.44
433.622	838.44
433.844	868.44
434.066	917.44
434.287	899.44
434.509	871.44
434.731	900.44
434.953	867.44
435.175	895.44
435.397	1007.44
435.618	888.44
435.84	807.44
436.062	808.44
436.284	795.44
436.505	801.44
436.727	761.44
436.949	812.44
437.17	833.44
437.392	872.44
437.614	831.44
437.835	802.44
438.057	835.44
438.278	956.44
438.5	1380.44
438.721	1366.44
438.943	900.44
439.165	795.44
439.386	772.44
439.608	775.44
439.829	780.44
440.05	790.44
440.272	819.44
440.493	971.44
440.715	1197.44
440.936	997.44
441.158	851.44
441.379	854.44
441.6	951.44
441.822	1040.44
442.043	876.44
442.264	857.44
442.486	870.44
442.707	850.44
442.928	868.44
443.149	845.44
443.371	881.44
443.592	892.44
443.813	917.44
444.034	907.44
444.255	904.44
444.476	957.44
444.698	921.44
444.919	932.44
445.14	1021.44
445.361	1036.44
445.582	915.44
445.803	878.44
446.024	896.44
446.245	929.44
446.466	900.44
446.687	879.44
446.908	853.44
447.129	813.44
447.35	796.44
447.571	773.44
447.792	794.44
448.013	806.44
448.234	782.44
448.455	782.44
448.675	790.44
448.896	806.44
449.117	766.44
449.338	795.44
449.559	812.44
449.779	851.44
450	864.44
450.221	816.44
450.442	784.44
450.662	799.44
450.883	786.44
451.104	815.44
451.324	792.44
451.545	790.44
451.766	812.44
451.986	750.44
452.207	772.44
452.428	739.44
452.648	747.44
452.869	808.44
453.089	828.44
453.31	824.44
453.53	726.44
453.751	732.44
453.971	756.44
454.192	754.44
454.412	777.44
454.633	736.44
454.853	738.44
455.073	711.44
455.294	698.44
455.514	738.44
455.734	764.44
455.955	781.44
456.175	814.44
456.395	758.44
456.616	708.44
456.836	701.44
457.056	678.44
457.276	680.44
457.497	722.44
457.717	734.44
457.937	726.44
458.157	701.44
458.377	709.44
458.598	738.44
458.818	758.44
459.038	784.44
459.258	822.44
459.478	861.44
459.698	902.44
459.918	890.44
460.138	855.44
460.358	892.44
460.578	839.44
460.798	884.44
461.018	867.44
461.238	836.44
461.458	860.44
461.678	885.44
461.898	933.44
462.118	929.44
462.338	889.44
462.558	930.44
462.777	995.44
462.997	986.44
463.217	998.44
463.437	1002.44
463.657	989.44
463.876	930.44
464.096	950.44
464.316	922.44
464.536	955.44
464.755	1002.44
464.975	993.44
465.195	907.44
465.414	972.44
465.634	960.44
465.854	943.44
466.073	860.44
466.293	835.44
466.512	931.44
466.732	1033.44
466.951	1005.44
467.171	888.44
467.391	839.44
467.61	855.44
467.829	920.44
468.049	904.44
468.268	874.44
468.488	875.44
468.707	898.44
468.927	1066.44
469.146	1137.44
469.365	1012.44
469.585	952.44
469.804	968.44
470.023	1102.44
470.243	927.44
470.462	922.44
470.681	871.44
470.901	905.44
471.12	945.44
471.339	962.44
471.558	904.44
471.777	915.44
471.997	968.44
472.216	1127.44
472.435	1061.44
472.654	976.44
472.873	940.44
473.092	978.44
473.311	1024.44
473.53	923.44
473.749	924.44
473.968	956.44
474.187	936.44
474.406	913.44
474.625	902.44
474.844	951.44
475.063	1008.44
475.282	1020.44
475.501	1061.44
475.72	1121.44
475.939	1084.44
476.158	1135.44
476.377	1220.44
476.596	1420.44
476.814	1486.44
477.033	1217.44
477.252	1046.44
477.471	973.44
477.69	992.44
477.908	1122.44
478.127	1123.44
478.346	1026.44
478.564	1110.44
478.783	1053.44
479.002	1090.44
479.22	1232.44
479.439	1416.44
479.658	1183.44
479.876	1131.44
480.095	1212.44
480.313	1231.44
480.532	1097.44
480.751	1070.44
480.969	1106.44
481.188	1270.44
481.406	1263.44
481.624	1187.44
481.843	1099.44
482.061	1028.44
482.28	1177.44
482.498	1418.44
482.717	1338.44
482.935	1175.44
483.153	1124.44
483.372	1051.44
483.59	1020.44
483.808	1034.44
484.027	1023.44
484.245	975.44
484.463	963.44
484.681	1040.44
484.9	1059.44
485.118	1174.44
485.336	1080.44
485.554	1036.44
485.772	1050.44
485.99	1163.44
486.209	1224.44
486.427	1224.44
486.645	1160.44
486.863	1240.44
487.081	1195.44
487.299	1367.44
487.517	1295.44
487.735	1200.44
487.953	1261.44
488.171	1252.44
488.389	1128.44
488.607	1083.44
488.825	1155.44
489.043	1257.44
489.261	1376.44
489.479	1496.44
489.696	1250.44
489.914	1177.44
490.132	1090.44
490.35	1134.44
490.568	1118.44
490.786	1124.44
491.003	1111.44
491.221	1170.44
491.439	1130.44
491.657	1108.44
491.874	1229.44
492.092	1475.44
492.31	1737.44
492.527	1725.44
492.745	1501.44
492.963	1332.44
493.18	1285.44
493.398	1301.44
493.615	1250.44
493.833	1235.44
494.05	1210.44
494.268	1254.44
494.485	1191.44
494.703	1188.44
494.92	1210.44
495.138	1174.44
495.355	1163.44
495.573	1209.44
495.79	1360.44
496.008	1751.44
496.225	1526.44
496.442	1349.44
496.66	1314.44
496.877	1404.44
497.094	1383.44
497.312	1308.44
497.529	1317.44
497.746	1317.44
497.963	1332.44
498.181	1453.44
498.398	1555.44
498.615	1613.44
498.832	1638.44
499.049	1653.44
499.267	1534.44
499.484	1496.44
499.701	1587.44
499.918	1728.44
500.135	1835.44
500.352	1895.44
500.569	1935.44
500.786	2054.44
501.003	1991.44
501.22	1780.44
501.437	1691.44
501.654	1647.44
501.871	1604.44
502.088	1635.44
502.305	1477.44
502.522	1501.44
502.739	1442.44
502.956	1363.44
503.172	1328.44
503.389	1279.44
503.606	1282.44
503.823	1262.44
504.04	1307.44
504.256	1285.44
504.473	1359.44
504.69	1357.44
504.907	1363.44
505.123	1338.44
505.34	1420.44
505.557	1374.44
505.773	1332.44
505.99	1284.44
506.207	1355.44
506.423	1223.44
506.64	1180.44
506.856	1236.44
507.073	1383.44
507.289	1323.44
507.506	1334.44
507.722	1391.44
507.939	1406.44
508.155	1413.44
508.372	1302.44
508.588	1279.44
508.805	1204.44
509.021	1199.44
509.238	1159.44
509.454	1167.44
509.67	1156.44
509.887	1198.44
510.103	1313.44
510.319	1302.44
510.536	1186.44
510.752	1071.44
510.968	1075.44
511.184	992.44
511.401	1001.44
511.617	994.44
511.833	1044.44
512.049	1062.44
512.265	1066.44
512.481	1105.44
512.698	1239.44
512.914	1345.44
513.13	1201.44
513.346	1103.44
513.562	1180.44
513.778	1168.44
513.994	1132.44
514.21	1206.44
514.426	1197.44
514.642	1105.44
514.858	1089.44
515.074	1189.44
515.29	1265.44
515.506	1422.44
515.721	1334.44
515.937	1238.44
516.153	1143.44
516.369	1162.44
516.585	1198.44
516.801	1366.44
517.016	1599.44
517.232	1542.44
517.448	1502.44
517.664	1340.44
517.879	1259.44
518.095	1246.44
518.311	1273.44
518.527	1303.44
518.742	1371.44
518.958	1425.44
519.173	1383.44
519.389	1331.44
519.605	1388.44
519.82	1456.44
520.036	1701.44
520.251	1666.44
520.467	1555.44
520.682	2299.44
520.898	2844.44
521.113	2687.44
521.329	1645.44
521.544	1518.44
521.76	1482.44
521.975	1325.44
522.19	1278.44
522.406	1300.44
522.621	1436.44
522.836	1470.44
523.052	1523.44
523.267	1254.44
523.482	1292.44
523.698	1336.44
523.913	1300.44
524.128	1194.44
524.343	1146.44
524.559	1166.44
524.774	1152.44
524.989	1171.44
525.204	1178.44
525.419	1277.44
525.634	1182.44
525.849	1225.44
526.064	1239.44
526.28	1266.44
526.495	1446.44
526.71	1509.44
526.925	1318.44
527.14	1395.44
527.355	1342.44
527.57	1105.44
527.785	1159.44
527.999	1120.44
528.214	1038.44
528.429	1043.44
528.644	1079.44
528.859	992.44
529.074	954.44
529.289	976.44
529.503	982.44
529.718	988.44
529.933	1141.44
530.148	1180.44
530.363	1040.44
530.577	1014.44
530.792	990.44
531.007	1006.44
531.221	935.44
531.436	968.44
531.651	952.44
531.865	967.44
532.08	974.44
532.295	966.44
532.509	1030.44
532.724	1139.44
532.938	1288.44
533.153	1483.44
533.367	1214.44
533.582	1137.44
533.796	1064.44
534.011	1015.44
534.225	1046.44
534.44	1060.44
534.654	1078.44
534.868	1218.44
535.083	1121.44
535.297	991.44
535.511	1024.44
535.726	1095.44
535.94	1074.44
536.154	1006.44
536.369	976.44
536.583	988.44
536.797	988.44
537.011	1003.44
537.225	1095.44
537.44	1142.44
537.654	1031.44
537.868	986.44
538.082	998.44
538.296	1013.44
538.51	1078.44
538.724	1083.44
538.938	1010.44
539.153	965.44
539.367	946.44
539.581	972.44
539.795	1031.44
540.009	1090.44
540.222	1044.44
540.436	1006.44
540.65	1126.44
540.864	1146.44
541.078	1168.44
541.292	1296.44
541.506	1095.44
541.72	1055.44
541.934	1025.44
542.147	1027.44
542.361	1004.44
542.575	1051.44
542.789	1034.44
543.002	935.44
543.216	1048.44
543.43	965.44
543.644	912.44
543.857	923.44
544.071	935.44
544.285	932.44
544.498	908.44
544.712	938.44
544.925	957.44
545.139	936.44
545.352	897.44
545.566	906.44
545.779	1031.44
545.993	950.44
546.206	867.44
546.42	894.44
546.633	857.44
546.847	835.44
547.06	834.44
547.274	844.44
547.487	858.44
547.7	938.44
547.914	993.44
548.127	1114.44
548.34	1066.44
548.554	955.44
548.767	991.44
548.98	1031.44
549.193	973.44
549.407	1008.44
549.62	1188.44
549.833	1103.44
550.046	1141.44
550.259	1135.44
550.473	996.44
550.686	954.44
550.899	971.44
551.112	972.44
551.325	1013.44
551.538	1083.44
551.751	937.44
551.964	895.44
552.177	874.44
552.39	880.44
552.603	874.44
552.816	910.44
553.029	877.44
553.242	846.44
553.455	928.44
553.667	1010.44
553.88	967.44
554.093	877.44
554.306	839.44
554.519	803.44
554.732	788.44
554.944	755.44
555.157	755.44
555.37	749.44
555.583	776.44
555.795	773.44
556.008	811.44
556.221	812.44
556.433	790.44
556.646	770.44
556.859	760.44
557.071	815.44
557.284	775.44
557.496	815.44
557.709	820.44
557.921	802.44
558.134	717.44
558.346	709.44
558.559	738.44
558.771	742.44
558.984	806.44
559.196	748.44
559.409	716.44
559.621	675.44
559.833	715.44
560.046	705.44
560.258	709.44
560.47	725.44
560.683	691.44
560.895	679.44
561.107	644.44
561.32	642.44
561.532	663.44
561.744	758.44
561.956	777.44
562.168	710.44
562.381	709.44
562.593	711.44
562.805	719.44
563.017	704.44
563.229	690.44
563.441	652.44
563.653	669.44
563.865	680.44
564.077	710.44
564.289	690.44
564.501	673.44
564.713	742.44
564.925	730.44
565.137	683.44
565.349	689.44
565.561	698.44
565.773	686.44
565.985	718.44
566.197	776.44
566.408	821.44
566.62	822.44
566.832	823.44
567.044	839.44
567.255	863.44
567.467	929.44
567.679	852.44
567.891	864.44
568.102	862.44
568.314	875.44
568.526	844.44
568.737	808.44
568.949	852.44
569.161	752.44
569.372	689.44
569.584	682.44
569.795	642.44
570.007	668.44
570.218	740.44
570.43	685.44
570.641	690.44
570.853	636.44
571.064	671.44
571.276	693.44
571.487	690.44
571.698	668.44
571.91	664.44
572.121	644.44
572.333	621.44
572.544	604.44
572.755	624.44
572.966	600.44
573.178	611.44
573.389	623.44
573.6	637.44
573.811	631.44
574.023	570.44
574.234	570.44
574.445	583.44
574.656	568.44
574.867	589.44
575.078	593.44
575.289	591.44
575.501	608.44
575.712	574.44
575.923	544.44
576.134	563.44
576.345	547.44
576.556	544.44
576.767	511.44
576.978	537.44
577.188	535.44
577.399	502.44
577.61	513.44
577.821	526.44
578.032	519.44
578.243	575.44
578.454	568.44
578.665	556.44
578.875	558.44
579.086	563.44
579.297	550.44
579.508	560.44
579.718	527.44
579.929	535.44
580.14	529.44
580.35	499.44
580.561	491.44
580.772	460.44
580.982	447.44
581.193	494.44
581.403	490.44
581.614	466.44
581.825	464.44
582.035	455.44
582.246	452.44
582.456	466.44
582.667	467.44
582.877	455.44
583.087	454.44
583.298	451.44
583.508	442.44
583.719	447.44
583.929	455.44
584.139	435.44
584.35	454.44
584.56	471.44
584.77	475.44
584.981	483.44
585.191	464.44
585.401	451.44
585.611	467.44
585.821	494.44
586.032	475.44
586.242	453.44
586.452	475.44
586.662	483.44
586.872	486.44
587.082	484.44
587.292	447.44
587.502	465.44
587.713	451.44
587.923	461.44
588.133	495.44
588.343	478.44
588.553	439.44
588.762	439.44
588.972	456.44
589.182	456.44
589.392	463.44
589.602	460.44
589.812	468.44
590.022	485.44
590.232	498.44
590.441	464.44
590.651	433.44
590.861	460.44
591.071	451.44
591.281	435.44
591.49	426.44
591.7	450.44
591.91	436.44
592.119	442.44
592.329	454.44
592.539	435.44
592.748	473.44
592.958	453.44
593.167	455.44
593.377	479.44
593.587	469.44
593.796	481.44
594.006	448.44
594.215	469.44
594.424	486.44
594.634	510.44
594.843	482.44
595.053	452.44
595.262	451.44
595.472	432.44
595.681	423.44
595.89	410.44
596.1	437.44
596.309	428.44
596.518	403.44
596.727	405.44
596.937	432.44
597.146	432.44
597.355	463.44
597.564	431.44
597.774	406.44
597.983	396.44
598.192	400.44
598.401	400.44
598.61	392.44
598.819	393.44
599.028	395.44
599.237	397.44
599.446	372.44
599.655	377.44
599.864	351.44
600.073	375.44
600.282	364.44
600.491	358.44
600.7	384.44
600.909	378.44
601.118	386.44
601.327	374.44
601.536	382.44
601.745	381.44
601.953	399.44
602.162	388.44
602.371	398.44
602.58	397.44
602.789	384.44
602.997	394.44
603.206	380.44
603.415	371.44
603.623	365.44
603.832	364.44
604.041	373.44
604.249	370.44
604.458	383.44
604.666	357.44
604.875	347.44
605.084	330.44
605.292	351.44
605.501	369.44
605.709	368.44
605.918	368.44
606.126	323.44
606.334	350.44
606.543	355.44
606.751	374.44
606.96	352.44
607.168	336.44
607.376	323.44
607.585	309.44
607.793	362.44
608.001	343.44
608.21	351.44
608.418	349.44
608.626	359.44
608.834	335.44
609.043	339.44
609.251	331.44
609.459	334.44
609.667	341.44
609.875	332.44
610.083	322.44
610.291	335.44
610.499	358.44
610.707	326.44
610.916	328.44
611.124	338.44
611.332	338.44
611.54	312.44
611.748	337.44
611.955	314.44
612.163	335.44
612.371	322.44
612.579	327.44
612.787	327.44
612.995	334.44
613.203	323.44
613.411	316.44
613.618	327.44
613.826	321.44
614.034	354.44
614.242	327.44
614.449	326.44
614.657	326.44
614.865	327.44
615.072	327.44
615.28	314.44
615.488	335.44
615.695	324.44
615.903	325.44
616.111	326.44
616.318	321.44
616.526	311.44
616.733	317.44
616.941	337.44
617.148	325.44
617.356	318.44
617.563	331.44
617.771	307.44
617.978	323.44
618.185	308.44
618.393	312.44
618.6	295.44
618.807	309.44
619.015	331.44
619.222	314.44
619.429	324.44
619.637	323.44
619.844	299.44
620.051	290.44
620.258	309.44
620.466	285.44
620.673	281.44
620.88	283.44
621.087	298.44
621.294	268.44
621.501	288.44
621.708	304.44
621.915	290.44
622.122	308.44
622.329	291.44
622.536	289.44
622.743	290.44
622.95	283.44
623.157	306.44
623.364	302.44
623.571	294.44
623.778	292.44
623.985	317.44
624.192	300.44
624.399	306.44
624.606	302.44
624.812	294.44
625.019	289.44
625.226	302.44
625.433	293.44
625.639	282.44
625.846	283.44
626.053	278.44
626.259	264.44
626.466	278.44
626.673	306.44
626.879	270.44
627.086	261.44
627.293	277.44
627.499	263.44
627.706	263.44
627.912	271.44
628.119	277.44
628.325	254.44
628.532	254.44
628.738	250.44
628.945	242.44
629.151	261.44
629.357	282.44
629.564	270.44
629.77	257.44
629.976	263.44
630.183	250.44
630.389	270.44
630.595	260.44
630.802	247.44
631.008	258.44
631.214	240.44
631.42	221.44
631.627	243.44
631.833	248.44
632.039	269.44
632.245	246.44
632.451	254.44
632.657	238.44
632.863	241.44
633.069	237.44
633.275	232.44
633.481	236.44
633.688	234.44
633.893	230.44
634.099	221.44
634.305	252.44
634.511	252.44
634.717	242.44
634.923	232.44
635.129	206.44
635.335	230.44
635.541	237.44
635.747	250.44
635.952	222.44
636.158	236.44
636.364	241.44
636.57	229.44
636.775	242.44
636.981	225.44
637.187	234.44
637.392	221.44
637.598	221.44
637.804	216.44
638.009	238.44
638.215	213.44
638.421	222.44
638.626	212.44
638.832	226.44
639.037	215.44
639.243	213.44
639.448	238.44
639.654	230.44
639.859	231.44
640.065	223.44
640.27	242.44
640.475	216.44
640.681	223.44
640.886	203.44
641.091	227.44
641.297	237.44
641.502	218.44
641.707	223.44
641.913	211.44
642.118	231.44
642.323	217.44
642.528	225.44
642.733	223.44
642.939	210.44
643.144	205.44
643.349	221.44
643.554	215.44
643.759	224.44
643.964	210.44
644.169	203.44
644.374	198.44
644.579	189.44
644.784	199.44
644.989	220.44
645.194	205.44
645.399	203.44
645.604	199.44
645.809	216.44
646.014	203.44
646.219	199.44
646.423	219.44
646.628	202.44
646.833	207.44
647.038	193.44
647.243	208.44
647.447	212.44
647.652	194.44
647.857	200.44
648.062	222.44
648.266	216.44
648.471	214.44
648.676	206.44
648.88	207.44
649.085	207.44
649.289	198.44
649.494	206.44
649.698	211.44
649.903	210.44
650.107	200.44
650.312	199.44
650.516	195.44
650.721	193.44
650.925	178.44
651.13	183.44
651.334	185.44
651.539	188.44
651.743	185.44
651.947	189.44
652.152	177.44
652.356	176.44
652.56	163.44
652.764	180.44
652.969	172.44
653.173	167.44
653.377	162.44
653.581	157.44
653.785	176.44
653.99	162.44
654.194	174.44
654.398	174.44
654.602	171.44
654.806	156.44
655.01	160.44
655.214	160.44
655.418	155.44
655.622	163.44
655.826	151.44
656.03	150.44
656.234	172.44
656.438	164.44
656.642	163.44
656.846	162.44
657.049	148.44
657.253	153.44
657.457	148.44
657.661	138.44
657.865	145.44
658.068	131.44
658.272	113.44
658.476	121.44
658.68	116.44
658.883	106.44
659.087	108.44
659.291	133.44
659.494	117.44
659.698	122.44
659.901	107.44
660.105	118.44
660.309	114.44
660.512	91.44
660.716	94.44
660.919	95.44
661.123	88.44
661.326	99.44
661.53	95.44
661.733	94.44
661.936	96.44
662.14	91.44
662.343	78.44
662.546	77.44
662.75	84.44
662.953	95.44
663.156	82.44
663.36	101.44
663.563	83.44
663.766	82.44
663.969	87.44
664.173	97.44
664.376	93.44
664.579	92.44
664.782	88.44
664.985	86.44
665.188	90.44
665.391	76.44
665.594	76.44
665.797	69.44
666	90.44
666.203	84.44
666.406	79.44
666.609	98.44
666.812	83.44
667.015	76.44
667.218	69.44
667.421	87.44
667.624	80.44
667.827	76.44
668.03	68.44
668.232	77.44
668.435	81.44
668.638	79.44
668.841	80.44
669.043	91.44
669.246	85.44
669.449	75.44
669.651	78.44
669.854	80.44
670.057	83.44
670.259	85.44
670.462	89.44
670.665	70.44
670.867	96.44
671.07	78.44
671.272	85.44
671.475	100.44
671.677	82.44
671.88	85.44
672.082	73.44
672.284	72.44
672.487	88.44
672.689	74.44
672.892	81.44
