Data from NickelSpatula.Lamp.E5.5.P2_HRD10591_11-52-26-555.txt Node
Date: Tue Jul 23 11:52:26 EDT 2019
User: cochatt
Spectrometer: HR+D1059
Trigger mode: 1
Integration Time (sec): 1.000000E-1
Scans to average: 1
Electric dark correction enabled: true
Nonlinearity correction enabled: false
Boxcar width: 0
XAxis mode: Wavelengths
Number of Pixels in Spectrum: 2048
>>>>>Begin Spectral Data<<<<<
223.165	-9.62
223.4	-9.62
223.635	-9.62
223.869	-16.62
224.104	-36.62
224.338	-16.62
224.573	-12.62
224.808	-22.62
225.042	0.38
225.277	-9.62
225.511	3.38
225.746	27.38
225.98	20.38
226.215	9.38
226.449	13.38
226.683	4.38
226.918	21.38
227.152	24.38
227.387	22.38
227.621	26.38
227.856	50.38
228.09	41.38
228.324	52.38
228.559	50.38
228.793	54.38
229.027	74.38
229.262	89.38
229.496	71.38
229.73	84.38
229.964	95.38
230.199	111.38
230.433	103.38
230.667	91.38
230.901	91.38
231.136	99.38
231.37	105.38
231.604	99.38
231.838	107.38
232.072	108.38
232.306	97.38
232.541	108.38
232.775	110.38
233.009	114.38
233.243	107.38
233.477	108.38
233.711	120.38
233.945	114.38
234.179	122.38
234.413	121.38
234.647	139.38
234.881	144.38
235.115	135.38
235.349	136.38
235.583	126.38
235.817	116.38
236.051	133.38
236.285	136.38
236.519	139.38
236.753	128.38
236.987	118.38
237.221	127.38
237.455	129.38
237.689	120.38
237.922	152.38
238.156	150.38
238.39	159.38
238.624	179.38
238.858	168.38
239.091	137.38
239.325	148.38
239.559	134.38
239.793	150.38
240.027	170.38
240.26	173.38
240.494	164.38
240.728	158.38
240.961	170.38
241.195	156.38
241.429	162.38
241.662	176.38
241.896	161.38
242.13	159.38
242.363	141.38
242.597	131.38
242.83	148.38
243.064	145.38
243.298	157.38
243.531	170.38
243.765	167.38
243.998	167.38
244.232	166.38
244.465	161.38
244.699	151.38
244.932	168.38
245.166	163.38
245.399	168.38
245.633	151.38
245.866	157.38
246.099	174.38
246.333	180.38
246.566	196.38
246.8	193.38
247.033	187.38
247.266	167.38
247.5	180.38
247.733	172.38
247.966	172.38
248.2	187.38
248.433	179.38
248.666	208.38
248.899	186.38
249.133	204.38
249.366	234.38
249.599	238.38
249.832	220.38
250.066	201.38
250.299	202.38
250.532	204.38
250.765	199.38
250.998	187.38
251.231	182.38
251.465	204.38
251.698	195.38
251.931	199.38
252.164	191.38
252.397	214.38
252.63	255.38
252.863	254.38
253.096	266.38
253.329	251.38
253.562	241.38
253.795	287.38
254.028	280.38
254.261	318.38
254.494	280.38
254.727	261.38
254.96	241.38
255.193	271.38
255.426	243.38
255.659	208.38
255.892	187.38
256.124	187.38
256.357	236.38
256.59	270.38
256.823	262.38
257.056	224.38
257.289	211.38
257.521	209.38
257.754	258.38
257.987	286.38
258.22	271.38
258.452	227.38
258.685	264.38
258.918	276.38
259.151	302.38
259.383	302.38
259.616	346.38
259.849	352.38
260.081	353.38
260.314	407.38
260.547	313.38
260.779	327.38
261.012	370.38
261.244	326.38
261.477	360.38
261.71	329.38
261.942	295.38
262.175	296.38
262.407	266.38
262.64	270.38
262.872	325.38
263.105	344.38
263.337	361.38
263.57	354.38
263.802	243.38
264.035	218.38
264.267	211.38
264.499	203.38
264.732	192.38
264.964	174.38
265.197	186.38
265.429	194.38
265.661	200.38
265.894	217.38
266.126	205.38
266.358	220.38
266.591	289.38
266.823	298.38
267.055	304.38
267.287	275.38
267.52	286.38
267.752	290.38
267.984	329.38
268.216	313.38
268.448	263.38
268.681	263.38
268.913	261.38
269.145	283.38
269.377	281.38
269.609	288.38
269.841	262.38
270.073	281.38
270.306	312.38
270.538	298.38
270.77	306.38
271.002	287.38
271.234	306.38
271.466	327.38
271.698	293.38
271.93	283.38
272.162	293.38
272.394	291.38
272.626	292.38
272.858	290.38
273.09	297.38
273.322	279.38
273.553	276.38
273.785	314.38
274.017	368.38
274.249	468.38
274.481	471.38
274.713	505.38
274.945	616.38
275.176	634.38
275.408	553.38
275.64	512.38
275.872	519.38
276.104	447.38
276.335	368.38
276.567	392.38
276.799	403.38
277.031	420.38
277.262	329.38
277.494	290.38
277.726	268.38
277.957	266.38
278.189	305.38
278.421	304.38
278.652	306.38
278.884	282.38
279.115	279.38
279.347	273.38
279.579	261.38
279.81	264.38
280.042	278.38
280.273	270.38
280.505	238.38
280.736	219.38
280.968	229.38
281.199	262.38
281.431	286.38
281.662	255.38
281.894	258.38
282.125	290.38
282.356	287.38
282.588	295.38
282.819	272.38
283.051	280.38
283.282	340.38
283.513	403.38
283.745	430.38
283.976	435.38
284.207	399.38
284.439	404.38
284.67	399.38
284.901	353.38
285.132	394.38
285.364	406.38
285.595	374.38
285.826	395.38
286.057	390.38
286.288	400.38
286.52	384.38
286.751	436.38
286.982	414.38
287.213	368.38
287.444	344.38
287.675	374.38
287.906	374.38
288.138	324.38
288.369	286.38
288.6	270.38
288.831	297.38
289.062	334.38
289.293	354.38
289.524	322.38
289.755	335.38
289.986	348.38
290.217	320.38
290.448	233.38
290.679	230.38
290.91	212.38
291.141	220.38
291.371	224.38
291.602	211.38
291.833	240.38
292.064	257.38
292.295	267.38
292.526	292.38
292.757	300.38
292.987	312.38
293.218	327.38
293.449	320.38
293.68	355.38
293.91	356.38
294.141	356.38
294.372	332.38
294.603	312.38
294.833	331.38
295.064	391.38
295.295	374.38
295.525	290.38
295.756	248.38
295.987	233.38
296.217	219.38
296.448	248.38
296.679	257.38
296.909	253.38
297.14	278.38
297.37	306.38
297.601	306.38
297.831	284.38
298.062	268.38
298.292	305.38
298.523	310.38
298.753	356.38
298.984	328.38
299.214	273.38
299.445	240.38
299.675	241.38
299.905	225.38
300.136	251.38
300.366	260.38
300.597	253.38
300.827	225.38
301.057	222.38
301.288	214.38
301.518	246.38
301.748	268.38
301.979	299.38
302.209	305.38
302.439	314.38
302.669	282.38
302.9	296.38
303.13	242.38
303.36	243.38
303.59	224.38
303.82	259.38
304.051	287.38
304.281	281.38
304.511	274.38
304.741	257.38
304.971	270.38
305.201	260.38
305.431	265.38
305.661	231.38
305.891	236.38
306.121	247.38
306.352	224.38
306.582	197.38
306.812	212.38
307.042	219.38
307.272	193.38
307.502	186.38
307.731	224.38
307.961	216.38
308.191	207.38
308.421	189.38
308.651	190.38
308.881	199.38
309.111	196.38
309.341	193.38
309.571	207.38
309.8	218.38
310.03	215.38
310.26	213.38
310.49	208.38
310.72	209.38
310.949	222.38
311.179	195.38
311.409	232.38
311.639	260.38
311.868	298.38
312.098	373.38
312.328	394.38
312.557	374.38
312.787	380.38
313.017	338.38
313.246	376.38
313.476	384.38
313.706	328.38
313.935	284.38
314.165	233.38
314.394	215.38
314.624	224.38
314.853	213.38
315.083	210.38
315.312	219.38
315.542	222.38
315.771	226.38
316.001	197.38
316.23	198.38
316.46	210.38
316.689	206.38
316.919	200.38
317.148	210.38
317.377	196.38
317.607	208.38
317.836	217.38
318.065	249.38
318.295	278.38
318.524	241.38
318.753	206.38
318.983	206.38
319.212	205.38
319.441	217.38
319.67	239.38
319.9	254.38
320.129	240.38
320.358	207.38
320.587	207.38
320.816	214.38
321.046	243.38
321.275	266.38
321.504	256.38
321.733	269.38
321.962	244.38
322.191	229.38
322.42	260.38
322.649	248.38
322.878	252.38
323.108	265.38
323.337	261.38
323.566	228.38
323.795	235.38
324.024	232.38
324.253	209.38
324.482	211.38
324.71	218.38
324.939	249.38
325.168	236.38
325.397	214.38
325.626	216.38
325.855	209.38
326.084	223.38
326.313	220.38
326.542	203.38
326.77	214.38
326.999	196.38
327.228	216.38
327.457	222.38
327.686	213.38
327.914	202.38
328.143	201.38
328.372	199.38
328.6	199.38
328.829	201.38
329.058	192.38
329.287	208.38
329.515	216.38
329.744	227.38
329.972	227.38
330.201	198.38
330.43	202.38
330.658	221.38
330.887	224.38
331.115	233.38
331.344	219.38
331.572	223.38
331.801	209.38
332.03	206.38
332.258	212.38
332.486	222.38
332.715	239.38
332.943	231.38
333.172	234.38
333.4	234.38
333.629	247.38
333.857	240.38
334.085	244.38
334.314	244.38
334.542	266.38
334.771	239.38
334.999	210.38
335.227	239.38
335.455	223.38
335.684	234.38
335.912	258.38
336.14	258.38
336.369	259.38
336.597	264.38
336.825	296.38
337.053	308.38
337.281	272.38
337.51	216.38
337.738	210.38
337.966	217.38
338.194	264.38
338.422	222.38
338.65	220.38
338.878	201.38
339.106	213.38
339.334	233.38
339.562	254.38
339.79	215.38
340.018	216.38
340.246	244.38
340.474	236.38
340.702	269.38
340.93	275.38
341.158	263.38
341.386	242.38
341.614	248.38
341.842	248.38
342.07	247.38
342.298	285.38
342.526	275.38
342.754	257.38
342.981	247.38
343.209	227.38
343.437	264.38
343.665	262.38
343.893	261.38
344.12	292.38
344.348	350.38
344.576	313.38
344.804	273.38
345.031	234.38
345.259	228.38
345.487	215.38
345.714	228.38
345.942	254.38
346.17	268.38
346.397	248.38
346.625	228.38
346.853	211.38
347.08	211.38
347.308	227.38
347.535	273.38
347.763	263.38
347.99	241.38
348.218	208.38
348.445	227.38
348.673	230.38
348.9	219.38
349.128	260.38
349.355	238.38
349.583	221.38
349.81	233.38
350.037	210.38
350.265	209.38
350.492	208.38
350.72	215.38
350.947	188.38
351.174	210.38
351.402	219.38
351.629	214.38
351.856	215.38
352.083	215.38
352.311	222.38
352.538	248.38
352.765	247.38
352.992	228.38
353.22	224.38
353.447	224.38
353.674	226.38
353.901	207.38
354.128	214.38
354.355	219.38
354.583	224.38
354.81	210.38
355.037	234.38
355.264	232.38
355.491	238.38
355.718	246.38
355.945	244.38
356.172	255.38
356.399	226.38
356.626	285.38
356.853	310.38
357.08	340.38
357.307	347.38
357.534	286.38
357.761	297.38
357.988	369.38
358.215	390.38
358.441	382.38
358.668	336.38
358.895	315.38
359.122	268.38
359.349	272.38
359.576	297.38
359.802	271.38
360.029	228.38
360.256	222.38
360.483	285.38
360.709	338.38
360.936	351.38
361.163	306.38
361.39	256.38
361.616	224.38
361.843	268.38
362.07	287.38
362.296	272.38
362.523	226.38
362.749	213.38
362.976	222.38
363.203	252.38
363.429	264.38
363.656	239.38
363.882	227.38
364.109	235.38
364.335	252.38
364.562	214.38
364.788	236.38
365.015	287.38
365.241	260.38
365.468	211.38
365.694	198.38
365.92	206.38
366.147	204.38
366.373	189.38
366.599	186.38
366.826	203.38
367.052	206.38
367.278	206.38
367.505	204.38
367.731	209.38
367.957	222.38
368.184	225.38
368.41	224.38
368.636	213.38
368.862	245.38
369.089	232.38
369.315	202.38
369.541	212.38
369.767	208.38
369.993	204.38
370.219	193.38
370.445	217.38
370.672	232.38
370.898	226.38
371.124	246.38
371.35	219.38
371.576	219.38
371.802	231.38
372.028	260.38
372.254	290.38
372.48	259.38
372.706	240.38
372.932	244.38
373.158	258.38
373.384	299.38
373.61	359.38
373.835	376.38
374.061	291.38
374.287	268.38
374.513	310.38
374.739	346.38
374.965	347.38
375.191	352.38
375.416	274.38
375.642	223.38
375.868	263.38
376.094	281.38
376.319	266.38
376.545	271.38
376.771	283.38
376.997	261.38
377.222	202.38
377.448	196.38
377.674	191.38
377.899	184.38
378.125	190.38
378.35	186.38
378.576	188.38
378.802	213.38
379.027	222.38
379.253	223.38
379.478	207.38
379.704	226.38
379.929	233.38
380.155	234.38
380.38	217.38
380.606	238.38
380.831	249.38
381.057	227.38
381.282	229.38
381.507	260.38
381.733	310.38
381.958	294.38
382.184	322.38
382.409	334.38
382.634	343.38
382.86	361.38
383.085	321.38
383.31	250.38
383.535	287.38
383.761	268.38
383.986	258.38
384.211	299.38
384.436	310.38
384.662	235.38
384.887	249.38
385.112	226.38
385.337	246.38
385.562	231.38
385.787	259.38
386.013	273.38
386.238	288.38
386.463	249.38
386.688	237.38
386.913	216.38
387.138	216.38
387.363	226.38
387.588	216.38
387.813	244.38
388.038	254.38
388.263	239.38
388.488	219.38
388.713	274.38
388.938	272.38
389.163	235.38
389.387	215.38
389.612	207.38
389.837	234.38
390.062	243.38
390.287	244.38
390.512	250.38
390.736	224.38
390.961	224.38
391.186	212.38
391.411	219.38
391.636	225.38
391.86	217.38
392.085	254.38
392.31	255.38
392.534	230.38
392.759	232.38
392.984	238.38
393.208	211.38
393.433	219.38
393.658	203.38
393.882	205.38
394.107	208.38
394.331	209.38
394.556	224.38
394.78	234.38
395.005	218.38
395.229	205.38
395.454	216.38
395.678	234.38
395.903	198.38
396.127	204.38
396.352	224.38
396.576	224.38
396.801	233.38
397.025	227.38
397.249	239.38
397.474	233.38
397.698	230.38
397.922	226.38
398.147	223.38
398.371	213.38
398.595	247.38
398.82	256.38
399.044	238.38
399.268	246.38
399.492	283.38
399.717	285.38
399.941	292.38
400.165	264.38
400.389	250.38
400.613	260.38
400.837	242.38
401.062	205.38
401.286	223.38
401.51	217.38
401.734	230.38
401.958	230.38
402.182	220.38
402.406	235.38
402.63	228.38
402.854	244.38
403.078	281.38
403.302	347.38
403.526	361.38
403.75	332.38
403.974	281.38
404.198	263.38
404.422	303.38
404.645	309.38
404.869	335.38
405.093	305.38
405.317	266.38
405.541	224.38
405.765	263.38
405.988	260.38
406.212	261.38
406.436	294.38
406.66	306.38
406.883	274.38
407.107	275.38
407.331	292.38
407.555	296.38
407.778	282.38
408.002	260.38
408.226	286.38
408.449	271.38
408.673	249.38
408.896	246.38
409.12	241.38
409.344	226.38
409.567	231.38
409.791	230.38
410.014	247.38
410.238	243.38
410.461	252.38
410.685	241.38
410.908	234.38
411.132	241.38
411.355	240.38
411.578	240.38
411.802	229.38
412.025	243.38
412.249	237.38
412.472	235.38
412.695	243.38
412.919	242.38
413.142	238.38
413.365	256.38
413.589	244.38
413.812	234.38
414.035	244.38
414.258	255.38
414.482	234.38
414.705	262.38
414.928	234.38
415.151	225.38
415.374	239.38
415.597	234.38
415.821	224.38
416.044	227.38
416.267	236.38
416.49	218.38
416.713	223.38
416.936	215.38
417.159	228.38
417.382	228.38
417.605	240.38
417.828	238.38
418.051	243.38
418.274	238.38
418.497	249.38
418.72	252.38
418.943	249.38
419.166	242.38
419.389	235.38
419.611	254.38
419.834	248.38
420.057	265.38
420.28	262.38
420.503	248.38
420.726	235.38
420.948	216.38
421.171	228.38
421.394	229.38
421.617	228.38
421.839	227.38
422.062	211.38
422.285	234.38
422.507	243.38
422.73	235.38
422.953	248.38
423.175	242.38
423.398	238.38
423.621	263.38
423.843	254.38
424.066	246.38
424.288	245.38
424.511	238.38
424.733	220.38
424.956	233.38
425.178	272.38
425.401	298.38
425.623	349.38
425.846	288.38
426.068	250.38
426.291	245.38
426.513	253.38
426.735	252.38
426.958	250.38
427.18	280.38
427.402	321.38
427.625	358.38
427.847	310.38
428.069	242.38
428.292	226.38
428.514	237.38
428.736	232.38
428.958	245.38
429.181	295.38
429.403	236.38
429.625	228.38
429.847	220.38
430.069	233.38
430.292	232.38
430.514	239.38
430.736	245.38
430.958	271.38
431.18	262.38
431.402	218.38
431.624	205.38
431.846	232.38
432.068	226.38
432.29	229.38
432.512	231.38
432.734	275.38
432.956	249.38
433.178	254.38
433.4	212.38
433.622	213.38
433.844	218.38
434.066	253.38
434.287	250.38
434.509	249.38
434.731	251.38
434.953	241.38
435.175	245.38
435.397	270.38
435.618	238.38
435.84	218.38
436.062	218.38
436.284	216.38
436.505	198.38
436.727	222.38
436.949	232.38
437.17	222.38
437.392	205.38
437.614	245.38
437.835	227.38
438.057	233.38
438.278	250.38
438.5	324.38
438.721	314.38
438.943	241.38
439.165	211.38
439.386	208.38
439.608	207.38
439.829	209.38
440.05	214.38
440.272	228.38
440.493	258.38
440.715	293.38
440.936	250.38
441.158	236.38
441.379	229.38
441.6	246.38
441.822	274.38
442.043	231.38
442.264	234.38
442.486	236.38
442.707	228.38
442.928	236.38
443.149	239.38
443.371	225.38
443.592	231.38
443.813	230.38
444.034	234.38
444.255	241.38
444.476	252.38
444.698	241.38
444.919	247.38
445.14	357.38
445.361	295.38
445.582	263.38
445.803	231.38
446.024	238.38
446.245	238.38
446.466	243.38
446.687	240.38
446.908	229.38
447.129	210.38
447.35	209.38
447.571	223.38
447.792	206.38
448.013	216.38
448.234	223.38
448.455	199.38
448.675	212.38
448.896	222.38
449.117	227.38
449.338	211.38
449.559	210.38
449.779	233.38
450	214.38
450.221	230.38
450.442	191.38
450.662	202.38
450.883	224.38
451.104	200.38
451.324	220.38
451.545	215.38
451.766	210.38
451.986	215.38
452.207	214.38
452.428	187.38
452.648	210.38
452.869	211.38
453.089	215.38
453.31	227.38
453.53	211.38
453.751	201.38
453.971	192.38
454.192	203.38
454.412	218.38
454.633	214.38
454.853	216.38
455.073	193.38
455.294	212.38
455.514	190.38
455.734	201.38
455.955	217.38
456.175	212.38
456.395	212.38
456.616	192.38
456.836	212.38
457.056	172.38
457.276	186.38
457.497	196.38
457.717	204.38
457.937	196.38
458.157	204.38
458.377	201.38
458.598	205.38
458.818	212.38
459.038	205.38
459.258	199.38
459.478	240.38
459.698	238.38
459.918	263.38
460.138	227.38
460.358	234.38
460.578	239.38
460.798	252.38
461.018	234.38
461.238	231.38
461.458	234.38
461.678	243.38
461.898	249.38
462.118	245.38
462.338	253.38
462.558	260.38
462.777	261.38
462.997	272.38
463.217	298.38
463.437	297.38
463.657	281.38
463.876	276.38
464.096	279.38
464.316	273.38
464.536	255.38
464.755	261.38
464.975	264.38
465.195	249.38
465.414	266.38
465.634	247.38
465.854	235.38
466.073	228.38
466.293	228.38
466.512	228.38
466.732	248.38
466.951	241.38
467.171	238.38
467.391	216.38
467.61	236.38
467.829	218.38
468.049	219.38
468.268	211.38
468.488	202.38
468.707	255.38
468.927	266.38
469.146	273.38
469.365	242.38
469.585	246.38
469.804	252.38
470.023	255.38
470.243	237.38
470.462	239.38
470.681	234.38
470.901	219.38
471.12	231.38
471.339	242.38
471.558	238.38
471.777	228.38
471.997	236.38
472.216	253.38
472.435	249.38
472.654	246.38
472.873	242.38
473.092	244.38
473.311	234.38
473.53	241.38
473.749	239.38
473.968	255.38
474.187	243.38
474.406	223.38
474.625	235.38
474.844	222.38
475.063	241.38
475.282	246.38
475.501	284.38
475.72	276.38
475.939	261.38
476.158	282.38
476.377	294.38
476.596	340.38
476.814	331.38
477.033	313.38
477.252	255.38
477.471	243.38
477.69	240.38
477.908	252.38
478.127	287.38
478.346	272.38
478.564	285.38
478.783	261.38
479.002	273.38
479.22	308.38
479.439	330.38
479.658	284.38
479.876	282.38
480.095	291.38
480.313	302.38
480.532	263.38
480.751	275.38
480.969	277.38
481.188	302.38
481.406	321.38
481.624	299.38
481.843	269.38
482.061	252.38
482.28	275.38
482.498	330.38
482.717	322.38
482.935	296.38
483.153	270.38
483.372	255.38
483.59	263.38
483.808	263.38
484.027	251.38
484.245	251.38
484.463	254.38
484.681	255.38
484.9	281.38
485.118	284.38
485.336	271.38
485.554	245.38
485.772	254.38
485.99	283.38
486.209	292.38
486.427	280.38
486.645	281.38
486.863	287.38
487.081	287.38
487.299	314.38
487.517	283.38
487.735	280.38
487.953	289.38
488.171	287.38
488.389	278.38
488.607	258.38
488.825	271.38
489.043	300.38
489.261	338.38
489.479	326.38
489.696	280.38
489.914	269.38
490.132	270.38
490.35	271.38
490.568	254.38
490.786	272.38
491.003	259.38
491.221	270.38
491.439	268.38
491.657	271.38
491.874	305.38
492.092	310.38
492.31	350.38
492.527	346.38
492.745	344.38
492.963	294.38
493.18	306.38
493.398	302.38
493.615	289.38
493.833	287.38
494.05	264.38
494.268	281.38
494.485	299.38
494.703	276.38
494.92	286.38
495.138	279.38
495.355	273.38
495.573	256.38
495.79	289.38
496.008	368.38
496.225	316.38
496.442	309.38
496.66	287.38
496.877	320.38
497.094	296.38
497.312	294.38
497.529	274.38
497.746	299.38
497.963	317.38
498.181	320.38
498.398	359.38
498.615	343.38
498.832	373.38
499.049	384.38
499.267	363.38
499.484	384.38
499.701	409.38
499.918	456.38
500.135	512.38
500.352	496.38
500.569	530.38
500.786	548.38
501.003	523.38
501.22	464.38
501.437	439.38
501.654	395.38
501.871	361.38
502.088	354.38
502.305	363.38
502.522	355.38
502.739	334.38
502.956	328.38
503.172	309.38
503.389	294.38
503.606	314.38
503.823	309.38
504.04	312.38
504.256	312.38
504.473	317.38
504.69	319.38
504.907	319.38
505.123	327.38
505.34	332.38
505.557	314.38
505.773	303.38
505.99	304.38
506.207	300.38
506.423	300.38
506.64	265.38
506.856	297.38
507.073	303.38
507.289	299.38
507.506	294.38
507.722	314.38
507.939	330.38
508.155	319.38
508.372	294.38
508.588	274.38
508.805	291.38
509.021	280.38
509.238	271.38
509.454	278.38
509.67	265.38
509.887	275.38
510.103	293.38
510.319	300.38
510.536	283.38
510.752	262.38
510.968	245.38
511.184	240.38
511.401	258.38
511.617	236.38
511.833	254.38
512.049	253.38
512.265	250.38
512.481	279.38
512.698	292.38
512.914	310.38
513.13	266.38
513.346	263.38
513.562	281.38
513.778	268.38
513.994	256.38
514.21	272.38
514.426	267.38
514.642	275.38
514.858	287.38
515.074	278.38
515.29	274.38
515.506	327.38
515.721	306.38
515.937	281.38
516.153	255.38
516.369	276.38
516.585	278.38
516.801	321.38
517.016	354.38
517.232	337.38
517.448	380.38
517.664	336.38
517.879	310.38
518.095	327.38
518.311	319.38
518.527	333.38
518.742	318.38
518.958	332.38
519.173	334.38
519.389	304.38
519.605	306.38
519.82	353.38
520.036	352.38
520.251	362.38
520.467	372.38
520.682	549.38
520.898	674.38
521.113	637.38
521.329	409.38
521.544	344.38
521.76	346.38
521.975	304.38
522.19	296.38
522.406	296.38
522.621	329.38
522.836	335.38
523.052	321.38
523.267	299.38
523.482	296.38
523.698	311.38
523.913	292.38
524.128	279.38
524.343	260.38
524.559	268.38
524.774	278.38
524.989	291.38
525.204	286.38
525.419	300.38
525.634	293.38
525.849	297.38
526.064	291.38
526.28	281.38
526.495	329.38
526.71	357.38
526.925	309.38
527.14	333.38
527.355	318.38
527.57	262.38
527.785	292.38
527.999	287.38
528.214	253.38
528.429	260.38
528.644	270.38
528.859	229.38
529.074	253.38
529.289	233.38
529.503	234.38
529.718	265.38
529.933	295.38
530.148	296.38
530.363	265.38
530.577	244.38
530.792	244.38
531.007	285.38
531.221	258.38
531.436	240.38
531.651	255.38
531.865	261.38
532.08	259.38
532.295	265.38
532.509	262.38
532.724	306.38
532.938	304.38
533.153	350.38
533.367	297.38
533.582	295.38
533.796	256.38
534.011	242.38
534.225	267.38
534.44	275.38
534.654	283.38
534.868	308.38
535.083	288.38
535.297	283.38
535.511	247.38
535.726	278.38
535.94	247.38
536.154	240.38
536.369	258.38
536.583	252.38
536.797	256.38
537.011	262.38
537.225	255.38
537.44	293.38
537.654	263.38
537.868	232.38
538.082	222.38
538.296	247.38
538.51	268.38
538.724	263.38
538.938	258.38
539.153	233.38
539.367	243.38
539.581	236.38
539.795	252.38
540.009	274.38
540.222	247.38
540.436	272.38
540.65	268.38
540.864	265.38
541.078	281.38
541.292	329.38
541.506	267.38
541.72	241.38
541.934	234.38
542.147	245.38
542.361	236.38
542.575	254.38
542.789	259.38
543.002	229.38
543.216	268.38
543.43	239.38
543.644	220.38
543.857	225.38
544.071	232.38
544.285	229.38
544.498	217.38
544.712	215.38
544.925	243.38
545.139	235.38
545.352	221.38
545.566	222.38
545.779	264.38
545.993	243.38
546.206	231.38
546.42	230.38
546.633	230.38
546.847	216.38
547.06	202.38
547.274	214.38
547.487	220.38
547.7	240.38
547.914	253.38
548.127	277.38
548.34	266.38
548.554	249.38
548.767	241.38
548.98	254.38
549.193	246.38
549.407	229.38
549.62	282.38
549.833	280.38
550.046	294.38
550.259	297.38
550.473	254.38
550.686	255.38
550.899	245.38
551.112	274.38
551.325	249.38
551.538	245.38
551.751	234.38
551.964	226.38
552.177	235.38
552.39	245.38
552.603	246.38
552.816	236.38
553.029	232.38
553.242	261.38
553.455	229.38
553.667	264.38
553.88	245.38
554.093	228.38
554.306	224.38
554.519	222.38
554.732	184.38
554.944	216.38
555.157	202.38
555.37	204.38
555.583	208.38
555.795	198.38
556.008	188.38
556.221	208.38
556.433	225.38
556.646	216.38
556.859	194.38
557.071	215.38
557.284	204.38
557.496	212.38
557.709	219.38
557.921	217.38
558.134	187.38
558.346	190.38
558.559	183.38
558.771	209.38
558.984	215.38
559.196	204.38
559.409	204.38
559.621	207.38
559.833	211.38
560.046	196.38
560.258	204.38
560.47	211.38
560.683	204.38
560.895	186.38
561.107	194.38
561.32	200.38
561.532	191.38
561.744	203.38
561.956	210.38
562.168	194.38
562.381	198.38
562.593	210.38
562.805	185.38
563.017	181.38
563.229	192.38
563.441	180.38
563.653	184.38
563.865	194.38
564.077	197.38
564.289	195.38
564.501	194.38
564.713	199.38
564.925	191.38
565.137	201.38
565.349	214.38
565.561	219.38
565.773	194.38
565.985	202.38
566.197	230.38
566.408	234.38
566.62	254.38
566.832	243.38
567.044	258.38
567.255	270.38
567.467	278.38
567.679	260.38
567.891	261.38
568.102	291.38
568.314	284.38
568.526	263.38
568.737	247.38
568.949	248.38
569.161	244.38
569.372	232.38
569.584	206.38
569.795	218.38
570.007	212.38
570.218	215.38
570.43	214.38
570.641	205.38
570.853	209.38
571.064	203.38
571.276	198.38
571.487	196.38
571.698	182.38
571.91	181.38
572.121	198.38
572.333	188.38
572.544	174.38
572.755	192.38
572.966	183.38
573.178	186.38
573.389	180.38
573.6	193.38
573.811	195.38
574.023	186.38
574.234	176.38
574.445	187.38
574.656	204.38
574.867	193.38
575.078	171.38
575.289	174.38
575.501	199.38
575.712	171.38
575.923	188.38
576.134	178.38
576.345	171.38
576.556	188.38
576.767	162.38
576.978	179.38
577.188	156.38
577.399	164.38
577.61	160.38
577.821	180.38
578.032	178.38
578.243	186.38
578.454	186.38
578.665	194.38
578.875	173.38
579.086	174.38
579.297	179.38
579.508	174.38
579.718	174.38
579.929	154.38
580.14	165.38
580.35	158.38
580.561	174.38
580.772	158.38
580.982	159.38
581.193	160.38
581.403	161.38
581.614	152.38
581.825	151.38
582.035	168.38
582.246	159.38
582.456	170.38
582.667	164.38
582.877	147.38
583.087	158.38
583.298	152.38
583.508	160.38
583.719	166.38
583.929	145.38
584.139	159.38
584.35	154.38
584.56	160.38
584.77	168.38
584.981	170.38
585.191	150.38
585.401	177.38
585.611	162.38
585.821	166.38
586.032	168.38
586.242	158.38
586.452	153.38
586.662	172.38
586.872	168.38
587.082	164.38
587.292	171.38
587.502	152.38
587.713	149.38
587.923	144.38
588.133	185.38
588.343	176.38
588.553	155.38
588.762	175.38
588.972	166.38
589.182	169.38
589.392	153.38
589.602	175.38
589.812	167.38
590.022	181.38
590.232	167.38
590.441	167.38
590.651	160.38
590.861	163.38
591.071	161.38
591.281	168.38
591.49	147.38
591.7	148.38
591.91	158.38
592.119	168.38
592.329	157.38
592.539	165.38
592.748	177.38
592.958	179.38
593.167	169.38
593.377	168.38
593.587	188.38
593.796	174.38
594.006	174.38
594.215	169.38
594.424	169.38
594.634	187.38
594.843	158.38
595.053	171.38
595.262	176.38
595.472	178.38
595.681	166.38
595.89	164.38
596.1	165.38
596.309	155.38
596.518	165.38
596.727	154.38
596.937	138.38
597.146	166.38
597.355	166.38
597.564	143.38
597.774	156.38
597.983	151.38
598.192	163.38
598.401	143.38
598.61	147.38
598.819	130.38
599.028	152.38
599.237	138.38
599.446	144.38
599.655	151.38
599.864	154.38
600.073	134.38
600.282	152.38
600.491	140.38
600.7	136.38
600.909	147.38
601.118	134.38
601.327	155.38
601.536	152.38
601.745	159.38
601.953	147.38
602.162	148.38
602.371	159.38
602.58	158.38
602.789	153.38
602.997	140.38
603.206	135.38
603.415	150.38
603.623	132.38
603.832	131.38
604.041	137.38
604.249	146.38
604.458	143.38
604.666	139.38
604.875	150.38
605.084	136.38
605.292	122.38
605.501	158.38
605.709	133.38
605.918	159.38
606.126	148.38
606.334	152.38
606.543	146.38
606.751	150.38
606.96	128.38
607.168	146.38
607.376	138.38
607.585	130.38
607.793	154.38
608.001	148.38
608.21	129.38
608.418	119.38
608.626	146.38
608.834	148.38
609.043	147.38
609.251	135.38
609.459	123.38
609.667	149.38
609.875	140.38
610.083	142.38
610.291	142.38
610.499	140.38
610.707	111.38
610.916	137.38
611.124	140.38
611.332	122.38
611.54	144.38
611.748	137.38
611.955	130.38
612.163	130.38
612.371	128.38
612.579	137.38
612.787	138.38
612.995	138.38
613.203	140.38
613.411	131.38
613.618	139.38
613.826	136.38
614.034	140.38
614.242	144.38
614.449	133.38
614.657	137.38
614.865	136.38
615.072	148.38
615.28	127.38
615.488	140.38
615.695	127.38
615.903	122.38
616.111	137.38
616.318	151.38
616.526	144.38
616.733	138.38
616.941	122.38
617.148	131.38
617.356	134.38
617.563	134.38
617.771	133.38
617.978	133.38
618.185	143.38
618.393	136.38
618.6	130.38
618.807	125.38
619.015	131.38
619.222	145.38
619.429	147.38
619.637	118.38
619.844	130.38
620.051	130.38
620.258	129.38
620.466	150.38
620.673	126.38
620.88	112.38
621.087	127.38
621.294	138.38
621.501	129.38
621.708	123.38
621.915	139.38
622.122	123.38
622.329	120.38
622.536	130.38
622.743	139.38
622.95	134.38
623.157	111.38
623.364	128.38
623.571	123.38
623.778	147.38
623.985	132.38
624.192	128.38
624.399	116.38
624.606	142.38
624.812	124.38
625.019	122.38
625.226	135.38
625.433	113.38
625.639	122.38
625.846	133.38
626.053	130.38
626.259	122.38
626.466	122.38
626.673	131.38
626.879	124.38
627.086	132.38
627.293	118.38
627.499	124.38
627.706	120.38
627.912	120.38
628.119	135.38
628.325	128.38
628.532	116.38
628.738	131.38
628.945	138.38
629.151	122.38
629.357	133.38
629.564	122.38
629.77	119.38
629.976	120.38
630.183	126.38
630.389	138.38
630.595	112.38
630.802	114.38
631.008	116.38
631.214	121.38
631.42	134.38
631.627	140.38
631.833	108.38
632.039	115.38
632.245	118.38
632.451	122.38
632.657	123.38
632.863	107.38
633.069	108.38
633.275	123.38
633.481	119.38
633.688	122.38
633.893	108.38
634.099	118.38
634.305	118.38
634.511	120.38
634.717	114.38
634.923	130.38
635.129	118.38
635.335	123.38
635.541	110.38
635.747	118.38
635.952	125.38
636.158	112.38
636.364	117.38
636.57	126.38
636.775	119.38
636.981	109.38
637.187	115.38
637.392	120.38
637.598	115.38
637.804	112.38
638.009	125.38
638.215	101.38
638.421	120.38
638.626	106.38
638.832	103.38
639.037	104.38
639.243	120.38
639.448	128.38
639.654	101.38
639.859	117.38
640.065	117.38
640.27	120.38
640.475	120.38
640.681	114.38
640.886	125.38
641.091	124.38
641.297	126.38
641.502	118.38
641.707	117.38
641.913	116.38
642.118	110.38
642.323	110.38
642.528	117.38
642.733	124.38
642.939	123.38
643.144	106.38
643.349	112.38
643.554	122.38
643.759	87.38
643.964	103.38
644.169	100.38
644.374	120.38
644.579	110.38
644.784	118.38
644.989	99.38
645.194	110.38
645.399	115.38
645.604	103.38
645.809	110.38
646.014	120.38
646.219	104.38
646.423	119.38
646.628	121.38
646.833	115.38
647.038	103.38
647.243	118.38
647.447	122.38
647.652	110.38
647.857	118.38
648.062	106.38
648.266	102.38
648.471	117.38
648.676	124.38
648.88	128.38
649.085	121.38
649.289	104.38
649.494	110.38
649.698	116.38
649.903	103.38
650.107	110.38
650.312	112.38
650.516	115.38
650.721	127.38
650.925	100.38
651.13	104.38
651.334	104.38
651.539	105.38
651.743	110.38
651.947	114.38
652.152	100.38
652.356	110.38
652.56	108.38
652.764	113.38
652.969	112.38
653.173	101.38
653.377	113.38
653.581	98.38
653.785	111.38
653.99	106.38
654.194	97.38
654.398	103.38
654.602	98.38
654.806	100.38
655.01	91.38
655.214	111.38
655.418	91.38
655.622	92.38
655.826	108.38
656.03	94.38
656.234	107.38
656.438	93.38
656.642	93.38
656.846	85.38
657.049	101.38
657.253	111.38
657.457	90.38
657.661	96.38
657.865	112.38
658.068	93.38
658.272	85.38
658.476	89.38
658.68	95.38
658.883	95.38
659.087	84.38
659.291	91.38
659.494	93.38
659.698	89.38
659.901	89.38
660.105	84.38
660.309	91.38
660.512	95.38
660.716	99.38
660.919	90.38
661.123	91.38
661.326	94.38
661.53	88.38
661.733	82.38
661.936	83.38
662.14	82.38
662.343	75.38
662.546	94.38
662.75	92.38
662.953	75.38
663.156	95.38
663.36	87.38
663.563	87.38
663.766	92.38
663.969	89.38
664.173	77.38
664.376	81.38
664.579	73.38
664.782	81.38
664.985	83.38
665.188	83.38
665.391	82.38
665.594	82.38
665.797	82.38
666	73.38
666.203	80.38
666.406	79.38
666.609	82.38
666.812	87.38
667.015	82.38
667.218	87.38
667.421	94.38
667.624	76.38
667.827	83.38
668.03	76.38
668.232	81.38
668.435	86.38
668.638	77.38
668.841	97.38
669.043	85.38
669.246	89.38
669.449	90.38
669.651	82.38
669.854	85.38
670.057	85.38
670.259	84.38
670.462	76.38
670.665	90.38
670.867	77.38
671.07	84.38
671.272	96.38
671.475	79.38
671.677	82.38
671.88	77.38
672.082	73.38
672.284	77.38
672.487	91.38
672.689	80.38
672.892	88.38
