Data from NickelSpatula.Lamp.E5.5.P2_HRD10591_11-52-21-554.txt Node
Date: Tue Jul 23 11:52:21 EDT 2019
User: cochatt
Spectrometer: HR+D1059
Trigger mode: 1
Integration Time (sec): 1.000000E-1
Scans to average: 1
Electric dark correction enabled: true
Nonlinearity correction enabled: false
Boxcar width: 0
XAxis mode: Wavelengths
Number of Pixels in Spectrum: 2048
>>>>>Begin Spectral Data<<<<<
223.165	-16.94
223.4	-16.94
223.635	-16.94
223.869	-24.94
224.104	-9.94
224.338	-12.94
224.573	-13.94
224.808	-4.94
225.042	-12.94
225.277	-8.94
225.511	-8.94
225.746	10.06
225.98	4.06
226.215	9.06
226.449	13.06
226.683	16.06
226.918	34.06
227.152	28.06
227.387	40.06
227.621	29.06
227.856	48.06
228.09	45.06
228.324	52.06
228.559	59.06
228.793	60.06
229.027	68.06
229.262	84.06
229.496	79.06
229.73	69.06
229.964	91.06
230.199	76.06
230.433	101.06
230.667	108.06
230.901	104.06
231.136	85.06
231.37	105.06
231.604	85.06
231.838	116.06
232.072	101.06
232.306	105.06
232.541	106.06
232.775	108.06
233.009	118.06
233.243	126.06
233.477	133.06
233.711	129.06
233.945	133.06
234.179	112.06
234.413	123.06
234.647	131.06
234.881	156.06
235.115	133.06
235.349	125.06
235.583	123.06
235.817	140.06
236.051	126.06
236.285	134.06
236.519	153.06
236.753	136.06
236.987	133.06
237.221	125.06
237.455	127.06
237.689	147.06
237.922	147.06
238.156	146.06
238.39	186.06
238.624	192.06
238.858	181.06
239.091	161.06
239.325	153.06
239.559	146.06
239.793	162.06
240.027	185.06
240.26	168.06
240.494	149.06
240.728	180.06
240.961	181.06
241.195	176.06
241.429	192.06
241.662	179.06
241.896	154.06
242.13	142.06
242.363	137.06
242.597	138.06
242.83	157.06
243.064	159.06
243.298	178.06
243.531	179.06
243.765	195.06
243.998	169.06
244.232	157.06
244.465	175.06
244.699	162.06
244.932	186.06
245.166	181.06
245.399	161.06
245.633	155.06
245.866	169.06
246.099	172.06
246.333	207.06
246.566	209.06
246.8	206.06
247.033	213.06
247.266	177.06
247.5	187.06
247.733	187.06
247.966	200.06
248.2	173.06
248.433	205.06
248.666	213.06
248.899	223.06
249.133	216.06
249.366	244.06
249.599	254.06
249.832	231.06
250.066	205.06
250.299	221.06
250.532	220.06
250.765	211.06
250.998	218.06
251.231	195.06
251.465	205.06
251.698	215.06
251.931	201.06
252.164	191.06
252.397	239.06
252.63	253.06
252.863	292.06
253.096	286.06
253.329	276.06
253.562	269.06
253.795	295.06
254.028	334.06
254.261	322.06
254.494	311.06
254.727	265.06
254.96	263.06
255.193	289.06
255.426	282.06
255.659	230.06
255.892	207.06
256.124	233.06
256.357	226.06
256.59	294.06
256.823	276.06
257.056	243.06
257.289	221.06
257.521	241.06
257.754	289.06
257.987	316.06
258.22	299.06
258.452	255.06
258.685	290.06
258.918	314.06
259.151	307.06
259.383	321.06
259.616	375.06
259.849	376.06
260.081	394.06
260.314	412.06
260.547	353.06
260.779	365.06
261.012	411.06
261.244	404.06
261.477	378.06
261.71	365.06
261.942	303.06
262.175	315.06
262.407	308.06
262.64	303.06
262.872	336.06
263.105	377.06
263.337	409.06
263.57	369.06
263.802	258.06
264.035	239.06
264.267	240.06
264.499	202.06
264.732	182.06
264.964	195.06
265.197	189.06
265.429	202.06
265.661	227.06
265.894	224.06
266.126	226.06
266.358	260.06
266.591	297.06
266.823	375.06
267.055	354.06
267.287	315.06
267.52	315.06
267.752	357.06
267.984	352.06
268.216	317.06
268.448	278.06
268.681	275.06
268.913	296.06
269.145	320.06
269.377	326.06
269.609	337.06
269.841	303.06
270.073	329.06
270.306	330.06
270.538	350.06
270.77	333.06
271.002	361.06
271.234	364.06
271.466	347.06
271.698	319.06
271.93	319.06
272.162	328.06
272.394	338.06
272.626	339.06
272.858	334.06
273.09	346.06
273.322	309.06
273.553	284.06
273.785	327.06
274.017	435.06
274.249	498.06
274.481	534.06
274.713	582.06
274.945	657.06
275.176	693.06
275.408	613.06
275.64	574.06
275.872	558.06
276.104	489.06
276.335	428.06
276.567	438.06
276.799	445.06
277.031	485.06
277.262	373.06
277.494	294.06
277.726	301.06
277.957	319.06
278.189	352.06
278.421	352.06
278.652	336.06
278.884	310.06
279.115	309.06
279.347	307.06
279.579	293.06
279.81	297.06
280.042	303.06
280.273	303.06
280.505	285.06
280.736	257.06
280.968	250.06
281.199	282.06
281.431	306.06
281.662	293.06
281.894	285.06
282.125	294.06
282.356	333.06
282.588	329.06
282.819	271.06
283.051	314.06
283.282	389.06
283.513	427.06
283.745	480.06
283.976	475.06
284.207	466.06
284.439	454.06
284.67	440.06
284.901	403.06
285.132	423.06
285.364	448.06
285.595	411.06
285.826	450.06
286.057	469.06
286.288	449.06
286.52	462.06
286.751	471.06
286.982	481.06
287.213	401.06
287.444	418.06
287.675	423.06
287.906	414.06
288.138	386.06
288.369	332.06
288.6	312.06
288.831	332.06
289.062	379.06
289.293	393.06
289.524	391.06
289.755	375.06
289.986	390.06
290.217	334.06
290.448	281.06
290.679	247.06
290.91	244.06
291.141	241.06
291.371	214.06
291.602	229.06
291.833	222.06
292.064	246.06
292.295	273.06
292.526	331.06
292.757	348.06
292.987	339.06
293.218	369.06
293.449	386.06
293.68	415.06
293.91	396.06
294.141	409.06
294.372	375.06
294.603	353.06
294.833	391.06
295.064	440.06
295.295	431.06
295.525	320.06
295.756	293.06
295.987	238.06
296.217	242.06
296.448	259.06
296.679	265.06
296.909	287.06
297.14	310.06
297.37	344.06
297.601	318.06
297.831	286.06
298.062	290.06
298.292	337.06
298.523	341.06
298.753	402.06
298.984	385.06
299.214	313.06
299.445	267.06
299.675	233.06
299.905	258.06
300.136	260.06
300.366	298.06
300.597	275.06
300.827	275.06
301.057	275.06
301.288	252.06
301.518	270.06
301.748	287.06
301.979	322.06
302.209	318.06
302.439	334.06
302.669	310.06
302.9	310.06
303.13	287.06
303.36	278.06
303.59	274.06
303.82	269.06
304.051	308.06
304.281	322.06
304.511	312.06
304.741	289.06
304.971	283.06
305.201	312.06
305.431	301.06
305.661	247.06
305.891	271.06
306.121	256.06
306.352	241.06
306.582	223.06
306.812	216.06
307.042	223.06
307.272	195.06
307.502	199.06
307.731	226.06
307.961	241.06
308.191	213.06
308.421	197.06
308.651	202.06
308.881	212.06
309.111	199.06
309.341	213.06
309.571	226.06
309.8	240.06
310.03	230.06
310.26	244.06
310.49	239.06
310.72	200.06
310.949	213.06
311.179	217.06
311.409	241.06
311.639	273.06
311.868	317.06
312.098	397.06
312.328	426.06
312.557	420.06
312.787	424.06
313.017	389.06
313.246	401.06
313.476	443.06
313.706	368.06
313.935	311.06
314.165	282.06
314.394	237.06
314.624	234.06
314.853	275.06
315.083	258.06
315.312	255.06
315.542	250.06
315.771	253.06
316.001	217.06
316.23	207.06
316.46	222.06
316.689	220.06
316.919	200.06
317.148	233.06
317.377	224.06
317.607	215.06
317.836	209.06
318.065	251.06
318.295	272.06
318.524	274.06
318.753	220.06
318.983	235.06
319.212	220.06
319.441	232.06
319.67	254.06
319.9	293.06
320.129	255.06
320.358	234.06
320.587	232.06
320.816	246.06
321.046	275.06
321.275	289.06
321.504	277.06
321.733	271.06
321.962	299.06
322.191	273.06
322.42	251.06
322.649	254.06
322.878	265.06
323.108	263.06
323.337	266.06
323.566	262.06
323.795	261.06
324.024	243.06
324.253	225.06
324.482	229.06
324.71	252.06
324.939	277.06
325.168	267.06
325.397	232.06
325.626	213.06
325.855	215.06
326.084	241.06
326.313	225.06
326.542	222.06
326.77	231.06
326.999	223.06
327.228	230.06
327.457	255.06
327.686	252.06
327.914	219.06
328.143	217.06
328.372	210.06
328.6	207.06
328.829	220.06
329.058	214.06
329.287	202.06
329.515	222.06
329.744	226.06
329.972	206.06
330.201	205.06
330.43	222.06
330.658	222.06
330.887	252.06
331.115	250.06
331.344	241.06
331.572	222.06
331.801	208.06
332.03	209.06
332.258	226.06
332.486	243.06
332.715	247.06
332.943	248.06
333.172	228.06
333.4	244.06
333.629	268.06
333.857	297.06
334.085	255.06
334.314	266.06
334.542	248.06
334.771	251.06
334.999	232.06
335.227	222.06
335.455	241.06
335.684	273.06
335.912	270.06
336.14	291.06
336.369	309.06
336.597	286.06
336.825	326.06
337.053	359.06
337.281	298.06
337.51	228.06
337.738	239.06
337.966	256.06
338.194	269.06
338.422	259.06
338.65	234.06
338.878	227.06
339.106	234.06
339.334	237.06
339.562	249.06
339.79	240.06
340.018	221.06
340.246	228.06
340.474	249.06
340.702	281.06
340.93	284.06
341.158	305.06
341.386	251.06
341.614	261.06
341.842	253.06
342.07	243.06
342.298	302.06
342.526	327.06
342.754	288.06
342.981	263.06
343.209	253.06
343.437	282.06
343.665	290.06
343.893	270.06
344.12	312.06
344.348	367.06
344.576	351.06
344.804	273.06
345.031	265.06
345.259	228.06
345.487	219.06
345.714	246.06
345.942	276.06
346.17	282.06
346.397	270.06
346.625	258.06
346.853	257.06
347.08	242.06
347.308	241.06
347.535	278.06
347.763	292.06
347.99	248.06
348.218	220.06
348.445	230.06
348.673	254.06
348.9	245.06
349.128	271.06
349.355	262.06
349.583	246.06
349.81	249.06
350.037	227.06
350.265	202.06
350.492	189.06
350.72	206.06
350.947	212.06
351.174	225.06
351.402	230.06
351.629	251.06
351.856	231.06
352.083	223.06
352.311	225.06
352.538	255.06
352.765	263.06
352.992	248.06
353.22	237.06
353.447	227.06
353.674	241.06
353.901	226.06
354.128	224.06
354.355	230.06
354.583	232.06
354.81	254.06
355.037	264.06
355.264	248.06
355.491	241.06
355.718	274.06
355.945	262.06
356.172	277.06
356.399	271.06
356.626	315.06
356.853	345.06
357.08	361.06
357.307	374.06
357.534	313.06
357.761	322.06
357.988	389.06
358.215	451.06
358.441	414.06
358.668	350.06
358.895	336.06
359.122	285.06
359.349	288.06
359.576	321.06
359.802	283.06
360.029	225.06
360.256	257.06
360.483	298.06
360.709	358.06
360.936	373.06
361.163	339.06
361.39	265.06
361.616	244.06
361.843	268.06
362.07	331.06
362.296	308.06
362.523	251.06
362.749	216.06
362.976	242.06
363.203	264.06
363.429	307.06
363.656	257.06
363.882	234.06
364.109	237.06
364.335	239.06
364.562	222.06
364.788	281.06
365.015	291.06
365.241	279.06
365.468	223.06
365.694	211.06
365.92	214.06
366.147	210.06
366.373	195.06
366.599	205.06
366.826	215.06
367.052	201.06
367.278	208.06
367.505	214.06
367.731	227.06
367.957	238.06
368.184	255.06
368.41	233.06
368.636	241.06
368.862	243.06
369.089	224.06
369.315	222.06
369.541	214.06
369.767	213.06
369.993	228.06
370.219	209.06
370.445	223.06
370.672	250.06
370.898	258.06
371.124	263.06
371.35	238.06
371.576	228.06
371.802	245.06
372.028	261.06
372.254	308.06
372.48	280.06
372.706	257.06
372.932	270.06
373.158	279.06
373.384	306.06
373.61	405.06
373.835	418.06
374.061	306.06
374.287	257.06
374.513	309.06
374.739	369.06
374.965	385.06
375.191	372.06
375.416	286.06
375.642	245.06
375.868	299.06
376.094	325.06
376.319	286.06
376.545	296.06
376.771	289.06
376.997	264.06
377.222	234.06
377.448	193.06
377.674	191.06
377.899	192.06
378.125	211.06
378.35	182.06
378.576	205.06
378.802	220.06
379.027	234.06
379.253	221.06
379.478	239.06
379.704	245.06
379.929	254.06
380.155	270.06
380.38	238.06
380.606	256.06
380.831	291.06
381.057	265.06
381.282	263.06
381.507	287.06
381.733	318.06
381.958	319.06
382.184	358.06
382.409	381.06
382.634	383.06
382.86	390.06
383.085	328.06
383.31	267.06
383.535	306.06
383.761	315.06
383.986	269.06
384.211	340.06
384.436	333.06
384.662	273.06
384.887	241.06
385.112	255.06
385.337	264.06
385.562	255.06
385.787	282.06
386.013	314.06
386.238	315.06
386.463	263.06
386.688	246.06
386.913	245.06
387.138	231.06
387.363	237.06
387.588	251.06
387.813	255.06
388.038	267.06
388.263	245.06
388.488	236.06
388.713	282.06
388.938	305.06
389.163	247.06
389.387	249.06
389.612	237.06
389.837	239.06
390.062	240.06
390.287	243.06
390.512	253.06
390.736	231.06
390.961	214.06
391.186	236.06
391.411	219.06
391.636	243.06
391.86	235.06
392.085	276.06
392.31	271.06
392.534	248.06
392.759	249.06
392.984	262.06
393.208	255.06
393.433	244.06
393.658	221.06
393.882	214.06
394.107	209.06
394.331	205.06
394.556	225.06
394.78	213.06
395.005	228.06
395.229	212.06
395.454	238.06
395.678	216.06
395.903	206.06
396.127	214.06
396.352	238.06
396.576	233.06
396.801	238.06
397.025	273.06
397.249	270.06
397.474	240.06
397.698	245.06
397.922	238.06
398.147	237.06
398.371	233.06
398.595	232.06
398.82	245.06
399.044	244.06
399.268	270.06
399.492	291.06
399.717	304.06
399.941	293.06
400.165	262.06
400.389	270.06
400.613	245.06
400.837	249.06
401.062	241.06
401.286	235.06
401.51	233.06
401.734	237.06
401.958	221.06
402.182	246.06
402.406	222.06
402.63	245.06
402.854	257.06
403.078	287.06
403.302	373.06
403.526	410.06
403.75	350.06
403.974	315.06
404.198	289.06
404.422	331.06
404.645	335.06
404.869	373.06
405.093	306.06
405.317	271.06
405.541	277.06
405.765	267.06
405.988	292.06
406.212	277.06
406.436	301.06
406.66	341.06
406.883	279.06
407.107	309.06
407.331	321.06
407.555	317.06
407.778	273.06
408.002	284.06
408.226	299.06
408.449	285.06
408.673	284.06
408.896	271.06
409.12	234.06
409.344	237.06
409.567	239.06
409.791	240.06
410.014	259.06
410.238	243.06
410.461	243.06
410.685	223.06
410.908	234.06
411.132	249.06
411.355	247.06
411.578	258.06
411.802	249.06
412.025	249.06
412.249	246.06
412.472	263.06
412.695	263.06
412.919	251.06
413.142	243.06
413.365	267.06
413.589	275.06
413.812	245.06
414.035	240.06
414.258	241.06
414.482	261.06
414.705	270.06
414.928	217.06
415.151	229.06
415.374	242.06
415.597	249.06
415.821	237.06
416.044	218.06
416.267	237.06
416.49	227.06
416.713	228.06
416.936	222.06
417.159	255.06
417.382	213.06
417.605	241.06
417.828	247.06
418.051	243.06
418.274	250.06
418.497	238.06
418.72	261.06
418.943	237.06
419.166	255.06
419.389	274.06
419.611	274.06
419.834	265.06
420.057	293.06
420.28	295.06
420.503	258.06
420.726	249.06
420.948	243.06
421.171	238.06
421.394	238.06
421.617	229.06
421.839	237.06
422.062	227.06
422.285	223.06
422.507	261.06
422.73	247.06
422.953	229.06
423.175	249.06
423.398	247.06
423.621	258.06
423.843	257.06
424.066	238.06
424.288	228.06
424.511	252.06
424.733	261.06
424.956	246.06
425.178	275.06
425.401	327.06
425.623	377.06
425.846	318.06
426.068	265.06
426.291	275.06
426.513	270.06
426.735	246.06
426.958	267.06
427.18	305.06
427.402	391.06
427.625	393.06
427.847	312.06
428.069	265.06
428.292	241.06
428.514	245.06
428.736	228.06
428.958	271.06
429.181	315.06
429.403	280.06
429.625	244.06
429.847	230.06
430.069	225.06
430.292	238.06
430.514	241.06
430.736	261.06
430.958	303.06
431.18	278.06
431.402	246.06
431.624	214.06
431.846	215.06
432.068	220.06
432.29	215.06
432.512	226.06
432.734	313.06
432.956	285.06
433.178	231.06
433.4	233.06
433.622	249.06
433.844	238.06
434.066	259.06
434.287	266.06
434.509	239.06
434.731	261.06
434.953	248.06
435.175	250.06
435.397	288.06
435.618	247.06
435.84	239.06
436.062	227.06
436.284	216.06
436.505	229.06
436.727	218.06
436.949	207.06
437.17	241.06
437.392	226.06
437.614	224.06
437.835	215.06
438.057	226.06
438.278	243.06
438.5	314.06
438.721	335.06
438.943	242.06
439.165	230.06
439.386	226.06
439.608	222.06
439.829	220.06
440.05	222.06
440.272	224.06
440.493	260.06
440.715	301.06
440.936	257.06
441.158	239.06
441.379	220.06
441.6	260.06
441.822	280.06
442.043	246.06
442.264	232.06
442.486	233.06
442.707	227.06
442.928	234.06
443.149	224.06
443.371	220.06
443.592	235.06
443.813	245.06
444.034	250.06
444.255	240.06
444.476	255.06
444.698	256.06
444.919	262.06
445.14	360.06
445.361	321.06
445.582	269.06
445.803	259.06
446.024	257.06
446.245	245.06
446.466	240.06
446.687	260.06
446.908	240.06
447.129	218.06
447.35	232.06
447.571	222.06
447.792	210.06
448.013	209.06
448.234	224.06
448.455	211.06
448.675	211.06
448.896	223.06
449.117	228.06
449.338	215.06
449.559	223.06
449.779	216.06
450	223.06
450.221	241.06
450.442	259.06
450.662	222.06
450.883	227.06
451.104	233.06
451.324	204.06
451.545	222.06
451.766	217.06
451.986	224.06
452.207	214.06
452.428	216.06
452.648	227.06
452.869	221.06
453.089	227.06
453.31	215.06
453.53	206.06
453.751	226.06
453.971	210.06
454.192	217.06
454.412	202.06
454.633	215.06
454.853	226.06
455.073	202.06
455.294	198.06
455.514	214.06
455.734	218.06
455.955	221.06
456.175	221.06
456.395	210.06
456.616	181.06
456.836	204.06
457.056	200.06
457.276	198.06
457.497	190.06
457.717	207.06
457.937	193.06
458.157	206.06
458.377	211.06
458.598	207.06
458.818	207.06
459.038	219.06
459.258	205.06
459.478	238.06
459.698	247.06
459.918	250.06
460.138	233.06
460.358	244.06
460.578	237.06
460.798	253.06
461.018	244.06
461.238	221.06
461.458	234.06
461.678	254.06
461.898	267.06
462.118	240.06
462.338	255.06
462.558	243.06
462.777	257.06
462.997	296.06
463.217	289.06
463.437	303.06
463.657	275.06
463.876	281.06
464.096	292.06
464.316	285.06
464.536	288.06
464.755	297.06
464.975	298.06
465.195	265.06
465.414	273.06
465.634	260.06
465.854	235.06
466.073	234.06
466.293	229.06
466.512	244.06
466.732	279.06
466.951	257.06
467.171	224.06
467.391	227.06
467.61	234.06
467.829	241.06
468.049	255.06
468.268	243.06
468.488	218.06
468.707	237.06
468.927	264.06
469.146	281.06
469.365	263.06
469.585	253.06
469.804	243.06
470.023	291.06
470.243	241.06
470.462	264.06
470.681	243.06
470.901	241.06
471.12	262.06
471.339	245.06
471.558	230.06
471.777	255.06
471.997	241.06
472.216	289.06
472.435	273.06
472.654	267.06
472.873	235.06
473.092	247.06
473.311	273.06
473.53	250.06
473.749	253.06
473.968	251.06
474.187	253.06
474.406	249.06
474.625	237.06
474.844	255.06
475.063	237.06
475.282	248.06
475.501	287.06
475.72	305.06
475.939	299.06
476.158	281.06
476.377	309.06
476.596	352.06
476.814	366.06
477.033	305.06
477.252	274.06
477.471	255.06
477.69	257.06
477.908	266.06
478.127	296.06
478.346	270.06
478.564	296.06
478.783	289.06
479.002	285.06
479.22	317.06
479.439	357.06
479.658	318.06
479.876	277.06
480.095	317.06
480.313	293.06
480.532	287.06
480.751	279.06
480.969	286.06
481.188	319.06
481.406	324.06
481.624	308.06
481.843	252.06
482.061	265.06
482.28	306.06
482.498	363.06
482.717	352.06
482.935	297.06
483.153	276.06
483.372	270.06
483.59	277.06
483.808	282.06
484.027	263.06
484.245	252.06
484.463	248.06
484.681	268.06
484.9	266.06
485.118	286.06
485.336	286.06
485.554	262.06
485.772	274.06
485.99	294.06
486.209	312.06
486.427	298.06
486.645	317.06
486.863	321.06
487.081	303.06
487.299	332.06
487.517	312.06
487.735	283.06
487.953	286.06
488.171	321.06
488.389	273.06
488.607	260.06
488.825	271.06
489.043	307.06
489.261	344.06
489.479	332.06
489.696	306.06
489.914	271.06
490.132	285.06
490.35	295.06
490.568	265.06
490.786	266.06
491.003	270.06
491.221	283.06
491.439	281.06
491.657	261.06
491.874	279.06
492.092	328.06
492.31	391.06
492.527	380.06
492.745	345.06
492.963	309.06
493.18	312.06
493.398	314.06
493.615	303.06
493.833	313.06
494.05	296.06
494.268	282.06
494.485	312.06
494.703	311.06
494.92	269.06
495.138	287.06
495.355	298.06
495.573	306.06
495.79	311.06
496.008	390.06
496.225	351.06
496.442	298.06
496.66	329.06
496.877	342.06
497.094	342.06
497.312	301.06
497.529	308.06
497.746	291.06
497.963	320.06
498.181	336.06
498.398	354.06
498.615	373.06
498.832	401.06
499.049	407.06
499.267	396.06
499.484	373.06
499.701	415.06
499.918	451.06
500.135	521.06
500.352	559.06
500.569	568.06
500.786	546.06
501.003	540.06
501.22	453.06
501.437	437.06
501.654	429.06
501.871	381.06
502.088	388.06
502.305	378.06
502.522	366.06
502.739	348.06
502.956	332.06
503.172	322.06
503.389	324.06
503.606	294.06
503.823	311.06
504.04	330.06
504.256	324.06
504.473	337.06
504.69	340.06
504.907	358.06
505.123	340.06
505.34	354.06
505.557	333.06
505.773	320.06
505.99	313.06
506.207	321.06
506.423	326.06
506.64	288.06
506.856	297.06
507.073	331.06
507.289	320.06
507.506	308.06
507.722	317.06
507.939	325.06
508.155	341.06
508.372	322.06
508.588	318.06
508.805	288.06
509.021	285.06
509.238	284.06
509.454	281.06
509.67	291.06
509.887	296.06
510.103	305.06
510.319	315.06
510.536	295.06
510.752	269.06
510.968	268.06
511.184	257.06
511.401	279.06
511.617	274.06
511.833	254.06
512.049	270.06
512.265	266.06
512.481	276.06
512.698	334.06
512.914	333.06
513.13	307.06
513.346	274.06
513.562	281.06
513.778	281.06
513.994	271.06
514.21	289.06
514.426	286.06
514.642	275.06
514.858	278.06
515.074	287.06
515.29	325.06
515.506	351.06
515.721	317.06
515.937	311.06
516.153	289.06
516.369	283.06
516.585	316.06
516.801	341.06
517.016	399.06
517.232	377.06
517.448	372.06
517.664	357.06
517.879	336.06
518.095	338.06
518.311	330.06
518.527	322.06
518.742	351.06
518.958	358.06
519.173	363.06
519.389	351.06
519.605	339.06
519.82	334.06
520.036	410.06
520.251	405.06
520.467	388.06
520.682	625.06
520.898	767.06
521.113	731.06
521.329	423.06
521.544	374.06
521.76	375.06
521.975	323.06
522.19	307.06
522.406	321.06
522.621	362.06
522.836	352.06
523.052	370.06
523.267	310.06
523.482	317.06
523.698	321.06
523.913	342.06
524.128	303.06
524.343	296.06
524.559	298.06
524.774	287.06
524.989	290.06
525.204	286.06
525.419	333.06
525.634	279.06
525.849	310.06
526.064	315.06
526.28	303.06
526.495	356.06
526.71	385.06
526.925	336.06
527.14	336.06
527.355	339.06
527.57	266.06
527.785	301.06
527.999	295.06
528.214	276.06
528.429	288.06
528.644	275.06
528.859	248.06
529.074	259.06
529.289	279.06
529.503	250.06
529.718	267.06
529.933	314.06
530.148	325.06
530.363	278.06
530.577	252.06
530.792	265.06
531.007	264.06
531.221	260.06
531.436	252.06
531.651	256.06
531.865	260.06
532.08	282.06
532.295	260.06
532.509	255.06
532.724	301.06
532.938	328.06
533.153	387.06
533.367	311.06
533.582	298.06
533.796	276.06
534.011	270.06
534.225	268.06
534.44	275.06
534.654	282.06
534.868	339.06
535.083	317.06
535.297	270.06
535.511	265.06
535.726	287.06
535.94	292.06
536.154	265.06
536.369	268.06
536.583	263.06
536.797	250.06
537.011	261.06
537.225	286.06
537.44	290.06
537.654	274.06
537.868	267.06
538.082	253.06
538.296	265.06
538.51	281.06
538.724	275.06
538.938	277.06
539.153	261.06
539.367	241.06
539.581	250.06
539.795	283.06
540.009	299.06
540.222	276.06
540.436	273.06
540.65	286.06
540.864	296.06
541.078	294.06
541.292	339.06
541.506	298.06
541.72	248.06
541.934	248.06
542.147	258.06
542.361	270.06
542.575	268.06
542.789	256.06
543.002	254.06
543.216	273.06
543.43	251.06
543.644	255.06
543.857	265.06
544.071	254.06
544.285	258.06
544.498	242.06
544.712	243.06
544.925	256.06
545.139	242.06
545.352	233.06
545.566	231.06
545.779	258.06
545.993	261.06
546.206	221.06
546.42	234.06
546.633	206.06
546.847	223.06
547.06	219.06
547.274	221.06
547.487	236.06
547.7	239.06
547.914	264.06
548.127	287.06
548.34	278.06
548.554	256.06
548.767	266.06
548.98	258.06
549.193	255.06
549.407	270.06
549.62	291.06
549.833	289.06
550.046	302.06
550.259	292.06
550.473	271.06
550.686	279.06
550.899	270.06
551.112	259.06
551.325	259.06
551.538	292.06
551.751	261.06
551.964	228.06
552.177	246.06
552.39	232.06
552.603	242.06
552.816	255.06
553.029	237.06
553.242	249.06
553.455	266.06
553.667	273.06
553.88	267.06
554.093	247.06
554.306	238.06
554.519	218.06
554.732	218.06
554.944	228.06
555.157	217.06
555.37	210.06
555.583	224.06
555.795	214.06
556.008	221.06
556.221	221.06
556.433	232.06
556.646	210.06
556.859	218.06
557.071	222.06
557.284	239.06
557.496	221.06
557.709	225.06
557.921	216.06
558.134	214.06
558.346	199.06
558.559	199.06
558.771	189.06
558.984	216.06
559.196	198.06
559.409	211.06
559.621	219.06
559.833	207.06
560.046	201.06
560.258	206.06
560.47	227.06
560.683	194.06
560.895	213.06
561.107	212.06
561.32	192.06
561.532	203.06
561.744	224.06
561.956	218.06
562.168	213.06
562.381	208.06
562.593	205.06
562.805	214.06
563.017	180.06
563.229	194.06
563.441	191.06
563.653	204.06
563.865	200.06
564.077	197.06
564.289	197.06
564.501	210.06
564.713	211.06
564.925	211.06
565.137	206.06
565.349	204.06
565.561	203.06
565.773	200.06
565.985	217.06
566.197	233.06
566.408	245.06
566.62	240.06
566.832	242.06
567.044	254.06
567.255	268.06
567.467	308.06
567.679	281.06
567.891	267.06
568.102	280.06
568.314	266.06
568.526	269.06
568.737	262.06
568.949	234.06
569.161	242.06
569.372	203.06
569.584	205.06
569.795	212.06
570.007	223.06
570.218	223.06
570.43	215.06
570.641	207.06
570.853	214.06
571.064	198.06
571.276	226.06
571.487	222.06
571.698	214.06
571.91	199.06
572.121	192.06
572.333	201.06
572.544	199.06
572.755	186.06
572.966	184.06
573.178	191.06
573.389	190.06
573.6	195.06
573.811	191.06
574.023	170.06
574.234	178.06
574.445	190.06
574.656	177.06
574.867	173.06
575.078	192.06
575.289	197.06
575.501	189.06
575.712	187.06
575.923	184.06
576.134	166.06
576.345	169.06
576.556	170.06
576.767	188.06
576.978	175.06
577.188	180.06
577.399	176.06
577.61	194.06
577.821	189.06
578.032	177.06
578.243	193.06
578.454	201.06
578.665	201.06
578.875	174.06
579.086	177.06
579.297	179.06
579.508	200.06
579.718	193.06
579.929	188.06
580.14	175.06
580.35	187.06
580.561	170.06
580.772	158.06
580.982	178.06
581.193	162.06
581.403	168.06
581.614	169.06
581.825	176.06
582.035	165.06
582.246	173.06
582.456	163.06
582.667	161.06
582.877	164.06
583.087	163.06
583.298	158.06
583.508	158.06
583.719	169.06
583.929	158.06
584.139	161.06
584.35	166.06
584.56	167.06
584.77	176.06
584.981	161.06
585.191	165.06
585.401	150.06
585.611	167.06
585.821	177.06
586.032	163.06
586.242	164.06
586.452	167.06
586.662	178.06
586.872	173.06
587.082	177.06
587.292	170.06
587.502	164.06
587.713	165.06
587.923	174.06
588.133	171.06
588.343	169.06
588.553	152.06
588.762	177.06
588.972	178.06
589.182	147.06
589.392	145.06
589.602	159.06
589.812	155.06
590.022	187.06
590.232	192.06
590.441	179.06
590.651	150.06
590.861	157.06
591.071	161.06
591.281	159.06
591.49	160.06
591.7	162.06
591.91	165.06
592.119	169.06
592.329	169.06
592.539	161.06
592.748	165.06
592.958	174.06
593.167	177.06
593.377	182.06
593.587	181.06
593.796	170.06
594.006	182.06
594.215	175.06
594.424	193.06
594.634	196.06
594.843	177.06
595.053	159.06
595.262	153.06
595.472	171.06
595.681	156.06
595.89	153.06
596.1	165.06
596.309	151.06
596.518	151.06
596.727	160.06
596.937	149.06
597.146	158.06
597.355	156.06
597.564	166.06
597.774	153.06
597.983	161.06
598.192	142.06
598.401	156.06
598.61	153.06
598.819	149.06
599.028	151.06
599.237	148.06
599.446	145.06
599.655	138.06
599.864	152.06
600.073	137.06
600.282	162.06
600.491	149.06
600.7	147.06
600.909	141.06
601.118	149.06
601.327	135.06
601.536	157.06
601.745	143.06
601.953	140.06
602.162	163.06
602.371	166.06
602.58	130.06
602.789	150.06
602.997	137.06
603.206	151.06
603.415	145.06
603.623	125.06
603.832	147.06
604.041	137.06
604.249	146.06
604.458	142.06
604.666	130.06
604.875	152.06
605.084	136.06
605.292	137.06
605.501	138.06
605.709	143.06
605.918	132.06
606.126	140.06
606.334	134.06
606.543	144.06
606.751	151.06
606.96	156.06
607.168	138.06
607.376	149.06
607.585	131.06
607.793	135.06
608.001	147.06
608.21	136.06
608.418	139.06
608.626	143.06
608.834	145.06
609.043	137.06
609.251	140.06
609.459	141.06
609.667	144.06
609.875	129.06
610.083	132.06
610.291	145.06
610.499	154.06
610.707	136.06
610.916	121.06
611.124	146.06
611.332	130.06
611.54	128.06
611.748	134.06
611.955	145.06
612.163	138.06
612.371	151.06
612.579	145.06
612.787	134.06
612.995	139.06
613.203	142.06
613.411	121.06
613.618	136.06
613.826	133.06
614.034	141.06
614.242	138.06
614.449	140.06
614.657	142.06
614.865	139.06
615.072	155.06
615.28	144.06
615.488	137.06
615.695	130.06
615.903	141.06
616.111	129.06
616.318	145.06
616.526	122.06
616.733	138.06
616.941	137.06
617.148	151.06
617.356	138.06
617.563	138.06
617.771	150.06
617.978	142.06
618.185	127.06
618.393	126.06
618.6	126.06
618.807	128.06
619.015	120.06
619.222	135.06
619.429	132.06
619.637	137.06
619.844	137.06
620.051	153.06
620.258	133.06
620.466	125.06
620.673	134.06
620.88	126.06
621.087	122.06
621.294	119.06
621.501	141.06
621.708	124.06
621.915	119.06
622.122	132.06
622.329	121.06
622.536	128.06
622.743	143.06
622.95	131.06
623.157	152.06
623.364	122.06
623.571	139.06
623.778	120.06
623.985	135.06
624.192	132.06
624.399	134.06
624.606	122.06
624.812	133.06
625.019	131.06
625.226	152.06
625.433	143.06
625.639	118.06
625.846	123.06
626.053	128.06
626.259	123.06
626.466	136.06
626.673	137.06
626.879	139.06
627.086	147.06
627.293	134.06
627.499	117.06
627.706	117.06
627.912	114.06
628.119	102.06
628.325	113.06
628.532	122.06
628.738	138.06
628.945	119.06
629.151	110.06
629.357	140.06
629.564	101.06
629.77	123.06
629.976	122.06
630.183	138.06
630.389	129.06
630.595	125.06
630.802	105.06
631.008	115.06
631.214	121.06
631.42	121.06
631.627	131.06
631.833	132.06
632.039	119.06
632.245	121.06
632.451	118.06
632.657	114.06
632.863	126.06
633.069	131.06
633.275	130.06
633.481	127.06
633.688	122.06
633.893	118.06
634.099	123.06
634.305	102.06
634.511	117.06
634.717	115.06
634.923	114.06
635.129	128.06
635.335	106.06
635.541	125.06
635.747	129.06
635.952	104.06
636.158	124.06
636.364	130.06
636.57	118.06
636.775	119.06
636.981	107.06
637.187	129.06
637.392	110.06
637.598	123.06
637.804	123.06
638.009	122.06
638.215	110.06
638.421	116.06
638.626	118.06
638.832	119.06
639.037	118.06
639.243	124.06
639.448	110.06
639.654	109.06
639.859	121.06
640.065	108.06
640.27	115.06
640.475	121.06
640.681	122.06
640.886	115.06
641.091	103.06
641.297	129.06
641.502	121.06
641.707	126.06
641.913	96.06
642.118	99.06
642.323	127.06
642.528	119.06
642.733	111.06
642.939	111.06
643.144	116.06
643.349	102.06
643.554	111.06
643.759	114.06
643.964	117.06
644.169	113.06
644.374	104.06
644.579	117.06
644.784	110.06
644.989	104.06
645.194	123.06
645.399	129.06
645.604	122.06
645.809	117.06
646.014	103.06
646.219	121.06
646.423	113.06
646.628	116.06
646.833	110.06
647.038	129.06
647.243	114.06
647.447	103.06
647.652	106.06
647.857	125.06
648.062	111.06
648.266	97.06
648.471	107.06
648.676	126.06
648.88	115.06
649.085	118.06
649.289	113.06
649.494	103.06
649.698	97.06
649.903	109.06
650.107	101.06
650.312	102.06
650.516	119.06
650.721	102.06
650.925	105.06
651.13	98.06
651.334	105.06
651.539	99.06
651.743	104.06
651.947	106.06
652.152	115.06
652.356	99.06
652.56	105.06
652.764	113.06
652.969	101.06
653.173	97.06
653.377	103.06
653.581	89.06
653.785	94.06
653.99	98.06
654.194	106.06
654.398	103.06
654.602	96.06
654.806	102.06
655.01	115.06
655.214	82.06
655.418	105.06
655.622	97.06
655.826	97.06
656.03	105.06
656.234	98.06
656.438	91.06
656.642	112.06
656.846	101.06
657.049	98.06
657.253	101.06
657.457	106.06
657.661	105.06
657.865	99.06
658.068	95.06
658.272	95.06
658.476	94.06
658.68	95.06
658.883	97.06
659.087	81.06
659.291	86.06
659.494	86.06
659.698	82.06
659.901	97.06
660.105	94.06
660.309	78.06
660.512	85.06
660.716	74.06
660.919	79.06
661.123	82.06
661.326	73.06
661.53	81.06
661.733	80.06
661.936	85.06
662.14	99.06
662.343	82.06
662.546	84.06
662.75	86.06
662.953	85.06
663.156	89.06
663.36	93.06
663.563	89.06
663.766	70.06
663.969	85.06
664.173	78.06
664.376	82.06
664.579	81.06
664.782	81.06
664.985	87.06
665.188	82.06
665.391	79.06
665.594	90.06
665.797	73.06
666	73.06
666.203	69.06
666.406	94.06
666.609	87.06
666.812	75.06
667.015	79.06
667.218	83.06
667.421	90.06
667.624	78.06
667.827	67.06
668.03	91.06
668.232	82.06
668.435	82.06
668.638	83.06
668.841	99.06
669.043	83.06
669.246	82.06
669.449	72.06
669.651	75.06
669.854	90.06
670.057	86.06
670.259	73.06
670.462	76.06
670.665	77.06
670.867	76.06
671.07	75.06
671.272	73.06
671.475	72.06
671.677	75.06
671.88	78.06
672.082	88.06
672.284	73.06
672.487	88.06
672.689	73.06
672.892	95.06
