Data from NickelSpatula.Lamp.E10.P2_HRD10591_11-57-28-532.txt Node
Date: Tue Jul 23 11:57:28 EDT 2019
User: cochatt
Spectrometer: HR+D1059
Trigger mode: 1
Integration Time (sec): 1.000000E-1
Scans to average: 1
Electric dark correction enabled: true
Nonlinearity correction enabled: false
Boxcar width: 0
XAxis mode: Wavelengths
Number of Pixels in Spectrum: 2048
>>>>>Begin Spectral Data<<<<<
223.165	-3.81
223.4	-3.81
223.635	-3.81
223.869	-24.81
224.104	-5.81
224.338	-15.81
224.573	-16.81
224.808	-10.81
225.042	-21.81
225.277	-10.81
225.511	4.19
225.746	4.19
225.98	14.19
226.215	13.19
226.449	17.19
226.683	23.19
226.918	26.19
227.152	8.19
227.387	39.19
227.621	31.19
227.856	50.19
228.09	50.19
228.324	39.19
228.559	60.19
228.793	91.19
229.027	152.19
229.262	156.19
229.496	146.19
229.73	159.19
229.964	190.19
230.199	213.19
230.433	219.19
230.667	216.19
230.901	207.19
231.136	203.19
231.37	204.19
231.604	222.19
231.838	253.19
232.072	255.19
232.306	259.19
232.541	245.19
232.775	243.19
233.009	268.19
233.243	307.19
233.477	292.19
233.711	340.19
233.945	334.19
234.179	327.19
234.413	355.19
234.647	417.19
234.881	453.19
235.115	440.19
235.349	405.19
235.583	371.19
235.817	355.19
236.051	387.19
236.285	430.19
236.519	467.19
236.753	432.19
236.987	424.19
237.221	393.19
237.455	400.19
237.689	433.19
237.922	457.19
238.156	519.19
238.39	565.19
238.624	666.19
238.858	579.19
239.091	482.19
239.325	496.19
239.559	474.19
239.793	544.19
240.027	648.19
240.26	612.19
240.494	578.19
240.728	592.19
240.961	690.19
241.195	614.19
241.429	650.19
241.662	615.19
241.896	505.19
242.13	484.19
242.363	472.19
242.597	439.19
242.83	536.19
243.064	531.19
243.298	600.19
243.531	611.19
243.765	631.19
243.998	646.19
244.232	648.19
244.465	592.19
244.699	608.19
244.932	673.19
245.166	630.19
245.399	555.19
245.633	528.19
245.866	584.19
246.099	628.19
246.333	699.19
246.566	784.19
246.8	770.19
247.033	731.19
247.266	683.19
247.5	692.19
247.733	664.19
247.966	643.19
248.2	686.19
248.433	776.19
248.666	840.19
248.899	855.19
249.133	855.19
249.366	1003.19
249.599	1030.19
249.832	951.19
250.066	820.19
250.299	832.19
250.532	811.19
250.765	819.19
250.998	733.19
251.231	714.19
251.465	776.19
251.698	850.19
251.931	784.19
252.164	815.19
252.397	965.19
252.63	1077.19
252.863	1156.19
253.096	1172.19
253.329	1155.19
253.562	1091.19
253.795	1224.19
254.028	1358.19
254.261	1374.19
254.494	1228.19
254.727	1160.19
254.96	1119.19
255.193	1177.19
255.426	1131.19
255.659	859.19
255.892	817.19
256.124	844.19
256.357	1026.19
256.59	1183.19
256.823	1163.19
257.056	962.19
257.289	931.19
257.521	960.19
257.754	1127.19
257.987	1314.19
258.22	1085.19
258.452	1002.19
258.685	1138.19
258.918	1281.19
259.151	1253.19
259.383	1321.19
259.616	1500.19
259.849	1564.19
260.081	1708.19
260.314	1869.19
260.547	1484.19
260.779	1508.19
261.012	1735.19
261.244	1599.19
261.477	1619.19
261.71	1542.19
261.942	1280.19
262.175	1282.19
262.407	1251.19
262.64	1254.19
262.872	1487.19
263.105	1620.19
263.337	1756.19
263.57	1525.19
263.802	1038.19
264.035	903.19
264.267	882.19
264.499	775.19
264.732	702.19
264.964	692.19
265.197	729.19
265.429	786.19
265.661	818.19
265.894	862.19
266.126	930.19
266.358	1031.19
266.591	1258.19
266.823	1488.19
267.055	1414.19
267.287	1254.19
267.52	1278.19
267.752	1321.19
267.984	1412.19
268.216	1408.19
268.448	1118.19
268.681	1126.19
268.913	1190.19
269.145	1290.19
269.377	1313.19
269.609	1313.19
269.841	1209.19
270.073	1293.19
270.306	1386.19
270.538	1395.19
270.77	1394.19
271.002	1435.19
271.234	1490.19
271.466	1527.19
271.698	1430.19
271.93	1400.19
272.162	1461.19
272.394	1426.19
272.626	1416.19
272.858	1466.19
273.09	1480.19
273.322	1303.19
273.553	1268.19
273.785	1479.19
274.017	1958.19
274.249	2426.19
274.481	2537.19
274.713	2747.19
274.945	3128.19
275.176	3240.19
275.408	2836.19
275.64	2657.19
275.872	2629.19
276.104	2219.19
276.335	1880.19
276.567	1944.19
276.799	1950.19
277.031	2109.19
277.262	1630.19
277.494	1254.19
277.726	1215.19
277.957	1316.19
278.189	1509.19
278.421	1459.19
278.652	1413.19
278.884	1338.19
279.115	1268.19
279.347	1195.19
279.579	1195.19
279.81	1228.19
280.042	1210.19
280.273	1284.19
280.505	1126.19
280.736	1031.19
280.968	1031.19
281.199	1090.19
281.431	1244.19
281.662	1238.19
281.894	1186.19
282.125	1268.19
282.356	1375.19
282.588	1394.19
282.819	1265.19
283.051	1394.19
283.282	1684.19
283.513	1970.19
283.745	2186.19
283.976	2170.19
284.207	2033.19
284.439	2102.19
284.67	2000.19
284.901	1750.19
285.132	1962.19
285.364	2016.19
285.595	1858.19
285.826	1978.19
286.057	2050.19
286.288	1955.19
286.52	1997.19
286.751	2102.19
286.982	2132.19
287.213	1820.19
287.444	1776.19
287.675	1867.19
287.906	1800.19
288.138	1552.19
288.369	1368.19
288.6	1264.19
288.831	1360.19
289.062	1546.19
289.293	1728.19
289.524	1602.19
289.755	1604.19
289.986	1664.19
290.217	1438.19
290.448	1125.19
290.679	971.19
290.91	929.19
291.141	943.19
291.371	990.19
291.602	968.19
291.833	991.19
292.064	1070.19
292.295	1219.19
292.526	1386.19
292.757	1463.19
292.987	1579.19
293.218	1588.19
293.449	1628.19
293.68	1683.19
293.91	1616.19
294.141	1654.19
294.372	1584.19
294.603	1428.19
294.833	1586.19
295.064	1864.19
295.295	1758.19
295.525	1343.19
295.756	1146.19
295.987	995.19
296.217	998.19
296.448	1040.19
296.679	1104.19
296.909	1211.19
297.14	1302.19
297.37	1426.19
297.601	1368.19
297.831	1177.19
298.062	1255.19
298.292	1436.19
298.523	1558.19
298.753	1769.19
298.984	1602.19
299.214	1258.19
299.445	1078.19
299.675	1022.19
299.905	1032.19
300.136	1072.19
300.366	1148.19
300.597	1143.19
300.827	1034.19
301.057	992.19
301.288	1002.19
301.518	1064.19
301.748	1241.19
301.979	1298.19
302.209	1402.19
302.439	1420.19
302.669	1253.19
302.9	1226.19
303.13	1160.19
303.36	1074.19
303.59	1062.19
303.82	1108.19
304.051	1257.19
304.281	1340.19
304.511	1297.19
304.741	1134.19
304.971	1194.19
305.201	1263.19
305.431	1218.19
305.661	1064.19
305.891	1014.19
306.121	1051.19
306.352	943.19
306.582	894.19
306.812	834.19
307.042	848.19
307.272	776.19
307.502	808.19
307.731	876.19
307.961	888.19
308.191	860.19
308.421	807.19
308.651	785.19
308.881	752.19
309.111	784.19
309.341	815.19
309.571	922.19
309.8	930.19
310.03	914.19
310.26	1008.19
310.49	950.19
310.72	907.19
310.949	849.19
311.179	882.19
311.409	922.19
311.639	1078.19
311.868	1397.19
312.098	1791.19
312.328	1950.19
312.557	1850.19
312.787	1865.19
313.017	1679.19
313.246	1840.19
313.476	1944.19
313.706	1622.19
313.935	1274.19
314.165	1058.19
314.394	956.19
314.624	964.19
314.853	1008.19
315.083	1041.19
315.312	1009.19
315.542	1014.19
315.771	948.19
316.001	869.19
316.23	855.19
316.46	870.19
316.689	888.19
316.919	902.19
317.148	888.19
317.377	889.19
317.607	870.19
317.836	952.19
318.065	1098.19
318.295	1228.19
318.524	1128.19
318.753	979.19
318.983	927.19
319.212	902.19
319.441	1024.19
319.67	1111.19
319.9	1200.19
320.129	1138.19
320.358	968.19
320.587	931.19
320.816	1031.19
321.046	1174.19
321.275	1319.19
321.504	1316.19
321.733	1245.19
321.962	1214.19
322.191	1138.19
322.42	1091.19
322.649	1122.19
322.878	1187.19
323.108	1190.19
323.337	1086.19
323.566	1069.19
323.795	1052.19
324.024	994.19
324.253	936.19
324.482	964.19
324.71	1060.19
324.939	1231.19
325.168	1097.19
325.397	920.19
325.626	907.19
325.855	935.19
326.084	949.19
326.313	902.19
326.542	810.19
326.77	876.19
326.999	892.19
327.228	946.19
327.457	1009.19
327.686	990.19
327.914	886.19
328.143	835.19
328.372	847.19
328.6	854.19
328.829	856.19
329.058	890.19
329.287	876.19
329.515	926.19
329.744	874.19
329.972	834.19
330.201	819.19
330.43	851.19
330.658	945.19
330.887	1063.19
331.115	1042.19
331.344	997.19
331.572	990.19
331.801	908.19
332.03	874.19
332.258	878.19
332.486	938.19
332.715	969.19
332.943	926.19
333.172	909.19
333.4	920.19
333.629	1029.19
333.857	1122.19
334.085	1095.19
334.314	1106.19
334.542	1050.19
334.771	968.19
334.999	953.19
335.227	938.19
335.455	937.19
335.684	1013.19
335.912	1196.19
336.14	1286.19
336.369	1276.19
336.597	1226.19
336.825	1353.19
337.053	1516.19
337.281	1203.19
337.51	956.19
337.738	953.19
337.966	1083.19
338.194	1184.19
338.422	1108.19
338.65	967.19
338.878	864.19
339.106	882.19
339.334	1018.19
339.562	1068.19
339.79	998.19
340.018	947.19
340.246	1055.19
340.474	1173.19
340.702	1290.19
340.93	1282.19
341.158	1306.19
341.386	1120.19
341.614	1082.19
341.842	1118.19
342.07	1154.19
342.298	1322.19
342.526	1356.19
342.754	1184.19
342.981	1111.19
343.209	1046.19
343.437	1150.19
343.665	1185.19
343.893	1166.19
344.12	1360.19
344.348	1591.19
344.576	1441.19
344.804	1170.19
345.031	1040.19
345.259	965.19
345.487	995.19
345.714	1015.19
345.942	1082.19
346.17	1186.19
346.397	1112.19
346.625	983.19
346.853	981.19
347.08	952.19
347.308	986.19
347.535	1120.19
347.763	1114.19
347.99	990.19
348.218	950.19
348.445	987.19
348.673	971.19
348.9	955.19
349.128	1042.19
349.355	1059.19
349.583	1040.19
349.81	1003.19
350.037	946.19
350.265	836.19
350.492	778.19
350.72	784.19
350.947	821.19
351.174	883.19
351.402	970.19
351.629	979.19
351.856	931.19
352.083	903.19
352.311	956.19
352.538	1051.19
352.765	1119.19
352.992	1036.19
353.22	975.19
353.447	1011.19
353.674	965.19
353.901	954.19
354.128	977.19
354.355	985.19
354.583	982.19
354.81	971.19
355.037	1014.19
355.264	1010.19
355.491	1068.19
355.718	1130.19
355.945	1076.19
356.172	1082.19
356.399	1082.19
356.626	1320.19
356.853	1561.19
357.08	1702.19
357.307	1691.19
357.534	1352.19
357.761	1355.19
357.988	1695.19
358.215	1986.19
358.441	1892.19
358.668	1602.19
358.895	1465.19
359.122	1199.19
359.349	1176.19
359.576	1259.19
359.802	1088.19
360.029	958.19
360.256	1015.19
360.483	1262.19
360.709	1567.19
360.936	1598.19
361.163	1419.19
361.39	1080.19
361.616	1028.19
361.843	1190.19
362.07	1507.19
362.296	1328.19
362.523	1057.19
362.749	949.19
362.976	945.19
363.203	1183.19
363.429	1334.19
363.656	1062.19
363.882	980.19
364.109	975.19
364.335	981.19
364.562	980.19
364.788	1111.19
365.015	1298.19
365.241	1168.19
365.468	975.19
365.694	836.19
365.92	828.19
366.147	803.19
366.373	784.19
366.599	770.19
366.826	780.19
367.052	801.19
367.278	822.19
367.505	798.19
367.731	879.19
367.957	976.19
368.184	1025.19
368.41	995.19
368.636	1011.19
368.862	1047.19
369.089	1023.19
369.315	903.19
369.541	886.19
369.767	868.19
369.993	842.19
370.219	866.19
370.445	924.19
370.672	994.19
370.898	1081.19
371.124	1065.19
371.35	952.19
371.576	885.19
371.802	974.19
372.028	1148.19
372.254	1278.19
372.48	1119.19
372.706	994.19
372.932	1067.19
373.158	1122.19
373.384	1338.19
373.61	1744.19
373.835	1771.19
374.061	1340.19
374.287	1157.19
374.513	1378.19
374.739	1586.19
374.965	1666.19
375.191	1625.19
375.416	1118.19
375.642	1003.19
375.868	1171.19
376.094	1301.19
376.319	1120.19
376.545	1246.19
376.771	1364.19
376.997	1147.19
377.222	858.19
377.448	775.19
377.674	768.19
377.899	752.19
378.125	748.19
378.35	751.19
378.576	774.19
378.802	846.19
379.027	905.19
379.253	900.19
379.478	881.19
379.704	1009.19
379.929	1079.19
380.155	1059.19
380.38	920.19
380.606	993.19
380.831	1056.19
381.057	1026.19
381.282	961.19
381.507	1135.19
381.733	1418.19
381.958	1482.19
382.184	1595.19
382.409	1647.19
382.634	1612.19
382.86	1691.19
383.085	1400.19
383.31	1095.19
383.535	1194.19
383.761	1227.19
383.986	1112.19
384.211	1346.19
384.436	1343.19
384.662	1036.19
384.887	1011.19
385.112	1027.19
385.337	1032.19
385.562	1008.19
385.787	1097.19
386.013	1200.19
386.238	1190.19
386.463	996.19
386.688	985.19
386.913	948.19
387.138	866.19
387.363	938.19
387.588	959.19
387.813	976.19
388.038	1080.19
388.263	979.19
388.488	960.19
388.713	1106.19
388.938	1187.19
389.163	1014.19
389.387	892.19
389.612	907.19
389.837	915.19
390.062	959.19
390.287	997.19
390.512	982.19
390.736	922.19
390.961	902.19
391.186	851.19
391.411	824.19
391.636	873.19
391.86	927.19
392.085	1008.19
392.31	1011.19
392.534	948.19
392.759	934.19
392.984	983.19
393.208	981.19
393.433	871.19
393.658	818.19
393.882	818.19
394.107	801.19
394.331	829.19
394.556	815.19
394.78	819.19
395.005	839.19
395.229	855.19
395.454	890.19
395.678	918.19
395.903	913.19
396.127	893.19
396.352	890.19
396.576	952.19
396.801	1019.19
397.025	1111.19
397.249	1135.19
397.474	931.19
397.698	923.19
397.922	977.19
398.147	897.19
398.371	918.19
398.595	970.19
398.82	954.19
399.044	937.19
399.268	1031.19
399.492	1050.19
399.717	1074.19
399.941	1092.19
400.165	1068.19
400.389	1002.19
400.613	1082.19
400.837	1038.19
401.062	944.19
401.286	884.19
401.51	899.19
401.734	930.19
401.958	920.19
402.182	914.19
402.406	903.19
402.63	937.19
402.854	939.19
403.078	1082.19
403.302	1253.19
403.526	1336.19
403.75	1183.19
403.974	1067.19
404.198	1117.19
404.422	1227.19
404.645	1396.19
404.869	1544.19
405.093	1195.19
405.317	1014.19
405.541	988.19
405.765	1036.19
405.988	1009.19
406.212	1086.19
406.436	1266.19
406.66	1415.19
406.883	1147.19
407.107	1158.19
407.331	1348.19
407.555	1319.19
407.778	1091.19
408.002	1054.19
408.226	1050.19
408.449	1044.19
408.673	1035.19
408.896	968.19
409.12	925.19
409.344	904.19
409.567	915.19
409.791	918.19
410.014	916.19
410.238	893.19
410.461	920.19
410.685	896.19
410.908	916.19
411.132	920.19
411.355	912.19
411.578	936.19
411.802	946.19
412.025	979.19
412.249	979.19
412.472	951.19
412.695	936.19
412.919	966.19
413.142	981.19
413.365	1074.19
413.589	1038.19
413.812	945.19
414.035	919.19
414.258	962.19
414.482	1055.19
414.705	1032.19
414.928	918.19
415.151	881.19
415.374	876.19
415.597	934.19
415.821	926.19
416.044	880.19
416.267	888.19
416.49	918.19
416.713	855.19
416.936	850.19
417.159	852.19
417.382	897.19
417.605	889.19
417.828	916.19
418.051	901.19
418.274	944.19
418.497	928.19
418.72	927.19
418.943	963.19
419.166	1004.19
419.389	1022.19
419.611	998.19
419.834	1007.19
420.057	1130.19
420.28	1126.19
420.503	1023.19
420.726	900.19
420.948	883.19
421.171	890.19
421.394	881.19
421.617	857.19
421.839	857.19
422.062	923.19
422.285	934.19
422.507	916.19
422.73	962.19
422.953	971.19
423.175	951.19
423.398	930.19
423.621	995.19
423.843	1055.19
424.066	996.19
424.288	946.19
424.511	895.19
424.733	887.19
424.956	960.19
425.178	1046.19
425.401	1223.19
425.623	1362.19
425.846	1186.19
426.068	993.19
426.291	1100.19
426.513	1024.19
426.735	940.19
426.958	976.19
427.18	1139.19
427.402	1451.19
427.625	1461.19
427.847	1152.19
428.069	894.19
428.292	904.19
428.514	899.19
428.736	863.19
428.958	949.19
429.181	1108.19
429.403	938.19
429.625	887.19
429.847	876.19
430.069	876.19
430.292	897.19
430.514	844.19
430.736	936.19
430.958	1198.19
431.18	1097.19
431.402	850.19
431.624	824.19
431.846	814.19
432.068	797.19
432.29	825.19
432.512	930.19
432.734	1222.19
432.956	1143.19
433.178	852.19
433.4	864.19
433.622	835.19
433.844	864.19
434.066	933.19
434.287	930.19
434.509	922.19
434.731	931.19
434.953	854.19
435.175	915.19
435.397	1033.19
435.618	871.19
435.84	812.19
436.062	818.19
436.284	851.19
436.505	802.19
436.727	814.19
436.949	819.19
437.17	863.19
437.392	869.19
437.614	834.19
437.835	806.19
438.057	884.19
438.278	966.19
438.5	1347.19
438.721	1348.19
438.943	925.19
439.165	864.19
439.386	789.19
439.608	788.19
439.829	795.19
440.05	802.19
440.272	846.19
440.493	985.19
440.715	1256.19
440.936	969.19
441.158	872.19
441.379	865.19
441.6	998.19
441.822	1031.19
442.043	891.19
442.264	857.19
442.486	892.19
442.707	889.19
442.928	867.19
443.149	883.19
443.371	906.19
443.592	938.19
443.813	927.19
444.034	912.19
444.255	908.19
444.476	962.19
444.698	939.19
444.919	961.19
445.14	1044.19
445.361	1022.19
445.582	946.19
445.803	952.19
446.024	956.19
446.245	924.19
446.466	899.19
446.687	883.19
446.908	884.19
447.129	857.19
447.35	832.19
447.571	821.19
447.792	818.19
448.013	809.19
448.234	770.19
448.455	802.19
448.675	825.19
448.896	811.19
449.117	805.19
449.338	804.19
449.559	822.19
449.779	892.19
450	850.19
450.221	834.19
450.442	810.19
450.662	795.19
450.883	787.19
451.104	819.19
451.324	825.19
451.545	806.19
451.766	843.19
451.986	818.19
452.207	782.19
452.428	779.19
452.648	790.19
452.869	800.19
453.089	821.19
453.31	840.19
453.53	746.19
453.751	732.19
453.971	718.19
454.192	738.19
454.412	774.19
454.633	744.19
454.853	769.19
455.073	754.19
455.294	738.19
455.514	727.19
455.734	756.19
455.955	818.19
456.175	849.19
456.395	751.19
456.616	742.19
456.836	731.19
457.056	710.19
457.276	739.19
457.497	707.19
457.717	752.19
457.937	715.19
458.157	718.19
458.377	740.19
458.598	758.19
458.818	779.19
459.038	794.19
459.258	849.19
459.478	852.19
459.698	906.19
459.918	891.19
460.138	864.19
460.358	920.19
460.578	852.19
460.798	892.19
461.018	889.19
461.238	870.19
461.458	848.19
461.678	932.19
461.898	967.19
462.118	953.19
462.338	959.19
462.558	950.19
462.777	975.19
462.997	1006.19
463.217	1002.19
463.437	1038.19
463.657	1003.19
463.876	987.19
464.096	972.19
464.316	974.19
464.536	982.19
464.755	1031.19
464.975	999.19
465.195	959.19
465.414	1016.19
465.634	970.19
465.854	961.19
466.073	844.19
466.293	885.19
466.512	941.19
466.732	1030.19
466.951	1028.19
467.171	904.19
467.391	891.19
467.61	874.19
467.829	960.19
468.049	982.19
468.268	893.19
468.488	892.19
468.707	950.19
468.927	1098.19
469.146	1193.19
469.365	1026.19
469.585	963.19
469.804	1027.19
470.023	1110.19
470.243	976.19
470.462	914.19
470.681	916.19
470.901	916.19
471.12	965.19
471.339	982.19
471.558	916.19
471.777	951.19
471.997	1024.19
472.216	1125.19
472.435	1086.19
472.654	983.19
472.873	992.19
473.092	995.19
473.311	1066.19
473.53	949.19
473.749	924.19
473.968	974.19
474.187	982.19
474.406	946.19
474.625	951.19
474.844	984.19
475.063	1049.19
475.282	1030.19
475.501	1076.19
475.72	1134.19
475.939	1113.19
476.158	1112.19
476.377	1248.19
476.596	1451.19
476.814	1495.19
477.033	1253.19
477.252	1098.19
477.471	1009.19
477.69	1012.19
477.908	1107.19
478.127	1145.19
478.346	1081.19
478.564	1165.19
478.783	1082.19
479.002	1119.19
479.22	1312.19
479.439	1445.19
479.658	1278.19
479.876	1160.19
480.095	1230.19
480.313	1241.19
480.532	1174.19
480.751	1079.19
480.969	1122.19
481.188	1286.19
481.406	1300.19
481.624	1247.19
481.843	1150.19
482.061	1071.19
482.28	1217.19
482.498	1440.19
482.717	1400.19
482.935	1204.19
483.153	1126.19
483.372	1048.19
483.59	1094.19
483.808	1054.19
484.027	1029.19
484.245	1014.19
484.463	988.19
484.681	1032.19
484.9	1111.19
485.118	1207.19
485.336	1135.19
485.554	1064.19
485.772	1086.19
485.99	1174.19
486.209	1208.19
486.427	1223.19
486.645	1177.19
486.863	1212.19
487.081	1208.19
487.299	1346.19
487.517	1338.19
487.735	1232.19
487.953	1264.19
488.171	1262.19
488.389	1198.19
488.607	1100.19
488.825	1159.19
489.043	1259.19
489.261	1450.19
489.479	1524.19
489.696	1284.19
489.914	1186.19
490.132	1114.19
490.35	1126.19
490.568	1148.19
490.786	1123.19
491.003	1122.19
491.221	1190.19
491.439	1140.19
491.657	1150.19
491.874	1236.19
492.092	1467.19
492.31	1738.19
492.527	1753.19
492.745	1489.19
492.963	1334.19
493.18	1302.19
493.398	1305.19
493.615	1275.19
493.833	1265.19
494.05	1233.19
494.268	1266.19
494.485	1265.19
494.703	1210.19
494.92	1220.19
495.138	1241.19
495.355	1216.19
495.573	1253.19
495.79	1358.19
496.008	1775.19
496.225	1546.19
496.442	1344.19
496.66	1339.19
496.877	1418.19
497.094	1404.19
497.312	1338.19
497.529	1342.19
497.746	1342.19
497.963	1352.19
498.181	1470.19
498.398	1602.19
498.615	1616.19
498.832	1705.19
499.049	1726.19
499.267	1566.19
499.484	1567.19
499.701	1654.19
499.918	1749.19
500.135	1849.19
500.352	1906.19
500.569	2006.19
500.786	2055.19
501.003	2020.19
501.22	1818.19
501.437	1746.19
501.654	1722.19
501.871	1625.19
502.088	1656.19
502.305	1531.19
502.522	1489.19
502.739	1542.19
502.956	1378.19
503.172	1363.19
503.389	1325.19
503.606	1310.19
503.823	1273.19
504.04	1350.19
504.256	1322.19
504.473	1334.19
504.69	1395.19
504.907	1402.19
505.123	1376.19
505.34	1429.19
505.557	1438.19
505.773	1357.19
505.99	1302.19
506.207	1363.19
506.423	1253.19
506.64	1200.19
506.856	1243.19
507.073	1373.19
507.289	1342.19
507.506	1376.19
507.722	1395.19
507.939	1438.19
508.155	1446.19
508.372	1304.19
508.588	1286.19
508.805	1236.19
509.021	1196.19
509.238	1185.19
509.454	1179.19
509.67	1176.19
509.887	1198.19
510.103	1338.19
510.319	1306.19
510.536	1206.19
510.752	1100.19
510.968	1055.19
511.184	1024.19
511.401	1049.19
511.617	1041.19
511.833	1091.19
512.049	1083.19
512.265	1116.19
512.481	1114.19
512.698	1270.19
512.914	1387.19
513.13	1230.19
513.346	1146.19
513.562	1183.19
513.778	1171.19
513.994	1151.19
514.21	1232.19
514.426	1214.19
514.642	1145.19
514.858	1142.19
515.074	1188.19
515.29	1304.19
515.506	1439.19
515.721	1316.19
515.937	1235.19
516.153	1179.19
516.369	1178.19
516.585	1241.19
516.801	1393.19
517.016	1571.19
517.232	1565.19
517.448	1534.19
517.664	1355.19
517.879	1307.19
518.095	1283.19
518.311	1298.19
518.527	1376.19
518.742	1410.19
518.958	1434.19
519.173	1429.19
519.389	1375.19
519.605	1390.19
519.82	1483.19
520.036	1748.19
520.251	1684.19
520.467	1577.19
520.682	2321.19
520.898	2851.19
521.113	2692.19
521.329	1723.19
521.544	1546.19
521.76	1499.19
521.975	1357.19
522.19	1298.19
522.406	1320.19
522.621	1449.19
522.836	1534.19
523.052	1577.19
523.267	1284.19
523.482	1282.19
523.698	1383.19
523.913	1327.19
524.128	1222.19
524.343	1207.19
524.559	1224.19
524.774	1132.19
524.989	1156.19
525.204	1184.19
525.419	1313.19
525.634	1190.19
525.849	1243.19
526.064	1277.19
526.28	1308.19
526.495	1483.19
526.71	1523.19
526.925	1343.19
527.14	1381.19
527.355	1374.19
527.57	1118.19
527.785	1206.19
527.999	1132.19
528.214	1083.19
528.429	1086.19
528.644	1079.19
528.859	1023.19
529.074	998.19
529.289	1010.19
529.503	1002.19
529.718	1039.19
529.933	1195.19
530.148	1178.19
530.363	1036.19
530.577	1037.19
530.792	983.19
531.007	1006.19
531.221	971.19
531.436	998.19
531.651	1009.19
531.865	1001.19
532.08	1046.19
532.295	991.19
532.509	1018.19
532.724	1181.19
532.938	1307.19
533.153	1503.19
533.367	1245.19
533.582	1169.19
533.796	1120.19
534.011	1044.19
534.225	1083.19
534.44	1050.19
534.654	1141.19
534.868	1243.19
535.083	1127.19
535.297	1044.19
535.511	1012.19
535.726	1137.19
535.94	1062.19
536.154	1016.19
536.369	991.19
536.583	998.19
536.797	1006.19
537.011	1009.19
537.225	1119.19
537.44	1177.19
537.654	1013.19
537.868	1022.19
538.082	1024.19
538.296	1022.19
538.51	1095.19
538.724	1101.19
538.938	1045.19
539.153	985.19
539.367	989.19
539.581	977.19
539.795	1041.19
540.009	1133.19
540.222	1059.19
540.436	1045.19
540.65	1147.19
540.864	1166.19
541.078	1202.19
541.292	1313.19
541.506	1120.19
541.72	1030.19
541.934	1019.19
542.147	1046.19
542.361	1045.19
542.575	1066.19
542.789	1043.19
543.002	965.19
543.216	1046.19
543.43	982.19
543.644	960.19
543.857	953.19
544.071	955.19
544.285	964.19
544.498	912.19
544.712	934.19
544.925	1010.19
545.139	949.19
545.352	919.19
545.566	938.19
545.779	1063.19
545.993	973.19
546.206	902.19
546.42	878.19
546.633	905.19
546.847	844.19
547.06	881.19
547.274	856.19
547.487	883.19
547.7	993.19
547.914	992.19
548.127	1120.19
548.34	1118.19
548.554	999.19
548.767	1012.19
548.98	1070.19
549.193	965.19
549.407	995.19
549.62	1186.19
549.833	1150.19
550.046	1155.19
550.259	1175.19
550.473	1012.19
550.686	975.19
550.899	976.19
551.112	1001.19
551.325	1092.19
551.538	1119.19
551.751	976.19
551.964	895.19
552.177	940.19
552.39	876.19
552.603	882.19
552.816	920.19
553.029	903.19
553.242	842.19
553.455	924.19
553.667	1036.19
553.88	1000.19
554.093	904.19
554.306	827.19
554.519	842.19
554.732	805.19
554.944	793.19
555.157	735.19
555.37	773.19
555.583	781.19
555.795	790.19
556.008	858.19
556.221	816.19
556.433	806.19
556.646	780.19
556.859	809.19
557.071	814.19
557.284	858.19
557.496	840.19
557.709	833.19
557.921	800.19
558.134	757.19
558.346	734.19
558.559	740.19
558.771	766.19
558.984	831.19
559.196	792.19
559.409	750.19
559.621	694.19
559.833	726.19
560.046	740.19
560.258	715.19
560.47	752.19
560.683	734.19
560.895	676.19
561.107	674.19
561.32	663.19
561.532	714.19
561.744	774.19
561.956	786.19
562.168	716.19
562.381	715.19
562.593	725.19
562.805	758.19
563.017	700.19
563.229	678.19
563.441	681.19
563.653	690.19
563.865	729.19
564.077	719.19
564.289	698.19
564.501	697.19
564.713	745.19
564.925	723.19
565.137	704.19
565.349	713.19
565.561	716.19
565.773	714.19
565.985	745.19
566.197	811.19
566.408	869.19
566.62	858.19
566.832	848.19
567.044	826.19
567.255	916.19
567.467	967.19
567.679	885.19
567.891	897.19
568.102	899.19
568.314	895.19
568.526	829.19
568.737	834.19
568.949	854.19
569.161	742.19
569.372	694.19
569.584	713.19
569.795	703.19
570.007	697.19
570.218	764.19
570.43	746.19
570.641	717.19
570.853	658.19
571.064	647.19
571.276	704.19
571.487	691.19
571.698	691.19
571.91	690.19
572.121	658.19
572.333	637.19
572.544	627.19
572.755	644.19
572.966	618.19
573.178	617.19
573.389	659.19
573.6	654.19
573.811	639.19
574.023	587.19
574.234	592.19
574.445	588.19
574.656	578.19
574.867	590.19
575.078	612.19
575.289	599.19
575.501	611.19
575.712	577.19
575.923	555.19
576.134	549.19
576.345	558.19
576.556	558.19
576.767	535.19
576.978	529.19
577.188	519.19
577.399	542.19
577.61	537.19
577.821	526.19
578.032	551.19
578.243	574.19
578.454	595.19
578.665	577.19
578.875	542.19
579.086	538.19
579.297	572.19
579.508	578.19
579.718	574.19
579.929	564.19
580.14	553.19
580.35	512.19
580.561	524.19
580.772	501.19
580.982	487.19
581.193	504.19
581.403	477.19
581.614	472.19
581.825	480.19
582.035	481.19
582.246	473.19
582.456	481.19
582.667	480.19
582.877	470.19
583.087	460.19
583.298	464.19
583.508	466.19
583.719	463.19
583.929	466.19
584.139	457.19
584.35	479.19
584.56	468.19
584.77	485.19
584.981	489.19
585.191	481.19
585.401	462.19
585.611	490.19
585.821	489.19
586.032	510.19
586.242	485.19
586.452	482.19
586.662	481.19
586.872	508.19
587.082	498.19
587.292	475.19
587.502	454.19
587.713	466.19
587.923	471.19
588.133	512.19
588.343	482.19
588.553	455.19
588.762	462.19
588.972	459.19
589.182	465.19
589.392	459.19
589.602	466.19
589.812	485.19
590.022	493.19
590.232	524.19
590.441	495.19
590.651	456.19
590.861	454.19
591.071	453.19
591.281	466.19
591.49	455.19
591.7	487.19
591.91	458.19
592.119	460.19
592.329	441.19
592.539	491.19
592.748	468.19
592.958	478.19
593.167	479.19
593.377	489.19
593.587	480.19
593.796	486.19
594.006	496.19
594.215	495.19
594.424	506.19
594.634	494.19
594.843	500.19
595.053	464.19
595.262	440.19
595.472	460.19
595.681	436.19
595.89	454.19
596.1	440.19
596.309	450.19
596.518	435.19
596.727	432.19
596.937	434.19
597.146	444.19
597.355	475.19
597.564	454.19
597.774	428.19
597.983	416.19
598.192	420.19
598.401	411.19
598.61	400.19
598.819	401.19
599.028	395.19
599.237	420.19
599.446	417.19
599.655	371.19
599.864	367.19
600.073	375.19
600.282	390.19
600.491	383.19
600.7	392.19
600.909	383.19
601.118	404.19
601.327	385.19
601.536	394.19
601.745	394.19
601.953	389.19
602.162	402.19
602.371	417.19
602.58	394.19
602.789	408.19
602.997	392.19
603.206	405.19
603.415	394.19
603.623	379.19
603.832	369.19
604.041	372.19
604.249	393.19
604.458	379.19
604.666	375.19
604.875	347.19
605.084	360.19
605.292	337.19
605.501	350.19
605.709	372.19
605.918	371.19
606.126	348.19
606.334	353.19
606.543	347.19
606.751	376.19
606.96	353.19
607.168	372.19
607.376	334.19
607.585	362.19
607.793	380.19
608.001	384.19
608.21	353.19
608.418	358.19
608.626	371.19
608.834	355.19
609.043	330.19
609.251	342.19
609.459	343.19
609.667	355.19
609.875	340.19
610.083	374.19
610.291	370.19
610.499	370.19
610.707	339.19
610.916	337.19
611.124	331.19
611.332	347.19
611.54	329.19
611.748	343.19
611.955	328.19
612.163	347.19
612.371	358.19
612.579	342.19
612.787	344.19
612.995	328.19
613.203	335.19
613.411	340.19
613.618	347.19
613.826	359.19
614.034	339.19
614.242	320.19
614.449	336.19
614.657	337.19
614.865	315.19
615.072	327.19
615.28	322.19
615.488	344.19
615.695	312.19
615.903	338.19
616.111	333.19
616.318	339.19
616.526	335.19
616.733	331.19
616.941	324.19
617.148	333.19
617.356	332.19
617.563	322.19
617.771	322.19
617.978	321.19
618.185	318.19
618.393	322.19
618.6	314.19
618.807	322.19
619.015	316.19
619.222	319.19
619.429	307.19
619.637	323.19
619.844	306.19
620.051	318.19
620.258	313.19
620.466	315.19
620.673	306.19
620.88	318.19
621.087	298.19
621.294	303.19
621.501	289.19
621.708	299.19
621.915	314.19
622.122	302.19
622.329	292.19
622.536	308.19
622.743	301.19
622.95	291.19
623.157	306.19
623.364	314.19
623.571	304.19
623.778	290.19
623.985	308.19
624.192	318.19
624.399	314.19
624.606	308.19
624.812	297.19
625.019	307.19
625.226	318.19
625.433	306.19
625.639	278.19
625.846	283.19
626.053	274.19
626.259	276.19
626.466	290.19
626.673	306.19
626.879	287.19
627.086	280.19
627.293	293.19
627.499	254.19
627.706	286.19
627.912	272.19
628.119	266.19
628.325	270.19
628.532	286.19
628.738	271.19
628.945	263.19
629.151	260.19
629.357	268.19
629.564	259.19
629.77	265.19
629.976	264.19
630.183	245.19
630.389	249.19
630.595	262.19
630.802	248.19
631.008	263.19
631.214	258.19
631.42	242.19
631.627	251.19
631.833	256.19
632.039	263.19
632.245	270.19
632.451	244.19
632.657	245.19
632.863	224.19
633.069	246.19
633.275	256.19
633.481	263.19
633.688	247.19
633.893	256.19
634.099	266.19
634.305	235.19
634.511	242.19
634.717	238.19
634.923	241.19
635.129	239.19
635.335	236.19
635.541	248.19
635.747	239.19
635.952	256.19
636.158	256.19
636.364	243.19
636.57	227.19
636.775	220.19
636.981	229.19
637.187	249.19
637.392	216.19
637.598	231.19
637.804	239.19
638.009	228.19
638.215	241.19
638.421	228.19
638.626	222.19
638.832	242.19
639.037	226.19
639.243	239.19
639.448	225.19
639.654	231.19
639.859	241.19
640.065	221.19
640.27	246.19
640.475	233.19
640.681	230.19
640.886	222.19
641.091	228.19
641.297	243.19
641.502	230.19
641.707	218.19
641.913	225.19
642.118	226.19
642.323	229.19
642.528	234.19
642.733	214.19
642.939	235.19
643.144	219.19
643.349	238.19
643.554	241.19
643.759	214.19
643.964	223.19
644.169	221.19
644.374	223.19
644.579	217.19
644.784	225.19
644.989	218.19
645.194	225.19
645.399	212.19
645.604	204.19
645.809	211.19
646.014	216.19
646.219	235.19
646.423	209.19
646.628	202.19
646.833	215.19
647.038	215.19
647.243	208.19
647.447	208.19
647.652	209.19
647.857	209.19
648.062	213.19
648.266	229.19
648.471	226.19
648.676	214.19
648.88	222.19
649.085	223.19
649.289	194.19
649.494	214.19
649.698	226.19
649.903	208.19
650.107	201.19
650.312	220.19
650.516	200.19
650.721	200.19
650.925	200.19
651.13	186.19
651.334	196.19
651.539	196.19
651.743	182.19
651.947	178.19
652.152	178.19
652.356	181.19
652.56	169.19
652.764	166.19
652.969	174.19
653.173	171.19
653.377	160.19
653.581	165.19
653.785	172.19
653.99	161.19
654.194	162.19
654.398	160.19
654.602	169.19
654.806	156.19
655.01	162.19
655.214	175.19
655.418	147.19
655.622	172.19
655.826	158.19
656.03	144.19
656.234	163.19
656.438	166.19
656.642	169.19
656.846	162.19
657.049	152.19
657.253	152.19
657.457	136.19
657.661	138.19
657.865	121.19
658.068	113.19
658.272	140.19
658.476	134.19
658.68	114.19
658.883	119.19
659.087	118.19
659.291	112.19
659.494	120.19
659.698	107.19
659.901	114.19
660.105	111.19
660.309	104.19
660.512	105.19
660.716	104.19
660.919	108.19
661.123	98.19
661.326	110.19
661.53	102.19
661.733	107.19
661.936	93.19
662.14	104.19
662.343	96.19
662.546	82.19
662.75	89.19
662.953	84.19
663.156	83.19
663.36	84.19
663.563	81.19
663.766	88.19
663.969	82.19
664.173	78.19
664.376	86.19
664.579	65.19
664.782	76.19
664.985	84.19
665.188	90.19
665.391	90.19
665.594	83.19
665.797	72.19
666	90.19
666.203	82.19
666.406	77.19
666.609	86.19
666.812	94.19
667.015	85.19
667.218	73.19
667.421	88.19
667.624	86.19
667.827	82.19
668.03	91.19
668.232	81.19
668.435	75.19
668.638	76.19
668.841	86.19
669.043	82.19
669.246	88.19
669.449	95.19
669.651	79.19
669.854	97.19
670.057	74.19
670.259	97.19
670.462	93.19
670.665	83.19
670.867	66.19
671.07	89.19
671.272	96.19
671.475	95.19
671.677	93.19
671.88	94.19
672.082	81.19
672.284	91.19
672.487	95.19
672.689	84.19
672.892	82.19
