Data from NickelSpatula.Lamp.E10.P2_HRD10591_11-58-15-528.txt Node
Date: Tue Jul 23 11:58:15 EDT 2019
User: cochatt
Spectrometer: HR+D1059
Trigger mode: 1
Integration Time (sec): 1.000000E-1
Scans to average: 1
Electric dark correction enabled: true
Nonlinearity correction enabled: false
Boxcar width: 0
XAxis mode: Wavelengths
Number of Pixels in Spectrum: 2048
>>>>>Begin Spectral Data<<<<<
223.165	-22.62
223.4	-22.62
223.635	-22.62
223.869	-23.62
224.104	-17.62
224.338	-10.62
224.573	-16.62
224.808	-13.62
225.042	-5.62
225.277	-6.62
225.511	1.38
225.746	1.38
225.98	6.38
226.215	13.38
226.449	17.38
226.683	19.38
226.918	24.38
227.152	33.38
227.387	37.38
227.621	58.38
227.856	55.38
228.09	61.38
228.324	70.38
228.559	64.38
228.793	81.38
229.027	156.38
229.262	146.38
229.496	167.38
229.73	158.38
229.964	187.38
230.199	226.38
230.433	207.38
230.667	198.38
230.901	198.38
231.136	196.38
231.37	213.38
231.604	227.38
231.838	234.38
232.072	247.38
232.306	222.38
232.541	243.38
232.775	240.38
233.009	262.38
233.243	273.38
233.477	308.38
233.711	330.38
233.945	317.38
234.179	345.38
234.413	363.38
234.647	393.38
234.881	457.38
235.115	425.38
235.349	394.38
235.583	357.38
235.817	341.38
236.051	400.38
236.285	442.38
236.519	480.38
236.753	423.38
236.987	413.38
237.221	409.38
237.455	426.38
237.689	442.38
237.922	455.38
238.156	468.38
238.39	564.38
238.624	638.38
238.858	598.38
239.091	487.38
239.325	504.38
239.559	475.38
239.793	528.38
240.027	660.38
240.26	588.38
240.494	602.38
240.728	592.38
240.961	683.38
241.195	656.38
241.429	646.38
241.662	605.38
241.896	539.38
242.13	483.38
242.363	453.38
242.597	489.38
242.83	534.38
243.064	559.38
243.298	599.38
243.531	630.38
243.765	631.38
243.998	617.38
244.232	600.38
244.465	621.38
244.699	591.38
244.932	663.38
245.166	634.38
245.399	517.38
245.633	559.38
245.866	576.38
246.099	630.38
246.333	714.38
246.566	772.38
246.8	776.38
247.033	751.38
247.266	689.38
247.5	713.38
247.733	682.38
247.966	667.38
248.2	680.38
248.433	783.38
248.666	853.38
248.899	851.38
249.133	864.38
249.366	993.38
249.599	1071.38
249.832	917.38
250.066	801.38
250.299	838.38
250.532	816.38
250.765	793.38
250.998	729.38
251.231	729.38
251.465	780.38
251.698	826.38
251.931	770.38
252.164	857.38
252.397	951.38
252.63	1059.38
252.863	1178.38
253.096	1207.38
253.329	1166.38
253.562	1115.38
253.795	1242.38
254.028	1343.38
254.261	1376.38
254.494	1255.38
254.727	1162.38
254.96	1126.38
255.193	1203.38
255.426	1128.38
255.659	831.38
255.892	802.38
256.124	871.38
256.357	1026.38
256.59	1187.38
256.823	1142.38
257.056	969.38
257.289	935.38
257.521	975.38
257.754	1137.38
257.987	1263.38
258.22	1082.38
258.452	988.38
258.685	1138.38
258.918	1264.38
259.151	1256.38
259.383	1296.38
259.616	1502.38
259.849	1570.38
260.081	1713.38
260.314	1929.38
260.547	1477.38
260.779	1483.38
261.012	1694.38
261.244	1562.38
261.477	1665.38
261.71	1553.38
261.942	1301.38
262.175	1295.38
262.407	1242.38
262.64	1258.38
262.872	1548.38
263.105	1655.38
263.337	1768.38
263.57	1547.38
263.802	1036.38
264.035	889.38
264.267	888.38
264.499	782.38
264.732	717.38
264.964	681.38
265.197	716.38
265.429	785.38
265.661	799.38
265.894	822.38
266.126	904.38
266.358	1023.38
266.591	1267.38
266.823	1506.38
267.055	1426.38
267.287	1259.38
267.52	1263.38
267.752	1308.38
267.984	1430.38
268.216	1355.38
268.448	1130.38
268.681	1104.38
268.913	1181.38
269.145	1281.38
269.377	1307.38
269.609	1310.38
269.841	1206.38
270.073	1312.38
270.306	1352.38
270.538	1354.38
270.77	1413.38
271.002	1381.38
271.234	1453.38
271.466	1497.38
271.698	1455.38
271.93	1394.38
272.162	1397.38
272.394	1423.38
272.626	1342.38
272.858	1450.38
273.09	1485.38
273.322	1295.38
273.553	1264.38
273.785	1531.38
274.017	1989.38
274.249	2433.38
274.481	2517.38
274.713	2749.38
274.945	3172.38
275.176	3263.38
275.408	2870.38
275.64	2649.38
275.872	2606.38
276.104	2193.38
276.335	1896.38
276.567	1868.38
276.799	1986.38
277.031	2084.38
277.262	1630.38
277.494	1257.38
277.726	1215.38
277.957	1310.38
278.189	1491.38
278.421	1491.38
278.652	1433.38
278.884	1365.38
279.115	1271.38
279.347	1201.38
279.579	1205.38
279.81	1192.38
280.042	1181.38
280.273	1233.38
280.505	1126.38
280.736	1031.38
280.968	1033.38
281.199	1087.38
281.431	1233.38
281.662	1233.38
281.894	1169.38
282.125	1269.38
282.356	1352.38
282.588	1385.38
282.819	1234.38
283.051	1425.38
283.282	1681.38
283.513	1968.38
283.745	2164.38
283.976	2177.38
284.207	2033.38
284.439	2071.38
284.67	1998.38
284.901	1767.38
285.132	1923.38
285.364	1993.38
285.595	1851.38
285.826	1982.38
286.057	2049.38
286.288	1927.38
286.52	2015.38
286.751	2125.38
286.982	2078.38
287.213	1781.38
287.444	1764.38
287.675	1878.38
287.906	1808.38
288.138	1523.38
288.369	1342.38
288.6	1270.38
288.831	1347.38
289.062	1541.38
289.293	1707.38
289.524	1622.38
289.755	1600.38
289.986	1618.38
290.217	1421.38
290.448	1103.38
290.679	961.38
290.91	892.38
291.141	939.38
291.371	950.38
291.602	958.38
291.833	949.38
292.064	1061.38
292.295	1212.38
292.526	1436.38
292.757	1429.38
292.987	1528.38
293.218	1556.38
293.449	1565.38
293.68	1699.38
293.91	1606.38
294.141	1645.38
294.372	1518.38
294.603	1406.38
294.833	1565.38
295.064	1853.38
295.295	1737.38
295.525	1305.38
295.756	1148.38
295.987	1001.38
296.217	1030.38
296.448	1037.38
296.679	1089.38
296.909	1209.38
297.14	1296.38
297.37	1420.38
297.601	1299.38
297.831	1128.38
298.062	1247.38
298.292	1414.38
298.523	1543.38
298.753	1776.38
298.984	1587.38
299.214	1289.38
299.445	1062.38
299.675	1055.38
299.905	985.38
300.136	1059.38
300.366	1165.38
300.597	1137.38
300.827	999.38
301.057	987.38
301.288	978.38
301.518	1052.38
301.748	1191.38
301.979	1287.38
302.209	1404.38
302.439	1443.38
302.669	1234.38
302.9	1223.38
303.13	1146.38
303.36	1105.38
303.59	1048.38
303.82	1073.38
304.051	1205.38
304.281	1304.38
304.511	1297.38
304.741	1123.38
304.971	1173.38
305.201	1253.38
305.431	1216.38
305.661	1033.38
305.891	1036.38
306.121	1048.38
306.352	925.38
306.582	850.38
306.812	843.38
307.042	839.38
307.272	792.38
307.502	810.38
307.731	859.38
307.961	906.38
308.191	837.38
308.421	827.38
308.651	799.38
308.881	778.38
309.111	738.38
309.341	831.38
309.571	881.38
309.8	904.38
310.03	943.38
310.26	967.38
310.49	949.38
310.72	850.38
310.949	852.38
311.179	873.38
311.409	929.38
311.639	1072.38
311.868	1396.38
312.098	1809.38
312.328	1924.38
312.557	1853.38
312.787	1851.38
313.017	1663.38
313.246	1819.38
313.476	1939.38
313.706	1605.38
313.935	1283.38
314.165	1046.38
314.394	981.38
314.624	945.38
314.853	1001.38
315.083	1058.38
315.312	996.38
315.542	1014.38
315.771	963.38
316.001	851.38
316.23	830.38
316.46	823.38
316.689	843.38
316.919	868.38
317.148	913.38
317.377	866.38
317.607	882.38
317.836	944.38
318.065	1097.38
318.295	1235.38
318.524	1124.38
318.753	953.38
318.983	908.38
319.212	901.38
319.441	972.38
319.67	1138.38
319.9	1223.38
320.129	1130.38
320.358	934.38
320.587	925.38
320.816	980.38
321.046	1151.38
321.275	1302.38
321.504	1297.38
321.733	1261.38
321.962	1181.38
322.191	1117.38
322.42	1098.38
322.649	1129.38
322.878	1199.38
323.108	1190.38
323.337	1084.38
323.566	1084.38
323.795	1062.38
324.024	997.38
324.253	961.38
324.482	970.38
324.71	1062.38
324.939	1160.38
325.168	1100.38
325.397	929.38
325.626	902.38
325.855	915.38
326.084	943.38
326.313	862.38
326.542	826.38
326.77	871.38
326.999	885.38
327.228	946.38
327.457	996.38
327.686	1003.38
327.914	904.38
328.143	803.38
328.372	818.38
328.6	823.38
328.829	911.38
329.058	879.38
329.287	899.38
329.515	906.38
329.744	893.38
329.972	863.38
330.201	802.38
330.43	842.38
330.658	906.38
330.887	1045.38
331.115	1009.38
331.344	962.38
331.572	938.38
331.801	879.38
332.03	823.38
332.258	861.38
332.486	958.38
332.715	961.38
332.943	900.38
333.172	911.38
333.4	905.38
333.629	1015.38
333.857	1113.38
334.085	1113.38
334.314	1085.38
334.542	1046.38
334.771	977.38
334.999	935.38
335.227	911.38
335.455	924.38
335.684	1046.38
335.912	1182.38
336.14	1345.38
336.369	1278.38
336.597	1214.38
336.825	1364.38
337.053	1527.38
337.281	1248.38
337.51	957.38
337.738	947.38
337.966	1059.38
338.194	1173.38
338.422	1089.38
338.65	947.38
338.878	899.38
339.106	918.38
339.334	1000.38
339.562	1078.38
339.79	975.38
340.018	951.38
340.246	1073.38
340.474	1201.38
340.702	1255.38
340.93	1294.38
341.158	1335.38
341.386	1077.38
341.614	1101.38
341.842	1089.38
342.07	1144.38
342.298	1329.38
342.526	1354.38
342.754	1175.38
342.981	1057.38
343.209	1035.38
343.437	1149.38
343.665	1154.38
343.893	1125.38
344.12	1344.38
344.348	1571.38
344.576	1405.38
344.804	1189.38
345.031	983.38
345.259	992.38
345.487	1004.38
345.714	1031.38
345.942	1091.38
346.17	1190.38
346.397	1120.38
346.625	989.38
346.853	965.38
347.08	938.38
347.308	991.38
347.535	1113.38
347.763	1097.38
347.99	992.38
348.218	903.38
348.445	965.38
348.673	969.38
348.9	958.38
349.128	1021.38
349.355	1089.38
349.583	1055.38
349.81	971.38
350.037	957.38
350.265	815.38
350.492	779.38
350.72	795.38
350.947	819.38
351.174	862.38
351.402	892.38
351.629	983.38
351.856	946.38
352.083	874.38
352.311	924.38
352.538	1051.38
352.765	1153.38
352.992	1023.38
353.22	954.38
353.447	968.38
353.674	947.38
353.901	960.38
354.128	916.38
354.355	965.38
354.583	956.38
354.81	953.38
355.037	990.38
355.264	981.38
355.491	1066.38
355.718	1154.38
355.945	1084.38
356.172	1064.38
356.399	1096.38
356.626	1328.38
356.853	1542.38
357.08	1661.38
357.307	1725.38
357.534	1309.38
357.761	1339.38
357.988	1693.38
358.215	1985.38
358.441	1920.38
358.668	1561.38
358.895	1456.38
359.122	1208.38
359.349	1198.38
359.576	1267.38
359.802	1070.38
360.029	949.38
360.256	1009.38
360.483	1242.38
360.709	1569.38
360.936	1588.38
361.163	1402.38
361.39	1067.38
361.616	1019.38
361.843	1205.38
362.07	1440.38
362.296	1344.38
362.523	1069.38
362.749	932.38
362.976	956.38
363.203	1201.38
363.429	1319.38
363.656	1062.38
363.882	983.38
364.109	988.38
364.335	991.38
364.562	989.38
364.788	1067.38
365.015	1269.38
365.241	1159.38
365.468	955.38
365.694	849.38
365.92	806.38
366.147	795.38
366.373	797.38
366.599	775.38
366.826	808.38
367.052	804.38
367.278	793.38
367.505	783.38
367.731	913.38
367.957	985.38
368.184	1025.38
368.41	988.38
368.636	999.38
368.862	1052.38
369.089	999.38
369.315	889.38
369.541	862.38
369.767	870.38
369.993	844.38
370.219	835.38
370.445	891.38
370.672	1002.38
370.898	1090.38
371.124	1049.38
371.35	943.38
371.576	901.38
371.802	981.38
372.028	1140.38
372.254	1303.38
372.48	1095.38
372.706	1013.38
372.932	1075.38
373.158	1114.38
373.384	1381.38
373.61	1760.38
373.835	1846.38
374.061	1339.38
374.287	1135.38
374.513	1335.38
374.739	1629.38
374.965	1626.38
375.191	1601.38
375.416	1155.38
375.642	1005.38
375.868	1173.38
376.094	1332.38
376.319	1139.38
376.545	1282.38
376.771	1336.38
376.997	1125.38
377.222	856.38
377.448	767.38
377.674	757.38
377.899	769.38
378.125	725.38
378.35	750.38
378.576	787.38
378.802	873.38
379.027	934.38
379.253	901.38
379.478	898.38
379.704	1023.38
379.929	1064.38
380.155	1055.38
380.38	925.38
380.606	978.38
380.831	1079.38
381.057	1006.38
381.282	991.38
381.507	1150.38
381.733	1422.38
381.958	1526.38
382.184	1597.38
382.409	1645.38
382.634	1583.38
382.86	1710.38
383.085	1389.38
383.31	1110.38
383.535	1177.38
383.761	1185.38
383.986	1145.38
384.211	1352.38
384.436	1340.38
384.662	1005.38
384.887	978.38
385.112	1006.38
385.337	1025.38
385.562	950.38
385.787	1079.38
386.013	1205.38
386.238	1205.38
386.463	1027.38
386.688	947.38
386.913	921.38
387.138	866.38
387.363	956.38
387.588	988.38
387.813	979.38
388.038	1067.38
388.263	956.38
388.488	954.38
388.713	1098.38
388.938	1169.38
389.163	1026.38
389.387	886.38
389.612	919.38
389.837	954.38
390.062	971.38
390.287	1003.38
390.512	984.38
390.736	910.38
390.961	866.38
391.186	854.38
391.411	820.38
391.636	834.38
391.86	946.38
392.085	983.38
392.31	982.38
392.534	946.38
392.759	921.38
392.984	986.38
393.208	922.38
393.433	859.38
393.658	820.38
393.882	788.38
394.107	770.38
394.331	787.38
394.556	792.38
394.78	808.38
395.005	853.38
395.229	875.38
395.454	887.38
395.678	879.38
395.903	901.38
396.127	852.38
396.352	874.38
396.576	955.38
396.801	989.38
397.025	1085.38
397.249	1113.38
397.474	922.38
397.698	909.38
397.922	945.38
398.147	891.38
398.371	896.38
398.595	949.38
398.82	949.38
399.044	937.38
399.268	1007.38
399.492	1046.38
399.717	1056.38
399.941	1097.38
400.165	1061.38
400.389	1027.38
400.613	1033.38
400.837	1034.38
401.062	952.38
401.286	915.38
401.51	889.38
401.734	917.38
401.958	927.38
402.182	905.38
402.406	905.38
402.63	927.38
402.854	966.38
403.078	1053.38
403.302	1300.38
403.526	1317.38
403.75	1181.38
403.974	1029.38
404.198	1088.38
404.422	1203.38
404.645	1431.38
404.869	1566.38
405.093	1186.38
405.317	992.38
405.541	967.38
405.765	1000.38
405.988	986.38
406.212	1062.38
406.436	1260.38
406.66	1403.38
406.883	1127.38
407.107	1161.38
407.331	1370.38
407.555	1288.38
407.778	1061.38
408.002	1069.38
408.226	1031.38
408.449	1031.38
408.673	1041.38
408.896	941.38
409.12	941.38
409.344	901.38
409.567	884.38
409.791	897.38
410.014	894.38
410.238	896.38
410.461	869.38
410.685	875.38
410.908	870.38
411.132	921.38
411.355	939.38
411.578	939.38
411.802	932.38
412.025	955.38
412.249	976.38
412.472	967.38
412.695	975.38
412.919	936.38
413.142	977.38
413.365	1034.38
413.589	1050.38
413.812	931.38
414.035	917.38
414.258	933.38
414.482	1029.38
414.705	1047.38
414.928	926.38
415.151	873.38
415.374	877.38
415.597	891.38
415.821	918.38
416.044	881.38
416.267	860.38
416.49	855.38
416.713	854.38
416.936	828.38
417.159	871.38
417.382	883.38
417.605	889.38
417.828	882.38
418.051	915.38
418.274	907.38
418.497	938.38
418.72	909.38
418.943	959.38
419.166	974.38
419.389	998.38
419.611	989.38
419.834	1014.38
420.057	1121.38
420.28	1111.38
420.503	1009.38
420.726	904.38
420.948	895.38
421.171	903.38
421.394	871.38
421.617	862.38
421.839	901.38
422.062	917.38
422.285	904.38
422.507	915.38
422.73	976.38
422.953	966.38
423.175	934.38
423.398	952.38
423.621	995.38
423.843	1032.38
424.066	963.38
424.288	930.38
424.511	899.38
424.733	906.38
424.956	944.38
425.178	1066.38
425.401	1185.38
425.623	1342.38
425.846	1103.38
426.068	1023.38
426.291	1092.38
426.513	1024.38
426.735	936.38
426.958	995.38
427.18	1122.38
427.402	1436.38
427.625	1425.38
427.847	1181.38
428.069	930.38
428.292	898.38
428.514	920.38
428.736	915.38
428.958	1001.38
429.181	1103.38
429.403	953.38
429.625	868.38
429.847	859.38
430.069	860.38
430.292	907.38
430.514	870.38
430.736	955.38
430.958	1155.38
431.18	1055.38
431.402	823.38
431.624	802.38
431.846	792.38
432.068	783.38
432.29	831.38
432.512	905.38
432.734	1154.38
432.956	1120.38
433.178	871.38
433.4	820.38
433.622	842.38
433.844	895.38
434.066	922.38
434.287	907.38
434.509	896.38
434.731	936.38
434.953	866.38
435.175	915.38
435.397	1034.38
435.618	904.38
435.84	838.38
436.062	836.38
436.284	827.38
436.505	795.38
436.727	782.38
436.949	794.38
437.17	837.38
437.392	823.38
437.614	832.38
437.835	821.38
438.057	841.38
438.278	991.38
438.5	1362.38
438.721	1359.38
438.943	955.38
439.165	808.38
439.386	797.38
439.608	769.38
439.829	783.38
440.05	779.38
440.272	849.38
440.493	987.38
440.715	1217.38
440.936	981.38
441.158	866.38
441.379	854.38
441.6	972.38
441.822	1047.38
442.043	871.38
442.264	864.38
442.486	865.38
442.707	862.38
442.928	848.38
443.149	888.38
443.371	903.38
443.592	932.38
443.813	904.38
444.034	896.38
444.255	894.38
444.476	935.38
444.698	909.38
444.919	970.38
445.14	1040.38
445.361	1022.38
445.582	943.38
445.803	917.38
446.024	955.38
446.245	925.38
446.466	901.38
446.687	881.38
446.908	874.38
447.129	848.38
447.35	806.38
447.571	792.38
447.792	781.38
448.013	795.38
448.234	779.38
448.455	799.38
448.675	795.38
448.896	797.38
449.117	817.38
449.338	820.38
449.559	831.38
449.779	883.38
450	870.38
450.221	825.38
450.442	819.38
450.662	820.38
450.883	806.38
451.104	802.38
451.324	794.38
451.545	816.38
451.766	791.38
451.986	758.38
452.207	752.38
452.428	765.38
452.648	775.38
452.869	826.38
453.089	840.38
453.31	837.38
453.53	758.38
453.751	754.38
453.971	744.38
454.192	750.38
454.412	765.38
454.633	753.38
454.853	727.38
455.073	714.38
455.294	753.38
455.514	737.38
455.734	801.38
455.955	785.38
456.175	841.38
456.395	762.38
456.616	699.38
456.836	699.38
457.056	721.38
457.276	709.38
457.497	719.38
457.717	722.38
457.937	710.38
458.157	715.38
458.377	724.38
458.598	735.38
458.818	763.38
459.038	801.38
459.258	798.38
459.478	867.38
459.698	873.38
459.918	907.38
460.138	859.38
460.358	898.38
460.578	849.38
460.798	890.38
461.018	907.38
461.238	834.38
461.458	859.38
461.678	896.38
461.898	963.38
462.118	932.38
462.338	952.38
462.558	955.38
462.777	989.38
462.997	1014.38
463.217	1002.38
463.437	1023.38
463.657	997.38
463.876	958.38
464.096	965.38
464.316	974.38
464.536	969.38
464.755	984.38
464.975	1007.38
465.195	987.38
465.414	980.38
465.634	956.38
465.854	938.38
466.073	846.38
466.293	867.38
466.512	928.38
466.732	1016.38
466.951	1039.38
467.171	945.38
467.391	882.38
467.61	872.38
467.829	929.38
468.049	911.38
468.268	855.38
468.488	893.38
468.707	939.38
468.927	1054.38
469.146	1142.38
469.365	1028.38
469.585	973.38
469.804	1024.38
470.023	1112.38
470.243	967.38
470.462	927.38
470.681	933.38
470.901	934.38
471.12	960.38
471.339	1003.38
471.558	888.38
471.777	950.38
471.997	995.38
472.216	1111.38
472.435	1089.38
472.654	960.38
472.873	942.38
473.092	991.38
473.311	1070.38
473.53	960.38
473.749	949.38
473.968	992.38
474.187	974.38
474.406	927.38
474.625	907.38
474.844	971.38
475.063	1014.38
475.282	1019.38
475.501	1061.38
475.72	1121.38
475.939	1071.38
476.158	1108.38
476.377	1253.38
476.596	1466.38
476.814	1475.38
477.033	1244.38
477.252	1063.38
477.471	982.38
477.69	1041.38
477.908	1093.38
478.127	1149.38
478.346	1019.38
478.564	1162.38
478.783	1102.38
479.002	1109.38
479.22	1267.38
479.439	1427.38
479.658	1197.38
479.876	1123.38
480.095	1229.38
480.313	1250.38
480.532	1143.38
480.751	1106.38
480.969	1106.38
481.188	1253.38
481.406	1300.38
481.624	1222.38
481.843	1106.38
482.061	1053.38
482.28	1181.38
482.498	1432.38
482.717	1370.38
482.935	1228.38
483.153	1136.38
483.372	1070.38
483.59	1041.38
483.808	1042.38
484.027	1050.38
484.245	1008.38
484.463	992.38
484.681	1017.38
484.9	1117.38
485.118	1178.38
485.336	1135.38
485.554	1069.38
485.772	1119.38
485.99	1163.38
486.209	1219.38
486.427	1215.38
486.645	1208.38
486.863	1258.38
487.081	1226.38
487.299	1337.38
487.517	1338.38
487.735	1211.38
487.953	1215.38
488.171	1253.38
488.389	1169.38
488.607	1142.38
488.825	1173.38
489.043	1254.38
489.261	1424.38
489.479	1526.38
489.696	1305.38
489.914	1183.38
490.132	1117.38
490.35	1138.38
490.568	1116.38
490.786	1141.38
491.003	1133.38
491.221	1145.38
491.439	1133.38
491.657	1137.38
491.874	1238.38
492.092	1458.38
492.31	1769.38
492.527	1752.38
492.745	1508.38
492.963	1336.38
493.18	1307.38
493.398	1265.38
493.615	1295.38
493.833	1255.38
494.05	1264.38
494.268	1240.38
494.485	1251.38
494.703	1192.38
494.92	1219.38
495.138	1182.38
495.355	1205.38
495.573	1213.38
495.79	1386.38
496.008	1775.38
496.225	1541.38
496.442	1370.38
496.66	1348.38
496.877	1423.38
497.094	1397.38
497.312	1304.38
497.529	1294.38
497.746	1312.38
497.963	1365.38
498.181	1461.38
498.398	1597.38
498.615	1632.38
498.832	1707.38
499.049	1729.38
499.267	1511.38
499.484	1533.38
499.701	1615.38
499.918	1739.38
500.135	1878.38
500.352	1874.38
500.569	1951.38
500.786	2039.38
501.003	2066.38
501.22	1822.38
501.437	1719.38
501.654	1663.38
501.871	1613.38
502.088	1631.38
502.305	1498.38
502.522	1517.38
502.739	1498.38
502.956	1393.38
503.172	1349.38
503.389	1314.38
503.606	1288.38
503.823	1285.38
504.04	1306.38
504.256	1295.38
504.473	1331.38
504.69	1380.38
504.907	1387.38
505.123	1345.38
505.34	1435.38
505.557	1449.38
505.773	1342.38
505.99	1279.38
506.207	1368.38
506.423	1279.38
506.64	1198.38
506.856	1240.38
507.073	1382.38
507.289	1349.38
507.506	1354.38
507.722	1423.38
507.939	1425.38
508.155	1445.38
508.372	1271.38
508.588	1256.38
508.805	1261.38
509.021	1221.38
509.238	1205.38
509.454	1182.38
509.67	1167.38
509.887	1210.38
510.103	1356.38
510.319	1303.38
510.536	1203.38
510.752	1086.38
510.968	1064.38
511.184	1010.38
511.401	1013.38
511.617	1024.38
511.833	1048.38
512.049	1048.38
512.265	1094.38
512.481	1143.38
512.698	1206.38
512.914	1365.38
513.13	1228.38
513.346	1128.38
513.562	1167.38
513.778	1192.38
513.994	1149.38
514.21	1225.38
514.426	1205.38
514.642	1144.38
514.858	1117.38
515.074	1196.38
515.29	1278.38
515.506	1429.38
515.721	1343.38
515.937	1277.38
516.153	1168.38
516.369	1187.38
516.585	1201.38
516.801	1339.38
517.016	1586.38
517.232	1559.38
517.448	1530.38
517.664	1390.38
517.879	1267.38
518.095	1258.38
518.311	1266.38
518.527	1331.38
518.742	1397.38
518.958	1497.38
519.173	1392.38
519.389	1341.38
519.605	1352.38
519.82	1477.38
520.036	1734.38
520.251	1691.38
520.467	1593.38
520.682	2329.38
520.898	2803.38
521.113	2671.38
521.329	1742.38
521.544	1509.38
521.76	1515.38
521.975	1362.38
522.19	1262.38
522.406	1303.38
522.621	1460.38
522.836	1501.38
523.052	1533.38
523.267	1310.38
523.482	1302.38
523.698	1406.38
523.913	1385.38
524.128	1232.38
524.343	1186.38
524.559	1169.38
524.774	1120.38
524.989	1161.38
525.204	1205.38
525.419	1330.38
525.634	1242.38
525.849	1255.38
526.064	1261.38
526.28	1265.38
526.495	1478.38
526.71	1510.38
526.925	1330.38
527.14	1363.38
527.355	1329.38
527.57	1114.38
527.785	1179.38
527.999	1138.38
528.214	1069.38
528.429	1055.38
528.644	1053.38
528.859	1027.38
529.074	990.38
529.289	982.38
529.503	1002.38
529.718	1021.38
529.933	1151.38
530.148	1159.38
530.363	1060.38
530.577	1000.38
530.792	987.38
531.007	1028.38
531.221	989.38
531.436	973.38
531.651	978.38
531.865	1034.38
532.08	1002.38
532.295	986.38
532.509	1035.38
532.724	1197.38
532.938	1268.38
533.153	1466.38
533.367	1211.38
533.582	1179.38
533.796	1078.38
534.011	1039.38
534.225	1041.38
534.44	1065.38
534.654	1109.38
534.868	1246.38
535.083	1097.38
535.297	1012.38
535.511	997.38
535.726	1143.38
535.94	1071.38
536.154	1039.38
536.369	975.38
536.583	969.38
536.797	986.38
537.011	1014.38
537.225	1088.38
537.44	1146.38
537.654	1031.38
537.868	1050.38
538.082	1034.38
538.296	985.38
538.51	1083.38
538.724	1118.38
538.938	1064.38
539.153	971.38
539.367	956.38
539.581	947.38
539.795	1055.38
540.009	1149.38
540.222	1019.38
540.436	1053.38
540.65	1135.38
540.864	1147.38
541.078	1171.38
541.292	1316.38
541.506	1111.38
541.72	1073.38
541.934	1050.38
542.147	1041.38
542.361	1018.38
542.575	1062.38
542.789	1015.38
543.002	962.38
543.216	1071.38
543.43	924.38
543.644	940.38
543.857	957.38
544.071	931.38
544.285	937.38
544.498	904.38
544.712	907.38
544.925	981.38
545.139	945.38
545.352	901.38
545.566	907.38
545.779	1038.38
545.993	937.38
546.206	877.38
546.42	867.38
546.633	869.38
546.847	851.38
547.06	851.38
547.274	848.38
547.487	858.38
547.7	968.38
547.914	977.38
548.127	1114.38
548.34	1090.38
548.554	974.38
548.767	1009.38
548.98	1058.38
549.193	976.38
549.407	1006.38
549.62	1198.38
549.833	1111.38
550.046	1153.38
550.259	1155.38
550.473	1049.38
550.686	977.38
550.899	991.38
551.112	975.38
551.325	1034.38
551.538	1081.38
551.751	933.38
551.964	908.38
552.177	904.38
552.39	882.38
552.603	899.38
552.816	926.38
553.029	866.38
553.242	864.38
553.455	923.38
553.667	992.38
553.88	975.38
554.093	902.38
554.306	868.38
554.519	839.38
554.732	764.38
554.944	767.38
555.157	783.38
555.37	769.38
555.583	787.38
555.795	789.38
556.008	807.38
556.221	820.38
556.433	793.38
556.646	776.38
556.859	767.38
557.071	809.38
557.284	825.38
557.496	835.38
557.709	809.38
557.921	789.38
558.134	753.38
558.346	730.38
558.559	745.38
558.771	772.38
558.984	827.38
559.196	775.38
559.409	757.38
559.621	719.38
559.833	715.38
560.046	720.38
560.258	730.38
560.47	736.38
560.683	729.38
560.895	705.38
561.107	679.38
561.32	695.38
561.532	663.38
561.744	756.38
561.956	776.38
562.168	715.38
562.381	714.38
562.593	733.38
562.805	716.38
563.017	680.38
563.229	698.38
563.441	675.38
563.653	689.38
563.865	712.38
564.077	702.38
564.289	697.38
564.501	704.38
564.713	751.38
564.925	732.38
565.137	666.38
565.349	687.38
565.561	714.38
565.773	726.38
565.985	740.38
566.197	771.38
566.408	829.38
566.62	866.38
566.832	825.38
567.044	837.38
567.255	905.38
567.467	979.38
567.679	895.38
567.891	856.38
568.102	887.38
568.314	881.38
568.526	853.38
568.737	864.38
568.949	884.38
569.161	762.38
569.372	714.38
569.584	712.38
569.795	671.38
570.007	691.38
570.218	754.38
570.43	726.38
570.641	700.38
570.853	680.38
571.064	667.38
571.276	666.38
571.487	709.38
571.698	657.38
571.91	657.38
572.121	686.38
572.333	642.38
572.544	619.38
572.755	618.38
572.966	617.38
573.178	610.38
573.389	635.38
573.6	627.38
573.811	633.38
574.023	581.38
574.234	573.38
574.445	581.38
574.656	536.38
574.867	577.38
575.078	589.38
575.289	588.38
575.501	609.38
575.712	591.38
575.923	549.38
576.134	550.38
576.345	528.38
576.556	551.38
576.767	515.38
576.978	531.38
577.188	525.38
577.399	520.38
577.61	517.38
577.821	530.38
578.032	557.38
578.243	581.38
578.454	572.38
578.665	575.38
578.875	565.38
579.086	563.38
579.297	564.38
579.508	535.38
579.718	579.38
579.929	550.38
580.14	549.38
580.35	505.38
580.561	489.38
580.772	472.38
580.982	476.38
581.193	489.38
581.403	458.38
581.614	472.38
581.825	491.38
582.035	463.38
582.246	482.38
582.456	475.38
582.667	482.38
582.877	451.38
583.087	452.38
583.298	447.38
583.508	459.38
583.719	443.38
583.929	457.38
584.139	472.38
584.35	450.38
584.56	478.38
584.77	492.38
584.981	465.38
585.191	466.38
585.401	470.38
585.611	474.38
585.821	501.38
586.032	507.38
586.242	472.38
586.452	442.38
586.662	484.38
586.872	475.38
587.082	482.38
587.292	469.38
587.502	462.38
587.713	457.38
587.923	471.38
588.133	507.38
588.343	462.38
588.553	464.38
588.762	443.38
588.972	451.38
589.182	478.38
589.392	456.38
589.602	461.38
589.812	477.38
590.022	514.38
590.232	508.38
590.441	459.38
590.651	458.38
590.861	456.38
591.071	460.38
591.281	457.38
591.49	435.38
591.7	457.38
591.91	466.38
592.119	459.38
592.329	451.38
592.539	480.38
592.748	448.38
592.958	460.38
593.167	465.38
593.377	486.38
593.587	466.38
593.796	476.38
594.006	477.38
594.215	482.38
594.424	480.38
594.634	508.38
594.843	490.38
595.053	465.38
595.262	454.38
595.472	422.38
595.681	410.38
595.89	419.38
596.1	425.38
596.309	457.38
596.518	414.38
596.727	449.38
596.937	432.38
597.146	435.38
597.355	465.38
597.564	430.38
597.774	429.38
597.983	414.38
598.192	423.38
598.401	406.38
598.61	395.38
598.819	400.38
599.028	387.38
599.237	387.38
599.446	374.38
599.655	379.38
599.864	379.38
600.073	377.38
600.282	384.38
600.491	392.38
600.7	394.38
600.909	394.38
601.118	379.38
601.327	389.38
601.536	364.38
601.745	378.38
601.953	389.38
602.162	385.38
602.371	395.38
602.58	412.38
602.789	375.38
602.997	389.38
603.206	365.38
603.415	395.38
603.623	365.38
603.832	368.38
604.041	364.38
604.249	384.38
604.458	393.38
604.666	355.38
604.875	338.38
605.084	358.38
605.292	361.38
605.501	373.38
605.709	370.38
605.918	365.38
606.126	333.38
606.334	349.38
606.543	359.38
606.751	386.38
606.96	355.38
607.168	348.38
607.376	338.38
607.585	352.38
607.793	353.38
608.001	356.38
608.21	352.38
608.418	369.38
608.626	371.38
608.834	358.38
609.043	345.38
609.251	354.38
609.459	342.38
609.667	339.38
609.875	363.38
610.083	351.38
610.291	373.38
610.499	358.38
610.707	337.38
610.916	334.38
611.124	331.38
611.332	334.38
611.54	329.38
611.748	343.38
611.955	352.38
612.163	341.38
612.371	318.38
612.579	339.38
612.787	335.38
612.995	325.38
613.203	309.38
613.411	328.38
613.618	324.38
613.826	345.38
614.034	351.38
614.242	322.38
614.449	303.38
614.657	315.38
614.865	317.38
615.072	335.38
615.28	327.38
615.488	317.38
615.695	327.38
615.903	332.38
616.111	327.38
616.318	353.38
616.526	324.38
616.733	342.38
616.941	310.38
617.148	315.38
617.356	318.38
617.563	332.38
617.771	324.38
617.978	306.38
618.185	307.38
618.393	320.38
618.6	310.38
618.807	326.38
619.015	327.38
619.222	311.38
619.429	330.38
619.637	312.38
619.844	279.38
620.051	317.38
620.258	303.38
620.466	306.38
620.673	289.38
620.88	285.38
621.087	294.38
621.294	301.38
621.501	293.38
621.708	290.38
621.915	296.38
622.122	294.38
622.329	290.38
622.536	308.38
622.743	291.38
622.95	278.38
623.157	294.38
623.364	327.38
623.571	312.38
623.778	308.38
623.985	319.38
624.192	317.38
624.399	320.38
624.606	297.38
624.812	303.38
625.019	291.38
625.226	322.38
625.433	317.38
625.639	297.38
625.846	282.38
626.053	285.38
626.259	265.38
626.466	277.38
626.673	310.38
626.879	297.38
627.086	271.38
627.293	295.38
627.499	291.38
627.706	255.38
627.912	276.38
628.119	254.38
628.325	289.38
628.532	278.38
628.738	259.38
628.945	266.38
629.151	263.38
629.357	272.38
629.564	273.38
629.77	276.38
629.976	264.38
630.183	263.38
630.389	249.38
630.595	270.38
630.802	247.38
631.008	247.38
631.214	269.38
631.42	247.38
631.627	254.38
631.833	260.38
632.039	256.38
632.245	242.38
632.451	255.38
632.657	223.38
632.863	240.38
633.069	237.38
633.275	243.38
633.481	232.38
633.688	240.38
633.893	247.38
634.099	256.38
634.305	243.38
634.511	250.38
634.717	268.38
634.923	241.38
635.129	241.38
635.335	226.38
635.541	239.38
635.747	222.38
635.952	233.38
636.158	247.38
636.364	229.38
636.57	250.38
636.775	238.38
636.981	228.38
637.187	252.38
637.392	226.38
637.598	211.38
637.804	228.38
638.009	226.38
638.215	226.38
638.421	230.38
638.626	221.38
638.832	228.38
639.037	257.38
639.243	228.38
639.448	213.38
639.654	242.38
639.859	220.38
640.065	223.38
640.27	247.38
640.475	235.38
640.681	232.38
640.886	215.38
641.091	201.38
641.297	227.38
641.502	225.38
641.707	213.38
641.913	225.38
642.118	217.38
642.323	216.38
642.528	231.38
642.733	217.38
642.939	211.38
643.144	223.38
643.349	218.38
643.554	231.38
643.759	207.38
643.964	217.38
644.169	203.38
644.374	225.38
644.579	213.38
644.784	207.38
644.989	218.38
645.194	215.38
645.399	205.38
645.604	215.38
645.809	224.38
646.014	223.38
646.219	217.38
646.423	209.38
646.628	219.38
646.833	209.38
647.038	218.38
647.243	201.38
647.447	211.38
647.652	218.38
647.857	218.38
648.062	214.38
648.266	197.38
648.471	203.38
648.676	221.38
648.88	204.38
649.085	207.38
649.289	198.38
649.494	205.38
649.698	218.38
649.903	223.38
650.107	223.38
650.312	208.38
650.516	186.38
650.721	183.38
650.925	181.38
651.13	201.38
651.334	183.38
651.539	178.38
651.743	168.38
651.947	195.38
652.152	183.38
652.356	169.38
652.56	178.38
652.764	187.38
652.969	189.38
653.173	166.38
653.377	169.38
653.581	171.38
653.785	169.38
653.99	166.38
654.194	150.38
654.398	161.38
654.602	168.38
654.806	172.38
655.01	167.38
655.214	157.38
655.418	161.38
655.622	155.38
655.826	150.38
656.03	169.38
656.234	165.38
656.438	160.38
656.642	174.38
656.846	161.38
657.049	147.38
657.253	146.38
657.457	143.38
657.661	151.38
657.865	122.38
658.068	130.38
658.272	131.38
658.476	136.38
658.68	117.38
658.883	119.38
659.087	117.38
659.291	112.38
659.494	93.38
659.698	112.38
659.901	90.38
660.105	119.38
660.309	114.38
660.512	106.38
660.716	109.38
660.919	93.38
661.123	113.38
661.326	99.38
661.53	98.38
661.733	103.38
661.936	107.38
662.14	91.38
662.343	87.38
662.546	80.38
662.75	93.38
662.953	101.38
663.156	83.38
663.36	73.38
663.563	91.38
663.766	89.38
663.969	80.38
664.173	100.38
664.376	84.38
664.579	85.38
664.782	87.38
664.985	83.38
665.188	87.38
665.391	78.38
665.594	81.38
665.797	85.38
666	87.38
666.203	84.38
666.406	90.38
666.609	94.38
666.812	83.38
667.015	81.38
667.218	76.38
667.421	89.38
667.624	85.38
667.827	84.38
668.03	87.38
668.232	67.38
668.435	78.38
668.638	83.38
668.841	106.38
669.043	84.38
669.246	82.38
669.449	77.38
669.651	93.38
669.854	74.38
670.057	83.38
670.259	77.38
670.462	90.38
670.665	65.38
670.867	70.38
671.07	93.38
671.272	82.38
671.475	90.38
671.677	82.38
671.88	85.38
672.082	78.38
672.284	89.38
672.487	69.38
672.689	80.38
672.892	89.38
