Data from NickelSpatula.Lamp.E5.5.P2_HRD10591_11-52-02-557.txt Node
Date: Tue Jul 23 11:52:02 EDT 2019
User: cochatt
Spectrometer: HR+D1059
Trigger mode: 1
Integration Time (sec): 1.000000E-1
Scans to average: 1
Electric dark correction enabled: true
Nonlinearity correction enabled: false
Boxcar width: 0
XAxis mode: Wavelengths
Number of Pixels in Spectrum: 2048
>>>>>Begin Spectral Data<<<<<
223.165	-10.94
223.4	-10.94
223.635	-10.94
223.869	-8.94
224.104	-11.94
224.338	-20.94
224.573	-6.94
224.808	-4.94
225.042	-15.94
225.277	-11.94
225.511	0.06
225.746	-0.94
225.98	-6.94
226.215	19.06
226.449	14.06
226.683	20.06
226.918	18.06
227.152	29.06
227.387	11.06
227.621	32.06
227.856	39.06
228.09	53.06
228.324	60.06
228.559	47.06
228.793	48.06
229.027	71.06
229.262	76.06
229.496	62.06
229.73	85.06
229.964	87.06
230.199	73.06
230.433	93.06
230.667	91.06
230.901	88.06
231.136	92.06
231.37	106.06
231.604	95.06
231.838	103.06
232.072	112.06
232.306	107.06
232.541	107.06
232.775	101.06
233.009	106.06
233.243	113.06
233.477	105.06
233.711	120.06
233.945	123.06
234.179	107.06
234.413	121.06
234.647	120.06
234.881	141.06
235.115	138.06
235.349	134.06
235.583	118.06
235.817	119.06
236.051	127.06
236.285	131.06
236.519	147.06
236.753	129.06
236.987	137.06
237.221	114.06
237.455	138.06
237.689	133.06
237.922	136.06
238.156	143.06
238.39	149.06
238.624	172.06
238.858	160.06
239.091	126.06
239.325	145.06
239.559	125.06
239.793	123.06
240.027	178.06
240.26	155.06
240.494	164.06
240.728	160.06
240.961	171.06
241.195	167.06
241.429	139.06
241.662	159.06
241.896	137.06
242.13	143.06
242.363	130.06
242.597	137.06
242.83	135.06
243.064	143.06
243.298	153.06
243.531	167.06
243.765	157.06
243.998	176.06
244.232	161.06
244.465	151.06
244.699	163.06
244.932	180.06
245.166	184.06
245.399	144.06
245.633	154.06
245.866	144.06
246.099	149.06
246.333	172.06
246.566	179.06
246.8	188.06
247.033	198.06
247.266	171.06
247.5	173.06
247.733	182.06
247.966	158.06
248.2	159.06
248.433	177.06
248.666	187.06
248.899	202.06
249.133	207.06
249.366	206.06
249.599	217.06
249.832	213.06
250.066	184.06
250.299	193.06
250.532	203.06
250.765	175.06
250.998	167.06
251.231	169.06
251.465	183.06
251.698	208.06
251.931	183.06
252.164	187.06
252.397	226.06
252.63	233.06
252.863	251.06
253.096	254.06
253.329	237.06
253.562	248.06
253.795	261.06
254.028	284.06
254.261	301.06
254.494	270.06
254.727	250.06
254.96	249.06
255.193	243.06
255.426	253.06
255.659	199.06
255.892	183.06
256.124	193.06
256.357	239.06
256.59	262.06
256.823	270.06
257.056	230.06
257.289	201.06
257.521	210.06
257.754	271.06
257.987	278.06
258.22	275.06
258.452	227.06
258.685	263.06
258.918	287.06
259.151	279.06
259.383	313.06
259.616	329.06
259.849	341.06
260.081	343.06
260.314	388.06
260.547	307.06
260.779	312.06
261.012	345.06
261.244	340.06
261.477	347.06
261.71	325.06
261.942	268.06
262.175	277.06
262.407	273.06
262.64	269.06
262.872	305.06
263.105	324.06
263.337	342.06
263.57	338.06
263.802	249.06
264.035	216.06
264.267	224.06
264.499	182.06
264.732	193.06
264.964	163.06
265.197	189.06
265.429	207.06
265.661	208.06
265.894	191.06
266.126	220.06
266.358	240.06
266.591	285.06
266.823	339.06
267.055	315.06
267.287	262.06
267.52	284.06
267.752	302.06
267.984	316.06
268.216	281.06
268.448	257.06
268.681	247.06
268.913	252.06
269.145	271.06
269.377	299.06
269.609	306.06
269.841	275.06
270.073	292.06
270.306	319.06
270.538	309.06
270.77	322.06
271.002	307.06
271.234	327.06
271.466	315.06
271.698	292.06
271.93	299.06
272.162	313.06
272.394	285.06
272.626	309.06
272.858	291.06
273.09	310.06
273.322	288.06
273.553	278.06
273.785	288.06
274.017	363.06
274.249	454.06
274.481	476.06
274.713	494.06
274.945	589.06
275.176	600.06
275.408	541.06
275.64	477.06
275.872	492.06
276.104	445.06
276.335	377.06
276.567	375.06
276.799	398.06
277.031	406.06
277.262	328.06
277.494	259.06
277.726	262.06
277.957	266.06
278.189	323.06
278.421	330.06
278.652	299.06
278.884	279.06
279.115	268.06
279.347	260.06
279.579	270.06
279.81	285.06
280.042	281.06
280.273	287.06
280.505	285.06
280.736	237.06
280.968	235.06
281.199	238.06
281.431	294.06
281.662	267.06
281.894	263.06
282.125	278.06
282.356	284.06
282.588	308.06
282.819	271.06
283.051	279.06
283.282	333.06
283.513	398.06
283.745	433.06
283.976	447.06
284.207	397.06
284.439	416.06
284.67	409.06
284.901	347.06
285.132	382.06
285.364	395.06
285.595	397.06
285.826	395.06
286.057	384.06
286.288	374.06
286.52	383.06
286.751	408.06
286.982	403.06
287.213	371.06
287.444	371.06
287.675	359.06
287.906	353.06
288.138	317.06
288.369	310.06
288.6	285.06
288.831	283.06
289.062	335.06
289.293	375.06
289.524	344.06
289.755	331.06
289.986	344.06
290.217	315.06
290.448	250.06
290.679	227.06
290.91	211.06
291.141	217.06
291.371	243.06
291.602	228.06
291.833	224.06
292.064	240.06
292.295	271.06
292.526	296.06
292.757	307.06
292.987	313.06
293.218	325.06
293.449	346.06
293.68	354.06
293.91	356.06
294.141	364.06
294.372	348.06
294.603	310.06
294.833	326.06
295.064	392.06
295.295	380.06
295.525	293.06
295.756	264.06
295.987	235.06
296.217	228.06
296.448	232.06
296.679	250.06
296.909	269.06
297.14	280.06
297.37	300.06
297.601	281.06
297.831	255.06
298.062	285.06
298.292	285.06
298.523	322.06
298.753	358.06
298.984	309.06
299.214	291.06
299.445	243.06
299.675	227.06
299.905	247.06
300.136	247.06
300.366	254.06
300.597	263.06
300.827	236.06
301.057	235.06
301.288	232.06
301.518	249.06
301.748	266.06
301.979	295.06
302.209	320.06
302.439	293.06
302.669	271.06
302.9	279.06
303.13	260.06
303.36	257.06
303.59	247.06
303.82	275.06
304.051	279.06
304.281	294.06
304.511	290.06
304.741	259.06
304.971	278.06
305.201	269.06
305.431	262.06
305.661	253.06
305.891	237.06
306.121	238.06
306.352	229.06
306.582	200.06
306.812	192.06
307.042	213.06
307.272	197.06
307.502	200.06
307.731	211.06
307.961	228.06
308.191	211.06
308.421	199.06
308.651	198.06
308.881	189.06
309.111	183.06
309.341	185.06
309.571	200.06
309.8	215.06
310.03	227.06
310.26	224.06
310.49	222.06
310.72	219.06
310.949	204.06
311.179	212.06
311.409	221.06
311.639	236.06
311.868	287.06
312.098	358.06
312.328	392.06
312.557	366.06
312.787	396.06
313.017	340.06
313.246	352.06
313.476	412.06
313.706	336.06
313.935	285.06
314.165	237.06
314.394	231.06
314.624	209.06
314.853	221.06
315.083	243.06
315.312	237.06
315.542	244.06
315.771	222.06
316.001	192.06
316.23	207.06
316.46	198.06
316.689	187.06
316.919	206.06
317.148	217.06
317.377	203.06
317.607	220.06
317.836	220.06
318.065	235.06
318.295	261.06
318.524	244.06
318.753	217.06
318.983	207.06
319.212	205.06
319.441	220.06
319.67	231.06
319.9	261.06
320.129	245.06
320.358	228.06
320.587	222.06
320.816	228.06
321.046	247.06
321.275	267.06
321.504	258.06
321.733	275.06
321.962	248.06
322.191	260.06
322.42	216.06
322.649	219.06
322.878	260.06
323.108	249.06
323.337	240.06
323.566	228.06
323.795	244.06
324.024	250.06
324.253	226.06
324.482	225.06
324.71	245.06
324.939	270.06
325.168	228.06
325.397	192.06
325.626	225.06
325.855	221.06
326.084	225.06
326.313	204.06
326.542	221.06
326.77	217.06
326.999	222.06
327.228	215.06
327.457	222.06
327.686	240.06
327.914	205.06
328.143	197.06
328.372	200.06
328.6	199.06
328.829	210.06
329.058	210.06
329.287	206.06
329.515	210.06
329.744	209.06
329.972	210.06
330.201	197.06
330.43	211.06
330.658	223.06
330.887	230.06
331.115	221.06
331.344	230.06
331.572	214.06
331.801	204.06
332.03	206.06
332.258	204.06
332.486	220.06
332.715	223.06
332.943	225.06
333.172	244.06
333.4	239.06
333.629	244.06
333.857	272.06
334.085	266.06
334.314	251.06
334.542	247.06
334.771	236.06
334.999	229.06
335.227	230.06
335.455	215.06
335.684	235.06
335.912	268.06
336.14	288.06
336.369	275.06
336.597	267.06
336.825	286.06
337.053	321.06
337.281	253.06
337.51	221.06
337.738	218.06
337.966	225.06
338.194	263.06
338.422	256.06
338.65	207.06
338.878	206.06
339.106	215.06
339.334	230.06
339.562	257.06
339.79	225.06
340.018	215.06
340.246	233.06
340.474	260.06
340.702	271.06
340.93	297.06
341.158	277.06
341.386	236.06
341.614	214.06
341.842	238.06
342.07	253.06
342.298	278.06
342.526	289.06
342.754	247.06
342.981	231.06
343.209	228.06
343.437	262.06
343.665	262.06
343.893	281.06
344.12	317.06
344.348	367.06
344.576	325.06
344.804	262.06
345.031	235.06
345.259	235.06
345.487	219.06
345.714	233.06
345.942	255.06
346.17	263.06
346.397	259.06
346.625	236.06
346.853	219.06
347.08	228.06
347.308	221.06
347.535	247.06
347.763	255.06
347.99	250.06
348.218	212.06
348.445	207.06
348.673	227.06
348.9	237.06
349.128	234.06
349.355	223.06
349.583	256.06
349.81	223.06
350.037	226.06
350.265	204.06
350.492	200.06
350.72	188.06
350.947	209.06
351.174	210.06
351.402	212.06
351.629	204.06
351.856	215.06
352.083	201.06
352.311	211.06
352.538	255.06
352.765	244.06
352.992	226.06
353.22	232.06
353.447	247.06
353.674	209.06
353.901	202.06
354.128	213.06
354.355	229.06
354.583	245.06
354.81	241.06
355.037	249.06
355.264	220.06
355.491	244.06
355.718	237.06
355.945	243.06
356.172	248.06
356.399	230.06
356.626	279.06
356.853	332.06
357.08	347.06
357.307	359.06
357.534	315.06
357.761	322.06
357.988	345.06
358.215	415.06
358.441	373.06
358.668	327.06
358.895	326.06
359.122	270.06
359.349	283.06
359.576	320.06
359.802	259.06
360.029	226.06
360.256	239.06
360.483	273.06
360.709	349.06
360.936	348.06
361.163	295.06
361.39	263.06
361.616	228.06
361.843	251.06
362.07	296.06
362.296	291.06
362.523	224.06
362.749	223.06
362.976	219.06
363.203	254.06
363.429	289.06
363.656	237.06
363.882	216.06
364.109	237.06
364.335	223.06
364.562	207.06
364.788	241.06
365.015	271.06
365.241	239.06
365.468	221.06
365.694	206.06
365.92	206.06
366.147	196.06
366.373	187.06
366.599	187.06
366.826	198.06
367.052	193.06
367.278	208.06
367.505	203.06
367.731	196.06
367.957	205.06
368.184	212.06
368.41	215.06
368.636	219.06
368.862	233.06
369.089	231.06
369.315	214.06
369.541	216.06
369.767	213.06
369.993	186.06
370.219	209.06
370.445	218.06
370.672	223.06
370.898	261.06
371.124	261.06
371.35	229.06
371.576	230.06
371.802	240.06
372.028	253.06
372.254	292.06
372.48	263.06
372.706	239.06
372.932	225.06
373.158	255.06
373.384	273.06
373.61	344.06
373.835	372.06
374.061	278.06
374.287	249.06
374.513	297.06
374.739	348.06
374.965	352.06
375.191	361.06
375.416	283.06
375.642	239.06
375.868	286.06
376.094	308.06
376.319	264.06
376.545	290.06
376.771	291.06
376.997	253.06
377.222	207.06
377.448	187.06
377.674	196.06
377.899	191.06
378.125	184.06
378.35	175.06
378.576	180.06
378.802	205.06
379.027	220.06
379.253	201.06
379.478	221.06
379.704	244.06
379.929	252.06
380.155	239.06
380.38	225.06
380.606	237.06
380.831	263.06
381.057	246.06
381.282	230.06
381.507	262.06
381.733	299.06
381.958	327.06
382.184	327.06
382.409	349.06
382.634	345.06
382.86	355.06
383.085	313.06
383.31	256.06
383.535	286.06
383.761	264.06
383.986	269.06
384.211	302.06
384.436	291.06
384.662	248.06
384.887	246.06
385.112	246.06
385.337	264.06
385.562	235.06
385.787	253.06
386.013	285.06
386.238	301.06
386.463	243.06
386.688	255.06
386.913	251.06
387.138	221.06
387.363	220.06
387.588	226.06
387.813	229.06
388.038	251.06
388.263	233.06
388.488	234.06
388.713	261.06
388.938	275.06
389.163	232.06
389.387	229.06
389.612	210.06
389.837	223.06
390.062	222.06
390.287	218.06
390.512	241.06
390.736	207.06
390.961	218.06
391.186	217.06
391.411	221.06
391.636	201.06
391.86	215.06
392.085	258.06
392.31	262.06
392.534	228.06
392.759	224.06
392.984	260.06
393.208	242.06
393.433	225.06
393.658	217.06
393.882	184.06
394.107	194.06
394.331	196.06
394.556	210.06
394.78	219.06
395.005	219.06
395.229	214.06
395.454	216.06
395.678	226.06
395.903	237.06
396.127	206.06
396.352	205.06
396.576	233.06
396.801	235.06
397.025	264.06
397.249	248.06
397.474	226.06
397.698	231.06
397.922	227.06
398.147	233.06
398.371	216.06
398.595	241.06
398.82	231.06
399.044	239.06
399.268	251.06
399.492	271.06
399.717	289.06
399.941	286.06
400.165	277.06
400.389	257.06
400.613	257.06
400.837	248.06
401.062	238.06
401.286	211.06
401.51	215.06
401.734	241.06
401.958	239.06
402.182	222.06
402.406	235.06
402.63	231.06
402.854	247.06
403.078	282.06
403.302	373.06
403.526	379.06
403.75	338.06
403.974	278.06
404.198	284.06
404.422	317.06
404.645	319.06
404.869	344.06
405.093	280.06
405.317	263.06
405.541	255.06
405.765	239.06
405.988	248.06
406.212	274.06
406.436	307.06
406.66	313.06
406.883	282.06
407.107	290.06
407.331	294.06
407.555	308.06
407.778	284.06
408.002	284.06
408.226	271.06
408.449	265.06
408.673	269.06
408.896	224.06
409.12	237.06
409.344	226.06
409.567	238.06
409.791	230.06
410.014	237.06
410.238	253.06
410.461	242.06
410.685	230.06
410.908	237.06
411.132	249.06
411.355	241.06
411.578	239.06
411.802	222.06
412.025	239.06
412.249	245.06
412.472	239.06
412.695	243.06
412.919	246.06
413.142	232.06
413.365	254.06
413.589	269.06
413.812	248.06
414.035	216.06
414.258	222.06
414.482	249.06
414.705	255.06
414.928	233.06
415.151	220.06
415.374	233.06
415.597	220.06
415.821	245.06
416.044	225.06
416.267	237.06
416.49	232.06
416.713	249.06
416.936	229.06
417.159	215.06
417.382	209.06
417.605	227.06
417.828	234.06
418.051	218.06
418.274	232.06
418.497	227.06
418.72	253.06
418.943	241.06
419.166	255.06
419.389	265.06
419.611	244.06
419.834	247.06
420.057	257.06
420.28	260.06
420.503	252.06
420.726	220.06
420.948	229.06
421.171	223.06
421.394	241.06
421.617	209.06
421.839	224.06
422.062	228.06
422.285	225.06
422.507	236.06
422.73	224.06
422.953	225.06
423.175	228.06
423.398	234.06
423.621	252.06
423.843	274.06
424.066	241.06
424.288	252.06
424.511	247.06
424.733	229.06
424.956	243.06
425.178	259.06
425.401	294.06
425.623	374.06
425.846	301.06
426.068	246.06
426.291	255.06
426.513	249.06
426.735	250.06
426.958	240.06
427.18	282.06
427.402	328.06
427.625	350.06
427.847	303.06
428.069	224.06
428.292	232.06
428.514	254.06
428.736	233.06
428.958	269.06
429.181	310.06
429.403	271.06
429.625	223.06
429.847	229.06
430.069	227.06
430.292	218.06
430.514	217.06
430.736	235.06
430.958	291.06
431.18	241.06
431.402	222.06
431.624	212.06
431.846	205.06
432.068	201.06
432.29	219.06
432.512	242.06
432.734	292.06
432.956	281.06
433.178	228.06
433.4	221.06
433.622	214.06
433.844	248.06
434.066	264.06
434.287	241.06
434.509	226.06
434.731	245.06
434.953	254.06
435.175	273.06
435.397	264.06
435.618	237.06
435.84	208.06
436.062	221.06
436.284	227.06
436.505	208.06
436.727	204.06
436.949	214.06
437.17	222.06
437.392	226.06
437.614	215.06
437.835	212.06
438.057	213.06
438.278	230.06
438.5	304.06
438.721	308.06
438.943	248.06
439.165	224.06
439.386	185.06
439.608	204.06
439.829	211.06
440.05	207.06
440.272	224.06
440.493	230.06
440.715	292.06
440.936	255.06
441.158	231.06
441.379	211.06
441.6	259.06
441.822	262.06
442.043	223.06
442.264	209.06
442.486	238.06
442.707	235.06
442.928	227.06
443.149	223.06
443.371	228.06
443.592	244.06
443.813	255.06
444.034	238.06
444.255	223.06
444.476	259.06
444.698	253.06
444.919	259.06
445.14	332.06
445.361	297.06
445.582	252.06
445.803	228.06
446.024	248.06
446.245	243.06
446.466	238.06
446.687	220.06
446.908	248.06
447.129	241.06
447.35	189.06
447.571	202.06
447.792	220.06
448.013	215.06
448.234	202.06
448.455	205.06
448.675	214.06
448.896	202.06
449.117	200.06
449.338	200.06
449.559	207.06
449.779	224.06
450	228.06
450.221	238.06
450.442	231.06
450.662	205.06
450.883	208.06
451.104	229.06
451.324	213.06
451.545	213.06
451.766	208.06
451.986	196.06
452.207	212.06
452.428	214.06
452.648	218.06
452.869	216.06
453.089	206.06
453.31	212.06
453.53	198.06
453.751	217.06
453.971	196.06
454.192	212.06
454.412	216.06
454.633	211.06
454.853	196.06
455.073	184.06
455.294	194.06
455.514	193.06
455.734	198.06
455.955	208.06
456.175	211.06
456.395	196.06
456.616	187.06
456.836	200.06
457.056	167.06
457.276	182.06
457.497	191.06
457.717	193.06
457.937	189.06
458.157	209.06
458.377	191.06
458.598	188.06
458.818	213.06
459.038	205.06
459.258	219.06
459.478	217.06
459.698	240.06
459.918	224.06
460.138	235.06
460.358	227.06
460.578	230.06
460.798	241.06
461.018	231.06
461.238	217.06
461.458	229.06
461.678	239.06
461.898	248.06
462.118	248.06
462.338	240.06
462.558	245.06
462.777	265.06
462.997	269.06
463.217	268.06
463.437	301.06
463.657	276.06
463.876	271.06
464.096	265.06
464.316	254.06
464.536	255.06
464.755	280.06
464.975	280.06
465.195	244.06
465.414	248.06
465.634	257.06
465.854	249.06
466.073	237.06
466.293	219.06
466.512	245.06
466.732	229.06
466.951	247.06
467.171	221.06
467.391	226.06
467.61	220.06
467.829	237.06
468.049	228.06
468.268	212.06
468.488	221.06
468.707	223.06
468.927	243.06
469.146	270.06
469.365	247.06
469.585	224.06
469.804	253.06
470.023	265.06
470.243	249.06
470.462	237.06
470.681	231.06
470.901	241.06
471.12	241.06
471.339	237.06
471.558	225.06
471.777	216.06
471.997	251.06
472.216	267.06
472.435	272.06
472.654	238.06
472.873	230.06
473.092	244.06
473.311	246.06
473.53	236.06
473.749	231.06
473.968	247.06
474.187	232.06
474.406	229.06
474.625	232.06
474.844	251.06
475.063	244.06
475.282	243.06
475.501	256.06
475.72	300.06
475.939	258.06
476.158	265.06
476.377	295.06
476.596	343.06
476.814	326.06
477.033	306.06
477.252	252.06
477.471	251.06
477.69	250.06
477.908	280.06
478.127	289.06
478.346	268.06
478.564	286.06
478.783	289.06
479.002	279.06
479.22	280.06
479.439	316.06
479.658	273.06
479.876	261.06
480.095	280.06
480.313	305.06
480.532	269.06
480.751	272.06
480.969	259.06
481.188	303.06
481.406	307.06
481.624	284.06
481.843	249.06
482.061	264.06
482.28	276.06
482.498	344.06
482.717	330.06
482.935	277.06
483.153	260.06
483.372	259.06
483.59	248.06
483.808	251.06
484.027	269.06
484.245	241.06
484.463	226.06
484.681	261.06
484.9	269.06
485.118	297.06
485.336	288.06
485.554	253.06
485.772	270.06
485.99	286.06
486.209	296.06
486.427	281.06
486.645	279.06
486.863	290.06
487.081	280.06
487.299	312.06
487.517	293.06
487.735	275.06
487.953	277.06
488.171	286.06
488.389	284.06
488.607	272.06
488.825	271.06
489.043	303.06
489.261	319.06
489.479	354.06
489.696	279.06
489.914	287.06
490.132	230.06
490.35	261.06
490.568	265.06
490.786	269.06
491.003	263.06
491.221	288.06
491.439	259.06
491.657	241.06
491.874	278.06
492.092	333.06
492.31	336.06
492.527	358.06
492.745	315.06
492.963	286.06
493.18	278.06
493.398	288.06
493.615	290.06
493.833	290.06
494.05	264.06
494.268	272.06
494.485	279.06
494.703	268.06
494.92	275.06
495.138	256.06
495.355	255.06
495.573	274.06
495.79	305.06
496.008	350.06
496.225	311.06
496.442	309.06
496.66	291.06
496.877	318.06
497.094	323.06
497.312	301.06
497.529	313.06
497.746	304.06
497.963	312.06
498.181	334.06
498.398	363.06
498.615	379.06
498.832	389.06
499.049	375.06
499.267	389.06
499.484	359.06
499.701	407.06
499.918	423.06
500.135	489.06
500.352	555.06
500.569	566.06
500.786	539.06
501.003	535.06
501.22	466.06
501.437	431.06
501.654	394.06
501.871	384.06
502.088	365.06
502.305	349.06
502.522	329.06
502.739	348.06
502.956	312.06
503.172	308.06
503.389	305.06
503.606	304.06
503.823	284.06
504.04	303.06
504.256	297.06
504.473	310.06
504.69	317.06
504.907	328.06
505.123	315.06
505.34	324.06
505.557	315.06
505.773	304.06
505.99	309.06
506.207	292.06
506.423	293.06
506.64	285.06
506.856	284.06
507.073	316.06
507.289	294.06
507.506	303.06
507.722	316.06
507.939	328.06
508.155	303.06
508.372	286.06
508.588	277.06
508.805	289.06
509.021	285.06
509.238	271.06
509.454	265.06
509.67	283.06
509.887	270.06
510.103	297.06
510.319	294.06
510.536	249.06
510.752	276.06
510.968	247.06
511.184	235.06
511.401	232.06
511.617	243.06
511.833	256.06
512.049	265.06
512.265	256.06
512.481	273.06
512.698	275.06
512.914	302.06
513.13	277.06
513.346	267.06
513.562	269.06
513.778	263.06
513.994	264.06
514.21	273.06
514.426	269.06
514.642	258.06
514.858	272.06
515.074	270.06
515.29	295.06
515.506	304.06
515.721	303.06
515.937	292.06
516.153	294.06
516.369	269.06
516.585	295.06
516.801	311.06
517.016	344.06
517.232	328.06
517.448	356.06
517.664	334.06
517.879	303.06
518.095	325.06
518.311	313.06
518.527	332.06
518.742	334.06
518.958	329.06
519.173	331.06
519.389	311.06
519.605	324.06
519.82	321.06
520.036	374.06
520.251	351.06
520.467	369.06
520.682	628.06
520.898	767.06
521.113	717.06
521.329	418.06
521.544	368.06
521.76	331.06
521.975	307.06
522.19	303.06
522.406	313.06
522.621	322.06
522.836	325.06
523.052	354.06
523.267	290.06
523.482	287.06
523.698	304.06
523.913	311.06
524.128	287.06
524.343	242.06
524.559	271.06
524.774	280.06
524.989	262.06
525.204	277.06
525.419	291.06
525.634	279.06
525.849	294.06
526.064	273.06
526.28	281.06
526.495	347.06
526.71	356.06
526.925	311.06
527.14	317.06
527.355	321.06
527.57	278.06
527.785	291.06
527.999	286.06
528.214	269.06
528.429	276.06
528.644	264.06
528.859	244.06
529.074	255.06
529.289	230.06
529.503	258.06
529.718	259.06
529.933	301.06
530.148	311.06
530.363	279.06
530.577	261.06
530.792	240.06
531.007	256.06
531.221	257.06
531.436	255.06
531.651	267.06
531.865	240.06
532.08	252.06
532.295	252.06
532.509	246.06
532.724	263.06
532.938	299.06
533.153	373.06
533.367	303.06
533.582	285.06
533.796	265.06
534.011	246.06
534.225	271.06
534.44	291.06
534.654	270.06
534.868	332.06
535.083	309.06
535.297	250.06
535.511	283.06
535.726	284.06
535.94	262.06
536.154	260.06
536.369	240.06
536.583	255.06
536.797	232.06
537.011	256.06
537.225	259.06
537.44	276.06
537.654	262.06
537.868	239.06
538.082	251.06
538.296	254.06
538.51	253.06
538.724	265.06
538.938	259.06
539.153	260.06
539.367	256.06
539.581	235.06
539.795	262.06
540.009	264.06
540.222	251.06
540.436	261.06
540.65	262.06
540.864	266.06
541.078	305.06
541.292	343.06
541.506	271.06
541.72	229.06
541.934	261.06
542.147	245.06
542.361	254.06
542.575	263.06
542.789	247.06
543.002	235.06
543.216	284.06
543.43	240.06
543.644	258.06
543.857	220.06
544.071	243.06
544.285	247.06
544.498	227.06
544.712	232.06
544.925	244.06
545.139	242.06
545.352	216.06
545.566	247.06
545.779	248.06
545.993	249.06
546.206	224.06
546.42	222.06
546.633	225.06
546.847	224.06
547.06	233.06
547.274	224.06
547.487	218.06
547.7	232.06
547.914	237.06
548.127	267.06
548.34	275.06
548.554	229.06
548.767	222.06
548.98	265.06
549.193	237.06
549.407	244.06
549.62	277.06
549.833	271.06
550.046	283.06
550.259	263.06
550.473	238.06
550.686	246.06
550.899	252.06
551.112	260.06
551.325	246.06
551.538	249.06
551.751	233.06
551.964	255.06
552.177	238.06
552.39	238.06
552.603	213.06
552.816	242.06
553.029	217.06
553.242	231.06
553.455	247.06
553.667	262.06
553.88	245.06
554.093	237.06
554.306	229.06
554.519	222.06
554.732	226.06
554.944	198.06
555.157	207.06
555.37	197.06
555.583	217.06
555.795	233.06
556.008	211.06
556.221	205.06
556.433	215.06
556.646	204.06
556.859	218.06
557.071	219.06
557.284	220.06
557.496	211.06
557.709	196.06
557.921	194.06
558.134	194.06
558.346	208.06
558.559	194.06
558.771	207.06
558.984	204.06
559.196	209.06
559.409	212.06
559.621	189.06
559.833	175.06
560.046	205.06
560.258	205.06
560.47	193.06
560.683	204.06
560.895	190.06
561.107	182.06
561.32	190.06
561.532	183.06
561.744	196.06
561.956	208.06
562.168	187.06
562.381	188.06
562.593	202.06
562.805	200.06
563.017	195.06
563.229	202.06
563.441	181.06
563.653	188.06
563.865	223.06
564.077	207.06
564.289	200.06
564.501	212.06
564.713	223.06
564.925	212.06
565.137	207.06
565.349	198.06
565.561	200.06
565.773	216.06
565.985	210.06
566.197	215.06
566.408	245.06
566.62	244.06
566.832	240.06
567.044	239.06
567.255	266.06
567.467	269.06
567.679	279.06
567.891	277.06
568.102	270.06
568.314	272.06
568.526	237.06
568.737	260.06
568.949	239.06
569.161	229.06
569.372	207.06
569.584	203.06
569.795	205.06
570.007	209.06
570.218	205.06
570.43	211.06
570.641	208.06
570.853	198.06
571.064	211.06
571.276	218.06
571.487	204.06
571.698	183.06
571.91	189.06
572.121	197.06
572.333	179.06
572.544	190.06
572.755	196.06
572.966	177.06
573.178	200.06
573.389	189.06
573.6	192.06
573.811	185.06
574.023	180.06
574.234	179.06
574.445	174.06
574.656	183.06
574.867	170.06
575.078	180.06
575.289	189.06
575.501	204.06
575.712	173.06
575.923	183.06
576.134	183.06
576.345	171.06
576.556	197.06
576.767	178.06
576.978	175.06
577.188	157.06
577.399	169.06
577.61	167.06
577.821	168.06
578.032	175.06
578.243	176.06
578.454	181.06
578.665	193.06
578.875	180.06
579.086	157.06
579.297	190.06
579.508	174.06
579.718	192.06
579.929	176.06
580.14	188.06
580.35	164.06
580.561	172.06
580.772	164.06
580.982	162.06
581.193	166.06
581.403	163.06
581.614	152.06
581.825	160.06
582.035	173.06
582.246	162.06
582.456	165.06
582.667	150.06
582.877	159.06
583.087	149.06
583.298	153.06
583.508	152.06
583.719	156.06
583.929	164.06
584.139	162.06
584.35	132.06
584.56	156.06
584.77	166.06
584.981	155.06
585.191	150.06
585.401	160.06
585.611	168.06
585.821	158.06
586.032	164.06
586.242	160.06
586.452	167.06
586.662	163.06
586.872	177.06
587.082	158.06
587.292	149.06
587.502	151.06
587.713	160.06
587.923	161.06
588.133	171.06
588.343	156.06
588.553	150.06
588.762	164.06
588.972	149.06
589.182	169.06
589.392	151.06
589.602	147.06
589.812	178.06
590.022	187.06
590.232	175.06
590.441	152.06
590.651	141.06
590.861	157.06
591.071	162.06
591.281	171.06
591.49	161.06
591.7	150.06
591.91	181.06
592.119	181.06
592.329	159.06
592.539	173.06
592.748	163.06
592.958	162.06
593.167	171.06
593.377	171.06
593.587	191.06
593.796	179.06
594.006	181.06
594.215	157.06
594.424	172.06
594.634	169.06
594.843	181.06
595.053	171.06
595.262	169.06
595.472	181.06
595.681	156.06
595.89	157.06
596.1	148.06
596.309	145.06
596.518	160.06
596.727	155.06
596.937	148.06
597.146	157.06
597.355	141.06
597.564	157.06
597.774	164.06
597.983	153.06
598.192	152.06
598.401	137.06
598.61	155.06
598.819	149.06
599.028	149.06
599.237	130.06
599.446	146.06
599.655	125.06
599.864	127.06
600.073	140.06
600.282	143.06
600.491	147.06
600.7	164.06
600.909	147.06
601.118	129.06
601.327	153.06
601.536	127.06
601.745	149.06
601.953	142.06
602.162	156.06
602.371	146.06
602.58	166.06
602.789	157.06
602.997	157.06
603.206	148.06
603.415	138.06
603.623	124.06
603.832	129.06
604.041	135.06
604.249	133.06
604.458	148.06
604.666	129.06
604.875	139.06
605.084	133.06
605.292	131.06
605.501	135.06
605.709	148.06
605.918	146.06
606.126	148.06
606.334	129.06
606.543	137.06
606.751	135.06
606.96	124.06
607.168	134.06
607.376	137.06
607.585	137.06
607.793	134.06
608.001	140.06
608.21	123.06
608.418	142.06
608.626	133.06
608.834	133.06
609.043	136.06
609.251	135.06
609.459	145.06
609.667	152.06
609.875	142.06
610.083	140.06
610.291	145.06
610.499	146.06
610.707	136.06
610.916	146.06
611.124	127.06
611.332	129.06
611.54	138.06
611.748	147.06
611.955	136.06
612.163	136.06
612.371	142.06
612.579	125.06
612.787	135.06
612.995	121.06
613.203	136.06
613.411	127.06
613.618	121.06
613.826	128.06
614.034	143.06
614.242	132.06
614.449	128.06
614.657	128.06
614.865	121.06
615.072	134.06
615.28	135.06
615.488	140.06
615.695	135.06
615.903	139.06
616.111	131.06
616.318	139.06
616.526	124.06
616.733	135.06
616.941	141.06
617.148	143.06
617.356	134.06
617.563	134.06
617.771	131.06
617.978	131.06
618.185	124.06
618.393	137.06
618.6	125.06
618.807	119.06
619.015	136.06
619.222	139.06
619.429	137.06
619.637	139.06
619.844	139.06
620.051	130.06
620.258	132.06
620.466	123.06
620.673	111.06
620.88	125.06
621.087	128.06
621.294	119.06
621.501	111.06
621.708	121.06
621.915	116.06
622.122	126.06
622.329	134.06
622.536	120.06
622.743	121.06
622.95	135.06
623.157	127.06
623.364	120.06
623.571	132.06
623.778	114.06
623.985	123.06
624.192	128.06
624.399	131.06
624.606	136.06
624.812	116.06
625.019	109.06
625.226	125.06
625.433	129.06
625.639	116.06
625.846	139.06
626.053	112.06
626.259	119.06
626.466	135.06
626.673	119.06
626.879	125.06
627.086	131.06
627.293	117.06
627.499	128.06
627.706	131.06
627.912	113.06
628.119	111.06
628.325	118.06
628.532	116.06
628.738	101.06
628.945	107.06
629.151	107.06
629.357	120.06
629.564	113.06
629.77	117.06
629.976	103.06
630.183	121.06
630.389	125.06
630.595	123.06
630.802	122.06
631.008	117.06
631.214	119.06
631.42	120.06
631.627	112.06
631.833	119.06
632.039	101.06
632.245	105.06
632.451	111.06
632.657	113.06
632.863	116.06
633.069	119.06
633.275	121.06
633.481	115.06
633.688	113.06
633.893	130.06
634.099	122.06
634.305	111.06
634.511	99.06
634.717	119.06
634.923	112.06
635.129	113.06
635.335	103.06
635.541	117.06
635.747	113.06
635.952	103.06
636.158	109.06
636.364	108.06
636.57	102.06
636.775	115.06
636.981	119.06
637.187	115.06
637.392	116.06
637.598	114.06
637.804	110.06
638.009	114.06
638.215	112.06
638.421	105.06
638.626	114.06
638.832	111.06
639.037	123.06
639.243	103.06
639.448	98.06
639.654	120.06
639.859	109.06
640.065	103.06
640.27	118.06
640.475	98.06
640.681	99.06
640.886	111.06
641.091	89.06
641.297	109.06
641.502	111.06
641.707	116.06
641.913	131.06
642.118	113.06
642.323	101.06
642.528	109.06
642.733	104.06
642.939	122.06
643.144	112.06
643.349	118.06
643.554	119.06
643.759	112.06
643.964	104.06
644.169	117.06
644.374	112.06
644.579	116.06
644.784	112.06
644.989	119.06
645.194	115.06
645.399	114.06
645.604	105.06
645.809	118.06
646.014	110.06
646.219	111.06
646.423	105.06
646.628	109.06
646.833	116.06
647.038	132.06
647.243	96.06
647.447	121.06
647.652	106.06
647.857	103.06
648.062	99.06
648.266	114.06
648.471	107.06
648.676	106.06
648.88	106.06
649.085	94.06
649.289	119.06
649.494	104.06
649.698	103.06
649.903	123.06
650.107	103.06
650.312	108.06
650.516	104.06
650.721	107.06
650.925	95.06
651.13	98.06
651.334	113.06
651.539	94.06
651.743	98.06
651.947	88.06
652.152	107.06
652.356	91.06
652.56	110.06
652.764	105.06
652.969	105.06
653.173	91.06
653.377	97.06
653.581	94.06
653.785	89.06
653.99	87.06
654.194	87.06
654.398	96.06
654.602	96.06
654.806	94.06
655.01	102.06
655.214	99.06
655.418	104.06
655.622	86.06
655.826	86.06
656.03	87.06
656.234	85.06
656.438	101.06
656.642	85.06
656.846	77.06
657.049	97.06
657.253	92.06
657.457	96.06
657.661	94.06
657.865	82.06
658.068	97.06
658.272	85.06
658.476	83.06
658.68	88.06
658.883	86.06
659.087	81.06
659.291	96.06
659.494	96.06
659.698	90.06
659.901	97.06
660.105	103.06
660.309	82.06
660.512	76.06
660.716	78.06
660.919	89.06
661.123	86.06
661.326	82.06
661.53	87.06
661.733	95.06
661.936	84.06
662.14	85.06
662.343	93.06
662.546	85.06
662.75	84.06
662.953	85.06
663.156	85.06
663.36	80.06
663.563	79.06
663.766	67.06
663.969	65.06
664.173	80.06
664.376	82.06
664.579	84.06
664.782	90.06
664.985	88.06
665.188	96.06
665.391	89.06
665.594	80.06
665.797	85.06
666	70.06
666.203	82.06
666.406	79.06
666.609	77.06
666.812	86.06
667.015	69.06
667.218	80.06
667.421	81.06
667.624	97.06
667.827	71.06
668.03	69.06
668.232	75.06
668.435	92.06
668.638	73.06
668.841	78.06
669.043	73.06
669.246	83.06
669.449	78.06
669.651	78.06
669.854	80.06
670.057	87.06
670.259	87.06
670.462	78.06
670.665	75.06
670.867	82.06
671.07	83.06
671.272	86.06
671.475	92.06
671.677	70.06
671.88	78.06
672.082	77.06
672.284	78.06
672.487	79.06
672.689	68.06
672.892	75.06
