Data from NickelSpatula_HRD10591_16-35-56-126.txt Node
Date: Mon Jul 22 16:35:56 EDT 2019
User: cochatt
Spectrometer: HR+D1059
Trigger mode: 1
Integration Time (sec): 1.000000E-1
Scans to average: 1
Electric dark correction enabled: true
Nonlinearity correction enabled: false
Boxcar width: 0
XAxis mode: Wavelengths
Number of Pixels in Spectrum: 2048
>>>>>Begin Spectral Data<<<<<
223.165	-18.94
223.4	-18.94
223.635	-18.94
223.869	-5.94
224.104	-20.94
224.338	-10.94
224.573	-12.94
224.808	-9.94
225.042	-8.94
225.277	-11.94
225.511	6.06
225.746	2.06
225.98	-8.94
226.215	6.06
226.449	19.06
226.683	26.06
226.918	32.06
227.152	18.06
227.387	28.06
227.621	44.06
227.856	60.06
228.09	37.06
228.324	51.06
228.559	54.06
228.793	62.06
229.027	74.06
229.262	71.06
229.496	70.06
229.73	94.06
229.964	85.06
230.199	94.06
230.433	97.06
230.667	70.06
230.901	78.06
231.136	94.06
231.37	91.06
231.604	98.06
231.838	87.06
232.072	111.06
232.306	98.06
232.541	99.06
232.775	101.06
233.009	98.06
233.243	84.06
233.477	95.06
233.711	104.06
233.945	108.06
234.179	107.06
234.413	103.06
234.647	107.06
234.881	115.06
235.115	111.06
235.349	108.06
235.583	106.06
235.817	126.06
236.051	109.06
236.285	116.06
236.519	122.06
236.753	107.06
236.987	116.06
237.221	109.06
237.455	107.06
237.689	110.06
237.922	119.06
238.156	121.06
238.39	147.06
238.624	127.06
238.858	129.06
239.091	110.06
239.325	111.06
239.559	110.06
239.793	125.06
240.027	134.06
240.26	131.06
240.494	125.06
240.728	122.06
240.961	134.06
241.195	137.06
241.429	127.06
241.662	130.06
241.896	132.06
242.13	110.06
242.363	114.06
242.597	111.06
242.83	120.06
243.064	132.06
243.298	128.06
243.531	134.06
243.765	136.06
243.998	129.06
244.232	135.06
244.465	129.06
244.699	121.06
244.932	160.06
245.166	132.06
245.399	126.06
245.633	138.06
245.866	131.06
246.099	147.06
246.333	138.06
246.566	150.06
246.8	166.06
247.033	151.06
247.266	142.06
247.5	137.06
247.733	145.06
247.966	139.06
248.2	139.06
248.433	142.06
248.666	142.06
248.899	166.06
249.133	171.06
249.366	181.06
249.599	196.06
249.832	162.06
250.066	147.06
250.299	141.06
250.532	151.06
250.765	159.06
250.998	139.06
251.231	156.06
251.465	154.06
251.698	165.06
251.931	140.06
252.164	149.06
252.397	172.06
252.63	173.06
252.863	200.06
253.096	199.06
253.329	199.06
253.562	182.06
253.795	212.06
254.028	213.06
254.261	211.06
254.494	192.06
254.727	176.06
254.96	191.06
255.193	182.06
255.426	202.06
255.659	167.06
255.892	155.06
256.124	160.06
256.357	179.06
256.59	205.06
256.823	194.06
257.056	178.06
257.289	174.06
257.521	157.06
257.754	174.06
257.987	206.06
258.22	189.06
258.452	180.06
258.685	172.06
258.918	198.06
259.151	205.06
259.383	220.06
259.616	233.06
259.849	221.06
260.081	244.06
260.314	254.06
260.547	230.06
260.779	222.06
261.012	253.06
261.244	219.06
261.477	241.06
261.71	231.06
261.942	208.06
262.175	200.06
262.407	208.06
262.64	207.06
262.872	214.06
263.105	240.06
263.337	222.06
263.57	240.06
263.802	168.06
264.035	156.06
264.267	156.06
264.499	158.06
264.732	128.06
264.964	132.06
265.197	148.06
265.429	156.06
265.661	136.06
265.894	151.06
266.126	154.06
266.358	160.06
266.591	208.06
266.823	246.06
267.055	217.06
267.287	204.06
267.52	193.06
267.752	205.06
267.984	226.06
268.216	200.06
268.448	182.06
268.681	178.06
268.913	207.06
269.145	199.06
269.377	213.06
269.609	202.06
269.841	187.06
270.073	203.06
270.306	223.06
270.538	211.06
270.77	226.06
271.002	215.06
271.234	211.06
271.466	246.06
271.698	230.06
271.93	214.06
272.162	212.06
272.394	216.06
272.626	207.06
272.858	205.06
273.09	228.06
273.322	203.06
273.553	204.06
273.785	213.06
274.017	254.06
274.249	310.06
274.481	313.06
274.713	359.06
274.945	376.06
275.176	403.06
275.408	357.06
275.64	345.06
275.872	352.06
276.104	301.06
276.335	269.06
276.567	252.06
276.799	270.06
277.031	278.06
277.262	231.06
277.494	208.06
277.726	195.06
277.957	214.06
278.189	218.06
278.421	214.06
278.652	211.06
278.884	195.06
279.115	175.06
279.347	198.06
279.579	187.06
279.81	189.06
280.042	195.06
280.273	194.06
280.505	186.06
280.736	166.06
280.968	178.06
281.199	189.06
281.431	192.06
281.662	185.06
281.894	198.06
282.125	222.06
282.356	230.06
282.588	215.06
282.819	196.06
283.051	198.06
283.282	252.06
283.513	270.06
283.745	299.06
283.976	310.06
284.207	272.06
284.439	263.06
284.67	271.06
284.901	250.06
285.132	264.06
285.364	259.06
285.595	278.06
285.826	280.06
286.057	295.06
286.288	259.06
286.52	267.06
286.751	291.06
286.982	290.06
287.213	243.06
287.444	244.06
287.675	253.06
287.906	260.06
288.138	226.06
288.369	214.06
288.6	211.06
288.831	208.06
289.062	233.06
289.293	221.06
289.524	212.06
289.755	230.06
289.986	247.06
290.217	207.06
290.448	175.06
290.679	168.06
290.91	161.06
291.141	170.06
291.371	164.06
291.602	160.06
291.833	170.06
292.064	175.06
292.295	186.06
292.526	218.06
292.757	201.06
292.987	219.06
293.218	219.06
293.449	234.06
293.68	251.06
293.91	233.06
294.141	251.06
294.372	229.06
294.603	218.06
294.833	244.06
295.064	258.06
295.295	246.06
295.525	197.06
295.756	172.06
295.987	158.06
296.217	167.06
296.448	163.06
296.679	164.06
296.909	173.06
297.14	191.06
297.37	216.06
297.601	207.06
297.831	174.06
298.062	212.06
298.292	227.06
298.523	210.06
298.753	248.06
298.984	222.06
299.214	183.06
299.445	175.06
299.675	185.06
299.905	172.06
300.136	175.06
300.366	198.06
300.597	190.06
300.827	164.06
301.057	189.06
301.288	166.06
301.518	178.06
301.748	179.06
301.979	204.06
302.209	213.06
302.439	215.06
302.669	174.06
302.9	192.06
303.13	189.06
303.36	155.06
303.59	153.06
303.82	163.06
304.051	195.06
304.281	210.06
304.511	211.06
304.741	182.06
304.971	168.06
305.201	192.06
305.431	185.06
305.661	164.06
305.891	159.06
306.121	170.06
306.352	159.06
306.582	153.06
306.812	145.06
307.042	156.06
307.272	130.06
307.502	136.06
307.731	160.06
307.961	148.06
308.191	149.06
308.421	144.06
308.651	137.06
308.881	148.06
309.111	139.06
309.341	153.06
309.571	148.06
309.8	144.06
310.03	151.06
310.26	153.06
310.49	160.06
310.72	160.06
310.949	163.06
311.179	156.06
311.409	150.06
311.639	178.06
311.868	196.06
312.098	257.06
312.328	266.06
312.557	259.06
312.787	255.06
313.017	254.06
313.246	242.06
313.476	272.06
313.706	215.06
313.935	181.06
314.165	160.06
314.394	168.06
314.624	165.06
314.853	173.06
315.083	170.06
315.312	159.06
315.542	156.06
315.771	154.06
316.001	134.06
316.23	138.06
316.46	137.06
316.689	135.06
316.919	145.06
317.148	148.06
317.377	154.06
317.607	145.06
317.836	165.06
318.065	163.06
318.295	183.06
318.524	164.06
318.753	148.06
318.983	162.06
319.212	148.06
319.441	158.06
319.67	187.06
319.9	170.06
320.129	162.06
320.358	143.06
320.587	144.06
320.816	158.06
321.046	174.06
321.275	190.06
321.504	183.06
321.733	205.06
321.962	189.06
322.191	167.06
322.42	186.06
322.649	186.06
322.878	175.06
323.108	175.06
323.337	150.06
323.566	170.06
323.795	159.06
324.024	170.06
324.253	162.06
324.482	160.06
324.71	170.06
324.939	185.06
325.168	168.06
325.397	156.06
325.626	150.06
325.855	154.06
326.084	153.06
326.313	144.06
326.542	150.06
326.77	134.06
326.999	148.06
327.228	156.06
327.457	167.06
327.686	155.06
327.914	125.06
328.143	143.06
328.372	156.06
328.6	134.06
328.829	142.06
329.058	143.06
329.287	158.06
329.515	157.06
329.744	141.06
329.972	142.06
330.201	145.06
330.43	127.06
330.658	148.06
330.887	150.06
331.115	154.06
331.344	147.06
331.572	166.06
331.801	136.06
332.03	135.06
332.258	133.06
332.486	141.06
332.715	152.06
332.943	150.06
333.172	156.06
333.4	147.06
333.629	160.06
333.857	154.06
334.085	165.06
334.314	176.06
334.542	144.06
334.771	145.06
334.999	161.06
335.227	127.06
335.455	129.06
335.684	150.06
335.912	166.06
336.14	186.06
336.369	175.06
336.597	174.06
336.825	191.06
337.053	223.06
337.281	168.06
337.51	165.06
337.738	156.06
337.966	165.06
338.194	184.06
338.422	163.06
338.65	160.06
338.878	151.06
339.106	148.06
339.334	151.06
339.562	152.06
339.79	164.06
340.018	143.06
340.246	164.06
340.474	178.06
340.702	189.06
340.93	183.06
341.158	188.06
341.386	166.06
341.614	180.06
341.842	167.06
342.07	178.06
342.298	198.06
342.526	187.06
342.754	182.06
342.981	169.06
343.209	163.06
343.437	160.06
343.665	179.06
343.893	188.06
344.12	195.06
344.348	243.06
344.576	226.06
344.804	168.06
345.031	156.06
345.259	167.06
345.487	140.06
345.714	150.06
345.942	164.06
346.17	182.06
346.397	164.06
346.625	171.06
346.853	162.06
347.08	154.06
347.308	169.06
347.535	171.06
347.763	162.06
347.99	161.06
348.218	163.06
348.445	150.06
348.673	154.06
348.9	145.06
349.128	156.06
349.355	174.06
349.583	168.06
349.81	165.06
350.037	154.06
350.265	149.06
350.492	130.06
350.72	117.06
350.947	160.06
351.174	160.06
351.402	154.06
351.629	151.06
351.856	141.06
352.083	144.06
352.311	159.06
352.538	168.06
352.765	188.06
352.992	185.06
353.22	178.06
353.447	174.06
353.674	159.06
353.901	145.06
354.128	167.06
354.355	164.06
354.583	162.06
354.81	172.06
355.037	187.06
355.264	167.06
355.491	171.06
355.718	183.06
355.945	186.06
356.172	160.06
356.399	175.06
356.626	206.06
356.853	221.06
357.08	247.06
357.307	268.06
357.534	210.06
357.761	227.06
357.988	244.06
358.215	285.06
358.441	274.06
358.668	259.06
358.895	224.06
359.122	207.06
359.349	194.06
359.576	208.06
359.802	190.06
360.029	166.06
360.256	182.06
360.483	192.06
360.709	229.06
360.936	242.06
361.163	212.06
361.39	175.06
361.616	181.06
361.843	202.06
362.07	214.06
362.296	202.06
362.523	171.06
362.749	147.06
362.976	146.06
363.203	184.06
363.429	189.06
363.656	166.06
363.882	156.06
364.109	163.06
364.335	162.06
364.562	153.06
364.788	168.06
365.015	203.06
365.241	172.06
365.468	151.06
365.694	147.06
365.92	151.06
366.147	142.06
366.373	152.06
366.599	148.06
366.826	143.06
367.052	124.06
367.278	136.06
367.505	136.06
367.731	167.06
367.957	160.06
368.184	169.06
368.41	166.06
368.636	163.06
368.862	168.06
369.089	172.06
369.315	155.06
369.541	136.06
369.767	150.06
369.993	153.06
370.219	130.06
370.445	154.06
370.672	164.06
370.898	174.06
371.124	163.06
371.35	146.06
371.576	153.06
371.802	151.06
372.028	174.06
372.254	189.06
372.48	168.06
372.706	170.06
372.932	191.06
373.158	178.06
373.384	202.06
373.61	252.06
373.835	256.06
374.061	197.06
374.287	176.06
374.513	211.06
374.739	234.06
374.965	220.06
375.191	215.06
375.416	202.06
375.642	184.06
375.868	186.06
376.094	179.06
376.319	180.06
376.545	196.06
376.771	182.06
376.997	180.06
377.222	151.06
377.448	146.06
377.674	138.06
377.899	127.06
378.125	152.06
378.35	128.06
378.576	144.06
378.802	148.06
379.027	146.06
379.253	151.06
379.478	175.06
379.704	169.06
379.929	182.06
380.155	182.06
380.38	152.06
380.606	183.06
380.831	185.06
381.057	182.06
381.282	160.06
381.507	196.06
381.733	220.06
381.958	227.06
382.184	239.06
382.409	245.06
382.634	227.06
382.86	247.06
383.085	220.06
383.31	182.06
383.535	216.06
383.761	178.06
383.986	175.06
384.211	205.06
384.436	216.06
384.662	170.06
384.887	159.06
385.112	159.06
385.337	165.06
385.562	169.06
385.787	183.06
386.013	178.06
386.238	190.06
386.463	153.06
386.688	153.06
386.913	158.06
387.138	173.06
387.363	149.06
387.588	167.06
387.813	183.06
388.038	173.06
388.263	167.06
388.488	178.06
388.713	168.06
388.938	200.06
389.163	162.06
389.387	162.06
389.612	160.06
389.837	150.06
390.062	173.06
390.287	148.06
390.512	178.06
390.736	159.06
390.961	145.06
391.186	145.06
391.411	150.06
391.636	164.06
391.86	157.06
392.085	162.06
392.31	173.06
392.534	179.06
392.759	158.06
392.984	181.06
393.208	162.06
393.433	147.06
393.658	151.06
393.882	134.06
394.107	130.06
394.331	142.06
394.556	143.06
394.78	142.06
395.005	150.06
395.229	151.06
395.454	140.06
395.678	139.06
395.903	170.06
396.127	138.06
396.352	147.06
396.576	146.06
396.801	152.06
397.025	168.06
397.249	185.06
397.474	158.06
397.698	142.06
397.922	162.06
398.147	138.06
398.371	150.06
398.595	153.06
398.82	151.06
399.044	161.06
399.268	164.06
399.492	164.06
399.717	173.06
399.941	178.06
400.165	159.06
400.389	168.06
400.613	156.06
400.837	160.06
401.062	163.06
401.286	162.06
401.51	149.06
401.734	153.06
401.958	135.06
402.182	136.06
402.406	161.06
402.63	155.06
402.854	158.06
403.078	187.06
403.302	216.06
403.526	223.06
403.75	212.06
403.974	163.06
404.198	181.06
404.422	181.06
404.645	224.06
404.869	216.06
405.093	168.06
405.317	165.06
405.541	150.06
405.765	175.06
405.988	175.06
406.212	170.06
406.436	194.06
406.66	212.06
406.883	170.06
407.107	192.06
407.331	210.06
407.555	192.06
407.778	176.06
408.002	180.06
408.226	178.06
408.449	175.06
408.673	165.06
408.896	155.06
409.12	155.06
409.344	145.06
409.567	141.06
409.791	139.06
410.014	158.06
410.238	155.06
410.461	145.06
410.685	148.06
410.908	171.06
411.132	165.06
411.355	160.06
411.578	148.06
411.802	158.06
412.025	161.06
412.249	153.06
412.472	151.06
412.695	150.06
412.919	165.06
413.142	141.06
413.365	165.06
413.589	174.06
413.812	142.06
414.035	161.06
414.258	164.06
414.482	163.06
414.705	170.06
414.928	148.06
415.151	142.06
415.374	152.06
415.597	155.06
415.821	156.06
416.044	153.06
416.267	150.06
416.49	140.06
416.713	146.06
416.936	148.06
417.159	143.06
417.382	155.06
417.605	173.06
417.828	154.06
418.051	153.06
418.274	157.06
418.497	163.06
418.72	153.06
418.943	166.06
419.166	152.06
419.389	172.06
419.611	153.06
419.834	164.06
420.057	178.06
420.28	161.06
420.503	170.06
420.726	153.06
420.948	148.06
421.171	170.06
421.394	149.06
421.617	142.06
421.839	158.06
422.062	138.06
422.285	159.06
422.507	150.06
422.73	152.06
422.953	174.06
423.175	166.06
423.398	164.06
423.621	179.06
423.843	187.06
424.066	160.06
424.288	156.06
424.511	160.06
424.733	160.06
424.956	162.06
425.178	166.06
425.401	208.06
425.623	234.06
425.846	200.06
426.068	178.06
426.291	188.06
426.513	161.06
426.735	182.06
426.958	156.06
427.18	185.06
427.402	223.06
427.625	220.06
427.847	165.06
428.069	165.06
428.292	152.06
428.514	150.06
428.736	160.06
428.958	158.06
429.181	201.06
429.403	156.06
429.625	141.06
429.847	146.06
430.069	144.06
430.292	148.06
430.514	150.06
430.736	139.06
430.958	190.06
431.18	181.06
431.402	144.06
431.624	130.06
431.846	127.06
432.068	143.06
432.29	142.06
432.512	156.06
432.734	192.06
432.956	187.06
433.178	162.06
433.4	148.06
433.622	137.06
433.844	154.06
434.066	168.06
434.287	174.06
434.509	159.06
434.731	150.06
434.953	149.06
435.175	165.06
435.397	169.06
435.618	166.06
435.84	142.06
436.062	158.06
436.284	145.06
436.505	136.06
436.727	148.06
436.949	152.06
437.17	148.06
437.392	154.06
437.614	134.06
437.835	156.06
438.057	153.06
438.278	169.06
438.5	205.06
438.721	211.06
438.943	171.06
439.165	142.06
439.386	132.06
439.608	157.06
439.829	141.06
440.05	134.06
440.272	153.06
440.493	171.06
440.715	184.06
440.936	177.06
441.158	137.06
441.379	130.06
441.6	175.06
441.822	170.06
442.043	155.06
442.264	151.06
442.486	141.06
442.707	153.06
442.928	153.06
443.149	164.06
443.371	157.06
443.592	147.06
443.813	154.06
444.034	145.06
444.255	174.06
444.476	158.06
444.698	141.06
444.919	142.06
445.14	283.06
445.361	230.06
445.582	152.06
445.803	151.06
446.024	167.06
446.245	162.06
446.466	170.06
446.687	144.06
446.908	148.06
447.129	154.06
447.35	130.06
447.571	135.06
447.792	159.06
448.013	156.06
448.234	132.06
448.455	134.06
448.675	142.06
448.896	150.06
449.117	130.06
449.338	162.06
449.559	158.06
449.779	158.06
450	166.06
450.221	153.06
450.442	132.06
450.662	139.06
450.883	144.06
451.104	158.06
451.324	144.06
451.545	164.06
451.766	146.06
451.986	139.06
452.207	146.06
452.428	138.06
452.648	149.06
452.869	166.06
453.089	156.06
453.31	143.06
453.53	147.06
453.751	128.06
453.971	144.06
454.192	150.06
454.412	142.06
454.633	133.06
454.853	140.06
455.073	154.06
455.294	144.06
455.514	142.06
455.734	155.06
455.955	150.06
456.175	140.06
456.395	134.06
456.616	123.06
456.836	139.06
457.056	136.06
457.276	127.06
457.497	134.06
457.717	137.06
457.937	145.06
458.157	135.06
458.377	128.06
458.598	134.06
458.818	134.06
459.038	123.06
459.258	145.06
459.478	150.06
459.698	165.06
459.918	142.06
460.138	181.06
460.358	154.06
460.578	146.06
460.798	155.06
461.018	134.06
461.238	146.06
461.458	155.06
461.678	154.06
461.898	185.06
462.118	167.06
462.338	156.06
462.558	163.06
462.777	168.06
462.997	166.06
463.217	163.06
463.437	171.06
463.657	145.06
463.876	162.06
464.096	147.06
464.316	149.06
464.536	172.06
464.755	180.06
464.975	170.06
465.195	151.06
465.414	174.06
465.634	160.06
465.854	166.06
466.073	144.06
466.293	165.06
466.512	154.06
466.732	172.06
466.951	168.06
467.171	149.06
467.391	146.06
467.61	154.06
467.829	137.06
468.049	154.06
468.268	153.06
468.488	144.06
468.707	154.06
468.927	159.06
469.146	180.06
469.365	182.06
469.585	167.06
469.804	169.06
470.023	190.06
470.243	162.06
470.462	147.06
470.681	164.06
470.901	151.06
471.12	169.06
471.339	167.06
471.558	138.06
471.777	157.06
471.997	159.06
472.216	192.06
472.435	176.06
472.654	161.06
472.873	173.06
473.092	180.06
473.311	180.06
473.53	154.06
473.749	151.06
473.968	174.06
474.187	153.06
474.406	160.06
474.625	156.06
474.844	174.06
475.063	164.06
475.282	167.06
475.501	188.06
475.72	203.06
475.939	194.06
476.158	193.06
476.377	200.06
476.596	214.06
476.814	247.06
477.033	206.06
477.252	171.06
477.471	164.06
477.69	170.06
477.908	184.06
478.127	181.06
478.346	172.06
478.564	198.06
478.783	187.06
479.002	201.06
479.22	207.06
479.439	187.06
479.658	167.06
479.876	165.06
480.095	175.06
480.313	190.06
480.532	172.06
480.751	167.06
480.969	169.06
481.188	176.06
481.406	202.06
481.624	201.06
481.843	173.06
482.061	178.06
482.28	165.06
482.498	224.06
482.717	210.06
482.935	183.06
483.153	195.06
483.372	168.06
483.59	167.06
483.808	165.06
484.027	171.06
484.245	164.06
484.463	162.06
484.681	175.06
484.9	182.06
485.118	198.06
485.336	180.06
485.554	171.06
485.772	176.06
485.99	182.06
486.209	196.06
486.427	181.06
486.645	191.06
486.863	168.06
487.081	192.06
487.299	214.06
487.517	204.06
487.735	166.06
487.953	189.06
488.171	197.06
488.389	184.06
488.607	182.06
488.825	174.06
489.043	190.06
489.261	217.06
489.479	230.06
489.696	174.06
489.914	153.06
490.132	176.06
490.35	190.06
490.568	190.06
490.786	176.06
491.003	183.06
491.221	178.06
491.439	156.06
491.657	174.06
491.874	200.06
492.092	243.06
492.31	280.06
492.527	252.06
492.745	244.06
492.963	197.06
493.18	191.06
493.398	206.06
493.615	207.06
493.833	184.06
494.05	175.06
494.268	174.06
494.485	172.06
494.703	173.06
494.92	186.06
495.138	179.06
495.355	184.06
495.573	170.06
495.79	210.06
496.008	277.06
496.225	235.06
496.442	204.06
496.66	210.06
496.877	188.06
497.094	200.06
497.312	189.06
497.529	183.06
497.746	185.06
497.963	208.06
498.181	199.06
498.398	206.06
498.615	226.06
498.832	235.06
499.049	226.06
499.267	217.06
499.484	219.06
499.701	246.06
499.918	242.06
500.135	244.06
500.352	252.06
500.569	263.06
500.786	279.06
501.003	285.06
501.22	243.06
501.437	246.06
501.654	235.06
501.871	227.06
502.088	207.06
502.305	208.06
502.522	219.06
502.739	226.06
502.956	196.06
503.172	209.06
503.389	187.06
503.606	206.06
503.823	207.06
504.04	180.06
504.256	202.06
504.473	196.06
504.69	208.06
504.907	198.06
505.123	199.06
505.34	206.06
505.557	192.06
505.773	194.06
505.99	194.06
506.207	190.06
506.423	201.06
506.64	178.06
506.856	199.06
507.073	171.06
507.289	199.06
507.506	202.06
507.722	211.06
507.939	215.06
508.155	211.06
508.372	209.06
508.588	203.06
508.805	195.06
509.021	194.06
509.238	181.06
509.454	180.06
509.67	188.06
509.887	177.06
510.103	202.06
510.319	195.06
510.536	185.06
510.752	163.06
510.968	175.06
511.184	146.06
511.401	176.06
511.617	179.06
511.833	170.06
512.049	173.06
512.265	175.06
512.481	180.06
512.698	201.06
512.914	215.06
513.13	196.06
513.346	174.06
513.562	197.06
513.778	184.06
513.994	161.06
514.21	188.06
514.426	199.06
514.642	194.06
514.858	181.06
515.074	189.06
515.29	197.06
515.506	207.06
515.721	211.06
515.937	178.06
516.153	198.06
516.369	183.06
516.585	171.06
516.801	208.06
517.016	242.06
517.232	220.06
517.448	218.06
517.664	198.06
517.879	190.06
518.095	182.06
518.311	203.06
518.527	203.06
518.742	201.06
518.958	224.06
519.173	220.06
519.389	216.06
519.605	222.06
519.82	215.06
520.036	239.06
520.251	239.06
520.467	234.06
520.682	404.06
520.898	472.06
521.113	429.06
521.329	272.06
521.544	245.06
521.76	210.06
521.975	199.06
522.19	200.06
522.406	193.06
522.621	207.06
522.836	250.06
523.052	230.06
523.267	198.06
523.482	213.06
523.698	212.06
523.913	209.06
524.128	182.06
524.343	183.06
524.559	199.06
524.774	180.06
524.989	176.06
525.204	187.06
525.419	194.06
525.634	205.06
525.849	191.06
526.064	203.06
526.28	196.06
526.495	207.06
526.71	236.06
526.925	212.06
527.14	238.06
527.355	213.06
527.57	180.06
527.785	206.06
527.999	198.06
528.214	173.06
528.429	186.06
528.644	174.06
528.859	170.06
529.074	166.06
529.289	176.06
529.503	159.06
529.718	163.06
529.933	222.06
530.148	226.06
530.363	185.06
530.577	173.06
530.792	162.06
531.007	159.06
531.221	166.06
531.436	173.06
531.651	188.06
531.865	180.06
532.08	171.06
532.295	179.06
532.509	178.06
532.724	203.06
532.938	223.06
533.153	251.06
533.367	195.06
533.582	179.06
533.796	175.06
534.011	185.06
534.225	183.06
534.44	195.06
534.654	200.06
534.868	210.06
535.083	214.06
535.297	181.06
535.511	179.06
535.726	190.06
535.94	174.06
536.154	173.06
536.369	162.06
536.583	170.06
536.797	174.06
537.011	180.06
537.225	198.06
537.44	201.06
537.654	178.06
537.868	188.06
538.082	168.06
538.296	187.06
538.51	187.06
538.724	194.06
538.938	186.06
539.153	159.06
539.367	173.06
539.581	153.06
539.795	168.06
540.009	180.06
540.222	187.06
540.436	179.06
540.65	211.06
540.864	232.06
541.078	202.06
541.292	239.06
541.506	200.06
541.72	183.06
541.934	198.06
542.147	165.06
542.361	166.06
542.575	186.06
542.789	164.06
543.002	170.06
543.216	198.06
543.43	170.06
543.644	160.06
543.857	148.06
544.071	171.06
544.285	160.06
544.498	172.06
544.712	173.06
544.925	189.06
545.139	163.06
545.352	158.06
545.566	157.06
545.779	176.06
545.993	164.06
546.206	163.06
546.42	162.06
546.633	161.06
546.847	167.06
547.06	173.06
547.274	156.06
547.487	146.06
547.7	155.06
547.914	191.06
548.127	182.06
548.34	188.06
548.554	162.06
548.767	168.06
548.98	188.06
549.193	168.06
549.407	164.06
549.62	178.06
549.833	162.06
550.046	178.06
550.259	183.06
550.473	182.06
550.686	184.06
550.899	173.06
551.112	170.06
551.325	184.06
551.538	178.06
551.751	165.06
551.964	156.06
552.177	182.06
552.39	148.06
552.603	157.06
552.816	156.06
553.029	160.06
553.242	166.06
553.455	160.06
553.667	190.06
553.88	171.06
554.093	162.06
554.306	150.06
554.519	152.06
554.732	150.06
554.944	133.06
555.157	139.06
555.37	124.06
555.583	139.06
555.795	144.06
556.008	158.06
556.221	157.06
556.433	145.06
556.646	151.06
556.859	138.06
557.071	143.06
557.284	139.06
557.496	158.06
557.709	167.06
557.921	148.06
558.134	152.06
558.346	135.06
558.559	147.06
558.771	148.06
558.984	152.06
559.196	123.06
559.409	143.06
559.621	144.06
559.833	151.06
560.046	156.06
560.258	147.06
560.47	151.06
560.683	143.06
560.895	130.06
561.107	130.06
561.32	143.06
561.532	145.06
561.744	169.06
561.956	150.06
562.168	140.06
562.381	145.06
562.593	150.06
562.805	141.06
563.017	144.06
563.229	127.06
563.441	134.06
563.653	142.06
563.865	140.06
564.077	131.06
564.289	142.06
564.501	144.06
564.713	150.06
564.925	140.06
565.137	144.06
565.349	149.06
565.561	128.06
565.773	129.06
565.985	143.06
566.197	158.06
566.408	150.06
566.62	173.06
566.832	144.06
567.044	163.06
567.255	171.06
567.467	166.06
567.679	160.06
567.891	169.06
568.102	158.06
568.314	156.06
568.526	152.06
568.737	172.06
568.949	160.06
569.161	138.06
569.372	145.06
569.584	138.06
569.795	143.06
570.007	139.06
570.218	157.06
570.43	154.06
570.641	143.06
570.853	146.06
571.064	137.06
571.276	150.06
571.487	147.06
571.698	137.06
571.91	152.06
572.121	134.06
572.333	136.06
572.544	128.06
572.755	126.06
572.966	158.06
573.178	139.06
573.389	145.06
573.6	120.06
573.811	125.06
574.023	120.06
574.234	140.06
574.445	127.06
574.656	130.06
574.867	121.06
575.078	123.06
575.289	136.06
575.501	150.06
575.712	129.06
575.923	134.06
576.134	130.06
576.345	130.06
576.556	119.06
576.767	128.06
576.978	122.06
577.188	117.06
577.399	128.06
577.61	104.06
577.821	133.06
578.032	122.06
578.243	114.06
578.454	138.06
578.665	127.06
578.875	138.06
579.086	122.06
579.297	133.06
579.508	138.06
579.718	140.06
579.929	135.06
580.14	125.06
580.35	132.06
580.561	138.06
580.772	129.06
580.982	124.06
581.193	124.06
581.403	128.06
581.614	118.06
581.825	131.06
582.035	136.06
582.246	121.06
582.456	121.06
582.667	125.06
582.877	111.06
583.087	106.06
583.298	134.06
583.508	105.06
583.719	133.06
583.929	126.06
584.139	121.06
584.35	114.06
584.56	136.06
584.77	119.06
584.981	112.06
585.191	109.06
585.401	133.06
585.611	115.06
585.821	116.06
586.032	117.06
586.242	128.06
586.452	112.06
586.662	117.06
586.872	117.06
587.082	122.06
587.292	123.06
587.502	110.06
587.713	126.06
587.923	130.06
588.133	123.06
588.343	140.06
588.553	117.06
588.762	132.06
588.972	133.06
589.182	125.06
589.392	134.06
589.602	113.06
589.812	123.06
590.022	127.06
590.232	119.06
590.441	118.06
590.651	124.06
590.861	123.06
591.071	121.06
591.281	125.06
591.49	125.06
591.7	116.06
591.91	105.06
592.119	128.06
592.329	126.06
592.539	99.06
592.748	125.06
592.958	121.06
593.167	116.06
593.377	121.06
593.587	122.06
593.796	121.06
594.006	127.06
594.215	136.06
594.424	142.06
594.634	115.06
594.843	121.06
595.053	120.06
595.262	123.06
595.472	104.06
595.681	110.06
595.89	126.06
596.1	125.06
596.309	124.06
596.518	109.06
596.727	117.06
596.937	124.06
597.146	128.06
597.355	126.06
597.564	129.06
597.774	110.06
597.983	111.06
598.192	103.06
598.401	119.06
598.61	130.06
598.819	120.06
599.028	122.06
599.237	114.06
599.446	121.06
599.655	108.06
599.864	106.06
600.073	109.06
600.282	109.06
600.491	122.06
600.7	111.06
600.909	107.06
601.118	118.06
601.327	108.06
601.536	124.06
601.745	106.06
601.953	126.06
602.162	115.06
602.371	119.06
602.58	112.06
602.789	114.06
602.997	118.06
603.206	118.06
603.415	119.06
603.623	103.06
603.832	102.06
604.041	103.06
604.249	114.06
604.458	106.06
604.666	99.06
604.875	97.06
605.084	110.06
605.292	122.06
605.501	124.06
605.709	127.06
605.918	109.06
606.126	99.06
606.334	112.06
606.543	115.06
606.751	125.06
606.96	116.06
607.168	110.06
607.376	108.06
607.585	103.06
607.793	103.06
608.001	109.06
608.21	114.06
608.418	116.06
608.626	111.06
608.834	107.06
609.043	106.06
609.251	121.06
609.459	114.06
609.667	114.06
609.875	103.06
610.083	105.06
610.291	110.06
610.499	112.06
610.707	110.06
610.916	101.06
611.124	112.06
611.332	106.06
611.54	107.06
611.748	97.06
611.955	109.06
612.163	121.06
612.371	111.06
612.579	102.06
612.787	107.06
612.995	114.06
613.203	110.06
613.411	118.06
613.618	106.06
613.826	116.06
614.034	126.06
614.242	118.06
614.449	118.06
614.657	99.06
614.865	106.06
615.072	106.06
615.28	120.06
615.488	116.06
615.695	99.06
615.903	106.06
616.111	118.06
616.318	114.06
616.526	110.06
616.733	106.06
616.941	99.06
617.148	111.06
617.356	108.06
617.563	100.06
617.771	127.06
617.978	103.06
618.185	107.06
618.393	108.06
618.6	106.06
618.807	108.06
619.015	119.06
619.222	111.06
619.429	103.06
619.637	115.06
619.844	115.06
620.051	100.06
620.258	111.06
620.466	118.06
620.673	116.06
620.88	102.06
621.087	84.06
621.294	99.06
621.501	107.06
621.708	110.06
621.915	112.06
622.122	105.06
622.329	103.06
622.536	99.06
622.743	104.06
622.95	106.06
623.157	115.06
623.364	116.06
623.571	117.06
623.778	103.06
623.985	130.06
624.192	98.06
624.399	98.06
624.606	113.06
624.812	97.06
625.019	102.06
625.226	103.06
625.433	103.06
625.639	97.06
625.846	119.06
626.053	92.06
626.259	115.06
626.466	107.06
626.673	103.06
626.879	108.06
627.086	106.06
627.293	102.06
627.499	105.06
627.706	106.06
627.912	98.06
628.119	102.06
628.325	111.06
628.532	102.06
628.738	118.06
628.945	96.06
629.151	97.06
629.357	104.06
629.564	96.06
629.77	97.06
629.976	103.06
630.183	95.06
630.389	97.06
630.595	105.06
630.802	100.06
631.008	98.06
631.214	88.06
631.42	101.06
631.627	109.06
631.833	104.06
632.039	120.06
632.245	108.06
632.451	95.06
632.657	94.06
632.863	105.06
633.069	100.06
633.275	97.06
633.481	95.06
633.688	99.06
633.893	108.06
634.099	90.06
634.305	108.06
634.511	103.06
634.717	99.06
634.923	122.06
635.129	91.06
635.335	94.06
635.541	94.06
635.747	113.06
635.952	102.06
636.158	103.06
636.364	100.06
636.57	99.06
636.775	101.06
636.981	97.06
637.187	119.06
637.392	90.06
637.598	86.06
637.804	107.06
638.009	102.06
638.215	101.06
638.421	99.06
638.626	92.06
638.832	92.06
639.037	95.06
639.243	98.06
639.448	89.06
639.654	93.06
639.859	103.06
640.065	120.06
640.27	103.06
640.475	95.06
640.681	95.06
640.886	97.06
641.091	90.06
641.297	97.06
641.502	73.06
641.707	97.06
641.913	106.06
642.118	108.06
642.323	88.06
642.528	108.06
642.733	110.06
642.939	104.06
643.144	95.06
643.349	90.06
643.554	79.06
643.759	99.06
643.964	90.06
644.169	100.06
644.374	101.06
644.579	112.06
644.784	97.06
644.989	98.06
645.194	103.06
645.399	84.06
645.604	97.06
645.809	106.06
646.014	96.06
646.219	118.06
646.423	108.06
646.628	94.06
646.833	102.06
647.038	116.06
647.243	101.06
647.447	106.06
647.652	87.06
647.857	85.06
648.062	111.06
648.266	93.06
648.471	98.06
648.676	105.06
648.88	102.06
649.085	96.06
649.289	90.06
649.494	91.06
649.698	105.06
649.903	94.06
650.107	85.06
650.312	98.06
650.516	96.06
650.721	101.06
650.925	98.06
651.13	97.06
651.334	109.06
651.539	97.06
651.743	87.06
651.947	98.06
652.152	87.06
652.356	94.06
652.56	105.06
652.764	98.06
652.969	83.06
653.173	92.06
653.377	96.06
653.581	78.06
653.785	89.06
653.99	87.06
654.194	90.06
654.398	87.06
654.602	93.06
654.806	100.06
655.01	95.06
655.214	98.06
655.418	87.06
655.622	99.06
655.826	93.06
656.03	90.06
656.234	98.06
656.438	101.06
656.642	98.06
656.846	80.06
657.049	88.06
657.253	78.06
657.457	89.06
657.661	84.06
657.865	109.06
658.068	96.06
658.272	94.06
658.476	85.06
658.68	80.06
658.883	80.06
659.087	82.06
659.291	86.06
659.494	88.06
659.698	92.06
659.901	91.06
660.105	95.06
660.309	83.06
660.512	83.06
660.716	90.06
660.919	83.06
661.123	92.06
661.326	80.06
661.53	88.06
661.733	89.06
661.936	83.06
662.14	96.06
662.343	80.06
662.546	93.06
662.75	82.06
662.953	88.06
663.156	86.06
663.36	89.06
663.563	70.06
663.766	85.06
663.969	83.06
664.173	78.06
664.376	85.06
664.579	85.06
664.782	94.06
664.985	84.06
665.188	90.06
665.391	78.06
665.594	83.06
665.797	78.06
666	88.06
666.203	85.06
666.406	68.06
666.609	82.06
666.812	76.06
667.015	94.06
667.218	92.06
667.421	86.06
667.624	74.06
667.827	84.06
668.03	83.06
668.232	87.06
668.435	108.06
668.638	94.06
668.841	95.06
669.043	79.06
669.246	93.06
669.449	85.06
669.651	74.06
669.854	75.06
670.057	86.06
670.259	80.06
670.462	100.06
670.665	79.06
670.867	71.06
671.07	96.06
671.272	80.06
671.475	87.06
671.677	91.06
671.88	78.06
672.082	86.06
672.284	86.06
672.487	87.06
672.689	91.06
672.892	83.06
