Data from NickelSpatula_HRD10591_16-34-24-126.txt Node
Date: Mon Jul 22 16:34:24 EDT 2019
User: cochatt
Spectrometer: HR+D1059
Trigger mode: 1
Integration Time (sec): 1.000000E-1
Scans to average: 1
Electric dark correction enabled: true
Nonlinearity correction enabled: false
Boxcar width: 0
XAxis mode: Wavelengths
Number of Pixels in Spectrum: 2048
>>>>>Begin Spectral Data<<<<<
223.165	-9.62
223.4	-9.62
223.635	-9.62
223.869	-22.62
224.104	-31.62
224.338	-4.62
224.573	-11.62
224.808	-7.62
225.042	-16.62
225.277	-14.62
225.511	-12.62
225.746	13.38
225.98	-2.62
226.215	23.38
226.449	12.38
226.683	18.38
226.918	29.38
227.152	37.38
227.387	35.38
227.621	45.38
227.856	44.38
228.09	33.38
228.324	67.38
228.559	55.38
228.793	65.38
229.027	68.38
229.262	70.38
229.496	70.38
229.73	100.38
229.964	87.38
230.199	99.38
230.433	85.38
230.667	101.38
230.901	99.38
231.136	105.38
231.37	86.38
231.604	93.38
231.838	116.38
232.072	106.38
232.306	102.38
232.541	108.38
232.775	100.38
233.009	84.38
233.243	110.38
233.477	112.38
233.711	121.38
233.945	114.38
234.179	106.38
234.413	124.38
234.647	123.38
234.881	124.38
235.115	141.38
235.349	124.38
235.583	118.38
235.817	119.38
236.051	117.38
236.285	123.38
236.519	130.38
236.753	126.38
236.987	112.38
237.221	128.38
237.455	120.38
237.689	127.38
237.922	122.38
238.156	132.38
238.39	144.38
238.624	151.38
238.858	151.38
239.091	138.38
239.325	159.38
239.559	129.38
239.793	146.38
240.027	163.38
240.26	149.38
240.494	146.38
240.728	151.38
240.961	179.38
241.195	162.38
241.429	170.38
241.662	151.38
241.896	132.38
242.13	140.38
242.363	120.38
242.597	151.38
242.83	153.38
243.064	160.38
243.298	163.38
243.531	158.38
243.765	173.38
243.998	163.38
244.232	169.38
244.465	179.38
244.699	164.38
244.932	179.38
245.166	164.38
245.399	139.38
245.633	158.38
245.866	161.38
246.099	162.38
246.333	153.38
246.566	208.38
246.8	190.38
247.033	189.38
247.266	184.38
247.5	162.38
247.733	183.38
247.966	167.38
248.2	172.38
248.433	183.38
248.666	193.38
248.899	196.38
249.133	186.38
249.366	224.38
249.599	220.38
249.832	221.38
250.066	202.38
250.299	205.38
250.532	185.38
250.765	205.38
250.998	180.38
251.231	162.38
251.465	198.38
251.698	215.38
251.931	192.38
252.164	185.38
252.397	226.38
252.63	237.38
252.863	258.38
253.096	259.38
253.329	235.38
253.562	239.38
253.795	261.38
254.028	296.38
254.261	320.38
254.494	283.38
254.727	255.38
254.96	256.38
255.193	265.38
255.426	249.38
255.659	194.38
255.892	199.38
256.124	201.38
256.357	228.38
256.59	255.38
256.823	247.38
257.056	224.38
257.289	222.38
257.521	226.38
257.754	259.38
257.987	286.38
258.22	257.38
258.452	237.38
258.685	236.38
258.918	263.38
259.151	267.38
259.383	285.38
259.616	331.38
259.849	327.38
260.081	328.38
260.314	367.38
260.547	307.38
260.779	314.38
261.012	353.38
261.244	340.38
261.477	337.38
261.71	327.38
261.942	268.38
262.175	281.38
262.407	273.38
262.64	285.38
262.872	313.38
263.105	335.38
263.337	355.38
263.57	314.38
263.802	244.38
264.035	224.38
264.267	217.38
264.499	189.38
264.732	186.38
264.964	166.38
265.197	180.38
265.429	196.38
265.661	206.38
265.894	194.38
266.126	225.38
266.358	249.38
266.591	284.38
266.823	322.38
267.055	313.38
267.287	277.38
267.52	279.38
267.752	280.38
267.984	308.38
268.216	299.38
268.448	270.38
268.681	270.38
268.913	298.38
269.145	300.38
269.377	289.38
269.609	275.38
269.841	263.38
270.073	291.38
270.306	291.38
270.538	310.38
270.77	307.38
271.002	297.38
271.234	325.38
271.466	329.38
271.698	293.38
271.93	307.38
272.162	294.38
272.394	273.38
272.626	304.38
272.858	298.38
273.09	309.38
273.322	258.38
273.553	263.38
273.785	302.38
274.017	367.38
274.249	441.38
274.481	446.38
274.713	485.38
274.945	557.38
275.176	581.38
275.408	498.38
275.64	483.38
275.872	525.38
276.104	439.38
276.335	389.38
276.567	377.38
276.799	391.38
277.031	399.38
277.262	329.38
277.494	279.38
277.726	263.38
277.957	280.38
278.189	291.38
278.421	317.38
278.652	291.38
278.884	290.38
279.115	277.38
279.347	257.38
279.579	266.38
279.81	272.38
280.042	251.38
280.273	271.38
280.505	277.38
280.736	228.38
280.968	222.38
281.199	236.38
281.431	279.38
281.662	283.38
281.894	251.38
282.125	283.38
282.356	288.38
282.588	291.38
282.819	283.38
283.051	296.38
283.282	332.38
283.513	376.38
283.745	396.38
283.976	420.38
284.207	396.38
284.439	413.38
284.67	379.38
284.901	335.38
285.132	379.38
285.364	405.38
285.595	372.38
285.826	370.38
286.057	388.38
286.288	381.38
286.52	405.38
286.751	405.38
286.982	419.38
287.213	356.38
287.444	362.38
287.675	364.38
287.906	385.38
288.138	332.38
288.369	304.38
288.6	281.38
288.831	284.38
289.062	318.38
289.293	358.38
289.524	337.38
289.755	323.38
289.986	350.38
290.217	310.38
290.448	260.38
290.679	224.38
290.91	239.38
291.141	230.38
291.371	220.38
291.602	215.38
291.833	216.38
292.064	243.38
292.295	251.38
292.526	299.38
292.757	292.38
292.987	330.38
293.218	311.38
293.449	340.38
293.68	356.38
293.91	348.38
294.141	352.38
294.372	341.38
294.603	304.38
294.833	331.38
295.064	365.38
295.295	378.38
295.525	299.38
295.756	255.38
295.987	223.38
296.217	211.38
296.448	231.38
296.679	227.38
296.909	237.38
297.14	276.38
297.37	306.38
297.601	295.38
297.831	257.38
298.062	247.38
298.292	298.38
298.523	324.38
298.753	349.38
298.984	338.38
299.214	265.38
299.445	252.38
299.675	244.38
299.905	240.38
300.136	221.38
300.366	243.38
300.597	243.38
300.827	231.38
301.057	227.38
301.288	226.38
301.518	232.38
301.748	272.38
301.979	269.38
302.209	280.38
302.439	284.38
302.669	269.38
302.9	292.38
303.13	271.38
303.36	249.38
303.59	242.38
303.82	228.38
304.051	271.38
304.281	281.38
304.511	289.38
304.741	263.38
304.971	246.38
305.201	273.38
305.431	259.38
305.661	244.38
305.891	227.38
306.121	230.38
306.352	213.38
306.582	209.38
306.812	206.38
307.042	200.38
307.272	208.38
307.502	186.38
307.731	193.38
307.961	199.38
308.191	192.38
308.421	179.38
308.651	195.38
308.881	191.38
309.111	171.38
309.341	186.38
309.571	182.38
309.8	202.38
310.03	201.38
310.26	244.38
310.49	201.38
310.72	195.38
310.949	191.38
311.179	201.38
311.409	195.38
311.639	219.38
311.868	268.38
312.098	355.38
312.328	375.38
312.557	360.38
312.787	371.38
313.017	311.38
313.246	368.38
313.476	377.38
313.706	315.38
313.935	255.38
314.165	226.38
314.394	196.38
314.624	217.38
314.853	213.38
315.083	207.38
315.312	211.38
315.542	209.38
315.771	205.38
316.001	202.38
316.23	194.38
316.46	199.38
316.689	191.38
316.919	196.38
317.148	205.38
317.377	198.38
317.607	212.38
317.836	192.38
318.065	229.38
318.295	262.38
318.524	233.38
318.753	215.38
318.983	208.38
319.212	199.38
319.441	213.38
319.67	254.38
319.9	243.38
320.129	228.38
320.358	216.38
320.587	208.38
320.816	226.38
321.046	242.38
321.275	263.38
321.504	279.38
321.733	274.38
321.962	228.38
322.191	244.38
322.42	241.38
322.649	239.38
322.878	265.38
323.108	263.38
323.337	226.38
323.566	245.38
323.795	235.38
324.024	214.38
324.253	220.38
324.482	197.38
324.71	223.38
324.939	249.38
325.168	243.38
325.397	209.38
325.626	216.38
325.855	193.38
326.084	199.38
326.313	203.38
326.542	191.38
326.77	199.38
326.999	195.38
327.228	220.38
327.457	205.38
327.686	213.38
327.914	181.38
328.143	187.38
328.372	182.38
328.6	193.38
328.829	196.38
329.058	195.38
329.287	204.38
329.515	203.38
329.744	201.38
329.972	202.38
330.201	173.38
330.43	189.38
330.658	206.38
330.887	245.38
331.115	211.38
331.344	217.38
331.572	237.38
331.801	193.38
332.03	195.38
332.258	198.38
332.486	207.38
332.715	218.38
332.943	195.38
333.172	194.38
333.4	204.38
333.629	226.38
333.857	243.38
334.085	243.38
334.314	253.38
334.542	227.38
334.771	209.38
334.999	219.38
335.227	195.38
335.455	210.38
335.684	222.38
335.912	245.38
336.14	267.38
336.369	253.38
336.597	250.38
336.825	271.38
337.053	297.38
337.281	242.38
337.51	204.38
337.738	207.38
337.966	227.38
338.194	244.38
338.422	229.38
338.65	210.38
338.878	191.38
339.106	212.38
339.334	225.38
339.562	225.38
339.79	216.38
340.018	204.38
340.246	237.38
340.474	248.38
340.702	257.38
340.93	271.38
341.158	271.38
341.386	236.38
341.614	220.38
341.842	224.38
342.07	244.38
342.298	263.38
342.526	284.38
342.754	260.38
342.981	220.38
343.209	220.38
343.437	227.38
343.665	250.38
343.893	251.38
344.12	287.38
344.348	317.38
344.576	297.38
344.804	239.38
345.031	228.38
345.259	219.38
345.487	219.38
345.714	218.38
345.942	226.38
346.17	246.38
346.397	245.38
346.625	225.38
346.853	194.38
347.08	201.38
347.308	232.38
347.535	236.38
347.763	243.38
347.99	203.38
348.218	212.38
348.445	216.38
348.673	213.38
348.9	202.38
349.128	225.38
349.355	235.38
349.583	228.38
349.81	218.38
350.037	204.38
350.265	170.38
350.492	178.38
350.72	175.38
350.947	195.38
351.174	195.38
351.402	215.38
351.629	216.38
351.856	194.38
352.083	198.38
352.311	216.38
352.538	226.38
352.765	249.38
352.992	206.38
353.22	210.38
353.447	225.38
353.674	216.38
353.901	208.38
354.128	204.38
354.355	227.38
354.583	215.38
354.81	216.38
355.037	239.38
355.264	233.38
355.491	210.38
355.718	255.38
355.945	249.38
356.172	216.38
356.399	215.38
356.626	244.38
356.853	315.38
357.08	338.38
357.307	358.38
357.534	282.38
357.761	275.38
357.988	313.38
358.215	385.38
358.441	350.38
358.668	325.38
358.895	289.38
359.122	263.38
359.349	253.38
359.576	283.38
359.802	247.38
360.029	204.38
360.256	218.38
360.483	251.38
360.709	325.38
360.936	314.38
361.163	297.38
361.39	218.38
361.616	219.38
361.843	231.38
362.07	289.38
362.296	255.38
362.523	233.38
362.749	196.38
362.976	187.38
363.203	250.38
363.429	259.38
363.656	223.38
363.882	213.38
364.109	226.38
364.335	202.38
364.562	202.38
364.788	223.38
365.015	253.38
365.241	245.38
365.468	204.38
365.694	186.38
365.92	181.38
366.147	182.38
366.373	167.38
366.599	171.38
366.826	171.38
367.052	169.38
367.278	180.38
367.505	187.38
367.731	195.38
367.957	217.38
368.184	201.38
368.41	205.38
368.636	212.38
368.862	233.38
369.089	211.38
369.315	179.38
369.541	184.38
369.767	191.38
369.993	203.38
370.219	194.38
370.445	192.38
370.672	209.38
370.898	228.38
371.124	244.38
371.35	196.38
371.576	191.38
371.802	185.38
372.028	234.38
372.254	259.38
372.48	241.38
372.706	220.38
372.932	210.38
373.158	226.38
373.384	254.38
373.61	308.38
373.835	347.38
374.061	275.38
374.287	230.38
374.513	267.38
374.739	307.38
374.965	317.38
375.191	296.38
375.416	237.38
375.642	214.38
375.868	229.38
376.094	255.38
376.319	232.38
376.545	236.38
376.771	250.38
376.997	255.38
377.222	185.38
377.448	177.38
377.674	172.38
377.899	172.38
378.125	174.38
378.35	159.38
378.576	171.38
378.802	178.38
379.027	212.38
379.253	193.38
379.478	191.38
379.704	223.38
379.929	212.38
380.155	234.38
380.38	225.38
380.606	203.38
380.831	221.38
381.057	232.38
381.282	200.38
381.507	225.38
381.733	266.38
381.958	277.38
382.184	288.38
382.409	332.38
382.634	314.38
382.86	322.38
383.085	274.38
383.31	232.38
383.535	243.38
383.761	276.38
383.986	258.38
384.211	289.38
384.436	274.38
384.662	231.38
384.887	207.38
385.112	224.38
385.337	223.38
385.562	222.38
385.787	249.38
386.013	249.38
386.238	256.38
386.463	220.38
386.688	208.38
386.913	202.38
387.138	198.38
387.363	225.38
387.588	204.38
387.813	204.38
388.038	226.38
388.263	207.38
388.488	216.38
388.713	247.38
388.938	248.38
389.163	196.38
389.387	198.38
389.612	200.38
389.837	210.38
390.062	213.38
390.287	211.38
390.512	197.38
390.736	217.38
390.961	212.38
391.186	182.38
391.411	185.38
391.636	185.38
391.86	198.38
392.085	220.38
392.31	233.38
392.534	228.38
392.759	212.38
392.984	226.38
393.208	218.38
393.433	184.38
393.658	191.38
393.882	191.38
394.107	168.38
394.331	179.38
394.556	172.38
394.78	188.38
395.005	190.38
395.229	185.38
395.454	195.38
395.678	181.38
395.903	212.38
396.127	199.38
396.352	194.38
396.576	217.38
396.801	221.38
397.025	227.38
397.249	255.38
397.474	217.38
397.698	198.38
397.922	206.38
398.147	199.38
398.371	187.38
398.595	208.38
398.82	191.38
399.044	208.38
399.268	228.38
399.492	217.38
399.717	219.38
399.941	224.38
400.165	238.38
400.389	218.38
400.613	214.38
400.837	218.38
401.062	218.38
401.286	191.38
401.51	201.38
401.734	196.38
401.958	206.38
402.182	212.38
402.406	207.38
402.63	197.38
402.854	202.38
403.078	241.38
403.302	261.38
403.526	303.38
403.75	265.38
403.974	243.38
404.198	243.38
404.422	258.38
404.645	281.38
404.869	308.38
405.093	257.38
405.317	226.38
405.541	215.38
405.765	233.38
405.988	228.38
406.212	249.38
406.436	257.38
406.66	281.38
406.883	219.38
407.107	245.38
407.331	281.38
407.555	261.38
407.778	242.38
408.002	245.38
408.226	229.38
408.449	241.38
408.673	227.38
408.896	205.38
409.12	208.38
409.344	215.38
409.567	212.38
409.791	214.38
410.014	196.38
410.238	220.38
410.461	194.38
410.685	201.38
410.908	196.38
411.132	206.38
411.355	219.38
411.578	213.38
411.802	193.38
412.025	225.38
412.249	224.38
412.472	211.38
412.695	203.38
412.919	223.38
413.142	221.38
413.365	241.38
413.589	231.38
413.812	209.38
414.035	220.38
414.258	210.38
414.482	209.38
414.705	220.38
414.928	213.38
415.151	205.38
415.374	206.38
415.597	205.38
415.821	195.38
416.044	193.38
416.267	186.38
416.49	195.38
416.713	191.38
416.936	205.38
417.159	202.38
417.382	207.38
417.605	202.38
417.828	211.38
418.051	191.38
418.274	211.38
418.497	211.38
418.72	204.38
418.943	215.38
419.166	201.38
419.389	210.38
419.611	222.38
419.834	225.38
420.057	243.38
420.28	240.38
420.503	216.38
420.726	199.38
420.948	198.38
421.171	207.38
421.394	204.38
421.617	192.38
421.839	207.38
422.062	208.38
422.285	207.38
422.507	197.38
422.73	211.38
422.953	218.38
423.175	199.38
423.398	189.38
423.621	220.38
423.843	229.38
424.066	215.38
424.288	209.38
424.511	195.38
424.733	205.38
424.956	223.38
425.178	231.38
425.401	252.38
425.623	292.38
425.846	247.38
426.068	208.38
426.291	235.38
426.513	233.38
426.735	197.38
426.958	213.38
427.18	243.38
427.402	271.38
427.625	311.38
427.847	260.38
428.069	191.38
428.292	197.38
428.514	188.38
428.736	194.38
428.958	200.38
429.181	258.38
429.403	225.38
429.625	209.38
429.847	182.38
430.069	202.38
430.292	217.38
430.514	189.38
430.736	180.38
430.958	260.38
431.18	210.38
431.402	182.38
431.624	189.38
431.846	186.38
432.068	183.38
432.29	180.38
432.512	195.38
432.734	247.38
432.956	241.38
433.178	186.38
433.4	180.38
433.622	181.38
433.844	210.38
434.066	206.38
434.287	206.38
434.509	205.38
434.731	216.38
434.953	192.38
435.175	183.38
435.397	232.38
435.618	218.38
435.84	195.38
436.062	183.38
436.284	193.38
436.505	167.38
436.727	162.38
436.949	180.38
437.17	195.38
437.392	188.38
437.614	173.38
437.835	192.38
438.057	177.38
438.278	211.38
438.5	268.38
438.721	279.38
438.943	199.38
439.165	179.38
439.386	166.38
439.608	165.38
439.829	166.38
440.05	193.38
440.272	173.38
440.493	212.38
440.715	252.38
440.936	225.38
441.158	201.38
441.379	189.38
441.6	202.38
441.822	232.38
442.043	193.38
442.264	187.38
442.486	193.38
442.707	204.38
442.928	193.38
443.149	197.38
443.371	213.38
443.592	203.38
443.813	201.38
444.034	190.38
444.255	188.38
444.476	199.38
444.698	188.38
444.919	221.38
445.14	344.38
445.361	284.38
445.582	210.38
445.803	216.38
446.024	214.38
446.245	210.38
446.466	205.38
446.687	202.38
446.908	185.38
447.129	198.38
447.35	199.38
447.571	198.38
447.792	179.38
448.013	172.38
448.234	147.38
448.455	175.38
448.675	171.38
448.896	192.38
449.117	185.38
449.338	170.38
449.559	183.38
449.779	183.38
450	203.38
450.221	188.38
450.442	186.38
450.662	183.38
450.883	170.38
451.104	184.38
451.324	180.38
451.545	186.38
451.766	192.38
451.986	183.38
452.207	168.38
452.428	175.38
452.648	179.38
452.869	192.38
453.089	200.38
453.31	187.38
453.53	175.38
453.751	172.38
453.971	170.38
454.192	183.38
454.412	196.38
454.633	192.38
454.853	182.38
455.073	184.38
455.294	160.38
455.514	159.38
455.734	170.38
455.955	183.38
456.175	179.38
456.395	171.38
456.616	169.38
456.836	161.38
457.056	154.38
457.276	186.38
457.497	178.38
457.717	158.38
457.937	165.38
458.157	164.38
458.377	180.38
458.598	179.38
458.818	181.38
459.038	183.38
459.258	196.38
459.478	200.38
459.698	188.38
459.918	192.38
460.138	195.38
460.358	201.38
460.578	196.38
460.798	206.38
461.018	209.38
461.238	195.38
461.458	203.38
461.678	211.38
461.898	210.38
462.118	210.38
462.338	215.38
462.558	221.38
462.777	206.38
462.997	229.38
463.217	230.38
463.437	226.38
463.657	225.38
463.876	208.38
464.096	210.38
464.316	211.38
464.536	225.38
464.755	215.38
464.975	240.38
465.195	223.38
465.414	224.38
465.634	202.38
465.854	213.38
466.073	193.38
466.293	186.38
466.512	173.38
466.732	195.38
466.951	226.38
467.171	193.38
467.391	185.38
467.61	185.38
467.829	187.38
468.049	186.38
468.268	203.38
468.488	188.38
468.707	193.38
468.927	216.38
469.146	233.38
469.365	210.38
469.585	191.38
469.804	220.38
470.023	225.38
470.243	208.38
470.462	195.38
470.681	194.38
470.901	203.38
471.12	216.38
471.339	204.38
471.558	207.38
471.777	216.38
471.997	212.38
472.216	232.38
472.435	217.38
472.654	196.38
472.873	191.38
473.092	205.38
473.311	214.38
473.53	213.38
473.749	211.38
473.968	214.38
474.187	209.38
474.406	199.38
474.625	206.38
474.844	204.38
475.063	193.38
475.282	222.38
475.501	218.38
475.72	249.38
475.939	226.38
476.158	230.38
476.377	277.38
476.596	277.38
476.814	296.38
477.033	272.38
477.252	223.38
477.471	198.38
477.69	200.38
477.908	227.38
478.127	260.38
478.346	216.38
478.564	270.38
478.783	248.38
479.002	223.38
479.22	278.38
479.439	285.38
479.658	247.38
479.876	254.38
480.095	249.38
480.313	261.38
480.532	241.38
480.751	235.38
480.969	211.38
481.188	248.38
481.406	231.38
481.624	251.38
481.843	219.38
482.061	234.38
482.28	261.38
482.498	275.38
482.717	300.38
482.935	237.38
483.153	232.38
483.372	213.38
483.59	205.38
483.808	207.38
484.027	218.38
484.245	209.38
484.463	206.38
484.681	210.38
484.9	227.38
485.118	231.38
485.336	223.38
485.554	217.38
485.772	220.38
485.99	227.38
486.209	242.38
486.427	239.38
486.645	235.38
486.863	244.38
487.081	261.38
487.299	296.38
487.517	279.38
487.735	220.38
487.953	257.38
488.171	236.38
488.389	242.38
488.607	234.38
488.825	225.38
489.043	247.38
489.261	287.38
489.479	314.38
489.696	247.38
489.914	231.38
490.132	225.38
490.35	202.38
490.568	219.38
490.786	219.38
491.003	229.38
491.221	219.38
491.439	241.38
491.657	207.38
491.874	244.38
492.092	279.38
492.31	358.38
492.527	327.38
492.745	277.38
492.963	254.38
493.18	267.38
493.398	264.38
493.615	260.38
493.833	245.38
494.05	244.38
494.268	248.38
494.485	267.38
494.703	249.38
494.92	236.38
495.138	246.38
495.355	250.38
495.573	252.38
495.79	281.38
496.008	364.38
496.225	284.38
496.442	261.38
496.66	255.38
496.877	263.38
497.094	249.38
497.312	256.38
497.529	259.38
497.746	267.38
497.963	259.38
498.181	297.38
498.398	298.38
498.615	319.38
498.832	337.38
499.049	352.38
499.267	309.38
499.484	316.38
499.701	327.38
499.918	357.38
500.135	392.38
500.352	403.38
500.569	421.38
500.786	432.38
501.003	420.38
501.22	387.38
501.437	357.38
501.654	353.38
501.871	332.38
502.088	341.38
502.305	298.38
502.522	297.38
502.739	296.38
502.956	292.38
503.172	277.38
503.389	265.38
503.606	253.38
503.823	260.38
504.04	244.38
504.256	264.38
504.473	255.38
504.69	266.38
504.907	266.38
505.123	244.38
505.34	284.38
505.557	300.38
505.773	252.38
505.99	265.38
506.207	275.38
506.423	252.38
506.64	243.38
506.856	250.38
507.073	281.38
507.289	275.38
507.506	265.38
507.722	268.38
507.939	273.38
508.155	275.38
508.372	266.38
508.588	256.38
508.805	249.38
509.021	245.38
509.238	245.38
509.454	242.38
509.67	253.38
509.887	239.38
510.103	258.38
510.319	266.38
510.536	243.38
510.752	231.38
510.968	239.38
511.184	216.38
511.401	220.38
511.617	223.38
511.833	226.38
512.049	215.38
512.265	215.38
512.481	230.38
512.698	251.38
512.914	266.38
513.13	252.38
513.346	241.38
513.562	245.38
513.778	235.38
513.994	244.38
514.21	235.38
514.426	229.38
514.642	225.38
514.858	222.38
515.074	243.38
515.29	275.38
515.506	288.38
515.721	270.38
515.937	232.38
516.153	251.38
516.369	229.38
516.585	250.38
516.801	283.38
517.016	325.38
517.232	308.38
517.448	292.38
517.664	286.38
517.879	258.38
518.095	255.38
518.311	267.38
518.527	267.38
518.742	277.38
518.958	305.38
519.173	289.38
519.389	283.38
519.605	285.38
519.82	304.38
520.036	317.38
520.251	317.38
520.467	314.38
520.682	519.38
520.898	647.38
521.113	597.38
521.329	356.38
521.544	305.38
521.76	281.38
521.975	265.38
522.19	246.38
522.406	265.38
522.621	283.38
522.836	311.38
523.052	322.38
523.267	257.38
523.482	259.38
523.698	280.38
523.913	269.38
524.128	261.38
524.343	239.38
524.559	241.38
524.774	234.38
524.989	249.38
525.204	251.38
525.419	260.38
525.634	253.38
525.849	273.38
526.064	266.38
526.28	257.38
526.495	291.38
526.71	317.38
526.925	298.38
527.14	315.38
527.355	299.38
527.57	247.38
527.785	255.38
527.999	259.38
528.214	224.38
528.429	228.38
528.644	233.38
528.859	212.38
529.074	192.38
529.289	199.38
529.503	211.38
529.718	209.38
529.933	289.38
530.148	285.38
530.363	230.38
530.577	209.38
530.792	210.38
531.007	223.38
531.221	211.38
531.436	208.38
531.651	197.38
531.865	207.38
532.08	220.38
532.295	228.38
532.509	211.38
532.724	261.38
532.938	309.38
533.153	353.38
533.367	233.38
533.582	241.38
533.796	232.38
534.011	208.38
534.225	230.38
534.44	246.38
534.654	237.38
534.868	294.38
535.083	254.38
535.297	222.38
535.511	218.38
535.726	243.38
535.94	217.38
536.154	211.38
536.369	190.38
536.583	218.38
536.797	235.38
537.011	217.38
537.225	231.38
537.44	246.38
537.654	233.38
537.868	212.38
538.082	219.38
538.296	223.38
538.51	239.38
538.724	231.38
538.938	219.38
539.153	204.38
539.367	199.38
539.581	203.38
539.795	208.38
540.009	258.38
540.222	227.38
540.436	212.38
540.65	229.38
540.864	270.38
541.078	265.38
541.292	319.38
541.506	253.38
541.72	243.38
541.934	219.38
542.147	199.38
542.361	226.38
542.575	232.38
542.789	221.38
543.002	201.38
543.216	229.38
543.43	204.38
543.644	210.38
543.857	202.38
544.071	201.38
544.285	208.38
544.498	195.38
544.712	200.38
544.925	227.38
545.139	212.38
545.352	192.38
545.566	199.38
545.779	227.38
545.993	221.38
546.206	190.38
546.42	191.38
546.633	185.38
546.847	184.38
547.06	193.38
547.274	199.38
547.487	204.38
547.7	219.38
547.914	234.38
548.127	221.38
548.34	232.38
548.554	223.38
548.767	226.38
548.98	225.38
549.193	194.38
549.407	202.38
549.62	226.38
549.833	243.38
550.046	233.38
550.259	255.38
550.473	212.38
550.686	211.38
550.899	225.38
551.112	209.38
551.325	225.38
551.538	243.38
551.751	220.38
551.964	209.38
552.177	202.38
552.39	191.38
552.603	179.38
552.816	197.38
553.029	194.38
553.242	200.38
553.455	196.38
553.667	224.38
553.88	221.38
554.093	209.38
554.306	203.38
554.519	194.38
554.732	179.38
554.944	193.38
555.157	169.38
555.37	184.38
555.583	185.38
555.795	175.38
556.008	177.38
556.221	192.38
556.433	187.38
556.646	176.38
556.859	175.38
557.071	177.38
557.284	185.38
557.496	182.38
557.709	184.38
557.921	177.38
558.134	181.38
558.346	175.38
558.559	168.38
558.771	171.38
558.984	192.38
559.196	172.38
559.409	156.38
559.621	171.38
559.833	178.38
560.046	169.38
560.258	168.38
560.47	171.38
560.683	183.38
560.895	159.38
561.107	161.38
561.32	180.38
561.532	176.38
561.744	196.38
561.956	181.38
562.168	179.38
562.381	173.38
562.593	167.38
562.805	175.38
563.017	171.38
563.229	159.38
563.441	148.38
563.653	177.38
563.865	171.38
564.077	194.38
564.289	162.38
564.501	186.38
564.713	166.38
564.925	172.38
565.137	160.38
565.349	164.38
565.561	186.38
565.773	177.38
565.985	182.38
566.197	196.38
566.408	209.38
566.62	210.38
566.832	221.38
567.044	198.38
567.255	213.38
567.467	247.38
567.679	225.38
567.891	204.38
568.102	221.38
568.314	226.38
568.526	224.38
568.737	198.38
568.949	209.38
569.161	188.38
569.372	193.38
569.584	187.38
569.795	170.38
570.007	184.38
570.218	199.38
570.43	187.38
570.641	200.38
570.853	177.38
571.064	163.38
571.276	186.38
571.487	175.38
571.698	191.38
571.91	159.38
572.121	169.38
572.333	166.38
572.544	169.38
572.755	167.38
572.966	163.38
573.178	168.38
573.389	173.38
573.6	175.38
573.811	165.38
574.023	143.38
574.234	144.38
574.445	154.38
574.656	170.38
574.867	147.38
575.078	148.38
575.289	155.38
575.501	167.38
575.712	164.38
575.923	149.38
576.134	151.38
576.345	147.38
576.556	156.38
576.767	141.38
576.978	141.38
577.188	160.38
577.399	159.38
577.61	151.38
577.821	145.38
578.032	141.38
578.243	159.38
578.454	153.38
578.665	146.38
578.875	152.38
579.086	156.38
579.297	141.38
579.508	164.38
579.718	153.38
579.929	150.38
580.14	160.38
580.35	146.38
580.561	141.38
580.772	125.38
580.982	144.38
581.193	145.38
581.403	124.38
581.614	139.38
581.825	131.38
582.035	137.38
582.246	129.38
582.456	127.38
582.667	151.38
582.877	129.38
583.087	135.38
583.298	140.38
583.508	133.38
583.719	123.38
583.929	134.38
584.139	133.38
584.35	141.38
584.56	131.38
584.77	133.38
584.981	135.38
585.191	143.38
585.401	122.38
585.611	149.38
585.821	143.38
586.032	135.38
586.242	147.38
586.452	141.38
586.662	138.38
586.872	150.38
587.082	142.38
587.292	136.38
587.502	125.38
587.713	125.38
587.923	138.38
588.133	141.38
588.343	129.38
588.553	150.38
588.762	147.38
588.972	151.38
589.182	154.38
589.392	146.38
589.602	131.38
589.812	142.38
590.022	154.38
590.232	154.38
590.441	139.38
590.651	138.38
590.861	135.38
591.071	147.38
591.281	129.38
591.49	120.38
591.7	127.38
591.91	135.38
592.119	135.38
592.329	131.38
592.539	134.38
592.748	135.38
592.958	144.38
593.167	153.38
593.377	138.38
593.587	152.38
593.796	149.38
594.006	145.38
594.215	157.38
594.424	139.38
594.634	146.38
594.843	149.38
595.053	135.38
595.262	119.38
595.472	138.38
595.681	125.38
595.89	130.38
596.1	120.38
596.309	136.38
596.518	132.38
596.727	129.38
596.937	136.38
597.146	126.38
597.355	148.38
597.564	131.38
597.774	133.38
597.983	128.38
598.192	131.38
598.401	135.38
598.61	120.38
598.819	106.38
599.028	126.38
599.237	124.38
599.446	115.38
599.655	129.38
599.864	132.38
600.073	131.38
600.282	124.38
600.491	135.38
600.7	122.38
600.909	131.38
601.118	119.38
601.327	121.38
601.536	118.38
601.745	140.38
601.953	144.38
602.162	132.38
602.371	140.38
602.58	126.38
602.789	115.38
602.997	121.38
603.206	120.38
603.415	123.38
603.623	132.38
603.832	136.38
604.041	109.38
604.249	127.38
604.458	137.38
604.666	125.38
604.875	121.38
605.084	116.38
605.292	127.38
605.501	123.38
605.709	140.38
605.918	133.38
606.126	109.38
606.334	117.38
606.543	113.38
606.751	142.38
606.96	124.38
607.168	111.38
607.376	123.38
607.585	116.38
607.793	129.38
608.001	105.38
608.21	113.38
608.418	137.38
608.626	119.38
608.834	111.38
609.043	109.38
609.251	123.38
609.459	127.38
609.667	123.38
609.875	119.38
610.083	108.38
610.291	115.38
610.499	113.38
610.707	132.38
610.916	114.38
611.124	130.38
611.332	106.38
611.54	112.38
611.748	93.38
611.955	113.38
612.163	118.38
612.371	124.38
612.579	140.38
612.787	115.38
612.995	101.38
613.203	107.38
613.411	123.38
613.618	121.38
613.826	123.38
614.034	136.38
614.242	104.38
614.449	111.38
614.657	132.38
614.865	122.38
615.072	94.38
615.28	125.38
615.488	106.38
615.695	119.38
615.903	113.38
616.111	119.38
616.318	120.38
616.526	120.38
616.733	105.38
616.941	106.38
617.148	119.38
617.356	122.38
617.563	106.38
617.771	117.38
617.978	117.38
618.185	101.38
618.393	120.38
618.6	113.38
618.807	128.38
619.015	112.38
619.222	113.38
619.429	114.38
619.637	110.38
619.844	113.38
620.051	111.38
620.258	97.38
620.466	103.38
620.673	115.38
620.88	103.38
621.087	112.38
621.294	102.38
621.501	107.38
621.708	135.38
621.915	116.38
622.122	113.38
622.329	105.38
622.536	120.38
622.743	108.38
622.95	100.38
623.157	117.38
623.364	125.38
623.571	118.38
623.778	118.38
623.985	123.38
624.192	105.38
624.399	117.38
624.606	107.38
624.812	104.38
625.019	112.38
625.226	105.38
625.433	120.38
625.639	99.38
625.846	106.38
626.053	115.38
626.259	120.38
626.466	123.38
626.673	125.38
626.879	128.38
627.086	114.38
627.293	118.38
627.499	115.38
627.706	109.38
627.912	109.38
628.119	112.38
628.325	124.38
628.532	106.38
628.738	111.38
628.945	108.38
629.151	108.38
629.357	102.38
629.564	116.38
629.77	95.38
629.976	94.38
630.183	103.38
630.389	98.38
630.595	101.38
630.802	118.38
631.008	109.38
631.214	113.38
631.42	111.38
631.627	113.38
631.833	111.38
632.039	111.38
632.245	96.38
632.451	109.38
632.657	95.38
632.863	90.38
633.069	95.38
633.275	117.38
633.481	98.38
633.688	101.38
633.893	108.38
634.099	109.38
634.305	124.38
634.511	95.38
634.717	88.38
634.923	97.38
635.129	110.38
635.335	108.38
635.541	104.38
635.747	107.38
635.952	106.38
636.158	91.38
636.364	96.38
636.57	114.38
636.775	103.38
636.981	95.38
637.187	95.38
637.392	84.38
637.598	97.38
637.804	92.38
638.009	124.38
638.215	118.38
638.421	120.38
638.626	98.38
638.832	105.38
639.037	93.38
639.243	103.38
639.448	93.38
639.654	103.38
639.859	102.38
640.065	113.38
640.27	123.38
640.475	105.38
640.681	105.38
640.886	100.38
641.091	94.38
641.297	95.38
641.502	112.38
641.707	99.38
641.913	95.38
642.118	109.38
642.323	112.38
642.528	112.38
642.733	112.38
642.939	95.38
643.144	115.38
643.349	106.38
643.554	103.38
643.759	103.38
643.964	92.38
644.169	82.38
644.374	98.38
644.579	101.38
644.784	97.38
644.989	99.38
645.194	90.38
645.399	87.38
645.604	103.38
645.809	105.38
646.014	103.38
646.219	104.38
646.423	106.38
646.628	89.38
646.833	105.38
647.038	98.38
647.243	104.38
647.447	108.38
647.652	107.38
647.857	101.38
648.062	99.38
648.266	93.38
648.471	104.38
648.676	102.38
648.88	103.38
649.085	91.38
649.289	103.38
649.494	98.38
649.698	103.38
649.903	102.38
650.107	95.38
650.312	109.38
650.516	106.38
650.721	103.38
650.925	92.38
651.13	101.38
651.334	107.38
651.539	97.38
651.743	103.38
651.947	95.38
652.152	88.38
652.356	101.38
652.56	111.38
652.764	86.38
652.969	96.38
653.173	90.38
653.377	86.38
653.581	83.38
653.785	99.38
653.99	94.38
654.194	103.38
654.398	105.38
654.602	99.38
654.806	96.38
655.01	89.38
655.214	90.38
655.418	76.38
655.622	88.38
655.826	91.38
656.03	98.38
656.234	93.38
656.438	93.38
656.642	90.38
656.846	97.38
657.049	94.38
657.253	86.38
657.457	102.38
657.661	77.38
657.865	74.38
658.068	91.38
658.272	91.38
658.476	75.38
658.68	73.38
658.883	85.38
659.087	76.38
659.291	87.38
659.494	74.38
659.698	87.38
659.901	89.38
660.105	92.38
660.309	99.38
660.512	88.38
660.716	92.38
660.919	89.38
661.123	78.38
661.326	84.38
661.53	88.38
661.733	97.38
661.936	92.38
662.14	78.38
662.343	91.38
662.546	85.38
662.75	68.38
662.953	68.38
663.156	85.38
663.36	89.38
663.563	84.38
663.766	73.38
663.969	73.38
664.173	81.38
664.376	81.38
664.579	74.38
664.782	88.38
664.985	79.38
665.188	84.38
665.391	72.38
665.594	76.38
665.797	83.38
666	84.38
666.203	81.38
666.406	88.38
666.609	85.38
666.812	85.38
667.015	77.38
667.218	81.38
667.421	87.38
667.624	87.38
667.827	103.38
668.03	89.38
668.232	77.38
668.435	81.38
668.638	80.38
668.841	81.38
669.043	85.38
669.246	73.38
669.449	96.38
669.651	86.38
669.854	86.38
670.057	79.38
670.259	73.38
670.462	80.38
670.665	70.38
670.867	99.38
671.07	73.38
671.272	78.38
671.475	78.38
671.677	85.38
671.88	84.38
672.082	86.38
672.284	77.38
672.487	74.38
672.689	76.38
672.892	91.38
