Data from NickelSpatula.Lamp.E10.P2_HRD10591_11-57-08-533.txt Node
Date: Tue Jul 23 11:57:08 EDT 2019
User: cochatt
Spectrometer: HR+D1059
Trigger mode: 1
Integration Time (sec): 1.000000E-1
Scans to average: 1
Electric dark correction enabled: true
Nonlinearity correction enabled: false
Boxcar width: 0
XAxis mode: Wavelengths
Number of Pixels in Spectrum: 2048
>>>>>Begin Spectral Data<<<<<
223.165	6.19
223.4	6.19
223.635	6.19
223.869	-16.81
224.104	-8.81
224.338	-22.81
224.573	-22.81
224.808	-8.81
225.042	-6.81
225.277	-3.81
225.511	-4.81
225.746	3.19
225.98	17.19
226.215	-0.81
226.449	9.19
226.683	15.19
226.918	22.19
227.152	23.19
227.387	29.19
227.621	35.19
227.856	38.19
228.09	45.19
228.324	68.19
228.559	46.19
228.793	84.19
229.027	149.19
229.262	158.19
229.496	143.19
229.73	165.19
229.964	181.19
230.199	216.19
230.433	212.19
230.667	204.19
230.901	203.19
231.136	192.19
231.37	219.19
231.604	228.19
231.838	242.19
232.072	239.19
232.306	231.19
232.541	235.19
232.775	246.19
233.009	288.19
233.243	299.19
233.477	291.19
233.711	332.19
233.945	338.19
234.179	319.19
234.413	347.19
234.647	388.19
234.881	433.19
235.115	395.19
235.349	387.19
235.583	363.19
235.817	350.19
236.051	374.19
236.285	403.19
236.519	452.19
236.753	428.19
236.987	441.19
237.221	417.19
237.455	399.19
237.689	416.19
237.922	451.19
238.156	460.19
238.39	550.19
238.624	647.19
238.858	590.19
239.091	483.19
239.325	477.19
239.559	454.19
239.793	545.19
240.027	667.19
240.26	576.19
240.494	563.19
240.728	590.19
240.961	676.19
241.195	647.19
241.429	625.19
241.662	622.19
241.896	518.19
242.13	468.19
242.363	460.19
242.597	456.19
242.83	520.19
243.064	532.19
243.298	585.19
243.531	596.19
243.765	629.19
243.998	597.19
244.232	596.19
244.465	583.19
244.699	575.19
244.932	657.19
245.166	603.19
245.399	540.19
245.633	524.19
245.866	548.19
246.099	629.19
246.333	711.19
246.566	778.19
246.8	736.19
247.033	711.19
247.266	679.19
247.5	676.19
247.733	650.19
247.966	653.19
248.2	687.19
248.433	747.19
248.666	830.19
248.899	819.19
249.133	842.19
249.366	958.19
249.599	1010.19
249.832	951.19
250.066	812.19
250.299	836.19
250.532	776.19
250.765	788.19
250.998	721.19
251.231	700.19
251.465	740.19
251.698	815.19
251.931	779.19
252.164	804.19
252.397	927.19
252.63	1031.19
252.863	1135.19
253.096	1191.19
253.329	1128.19
253.562	1091.19
253.795	1216.19
254.028	1340.19
254.261	1367.19
254.494	1260.19
254.727	1106.19
254.96	1078.19
255.193	1154.19
255.426	1104.19
255.659	839.19
255.892	761.19
256.124	880.19
256.357	1014.19
256.59	1148.19
256.823	1107.19
257.056	951.19
257.289	911.19
257.521	956.19
257.754	1119.19
257.987	1265.19
258.22	1109.19
258.452	988.19
258.685	1153.19
258.918	1246.19
259.151	1251.19
259.383	1282.19
259.616	1495.19
259.849	1569.19
260.081	1688.19
260.314	1864.19
260.547	1487.19
260.779	1449.19
261.012	1680.19
261.244	1633.19
261.477	1615.19
261.71	1499.19
261.942	1296.19
262.175	1243.19
262.407	1219.19
262.64	1214.19
262.872	1455.19
263.105	1599.19
263.337	1688.19
263.57	1526.19
263.802	1044.19
264.035	904.19
264.267	885.19
264.499	782.19
264.732	717.19
264.964	696.19
265.197	713.19
265.429	755.19
265.661	800.19
265.894	865.19
266.126	902.19
266.358	1033.19
266.591	1246.19
266.823	1499.19
267.055	1403.19
267.287	1206.19
267.52	1248.19
267.752	1293.19
267.984	1455.19
268.216	1339.19
268.448	1119.19
268.681	1099.19
268.913	1197.19
269.145	1260.19
269.377	1277.19
269.609	1312.19
269.841	1187.19
270.073	1310.19
270.306	1344.19
270.538	1380.19
270.77	1407.19
271.002	1398.19
271.234	1452.19
271.466	1490.19
271.698	1428.19
271.93	1417.19
272.162	1395.19
272.394	1361.19
272.626	1382.19
272.858	1452.19
273.09	1427.19
273.322	1298.19
273.553	1209.19
273.785	1497.19
274.017	1920.19
274.249	2356.19
274.481	2449.19
274.713	2672.19
274.945	3078.19
275.176	3144.19
275.408	2767.19
275.64	2548.19
275.872	2533.19
276.104	2200.19
276.335	1883.19
276.567	1921.19
276.799	1947.19
277.031	2057.19
277.262	1590.19
277.494	1235.19
277.726	1165.19
277.957	1312.19
278.189	1467.19
278.421	1434.19
278.652	1396.19
278.884	1320.19
279.115	1254.19
279.347	1208.19
279.579	1149.19
279.81	1189.19
280.042	1165.19
280.273	1217.19
280.505	1146.19
280.736	973.19
280.968	974.19
281.199	1075.19
281.431	1222.19
281.662	1225.19
281.894	1162.19
282.125	1259.19
282.356	1311.19
282.588	1364.19
282.819	1242.19
283.051	1380.19
283.282	1668.19
283.513	1949.19
283.745	2162.19
283.976	2105.19
284.207	1937.19
284.439	2088.19
284.67	1934.19
284.901	1681.19
285.132	1941.19
285.364	2019.19
285.595	1818.19
285.826	1945.19
286.057	1991.19
286.288	1918.19
286.52	2006.19
286.751	2061.19
286.982	2014.19
287.213	1793.19
287.444	1724.19
287.675	1816.19
287.906	1813.19
288.138	1510.19
288.369	1352.19
288.6	1294.19
288.831	1361.19
289.062	1558.19
289.293	1665.19
289.524	1617.19
289.755	1570.19
289.986	1636.19
290.217	1446.19
290.448	1137.19
290.679	950.19
290.91	893.19
291.141	891.19
291.371	953.19
291.602	973.19
291.833	995.19
292.064	1041.19
292.295	1140.19
292.526	1387.19
292.757	1431.19
292.987	1522.19
293.218	1553.19
293.449	1612.19
293.68	1673.19
293.91	1571.19
294.141	1650.19
294.372	1509.19
294.603	1398.19
294.833	1549.19
295.064	1794.19
295.295	1736.19
295.525	1301.19
295.756	1114.19
295.987	977.19
296.217	970.19
296.448	1045.19
296.679	1034.19
296.909	1171.19
297.14	1237.19
297.37	1403.19
297.601	1339.19
297.831	1143.19
298.062	1236.19
298.292	1379.19
298.523	1518.19
298.753	1655.19
298.984	1549.19
299.214	1182.19
299.445	1025.19
299.675	973.19
299.905	992.19
300.136	1007.19
300.366	1124.19
300.597	1116.19
300.827	963.19
301.057	930.19
301.288	964.19
301.518	1051.19
301.748	1157.19
301.979	1273.19
302.209	1341.19
302.439	1341.19
302.669	1223.19
302.9	1183.19
303.13	1131.19
303.36	1062.19
303.59	1039.19
303.82	1045.19
304.051	1192.19
304.281	1265.19
304.511	1268.19
304.741	1111.19
304.971	1162.19
305.201	1248.19
305.431	1195.19
305.661	1007.19
305.891	981.19
306.121	1041.19
306.352	917.19
306.582	846.19
306.812	825.19
307.042	828.19
307.272	791.19
307.502	815.19
307.731	870.19
307.961	908.19
308.191	839.19
308.421	781.19
308.651	777.19
308.881	725.19
309.111	745.19
309.341	796.19
309.571	875.19
309.8	888.19
310.03	888.19
310.26	926.19
310.49	929.19
310.72	864.19
310.949	827.19
311.179	879.19
311.409	905.19
311.639	1068.19
311.868	1377.19
312.098	1803.19
312.328	1888.19
312.557	1833.19
312.787	1839.19
313.017	1640.19
313.246	1723.19
313.476	1915.19
313.706	1568.19
313.935	1250.19
314.165	1026.19
314.394	967.19
314.624	931.19
314.853	994.19
315.083	1017.19
315.312	971.19
315.542	953.19
315.771	919.19
316.001	823.19
316.23	820.19
316.46	832.19
316.689	828.19
316.919	853.19
317.148	859.19
317.377	868.19
317.607	854.19
317.836	923.19
318.065	1058.19
318.295	1185.19
318.524	1110.19
318.753	968.19
318.983	933.19
319.212	870.19
319.441	964.19
319.67	1056.19
319.9	1163.19
320.129	1085.19
320.358	963.19
320.587	911.19
320.816	1002.19
321.046	1103.19
321.275	1271.19
321.504	1245.19
321.733	1187.19
321.962	1159.19
322.191	1082.19
322.42	1021.19
322.649	1045.19
322.878	1145.19
323.108	1151.19
323.337	1070.19
323.566	1050.19
323.795	1003.19
324.024	969.19
324.253	933.19
324.482	944.19
324.71	1033.19
324.939	1165.19
325.168	1090.19
325.397	909.19
325.626	908.19
325.855	893.19
326.084	887.19
326.313	864.19
326.542	815.19
326.77	848.19
326.999	891.19
327.228	962.19
327.457	971.19
327.686	959.19
327.914	859.19
328.143	826.19
328.372	802.19
328.6	806.19
328.829	844.19
329.058	844.19
329.287	856.19
329.515	850.19
329.744	872.19
329.972	818.19
330.201	804.19
330.43	801.19
330.658	910.19
330.887	1028.19
331.115	996.19
331.344	996.19
331.572	943.19
331.801	878.19
332.03	837.19
332.258	856.19
332.486	926.19
332.715	959.19
332.943	863.19
333.172	910.19
333.4	953.19
333.629	1003.19
333.857	1111.19
334.085	1064.19
334.314	1060.19
334.542	1023.19
334.771	960.19
334.999	962.19
335.227	909.19
335.455	948.19
335.684	1034.19
335.912	1164.19
336.14	1308.19
336.369	1252.19
336.597	1187.19
336.825	1331.19
337.053	1484.19
337.281	1219.19
337.51	969.19
337.738	944.19
337.966	1009.19
338.194	1129.19
338.422	1059.19
338.65	905.19
338.878	856.19
339.106	887.19
339.334	974.19
339.562	1033.19
339.79	953.19
340.018	948.19
340.246	1006.19
340.474	1133.19
340.702	1223.19
340.93	1273.19
341.158	1264.19
341.386	1084.19
341.614	1051.19
341.842	1078.19
342.07	1116.19
342.298	1272.19
342.526	1353.19
342.754	1147.19
342.981	1042.19
343.209	1012.19
343.437	1094.19
343.665	1122.19
343.893	1132.19
344.12	1313.19
344.348	1519.19
344.576	1376.19
344.804	1131.19
345.031	1014.19
345.259	955.19
345.487	992.19
345.714	953.19
345.942	1060.19
346.17	1155.19
346.397	1092.19
346.625	970.19
346.853	913.19
347.08	939.19
347.308	961.19
347.535	1069.19
347.763	1099.19
347.99	939.19
348.218	885.19
348.445	920.19
348.673	949.19
348.9	967.19
349.128	1026.19
349.355	1025.19
349.583	998.19
349.81	953.19
350.037	906.19
350.265	821.19
350.492	761.19
350.72	777.19
350.947	793.19
351.174	873.19
351.402	914.19
351.629	945.19
351.856	912.19
352.083	857.19
352.311	944.19
352.538	1005.19
352.765	1094.19
352.992	997.19
353.22	944.19
353.447	929.19
353.674	918.19
353.901	921.19
354.128	908.19
354.355	931.19
354.583	928.19
354.81	963.19
355.037	968.19
355.264	943.19
355.491	1008.19
355.718	1064.19
355.945	1045.19
356.172	1029.19
356.399	1008.19
356.626	1219.19
356.853	1489.19
357.08	1603.19
357.307	1629.19
357.534	1269.19
357.761	1337.19
357.988	1597.19
358.215	1885.19
358.441	1776.19
358.668	1494.19
358.895	1407.19
359.122	1126.19
359.349	1157.19
359.576	1229.19
359.802	1018.19
360.029	915.19
360.256	977.19
360.483	1194.19
360.709	1481.19
360.936	1528.19
361.163	1336.19
361.39	1064.19
361.616	977.19
361.843	1139.19
362.07	1392.19
362.296	1259.19
362.523	1023.19
362.749	899.19
362.976	966.19
363.203	1147.19
363.429	1267.19
363.656	1030.19
363.882	948.19
364.109	950.19
364.335	939.19
364.562	948.19
364.788	1035.19
365.015	1238.19
365.241	1098.19
365.468	945.19
365.694	804.19
365.92	795.19
366.147	755.19
366.373	748.19
366.599	767.19
366.826	780.19
367.052	787.19
367.278	813.19
367.505	797.19
367.731	875.19
367.957	944.19
368.184	973.19
368.41	927.19
368.636	943.19
368.862	985.19
369.089	936.19
369.315	878.19
369.541	875.19
369.767	863.19
369.993	813.19
370.219	825.19
370.445	861.19
370.672	934.19
370.898	986.19
371.124	988.19
371.35	919.19
371.576	855.19
371.802	950.19
372.028	1104.19
372.254	1245.19
372.48	1055.19
372.706	953.19
372.932	1023.19
373.158	1055.19
373.384	1246.19
373.61	1669.19
373.835	1715.19
374.061	1275.19
374.287	1099.19
374.513	1264.19
374.739	1512.19
374.965	1570.19
375.191	1536.19
375.416	1071.19
375.642	973.19
375.868	1126.19
376.094	1283.19
376.319	1096.19
376.545	1213.19
376.771	1264.19
376.997	1100.19
377.222	860.19
377.448	758.19
377.674	752.19
377.899	739.19
378.125	724.19
378.35	737.19
378.576	736.19
378.802	815.19
379.027	885.19
379.253	856.19
379.478	875.19
379.704	981.19
379.929	989.19
380.155	1020.19
380.38	920.19
380.606	966.19
380.831	1038.19
381.057	996.19
381.282	931.19
381.507	1069.19
381.733	1340.19
381.958	1431.19
382.184	1483.19
382.409	1571.19
382.634	1531.19
382.86	1597.19
383.085	1351.19
383.31	1070.19
383.535	1156.19
383.761	1164.19
383.986	1106.19
384.211	1320.19
384.436	1260.19
384.662	979.19
384.887	937.19
385.112	1004.19
385.337	986.19
385.562	941.19
385.787	1004.19
386.013	1161.19
386.238	1170.19
386.463	959.19
386.688	966.19
386.913	905.19
387.138	856.19
387.363	952.19
387.588	950.19
387.813	946.19
388.038	1032.19
388.263	915.19
388.488	923.19
388.713	1048.19
388.938	1127.19
389.163	968.19
389.387	904.19
389.612	849.19
389.837	888.19
390.062	918.19
390.287	947.19
390.512	965.19
390.736	955.19
390.961	871.19
391.186	822.19
391.411	830.19
391.636	851.19
391.86	895.19
392.085	957.19
392.31	950.19
392.534	901.19
392.759	899.19
392.984	925.19
393.208	914.19
393.433	859.19
393.658	787.19
393.882	812.19
394.107	803.19
394.331	797.19
394.556	796.19
394.78	788.19
395.005	846.19
395.229	849.19
395.454	851.19
395.678	857.19
395.903	904.19
396.127	862.19
396.352	877.19
396.576	955.19
396.801	950.19
397.025	1050.19
397.249	1099.19
397.474	887.19
397.698	894.19
397.922	968.19
398.147	893.19
398.371	931.19
398.595	920.19
398.82	889.19
399.044	938.19
399.268	990.19
399.492	1031.19
399.717	1062.19
399.941	1068.19
400.165	1029.19
400.389	1033.19
400.613	1005.19
400.837	998.19
401.062	893.19
401.286	894.19
401.51	863.19
401.734	893.19
401.958	908.19
402.182	912.19
402.406	914.19
402.63	923.19
402.854	940.19
403.078	1053.19
403.302	1279.19
403.526	1277.19
403.75	1155.19
403.974	1023.19
404.198	1071.19
404.422	1152.19
404.645	1355.19
404.869	1492.19
405.093	1163.19
405.317	986.19
405.541	966.19
405.765	994.19
405.988	994.19
406.212	1032.19
406.436	1228.19
406.66	1334.19
406.883	1101.19
407.107	1133.19
407.331	1278.19
407.555	1270.19
407.778	1087.19
408.002	1038.19
408.226	1044.19
408.449	1029.19
408.673	968.19
408.896	949.19
409.12	920.19
409.344	909.19
409.567	896.19
409.791	875.19
410.014	877.19
410.238	875.19
410.461	915.19
410.685	912.19
410.908	887.19
411.132	942.19
411.355	928.19
411.578	933.19
411.802	933.19
412.025	956.19
412.249	985.19
412.472	964.19
412.695	942.19
412.919	949.19
413.142	943.19
413.365	1030.19
413.589	1021.19
413.812	941.19
414.035	909.19
414.258	913.19
414.482	1009.19
414.705	1036.19
414.928	884.19
415.151	872.19
415.374	877.19
415.597	889.19
415.821	923.19
416.044	880.19
416.267	861.19
416.49	873.19
416.713	869.19
416.936	850.19
417.159	856.19
417.382	886.19
417.605	887.19
417.828	883.19
418.051	913.19
418.274	923.19
418.497	904.19
418.72	900.19
418.943	930.19
419.166	958.19
419.389	999.19
419.611	997.19
419.834	1018.19
420.057	1054.19
420.28	1088.19
420.503	949.19
420.726	886.19
420.948	857.19
421.171	893.19
421.394	866.19
421.617	830.19
421.839	884.19
422.062	926.19
422.285	920.19
422.507	910.19
422.73	927.19
422.953	934.19
423.175	929.19
423.398	924.19
423.621	963.19
423.843	1025.19
424.066	950.19
424.288	926.19
424.511	918.19
424.733	888.19
424.956	947.19
425.178	1044.19
425.401	1135.19
425.623	1345.19
425.846	1089.19
426.068	971.19
426.291	1073.19
426.513	1019.19
426.735	922.19
426.958	994.19
427.18	1132.19
427.402	1416.19
427.625	1388.19
427.847	1158.19
428.069	887.19
428.292	899.19
428.514	886.19
428.736	850.19
428.958	963.19
429.181	1070.19
429.403	953.19
429.625	870.19
429.847	845.19
430.069	873.19
430.292	886.19
430.514	888.19
430.736	915.19
430.958	1133.19
431.18	1043.19
431.402	865.19
431.624	801.19
431.846	794.19
432.068	809.19
432.29	798.19
432.512	909.19
432.734	1139.19
432.956	1046.19
433.178	848.19
433.4	827.19
433.622	845.19
433.844	872.19
434.066	927.19
434.287	903.19
434.509	867.19
434.731	915.19
434.953	852.19
435.175	915.19
435.397	1011.19
435.618	876.19
435.84	827.19
436.062	851.19
436.284	813.19
436.505	789.19
436.727	788.19
436.949	796.19
437.17	823.19
437.392	823.19
437.614	814.19
437.835	801.19
438.057	817.19
438.278	967.19
438.5	1326.19
438.721	1307.19
438.943	928.19
439.165	807.19
439.386	777.19
439.608	763.19
439.829	771.19
440.05	778.19
440.272	824.19
440.493	961.19
440.715	1180.19
440.936	959.19
441.158	864.19
441.379	893.19
441.6	962.19
441.822	987.19
442.043	880.19
442.264	851.19
442.486	881.19
442.707	859.19
442.928	823.19
443.149	861.19
443.371	905.19
443.592	951.19
443.813	910.19
444.034	887.19
444.255	895.19
444.476	919.19
444.698	935.19
444.919	946.19
445.14	993.19
445.361	1010.19
445.582	961.19
445.803	943.19
446.024	935.19
446.245	920.19
446.466	902.19
446.687	888.19
446.908	854.19
447.129	813.19
447.35	820.19
447.571	789.19
447.792	791.19
448.013	786.19
448.234	747.19
448.455	783.19
448.675	817.19
448.896	792.19
449.117	792.19
449.338	820.19
449.559	799.19
449.779	876.19
450	842.19
450.221	829.19
450.442	823.19
450.662	793.19
450.883	796.19
451.104	805.19
451.324	781.19
451.545	798.19
451.766	794.19
451.986	786.19
452.207	785.19
452.428	755.19
452.648	765.19
452.869	813.19
453.089	840.19
453.31	831.19
453.53	734.19
453.751	751.19
453.971	773.19
454.192	772.19
454.412	793.19
454.633	744.19
454.853	724.19
455.073	747.19
455.294	735.19
455.514	732.19
455.734	778.19
455.955	806.19
456.175	823.19
456.395	743.19
456.616	718.19
456.836	702.19
457.056	699.19
457.276	698.19
457.497	702.19
457.717	700.19
457.937	690.19
458.157	718.19
458.377	722.19
458.598	748.19
458.818	724.19
459.038	793.19
459.258	792.19
459.478	856.19
459.698	901.19
459.918	905.19
460.138	867.19
460.358	882.19
460.578	877.19
460.798	889.19
461.018	875.19
461.238	862.19
461.458	867.19
461.678	894.19
461.898	899.19
462.118	941.19
462.338	904.19
462.558	916.19
462.777	976.19
462.997	1025.19
463.217	991.19
463.437	1030.19
463.657	1019.19
463.876	972.19
464.096	968.19
464.316	972.19
464.536	958.19
464.755	1003.19
464.975	992.19
465.195	960.19
465.414	954.19
465.634	948.19
465.854	928.19
466.073	865.19
466.293	872.19
466.512	939.19
466.732	979.19
466.951	1034.19
467.171	913.19
467.391	865.19
467.61	864.19
467.829	905.19
468.049	969.19
468.268	878.19
468.488	868.19
468.707	897.19
468.927	1045.19
469.146	1161.19
469.365	1049.19
469.585	969.19
469.804	995.19
470.023	1085.19
470.243	967.19
470.462	928.19
470.681	895.19
470.901	920.19
471.12	951.19
471.339	990.19
471.558	909.19
471.777	935.19
471.997	987.19
472.216	1103.19
472.435	1076.19
472.654	990.19
472.873	944.19
473.092	1006.19
473.311	1055.19
473.53	949.19
473.749	920.19
473.968	961.19
474.187	961.19
474.406	920.19
474.625	928.19
474.844	944.19
475.063	1050.19
475.282	1007.19
475.501	1062.19
475.72	1103.19
475.939	1090.19
476.158	1086.19
476.377	1217.19
476.596	1405.19
476.814	1424.19
477.033	1250.19
477.252	1060.19
477.471	1002.19
477.69	1013.19
477.908	1089.19
478.127	1117.19
478.346	1033.19
478.564	1128.19
478.783	1082.19
479.002	1107.19
479.22	1287.19
479.439	1403.19
479.658	1229.19
479.876	1093.19
480.095	1185.19
480.313	1207.19
480.532	1135.19
480.751	1060.19
480.969	1112.19
481.188	1270.19
481.406	1268.19
481.624	1242.19
481.843	1128.19
482.061	1090.19
482.28	1172.19
482.498	1414.19
482.717	1355.19
482.935	1184.19
483.153	1115.19
483.372	1044.19
483.59	1058.19
483.808	1039.19
484.027	1027.19
484.245	966.19
484.463	990.19
484.681	1028.19
484.9	1096.19
485.118	1189.19
485.336	1079.19
485.554	1045.19
485.772	1064.19
485.99	1145.19
486.209	1229.19
486.427	1177.19
486.645	1165.19
486.863	1253.19
487.081	1211.19
487.299	1341.19
487.517	1305.19
487.735	1185.19
487.953	1208.19
488.171	1227.19
488.389	1158.19
488.607	1111.19
488.825	1147.19
489.043	1261.19
489.261	1417.19
489.479	1479.19
489.696	1269.19
489.914	1176.19
490.132	1106.19
490.35	1123.19
490.568	1151.19
490.786	1127.19
491.003	1108.19
491.221	1139.19
491.439	1136.19
491.657	1137.19
491.874	1215.19
492.092	1404.19
492.31	1701.19
492.527	1711.19
492.745	1485.19
492.963	1307.19
493.18	1254.19
493.398	1254.19
493.615	1290.19
493.833	1261.19
494.05	1207.19
494.268	1229.19
494.485	1231.19
494.703	1164.19
494.92	1245.19
495.138	1201.19
495.355	1222.19
495.573	1217.19
495.79	1329.19
496.008	1716.19
496.225	1523.19
496.442	1324.19
496.66	1370.19
496.877	1435.19
497.094	1369.19
497.312	1291.19
497.529	1321.19
497.746	1282.19
497.963	1350.19
498.181	1453.19
498.398	1541.19
498.615	1616.19
498.832	1653.19
499.049	1661.19
499.267	1541.19
499.484	1574.19
499.701	1610.19
499.918	1712.19
500.135	1862.19
500.352	1910.19
500.569	1971.19
500.786	2008.19
501.003	1989.19
501.22	1799.19
501.437	1707.19
501.654	1627.19
501.871	1613.19
502.088	1616.19
502.305	1511.19
502.522	1495.19
502.739	1475.19
502.956	1388.19
503.172	1336.19
503.389	1309.19
503.606	1272.19
503.823	1286.19
504.04	1320.19
504.256	1334.19
504.473	1327.19
504.69	1353.19
504.907	1388.19
505.123	1352.19
505.34	1374.19
505.557	1416.19
505.773	1286.19
505.99	1288.19
506.207	1338.19
506.423	1245.19
506.64	1169.19
506.856	1259.19
507.073	1352.19
507.289	1295.19
507.506	1333.19
507.722	1389.19
507.939	1409.19
508.155	1439.19
508.372	1301.19
508.588	1254.19
508.805	1199.19
509.021	1179.19
509.238	1175.19
509.454	1141.19
509.67	1195.19
509.887	1152.19
510.103	1310.19
510.319	1288.19
510.536	1164.19
510.752	1063.19
510.968	1060.19
511.184	1036.19
511.401	1031.19
511.617	1069.19
511.833	1039.19
512.049	1084.19
512.265	1104.19
512.481	1129.19
512.698	1239.19
512.914	1357.19
513.13	1252.19
513.346	1147.19
513.562	1149.19
513.778	1172.19
513.994	1160.19
514.21	1195.19
514.426	1214.19
514.642	1108.19
514.858	1121.19
515.074	1165.19
515.29	1268.19
515.506	1419.19
515.721	1339.19
515.937	1241.19
516.153	1167.19
516.369	1164.19
516.585	1189.19
516.801	1325.19
517.016	1507.19
517.232	1477.19
517.448	1529.19
517.664	1384.19
517.879	1288.19
518.095	1255.19
518.311	1273.19
518.527	1309.19
518.742	1365.19
518.958	1428.19
519.173	1363.19
519.389	1333.19
519.605	1356.19
519.82	1477.19
520.036	1702.19
520.251	1650.19
520.467	1541.19
520.682	2260.19
520.898	2668.19
521.113	2505.19
521.329	1701.19
521.544	1520.19
521.76	1500.19
521.975	1308.19
522.19	1286.19
522.406	1266.19
522.621	1395.19
522.836	1478.19
523.052	1490.19
523.267	1243.19
523.482	1288.19
523.698	1360.19
523.913	1331.19
524.128	1212.19
524.343	1160.19
524.559	1185.19
524.774	1110.19
524.989	1150.19
525.204	1189.19
525.419	1293.19
525.634	1223.19
525.849	1240.19
526.064	1225.19
526.28	1250.19
526.495	1478.19
526.71	1463.19
526.925	1305.19
527.14	1333.19
527.355	1349.19
527.57	1104.19
527.785	1179.19
527.999	1115.19
528.214	1079.19
528.429	1055.19
528.644	1057.19
528.859	1021.19
529.074	998.19
529.289	969.19
529.503	997.19
529.718	1017.19
529.933	1123.19
530.148	1114.19
530.363	1017.19
530.577	1014.19
530.792	958.19
531.007	1016.19
531.221	975.19
531.436	969.19
531.651	995.19
531.865	985.19
532.08	1018.19
532.295	979.19
532.509	1019.19
532.724	1147.19
532.938	1280.19
533.153	1411.19
533.367	1185.19
533.582	1177.19
533.796	1077.19
534.011	1023.19
534.225	1022.19
534.44	1065.19
534.654	1074.19
534.868	1222.19
535.083	1081.19
535.297	989.19
535.511	1023.19
535.726	1123.19
535.94	1043.19
536.154	1026.19
536.369	962.19
536.583	972.19
536.797	1014.19
537.011	1019.19
537.225	1083.19
537.44	1129.19
537.654	1030.19
537.868	980.19
538.082	987.19
538.296	980.19
538.51	1064.19
538.724	1099.19
538.938	1054.19
539.153	976.19
539.367	968.19
539.581	1013.19
539.795	1043.19
540.009	1119.19
540.222	1051.19
540.436	1034.19
540.65	1129.19
540.864	1128.19
541.078	1139.19
541.292	1267.19
541.506	1080.19
541.72	1040.19
541.934	1029.19
542.147	1039.19
542.361	1042.19
542.575	1052.19
542.789	1011.19
543.002	945.19
543.216	1053.19
543.43	956.19
543.644	930.19
543.857	942.19
544.071	960.19
544.285	930.19
544.498	899.19
544.712	904.19
544.925	974.19
545.139	920.19
545.352	903.19
545.566	909.19
545.779	1016.19
545.993	942.19
546.206	902.19
546.42	900.19
546.633	907.19
546.847	845.19
547.06	851.19
547.274	828.19
547.487	863.19
547.7	946.19
547.914	991.19
548.127	1108.19
548.34	1072.19
548.554	955.19
548.767	995.19
548.98	1068.19
549.193	949.19
549.407	992.19
549.62	1195.19
549.833	1092.19
550.046	1137.19
550.259	1138.19
550.473	1047.19
550.686	955.19
550.899	990.19
551.112	971.19
551.325	1068.19
551.538	1090.19
551.751	946.19
551.964	885.19
552.177	887.19
552.39	859.19
552.603	893.19
552.816	925.19
553.029	889.19
553.242	857.19
553.455	919.19
553.667	1045.19
553.88	962.19
554.093	897.19
554.306	830.19
554.519	807.19
554.732	763.19
554.944	765.19
555.157	763.19
555.37	800.19
555.583	771.19
555.795	790.19
556.008	812.19
556.221	789.19
556.433	783.19
556.646	781.19
556.859	798.19
557.071	821.19
557.284	777.19
557.496	828.19
557.709	795.19
557.921	796.19
558.134	742.19
558.346	728.19
558.559	735.19
558.771	773.19
558.984	803.19
559.196	726.19
559.409	744.19
559.621	701.19
559.833	720.19
560.046	727.19
560.258	705.19
560.47	740.19
560.683	697.19
560.895	697.19
561.107	686.19
561.32	701.19
561.532	669.19
561.744	735.19
561.956	759.19
562.168	738.19
562.381	661.19
562.593	707.19
562.805	715.19
563.017	697.19
563.229	683.19
563.441	699.19
563.653	680.19
563.865	704.19
564.077	687.19
564.289	691.19
564.501	701.19
564.713	735.19
564.925	740.19
565.137	727.19
565.349	688.19
565.561	679.19
565.773	720.19
565.985	736.19
566.197	784.19
566.408	840.19
566.62	843.19
566.832	822.19
567.044	874.19
567.255	925.19
567.467	966.19
567.679	883.19
567.891	838.19
568.102	899.19
568.314	864.19
568.526	846.19
568.737	800.19
568.949	867.19
569.161	774.19
569.372	727.19
569.584	712.19
569.795	693.19
570.007	679.19
570.218	741.19
570.43	739.19
570.641	709.19
570.853	666.19
571.064	648.19
571.276	661.19
571.487	728.19
571.698	672.19
571.91	676.19
572.121	674.19
572.333	631.19
572.544	616.19
572.755	612.19
572.966	608.19
573.178	600.19
573.389	633.19
573.6	653.19
573.811	621.19
574.023	583.19
574.234	579.19
574.445	580.19
574.656	573.19
574.867	589.19
575.078	581.19
575.289	592.19
575.501	627.19
575.712	587.19
575.923	561.19
576.134	540.19
576.345	535.19
576.556	557.19
576.767	529.19
576.978	529.19
577.188	511.19
577.399	516.19
577.61	529.19
577.821	529.19
578.032	541.19
578.243	578.19
578.454	590.19
578.665	564.19
578.875	537.19
579.086	538.19
579.297	568.19
579.508	550.19
579.718	557.19
579.929	556.19
580.14	551.19
580.35	516.19
580.561	489.19
580.772	479.19
580.982	481.19
581.193	457.19
581.403	472.19
581.614	458.19
581.825	450.19
582.035	473.19
582.246	466.19
582.456	444.19
582.667	476.19
582.877	461.19
583.087	471.19
583.298	480.19
583.508	474.19
583.719	470.19
583.929	452.19
584.139	464.19
584.35	464.19
584.56	469.19
584.77	471.19
584.981	467.19
585.191	475.19
585.401	466.19
585.611	481.19
585.821	488.19
586.032	502.19
586.242	477.19
586.452	483.19
586.662	471.19
586.872	512.19
587.082	491.19
587.292	472.19
587.502	464.19
587.713	470.19
587.923	468.19
588.133	498.19
588.343	476.19
588.553	452.19
588.762	466.19
588.972	465.19
589.182	449.19
589.392	452.19
589.602	468.19
589.812	472.19
590.022	521.19
590.232	500.19
590.441	468.19
590.651	446.19
590.861	442.19
591.071	465.19
591.281	465.19
591.49	463.19
591.7	441.19
591.91	449.19
592.119	444.19
592.329	464.19
592.539	453.19
592.748	471.19
592.958	447.19
593.167	472.19
593.377	485.19
593.587	508.19
593.796	478.19
594.006	450.19
594.215	467.19
594.424	497.19
594.634	513.19
594.843	511.19
595.053	446.19
595.262	454.19
595.472	443.19
595.681	430.19
595.89	424.19
596.1	447.19
596.309	440.19
596.518	430.19
596.727	432.19
596.937	424.19
597.146	444.19
597.355	480.19
597.564	437.19
597.774	392.19
597.983	387.19
598.192	407.19
598.401	381.19
598.61	404.19
598.819	387.19
599.028	388.19
599.237	370.19
599.446	386.19
599.655	378.19
599.864	369.19
600.073	379.19
600.282	380.19
600.491	390.19
600.7	377.19
600.909	387.19
601.118	392.19
601.327	362.19
601.536	368.19
601.745	388.19
601.953	407.19
602.162	401.19
602.371	415.19
602.58	398.19
602.789	375.19
602.997	365.19
603.206	365.19
603.415	358.19
603.623	349.19
603.832	357.19
604.041	375.19
604.249	369.19
604.458	375.19
604.666	344.19
604.875	363.19
605.084	358.19
605.292	363.19
605.501	375.19
605.709	372.19
605.918	373.19
606.126	346.19
606.334	348.19
606.543	350.19
606.751	358.19
606.96	356.19
607.168	348.19
607.376	338.19
607.585	352.19
607.793	341.19
608.001	354.19
608.21	343.19
608.418	370.19
608.626	360.19
608.834	336.19
609.043	351.19
609.251	341.19
609.459	321.19
609.667	351.19
609.875	347.19
610.083	332.19
610.291	332.19
610.499	356.19
610.707	344.19
610.916	318.19
611.124	321.19
611.332	328.19
611.54	347.19
611.748	343.19
611.955	336.19
612.163	352.19
612.371	324.19
612.579	309.19
612.787	324.19
612.995	313.19
613.203	322.19
613.411	316.19
613.618	325.19
613.826	340.19
614.034	336.19
614.242	336.19
614.449	311.19
614.657	318.19
614.865	322.19
615.072	317.19
615.28	352.19
615.488	330.19
615.695	334.19
615.903	311.19
616.111	325.19
616.318	342.19
616.526	346.19
616.733	347.19
616.941	321.19
617.148	337.19
617.356	326.19
617.563	317.19
617.771	320.19
617.978	326.19
618.185	309.19
618.393	302.19
618.6	309.19
618.807	306.19
619.015	323.19
619.222	317.19
619.429	308.19
619.637	321.19
619.844	308.19
620.051	267.19
620.258	294.19
620.466	308.19
620.673	294.19
620.88	282.19
621.087	289.19
621.294	289.19
621.501	291.19
621.708	290.19
621.915	297.19
622.122	317.19
622.329	278.19
622.536	293.19
622.743	292.19
622.95	285.19
623.157	302.19
623.364	312.19
623.571	278.19
623.778	305.19
623.985	303.19
624.192	309.19
624.399	291.19
624.606	301.19
624.812	300.19
625.019	294.19
625.226	301.19
625.433	314.19
625.639	278.19
625.846	282.19
626.053	275.19
626.259	269.19
626.466	295.19
626.673	290.19
626.879	274.19
627.086	286.19
627.293	286.19
627.499	275.19
627.706	276.19
627.912	273.19
628.119	273.19
628.325	294.19
628.532	282.19
628.738	256.19
628.945	284.19
629.151	257.19
629.357	264.19
629.564	273.19
629.77	276.19
629.976	229.19
630.183	252.19
630.389	260.19
630.595	260.19
630.802	258.19
631.008	239.19
631.214	254.19
631.42	237.19
631.627	256.19
631.833	247.19
632.039	240.19
632.245	241.19
632.451	245.19
632.657	229.19
632.863	236.19
633.069	238.19
633.275	216.19
633.481	255.19
633.688	236.19
633.893	244.19
634.099	236.19
634.305	241.19
634.511	238.19
634.717	217.19
634.923	223.19
635.129	232.19
635.335	223.19
635.541	234.19
635.747	230.19
635.952	241.19
636.158	243.19
636.364	227.19
636.57	237.19
636.775	230.19
636.981	256.19
637.187	241.19
637.392	239.19
637.598	241.19
637.804	227.19
638.009	231.19
638.215	229.19
638.421	215.19
638.626	223.19
638.832	244.19
639.037	214.19
639.243	216.19
639.448	227.19
639.654	240.19
639.859	231.19
640.065	217.19
640.27	241.19
640.475	231.19
640.681	228.19
640.886	220.19
641.091	220.19
641.297	215.19
641.502	203.19
641.707	232.19
641.913	200.19
642.118	228.19
642.323	240.19
642.528	207.19
642.733	209.19
642.939	225.19
643.144	221.19
643.349	222.19
643.554	209.19
643.759	243.19
643.964	203.19
644.169	195.19
644.374	194.19
644.579	200.19
644.784	204.19
644.989	223.19
645.194	213.19
645.399	213.19
645.604	191.19
645.809	208.19
646.014	200.19
646.219	202.19
646.423	214.19
646.628	208.19
646.833	212.19
647.038	206.19
647.243	216.19
647.447	216.19
647.652	209.19
647.857	213.19
648.062	227.19
648.266	207.19
648.471	207.19
648.676	217.19
648.88	204.19
649.085	219.19
649.289	226.19
649.494	189.19
649.698	213.19
649.903	212.19
650.107	197.19
650.312	190.19
650.516	182.19
650.721	196.19
650.925	205.19
651.13	192.19
651.334	198.19
651.539	183.19
651.743	185.19
651.947	185.19
652.152	174.19
652.356	175.19
652.56	179.19
652.764	171.19
652.969	168.19
653.173	165.19
653.377	176.19
653.581	155.19
653.785	175.19
653.99	160.19
654.194	157.19
654.398	150.19
654.602	147.19
654.806	160.19
655.01	163.19
655.214	154.19
655.418	161.19
655.622	163.19
655.826	162.19
656.03	143.19
656.234	161.19
656.438	136.19
656.642	165.19
656.846	153.19
657.049	157.19
657.253	146.19
657.457	129.19
657.661	135.19
657.865	139.19
658.068	119.19
658.272	119.19
658.476	114.19
658.68	131.19
658.883	116.19
659.087	118.19
659.291	107.19
659.494	113.19
659.698	113.19
659.901	100.19
660.105	109.19
660.309	91.19
660.512	95.19
660.716	91.19
660.919	100.19
661.123	84.19
661.326	103.19
661.53	83.19
661.733	90.19
661.936	97.19
662.14	88.19
662.343	76.19
662.546	94.19
662.75	94.19
662.953	82.19
663.156	78.19
663.36	80.19
663.563	92.19
663.766	83.19
663.969	86.19
664.173	89.19
664.376	91.19
664.579	96.19
664.782	81.19
664.985	70.19
665.188	92.19
665.391	84.19
665.594	73.19
665.797	83.19
666	88.19
666.203	68.19
666.406	75.19
666.609	82.19
666.812	82.19
667.015	95.19
667.218	83.19
667.421	86.19
667.624	84.19
667.827	79.19
668.03	74.19
668.232	87.19
668.435	92.19
668.638	75.19
668.841	72.19
669.043	59.19
669.246	63.19
669.449	85.19
669.651	69.19
669.854	73.19
670.057	70.19
670.259	70.19
670.462	93.19
670.665	91.19
670.867	77.19
671.07	91.19
671.272	94.19
671.475	80.19
671.677	68.19
671.88	90.19
672.082	75.19
672.284	81.19
672.487	79.19
672.689	64.19
672.892	77.19
