Data from NickelSpatula.Lamp.E10.P2_HRD10591_11-59-22-526.txt Node
Date: Tue Jul 23 11:59:22 EDT 2019
User: cochatt
Spectrometer: HR+D1059
Trigger mode: 1
Integration Time (sec): 1.000000E-1
Scans to average: 1
Electric dark correction enabled: true
Nonlinearity correction enabled: false
Boxcar width: 0
XAxis mode: Wavelengths
Number of Pixels in Spectrum: 2048
>>>>>Begin Spectral Data<<<<<
223.165	-8.06
223.4	-8.06
223.635	-8.06
223.869	-23.06
224.104	-18.06
224.338	-17.06
224.573	-19.06
224.808	-18.06
225.042	-4.06
225.277	-6.06
225.511	-1.06
225.746	0.94
225.98	13.94
226.215	22.94
226.449	5.94
226.683	23.94
226.918	18.94
227.152	27.94
227.387	32.94
227.621	44.94
227.856	49.94
228.09	57.94
228.324	62.94
228.559	53.94
228.793	83.94
229.027	148.94
229.262	160.94
229.496	153.94
229.73	174.94
229.964	206.94
230.199	222.94
230.433	229.94
230.667	195.94
230.901	206.94
231.136	194.94
231.37	223.94
231.604	224.94
231.838	236.94
232.072	245.94
232.306	247.94
232.541	256.94
232.775	263.94
233.009	254.94
233.243	312.94
233.477	316.94
233.711	339.94
233.945	336.94
234.179	336.94
234.413	370.94
234.647	387.94
234.881	488.94
235.115	429.94
235.349	395.94
235.583	378.94
235.817	351.94
236.051	391.94
236.285	444.94
236.519	466.94
236.753	444.94
236.987	439.94
237.221	408.94
237.455	426.94
237.689	451.94
237.922	467.94
238.156	488.94
238.39	571.94
238.624	664.94
238.858	612.94
239.091	533.94
239.325	532.94
239.559	505.94
239.793	573.94
240.027	659.94
240.26	643.94
240.494	624.94
240.728	620.94
240.961	708.94
241.195	657.94
241.429	668.94
241.662	645.94
241.896	529.94
242.13	486.94
242.363	466.94
242.597	502.94
242.83	541.94
243.064	563.94
243.298	606.94
243.531	649.94
243.765	647.94
243.998	631.94
244.232	646.94
244.465	617.94
244.699	590.94
244.932	669.94
245.166	653.94
245.399	572.94
245.633	553.94
245.866	594.94
246.099	645.94
246.333	738.94
246.566	827.94
246.8	785.94
247.033	758.94
247.266	707.94
247.5	715.94
247.733	694.94
247.966	673.94
248.2	704.94
248.433	812.94
248.666	885.94
248.899	886.94
249.133	908.94
249.366	1035.94
249.599	1075.94
249.832	966.94
250.066	892.94
250.299	869.94
250.532	849.94
250.765	838.94
250.998	772.94
251.231	731.94
251.465	809.94
251.698	835.94
251.931	842.94
252.164	880.94
252.397	963.94
252.63	1062.94
252.863	1219.94
253.096	1227.94
253.329	1189.94
253.562	1151.94
253.795	1271.94
254.028	1399.94
254.261	1436.94
254.494	1306.94
254.727	1179.94
254.96	1160.94
255.193	1229.94
255.426	1167.94
255.659	868.94
255.892	807.94
256.124	891.94
256.357	1072.94
256.59	1235.94
256.823	1187.94
257.056	1012.94
257.289	969.94
257.521	978.94
257.754	1174.94
257.987	1327.94
258.22	1159.94
258.452	1030.94
258.685	1194.94
258.918	1327.94
259.151	1264.94
259.383	1335.94
259.616	1535.94
259.849	1577.94
260.081	1729.94
260.314	1954.94
260.547	1535.94
260.779	1539.94
261.012	1776.94
261.244	1665.94
261.477	1671.94
261.71	1572.94
261.942	1331.94
262.175	1331.94
262.407	1279.94
262.64	1319.94
262.872	1556.94
263.105	1707.94
263.337	1760.94
263.57	1574.94
263.802	1040.94
264.035	930.94
264.267	891.94
264.499	776.94
264.732	717.94
264.964	703.94
265.197	728.94
265.429	777.94
265.661	814.94
265.894	880.94
266.126	961.94
266.358	1072.94
266.591	1306.94
266.823	1541.94
267.055	1433.94
267.287	1262.94
267.52	1299.94
267.752	1357.94
267.984	1513.94
268.216	1373.94
268.448	1151.94
268.681	1135.94
268.913	1262.94
269.145	1342.94
269.377	1335.94
269.609	1309.94
269.841	1251.94
270.073	1353.94
270.306	1403.94
270.538	1419.94
270.77	1453.94
271.002	1485.94
271.234	1531.94
271.466	1560.94
271.698	1547.94
271.93	1478.94
272.162	1494.94
272.394	1490.94
272.626	1456.94
272.858	1523.94
273.09	1553.94
273.322	1349.94
273.553	1371.94
273.785	1577.94
274.017	2081.94
274.249	2506.94
274.481	2568.94
274.713	2871.94
274.945	3307.94
275.176	3389.94
275.408	2949.94
275.64	2740.94
275.872	2761.94
276.104	2321.94
276.335	2011.94
276.567	1989.94
276.799	2049.94
277.031	2127.94
277.262	1649.94
277.494	1287.94
277.726	1281.94
277.957	1367.94
278.189	1553.94
278.421	1540.94
278.652	1483.94
278.884	1415.94
279.115	1315.94
279.347	1229.94
279.579	1228.94
279.81	1259.94
280.042	1256.94
280.273	1295.94
280.505	1182.94
280.736	1058.94
280.968	1083.94
281.199	1127.94
281.431	1259.94
281.662	1295.94
281.894	1201.94
282.125	1281.94
282.356	1392.94
282.588	1431.94
282.819	1272.94
283.051	1407.94
283.282	1761.94
283.513	1995.94
283.745	2254.94
283.976	2254.94
284.207	2065.94
284.439	2125.94
284.67	2042.94
284.901	1841.94
285.132	1950.94
285.364	2088.94
285.595	1924.94
285.826	2065.94
286.057	2148.94
286.288	2031.94
286.52	2065.94
286.751	2175.94
286.982	2204.94
287.213	1847.94
287.444	1863.94
287.675	1905.94
287.906	1864.94
288.138	1579.94
288.369	1393.94
288.6	1308.94
288.831	1373.94
289.062	1573.94
289.293	1749.94
289.524	1637.94
289.755	1642.94
289.986	1669.94
290.217	1492.94
290.448	1165.94
290.679	995.94
290.91	942.94
291.141	952.94
291.371	987.94
291.602	988.94
291.833	1024.94
292.064	1071.94
292.295	1271.94
292.526	1456.94
292.757	1509.94
292.987	1600.94
293.218	1622.94
293.449	1655.94
293.68	1705.94
293.91	1621.94
294.141	1682.94
294.372	1564.94
294.603	1455.94
294.833	1634.94
295.064	1909.94
295.295	1738.94
295.525	1368.94
295.756	1199.94
295.987	1043.94
296.217	1045.94
296.448	1054.94
296.679	1131.94
296.909	1263.94
297.14	1341.94
297.37	1509.94
297.601	1426.94
297.831	1217.94
298.062	1325.94
298.292	1463.94
298.523	1656.94
298.753	1824.94
298.984	1661.94
299.214	1347.94
299.445	1099.94
299.675	1073.94
299.905	1032.94
300.136	1102.94
300.366	1232.94
300.597	1176.94
300.827	1047.94
301.057	1019.94
301.288	1071.94
301.518	1139.94
301.748	1285.94
301.979	1398.94
302.209	1509.94
302.439	1502.94
302.669	1293.94
302.9	1289.94
303.13	1177.94
303.36	1150.94
303.59	1096.94
303.82	1135.94
304.051	1286.94
304.281	1380.94
304.511	1340.94
304.741	1145.94
304.971	1200.94
305.201	1320.94
305.431	1236.94
305.661	1120.94
305.891	1080.94
306.121	1111.94
306.352	977.94
306.582	897.94
306.812	872.94
307.042	864.94
307.272	803.94
307.502	825.94
307.731	906.94
307.961	929.94
308.191	876.94
308.421	828.94
308.651	809.94
308.881	785.94
309.111	793.94
309.341	842.94
309.571	915.94
309.8	947.94
310.03	972.94
310.26	1007.94
310.49	988.94
310.72	888.94
310.949	874.94
311.179	893.94
311.409	921.94
311.639	1140.94
311.868	1443.94
312.098	1848.94
312.328	2004.94
312.557	1935.94
312.787	1928.94
313.017	1701.94
313.246	1928.94
313.476	2020.94
313.706	1694.94
313.935	1324.94
314.165	1085.94
314.394	982.94
314.624	998.94
314.853	1025.94
315.083	1095.94
315.312	1039.94
315.542	1054.94
315.771	982.94
316.001	876.94
316.23	884.94
316.46	868.94
316.689	833.94
316.919	887.94
317.148	927.94
317.377	909.94
317.607	897.94
317.836	991.94
318.065	1147.94
318.295	1304.94
318.524	1191.94
318.753	991.94
318.983	948.94
319.212	953.94
319.441	1024.94
319.67	1194.94
319.9	1243.94
320.129	1185.94
320.358	1000.94
320.587	984.94
320.816	1033.94
321.046	1210.94
321.275	1388.94
321.504	1405.94
321.733	1322.94
321.962	1256.94
322.191	1219.94
322.42	1160.94
322.649	1189.94
322.878	1264.94
323.108	1245.94
323.337	1136.94
323.566	1143.94
323.795	1094.94
324.024	1071.94
324.253	1009.94
324.482	1019.94
324.71	1113.94
324.939	1235.94
325.168	1134.94
325.397	975.94
325.626	931.94
325.855	932.94
326.084	941.94
326.313	901.94
326.542	857.94
326.77	892.94
326.999	937.94
327.228	948.94
327.457	993.94
327.686	1024.94
327.914	907.94
328.143	839.94
328.372	847.94
328.6	839.94
328.829	903.94
329.058	901.94
329.287	909.94
329.515	910.94
329.744	888.94
329.972	849.94
330.201	798.94
330.43	864.94
330.658	978.94
330.887	1140.94
331.115	1070.94
331.344	1003.94
331.572	988.94
331.801	929.94
332.03	861.94
332.258	902.94
332.486	989.94
332.715	994.94
332.943	889.94
333.172	900.94
333.4	953.94
333.629	1056.94
333.857	1135.94
334.085	1145.94
334.314	1111.94
334.542	1091.94
334.771	1001.94
334.999	965.94
335.227	932.94
335.455	960.94
335.684	1028.94
335.912	1264.94
336.14	1371.94
336.369	1297.94
336.597	1257.94
336.825	1401.94
337.053	1581.94
337.281	1285.94
337.51	1019.94
337.738	1004.94
337.966	1089.94
338.194	1220.94
338.422	1150.94
338.65	969.94
338.878	901.94
339.106	884.94
339.334	1056.94
339.562	1118.94
339.79	1011.94
340.018	988.94
340.246	1087.94
340.474	1210.94
340.702	1319.94
340.93	1372.94
341.158	1351.94
341.386	1179.94
341.614	1133.94
341.842	1145.94
342.07	1169.94
342.298	1374.94
342.526	1439.94
342.754	1267.94
342.981	1161.94
343.209	1105.94
343.437	1188.94
343.665	1239.94
343.893	1186.94
344.12	1423.94
344.348	1665.94
344.576	1478.94
344.804	1268.94
345.031	1049.94
345.259	965.94
345.487	983.94
345.714	1048.94
345.942	1136.94
346.17	1217.94
346.397	1161.94
346.625	1062.94
346.853	1021.94
347.08	963.94
347.308	1076.94
347.535	1139.94
347.763	1167.94
347.99	1033.94
348.218	945.94
348.445	980.94
348.673	983.94
348.9	997.94
349.128	1108.94
349.355	1124.94
349.583	1088.94
349.81	1019.94
350.037	954.94
350.265	873.94
350.492	809.94
350.72	824.94
350.947	863.94
351.174	911.94
351.402	998.94
351.629	1006.94
351.856	992.94
352.083	905.94
352.311	1004.94
352.538	1124.94
352.765	1201.94
352.992	1081.94
353.22	993.94
353.447	1049.94
353.674	997.94
353.901	1007.94
354.128	1012.94
354.355	1033.94
354.583	1039.94
354.81	1008.94
355.037	1053.94
355.264	1027.94
355.491	1143.94
355.718	1213.94
355.945	1201.94
356.172	1147.94
356.399	1136.94
356.626	1387.94
356.853	1677.94
357.08	1789.94
357.307	1828.94
357.534	1420.94
357.761	1480.94
357.988	1859.94
358.215	2221.94
358.441	2024.94
358.668	1724.94
358.895	1563.94
359.122	1282.94
359.349	1247.94
359.576	1387.94
359.802	1140.94
360.029	956.94
360.256	1081.94
360.483	1349.94
360.709	1678.94
360.936	1703.94
361.163	1515.94
361.39	1180.94
361.616	1094.94
361.843	1288.94
362.07	1601.94
362.296	1418.94
362.523	1109.94
362.749	978.94
362.976	1028.94
363.203	1286.94
363.429	1420.94
363.656	1112.94
363.882	1050.94
364.109	1048.94
364.335	1051.94
364.562	996.94
364.788	1183.94
365.015	1376.94
365.241	1233.94
365.468	980.94
365.694	846.94
365.92	838.94
366.147	806.94
366.373	793.94
366.599	811.94
366.826	840.94
367.052	831.94
367.278	878.94
367.505	865.94
367.731	919.94
367.957	1071.94
368.184	1093.94
368.41	1048.94
368.636	1041.94
368.862	1089.94
369.089	1045.94
369.315	947.94
369.541	935.94
369.767	906.94
369.993	873.94
370.219	877.94
370.445	964.94
370.672	1066.94
370.898	1142.94
371.124	1143.94
371.35	959.94
371.576	902.94
371.802	1006.94
372.028	1228.94
372.254	1406.94
372.48	1171.94
372.706	1064.94
372.932	1147.94
373.158	1193.94
373.384	1448.94
373.61	1925.94
373.835	1977.94
374.061	1441.94
374.287	1225.94
374.513	1475.94
374.739	1737.94
374.965	1819.94
375.191	1725.94
375.416	1203.94
375.642	1047.94
375.868	1241.94
376.094	1398.94
376.319	1223.94
376.545	1335.94
376.771	1410.94
376.997	1198.94
377.222	890.94
377.448	796.94
377.674	774.94
377.899	779.94
378.125	757.94
378.35	780.94
378.576	808.94
378.802	866.94
379.027	949.94
379.253	942.94
379.478	972.94
379.704	1111.94
379.929	1153.94
380.155	1155.94
380.38	977.94
380.606	1039.94
380.831	1127.94
381.057	1033.94
381.282	1033.94
381.507	1237.94
381.733	1543.94
381.958	1631.94
382.184	1713.94
382.409	1774.94
382.634	1772.94
382.86	1864.94
383.085	1492.94
383.31	1179.94
383.535	1251.94
383.761	1295.94
383.986	1207.94
384.211	1501.94
384.436	1467.94
384.662	1094.94
384.887	1051.94
385.112	1084.94
385.337	1063.94
385.562	1044.94
385.787	1147.94
386.013	1285.94
386.238	1320.94
386.463	1074.94
386.688	1032.94
386.913	991.94
387.138	943.94
387.363	1017.94
387.588	1021.94
387.813	1010.94
388.038	1162.94
388.263	1047.94
388.488	1023.94
388.713	1205.94
388.938	1259.94
389.163	1087.94
389.387	956.94
389.612	942.94
389.837	965.94
390.062	986.94
390.287	1024.94
390.512	1072.94
390.736	966.94
390.961	929.94
391.186	882.94
391.411	827.94
391.636	871.94
391.86	969.94
392.085	1050.94
392.31	1042.94
392.534	1008.94
392.759	962.94
392.984	1029.94
393.208	996.94
393.433	880.94
393.658	807.94
393.882	817.94
394.107	796.94
394.331	833.94
394.556	813.94
394.78	851.94
395.005	888.94
395.229	886.94
395.454	885.94
395.678	932.94
395.903	948.94
396.127	914.94
396.352	914.94
396.576	1013.94
396.801	1043.94
397.025	1140.94
397.249	1181.94
397.474	973.94
397.698	951.94
397.922	1007.94
398.147	940.94
398.371	925.94
398.595	1009.94
398.82	977.94
399.044	981.94
399.268	1037.94
399.492	1067.94
399.717	1090.94
399.941	1138.94
400.165	1093.94
400.389	1072.94
400.613	1063.94
400.837	1039.94
401.062	951.94
401.286	914.94
401.51	943.94
401.734	932.94
401.958	943.94
402.182	919.94
402.406	924.94
402.63	947.94
402.854	984.94
403.078	1111.94
403.302	1384.94
403.526	1388.94
403.75	1243.94
403.974	1096.94
404.198	1107.94
404.422	1266.94
404.645	1541.94
404.869	1620.94
405.093	1209.94
405.317	1024.94
405.541	1005.94
405.765	1029.94
405.988	1075.94
406.212	1133.94
406.436	1344.94
406.66	1483.94
406.883	1192.94
407.107	1215.94
407.331	1412.94
407.555	1321.94
407.778	1162.94
408.002	1088.94
408.226	1062.94
408.449	1057.94
408.673	1041.94
408.896	965.94
409.12	928.94
409.344	918.94
409.567	906.94
409.791	912.94
410.014	913.94
410.238	901.94
410.461	910.94
410.685	925.94
410.908	923.94
411.132	949.94
411.355	943.94
411.578	954.94
411.802	948.94
412.025	988.94
412.249	1040.94
412.472	979.94
412.695	994.94
412.919	994.94
413.142	962.94
413.365	1077.94
413.589	1067.94
413.812	988.94
414.035	937.94
414.258	936.94
414.482	1074.94
414.705	1109.94
414.928	919.94
415.151	876.94
415.374	889.94
415.597	933.94
415.821	934.94
416.044	939.94
416.267	867.94
416.49	906.94
416.713	880.94
416.936	881.94
417.159	896.94
417.382	896.94
417.605	908.94
417.828	961.94
418.051	923.94
418.274	960.94
418.497	969.94
418.72	935.94
418.943	1006.94
419.166	1046.94
419.389	1088.94
419.611	1026.94
419.834	1064.94
420.057	1178.94
420.28	1160.94
420.503	1061.94
420.726	936.94
420.948	897.94
421.171	920.94
421.394	877.94
421.617	888.94
421.839	930.94
422.062	916.94
422.285	951.94
422.507	952.94
422.73	987.94
422.953	1003.94
423.175	1003.94
423.398	986.94
423.621	1033.94
423.843	1071.94
424.066	1024.94
424.288	964.94
424.511	932.94
424.733	923.94
424.956	968.94
425.178	1129.94
425.401	1296.94
425.623	1459.94
425.846	1187.94
426.068	1064.94
426.291	1157.94
426.513	1053.94
426.735	977.94
426.958	1000.94
427.18	1213.94
427.402	1621.94
427.625	1560.94
427.847	1231.94
428.069	921.94
428.292	960.94
428.514	943.94
428.736	911.94
428.958	961.94
429.181	1192.94
429.403	988.94
429.625	925.94
429.847	923.94
430.069	921.94
430.292	943.94
430.514	887.94
430.736	969.94
430.958	1259.94
431.18	1149.94
431.402	852.94
431.624	853.94
431.846	836.94
432.068	803.94
432.29	839.94
432.512	930.94
432.734	1281.94
432.956	1163.94
433.178	906.94
433.4	878.94
433.622	872.94
433.844	917.94
434.066	973.94
434.287	939.94
434.509	936.94
434.731	947.94
434.953	873.94
435.175	917.94
435.397	1065.94
435.618	935.94
435.84	847.94
436.062	859.94
436.284	854.94
436.505	804.94
436.727	794.94
436.949	836.94
437.17	864.94
437.392	865.94
437.614	862.94
437.835	861.94
438.057	856.94
438.278	1008.94
438.5	1451.94
438.721	1480.94
438.943	972.94
439.165	871.94
439.386	785.94
439.608	801.94
439.829	806.94
440.05	812.94
440.272	877.94
440.493	1035.94
440.715	1294.94
440.936	1029.94
441.158	850.94
441.379	912.94
441.6	1005.94
441.822	1076.94
442.043	926.94
442.264	882.94
442.486	909.94
442.707	881.94
442.928	895.94
443.149	925.94
443.371	923.94
443.592	952.94
443.813	932.94
444.034	923.94
444.255	951.94
444.476	966.94
444.698	962.94
444.919	957.94
445.14	1131.94
445.361	1014.94
445.582	990.94
445.803	952.94
446.024	978.94
446.245	980.94
446.466	944.94
446.687	907.94
446.908	932.94
447.129	867.94
447.35	826.94
447.571	826.94
447.792	814.94
448.013	827.94
448.234	790.94
448.455	817.94
448.675	796.94
448.896	831.94
449.117	829.94
449.338	817.94
449.559	846.94
449.779	877.94
450	877.94
450.221	866.94
450.442	856.94
450.662	816.94
450.883	792.94
451.104	829.94
451.324	851.94
451.545	838.94
451.766	833.94
451.986	804.94
452.207	778.94
452.428	780.94
452.648	824.94
452.869	843.94
453.089	895.94
453.31	869.94
453.53	798.94
453.751	774.94
453.971	769.94
454.192	803.94
454.412	828.94
454.633	781.94
454.853	783.94
455.073	768.94
455.294	744.94
455.514	723.94
455.734	802.94
455.955	835.94
456.175	845.94
456.395	731.94
456.616	721.94
456.836	724.94
457.056	719.94
457.276	713.94
457.497	719.94
457.717	702.94
457.937	739.94
458.157	732.94
458.377	750.94
458.598	773.94
458.818	772.94
459.038	851.94
459.258	842.94
459.478	855.94
459.698	915.94
459.918	923.94
460.138	899.94
460.358	910.94
460.578	884.94
460.798	897.94
461.018	925.94
461.238	884.94
461.458	880.94
461.678	932.94
461.898	967.94
462.118	952.94
462.338	947.94
462.558	967.94
462.777	998.94
462.997	1026.94
463.217	1048.94
463.437	1039.94
463.657	1045.94
463.876	955.94
464.096	1008.94
464.316	974.94
464.536	984.94
464.755	1052.94
464.975	1071.94
465.195	991.94
465.414	1033.94
465.634	989.94
465.854	958.94
466.073	900.94
466.293	897.94
466.512	955.94
466.732	1031.94
466.951	1121.94
467.171	962.94
467.391	901.94
467.61	894.94
467.829	940.94
468.049	928.94
468.268	893.94
468.488	897.94
468.707	927.94
468.927	1073.94
469.146	1199.94
469.365	1062.94
469.585	962.94
469.804	1044.94
470.023	1136.94
470.243	971.94
470.462	933.94
470.681	945.94
470.901	975.94
471.12	1022.94
471.339	988.94
471.558	919.94
471.777	948.94
471.997	1039.94
472.216	1149.94
472.435	1077.94
472.654	1034.94
472.873	982.94
473.092	1029.94
473.311	1031.94
473.53	971.94
473.749	981.94
473.968	1033.94
474.187	1009.94
474.406	974.94
474.625	975.94
474.844	967.94
475.063	1062.94
475.282	1061.94
475.501	1101.94
475.72	1177.94
475.939	1134.94
476.158	1127.94
476.377	1287.94
476.596	1536.94
476.814	1551.94
477.033	1277.94
477.252	1108.94
477.471	1025.94
477.69	1063.94
477.908	1159.94
478.127	1161.94
478.346	1100.94
478.564	1200.94
478.783	1118.94
479.002	1135.94
479.22	1333.94
479.439	1452.94
479.658	1237.94
479.876	1160.94
480.095	1256.94
480.313	1293.94
480.532	1147.94
480.751	1107.94
480.969	1158.94
481.188	1299.94
481.406	1335.94
481.624	1246.94
481.843	1171.94
482.061	1085.94
482.28	1254.94
482.498	1522.94
482.717	1464.94
482.935	1230.94
483.153	1163.94
483.372	1115.94
483.59	1095.94
483.808	1096.94
484.027	1080.94
484.245	1024.94
484.463	997.94
484.681	1054.94
484.9	1152.94
485.118	1239.94
485.336	1163.94
485.554	1058.94
485.772	1113.94
485.99	1187.94
486.209	1279.94
486.427	1254.94
486.645	1242.94
486.863	1293.94
487.081	1201.94
487.299	1435.94
487.517	1397.94
487.735	1249.94
487.953	1263.94
488.171	1289.94
488.389	1187.94
488.607	1157.94
488.825	1208.94
489.043	1304.94
489.261	1483.94
489.479	1623.94
489.696	1322.94
489.914	1191.94
490.132	1120.94
490.35	1147.94
490.568	1155.94
490.786	1153.94
491.003	1157.94
491.221	1190.94
491.439	1173.94
491.657	1200.94
491.874	1252.94
492.092	1570.94
492.31	1874.94
492.527	1827.94
492.745	1600.94
492.963	1365.94
493.18	1335.94
493.398	1343.94
493.615	1316.94
493.833	1289.94
494.05	1265.94
494.268	1281.94
494.485	1268.94
494.703	1219.94
494.92	1290.94
495.138	1227.94
495.355	1222.94
495.573	1288.94
495.79	1468.94
496.008	1949.94
496.225	1671.94
496.442	1408.94
496.66	1407.94
496.877	1479.94
497.094	1419.94
497.312	1333.94
497.529	1351.94
497.746	1327.94
497.963	1429.94
498.181	1549.94
498.398	1661.94
498.615	1725.94
498.832	1732.94
499.049	1734.94
499.267	1585.94
499.484	1588.94
499.701	1646.94
499.918	1795.94
500.135	1890.94
500.352	1926.94
500.569	2018.94
500.786	2104.94
501.003	2076.94
501.22	1857.94
501.437	1768.94
501.654	1735.94
501.871	1679.94
502.088	1672.94
502.305	1543.94
502.522	1558.94
502.739	1505.94
502.956	1402.94
503.172	1417.94
503.389	1342.94
503.606	1304.94
503.823	1339.94
504.04	1323.94
504.256	1366.94
504.473	1371.94
504.69	1421.94
504.907	1451.94
505.123	1399.94
505.34	1472.94
505.557	1442.94
505.773	1375.94
505.99	1343.94
506.207	1402.94
506.423	1310.94
506.64	1195.94
506.856	1291.94
507.073	1423.94
507.289	1387.94
507.506	1367.94
507.722	1442.94
507.939	1485.94
508.155	1488.94
508.372	1340.94
508.588	1305.94
508.805	1275.94
509.021	1248.94
509.238	1223.94
509.454	1206.94
509.67	1217.94
509.887	1239.94
510.103	1375.94
510.319	1365.94
510.536	1227.94
510.752	1116.94
510.968	1069.94
511.184	1044.94
511.401	1053.94
511.617	1069.94
511.833	1087.94
512.049	1078.94
512.265	1133.94
512.481	1159.94
512.698	1294.94
512.914	1405.94
513.13	1241.94
513.346	1134.94
513.562	1203.94
513.778	1221.94
513.994	1189.94
514.21	1303.94
514.426	1264.94
514.642	1187.94
514.858	1169.94
515.074	1216.94
515.29	1309.94
515.506	1477.94
515.721	1355.94
515.937	1271.94
516.153	1202.94
516.369	1199.94
516.585	1250.94
516.801	1431.94
517.016	1657.94
517.232	1624.94
517.448	1589.94
517.664	1402.94
517.879	1335.94
518.095	1305.94
518.311	1296.94
518.527	1319.94
518.742	1397.94
518.958	1549.94
519.173	1422.94
519.389	1403.94
519.605	1472.94
519.82	1545.94
520.036	1790.94
520.251	1743.94
520.467	1657.94
520.682	2542.94
520.898	3087.94
521.113	2925.94
521.329	1840.94
521.544	1595.94
521.76	1553.94
521.975	1403.94
522.19	1333.94
522.406	1355.94
522.621	1530.94
522.836	1589.94
523.052	1628.94
523.267	1361.94
523.482	1377.94
523.698	1431.94
523.913	1380.94
524.128	1254.94
524.343	1224.94
524.559	1240.94
524.774	1164.94
524.989	1211.94
525.204	1233.94
525.419	1342.94
525.634	1252.94
525.849	1298.94
526.064	1297.94
526.28	1291.94
526.495	1572.94
526.71	1567.94
526.925	1419.94
527.14	1449.94
527.355	1459.94
527.57	1194.94
527.785	1245.94
527.999	1175.94
528.214	1117.94
528.429	1097.94
528.644	1104.94
528.859	1041.94
529.074	1068.94
529.289	1000.94
529.503	1000.94
529.718	1051.94
529.933	1225.94
530.148	1267.94
530.363	1072.94
530.577	1045.94
530.792	1026.94
531.007	1019.94
531.221	1003.94
531.436	1011.94
531.651	1016.94
531.865	1024.94
532.08	1041.94
532.295	1015.94
532.509	1079.94
532.724	1250.94
532.938	1382.94
533.153	1583.94
533.367	1277.94
533.582	1223.94
533.796	1117.94
534.011	1067.94
534.225	1080.94
534.44	1105.94
534.654	1151.94
534.868	1319.94
535.083	1157.94
535.297	1020.94
535.511	1047.94
535.726	1189.94
535.94	1079.94
536.154	1057.94
536.369	1015.94
536.583	1028.94
536.797	1057.94
537.011	1057.94
537.225	1159.94
537.44	1251.94
537.654	1060.94
537.868	1047.94
538.082	1060.94
538.296	1021.94
538.51	1108.94
538.724	1118.94
538.938	1105.94
539.153	999.94
539.367	982.94
539.581	1047.94
539.795	1100.94
540.009	1165.94
540.222	1087.94
540.436	1108.94
540.65	1212.94
540.864	1241.94
541.078	1251.94
541.292	1451.94
541.506	1143.94
541.72	1129.94
541.934	1079.94
542.147	1055.94
542.361	1041.94
542.575	1096.94
542.789	1064.94
543.002	982.94
543.216	1107.94
543.43	1012.94
543.644	966.94
543.857	959.94
544.071	970.94
544.285	968.94
544.498	945.94
544.712	941.94
544.925	1046.94
545.139	967.94
545.352	893.94
545.566	952.94
545.779	1074.94
545.993	993.94
546.206	884.94
546.42	920.94
546.633	894.94
546.847	870.94
547.06	897.94
547.274	877.94
547.487	895.94
547.7	979.94
547.914	1033.94
548.127	1131.94
548.34	1120.94
548.554	966.94
548.767	1033.94
548.98	1084.94
549.193	990.94
549.407	1044.94
549.62	1225.94
549.833	1125.94
550.046	1196.94
550.259	1167.94
550.473	1076.94
550.686	1003.94
550.899	1007.94
551.112	1005.94
551.325	1057.94
551.538	1096.94
551.751	966.94
551.964	915.94
552.177	913.94
552.39	893.94
552.603	898.94
552.816	940.94
553.029	877.94
553.242	880.94
553.455	967.94
553.667	1031.94
553.88	1008.94
554.093	895.94
554.306	861.94
554.519	820.94
554.732	825.94
554.944	797.94
555.157	787.94
555.37	774.94
555.583	771.94
555.795	799.94
556.008	816.94
556.221	846.94
556.433	834.94
556.646	805.94
556.859	811.94
557.071	829.94
557.284	846.94
557.496	864.94
557.709	886.94
557.921	821.94
558.134	775.94
558.346	716.94
558.559	725.94
558.771	812.94
558.984	845.94
559.196	805.94
559.409	740.94
559.621	713.94
559.833	721.94
560.046	740.94
560.258	748.94
560.47	772.94
560.683	742.94
560.895	667.94
561.107	692.94
561.32	672.94
561.532	697.94
561.744	793.94
561.956	823.94
562.168	725.94
562.381	721.94
562.593	754.94
562.805	753.94
563.017	718.94
563.229	687.94
563.441	677.94
563.653	678.94
563.865	699.94
564.077	693.94
564.289	691.94
564.501	693.94
564.713	770.94
564.925	763.94
565.137	723.94
565.349	696.94
565.561	711.94
565.773	739.94
565.985	765.94
566.197	802.94
566.408	883.94
566.62	877.94
566.832	869.94
567.044	871.94
567.255	923.94
567.467	1014.94
567.679	905.94
567.891	876.94
568.102	900.94
568.314	911.94
568.526	819.94
568.737	827.94
568.949	867.94
569.161	766.94
569.372	715.94
569.584	690.94
569.795	690.94
570.007	708.94
570.218	777.94
570.43	749.94
570.641	725.94
570.853	682.94
571.064	687.94
571.276	695.94
571.487	733.94
571.698	704.94
571.91	670.94
572.121	670.94
572.333	653.94
572.544	639.94
572.755	637.94
572.966	616.94
573.178	640.94
573.389	670.94
573.6	648.94
573.811	619.94
574.023	597.94
574.234	589.94
574.445	606.94
574.656	575.94
574.867	608.94
575.078	595.94
575.289	595.94
575.501	643.94
575.712	599.94
575.923	538.94
576.134	555.94
576.345	555.94
576.556	570.94
576.767	541.94
576.978	503.94
577.188	527.94
577.399	494.94
577.61	540.94
577.821	530.94
578.032	580.94
578.243	584.94
578.454	565.94
578.665	578.94
578.875	568.94
579.086	584.94
579.297	566.94
579.508	584.94
579.718	580.94
579.929	577.94
580.14	535.94
580.35	514.94
580.561	491.94
580.772	493.94
580.982	496.94
581.193	505.94
581.403	472.94
581.614	480.94
581.825	504.94
582.035	488.94
582.246	470.94
582.456	492.94
582.667	474.94
582.877	470.94
583.087	475.94
583.298	459.94
583.508	463.94
583.719	444.94
583.929	468.94
584.139	475.94
584.35	463.94
584.56	493.94
584.77	493.94
584.981	491.94
585.191	466.94
585.401	477.94
585.611	505.94
585.821	521.94
586.032	525.94
586.242	482.94
586.452	488.94
586.662	481.94
586.872	490.94
587.082	491.94
587.292	498.94
587.502	482.94
587.713	458.94
587.923	468.94
588.133	513.94
588.343	482.94
588.553	458.94
588.762	481.94
588.972	462.94
589.182	465.94
589.392	459.94
589.602	457.94
589.812	511.94
590.022	523.94
590.232	499.94
590.441	468.94
590.651	464.94
590.861	468.94
591.071	466.94
591.281	472.94
591.49	454.94
591.7	447.94
591.91	451.94
592.119	472.94
592.329	465.94
592.539	482.94
592.748	486.94
592.958	479.94
593.167	492.94
593.377	494.94
593.587	487.94
593.796	488.94
594.006	479.94
594.215	487.94
594.424	500.94
594.634	527.94
594.843	488.94
595.053	470.94
595.262	458.94
595.472	438.94
595.681	427.94
595.89	435.94
596.1	456.94
596.309	447.94
596.518	439.94
596.727	416.94
596.937	422.94
597.146	448.94
597.355	489.94
597.564	457.94
597.774	415.94
597.983	424.94
598.192	414.94
598.401	406.94
598.61	380.94
598.819	389.94
599.028	407.94
599.237	401.94
599.446	378.94
599.655	369.94
599.864	383.94
600.073	391.94
600.282	393.94
600.491	416.94
600.7	404.94
600.909	396.94
601.118	404.94
601.327	397.94
601.536	425.94
601.745	401.94
601.953	407.94
602.162	397.94
602.371	415.94
602.58	417.94
602.789	397.94
602.997	361.94
603.206	386.94
603.415	379.94
603.623	357.94
603.832	355.94
604.041	369.94
604.249	363.94
604.458	395.94
604.666	369.94
604.875	343.94
605.084	348.94
605.292	361.94
605.501	372.94
605.709	375.94
605.918	357.94
606.126	363.94
606.334	356.94
606.543	367.94
606.751	371.94
606.96	371.94
607.168	365.94
607.376	351.94
607.585	335.94
607.793	353.94
608.001	353.94
608.21	339.94
608.418	346.94
608.626	370.94
608.834	341.94
609.043	343.94
609.251	350.94
609.459	333.94
609.667	353.94
609.875	350.94
610.083	354.94
610.291	353.94
610.499	360.94
610.707	349.94
610.916	340.94
611.124	329.94
611.332	356.94
611.54	348.94
611.748	357.94
611.955	320.94
612.163	367.94
612.371	329.94
612.579	325.94
612.787	357.94
612.995	324.94
613.203	327.94
613.411	312.94
613.618	332.94
613.826	366.94
614.034	364.94
614.242	327.94
614.449	323.94
614.657	316.94
614.865	329.94
615.072	317.94
615.28	328.94
615.488	340.94
615.695	308.94
615.903	312.94
616.111	343.94
616.318	341.94
616.526	333.94
616.733	338.94
616.941	327.94
617.148	339.94
617.356	312.94
617.563	324.94
617.771	309.94
617.978	291.94
618.185	300.94
618.393	316.94
618.6	306.94
618.807	317.94
619.015	307.94
619.222	307.94
619.429	298.94
619.637	324.94
619.844	296.94
620.051	303.94
620.258	313.94
620.466	320.94
620.673	288.94
620.88	280.94
621.087	287.94
621.294	286.94
621.501	308.94
621.708	284.94
621.915	280.94
622.122	305.94
622.329	313.94
622.536	303.94
622.743	297.94
622.95	297.94
623.157	292.94
623.364	309.94
623.571	300.94
623.778	310.94
623.985	310.94
624.192	333.94
624.399	307.94
624.606	306.94
624.812	305.94
625.019	293.94
625.226	332.94
625.433	315.94
625.639	290.94
625.846	277.94
626.053	292.94
626.259	276.94
626.466	290.94
626.673	307.94
626.879	283.94
627.086	289.94
627.293	293.94
627.499	277.94
627.706	272.94
627.912	274.94
628.119	267.94
628.325	259.94
628.532	273.94
628.738	272.94
628.945	261.94
629.151	259.94
629.357	280.94
629.564	261.94
629.77	275.94
629.976	254.94
630.183	259.94
630.389	275.94
630.595	256.94
630.802	272.94
631.008	258.94
631.214	248.94
631.42	255.94
631.627	259.94
631.833	264.94
632.039	256.94
632.245	252.94
632.451	254.94
632.657	244.94
632.863	243.94
633.069	245.94
633.275	258.94
633.481	251.94
633.688	244.94
633.893	255.94
634.099	251.94
634.305	242.94
634.511	253.94
634.717	237.94
634.923	232.94
635.129	239.94
635.335	239.94
635.541	229.94
635.747	249.94
635.952	240.94
636.158	233.94
636.364	237.94
636.57	242.94
636.775	227.94
636.981	221.94
637.187	233.94
637.392	236.94
637.598	239.94
637.804	252.94
638.009	228.94
638.215	238.94
638.421	232.94
638.626	240.94
638.832	232.94
639.037	239.94
639.243	241.94
639.448	216.94
639.654	236.94
639.859	217.94
640.065	212.94
640.27	248.94
640.475	210.94
640.681	220.94
640.886	225.94
641.091	209.94
641.297	237.94
641.502	229.94
641.707	225.94
641.913	230.94
642.118	226.94
642.323	214.94
642.528	205.94
642.733	215.94
642.939	209.94
643.144	196.94
643.349	226.94
643.554	221.94
643.759	214.94
643.964	213.94
644.169	226.94
644.374	218.94
644.579	217.94
644.784	218.94
644.989	208.94
645.194	200.94
645.399	206.94
645.604	208.94
645.809	199.94
646.014	215.94
646.219	184.94
646.423	197.94
646.628	204.94
646.833	208.94
647.038	211.94
647.243	211.94
647.447	207.94
647.652	200.94
647.857	210.94
648.062	200.94
648.266	209.94
648.471	204.94
648.676	207.94
648.88	214.94
649.085	203.94
649.289	201.94
649.494	196.94
649.698	223.94
649.903	209.94
650.107	208.94
650.312	195.94
650.516	184.94
650.721	185.94
650.925	187.94
651.13	196.94
651.334	190.94
651.539	182.94
651.743	177.94
651.947	181.94
652.152	185.94
652.356	177.94
652.56	179.94
652.764	180.94
652.969	168.94
653.173	165.94
653.377	181.94
653.581	153.94
653.785	187.94
653.99	173.94
654.194	176.94
654.398	173.94
654.602	167.94
654.806	157.94
655.01	163.94
655.214	168.94
655.418	169.94
655.622	156.94
655.826	158.94
656.03	149.94
656.234	165.94
656.438	172.94
656.642	162.94
656.846	149.94
657.049	142.94
657.253	155.94
657.457	138.94
657.661	131.94
657.865	138.94
658.068	113.94
658.272	124.94
658.476	124.94
658.68	131.94
658.883	116.94
659.087	115.94
659.291	106.94
659.494	102.94
659.698	107.94
659.901	93.94
660.105	112.94
660.309	104.94
660.512	87.94
660.716	100.94
660.919	91.94
661.123	104.94
661.326	86.94
661.53	84.94
661.733	89.94
661.936	87.94
662.14	84.94
662.343	93.94
662.546	79.94
662.75	105.94
662.953	84.94
663.156	79.94
663.36	87.94
663.563	90.94
663.766	92.94
663.969	86.94
664.173	68.94
664.376	99.94
664.579	77.94
664.782	78.94
664.985	79.94
665.188	73.94
665.391	84.94
665.594	82.94
665.797	94.94
666	84.94
666.203	92.94
666.406	72.94
666.609	90.94
666.812	91.94
667.015	73.94
667.218	76.94
667.421	79.94
667.624	88.94
667.827	91.94
668.03	98.94
668.232	82.94
668.435	81.94
668.638	91.94
668.841	94.94
669.043	89.94
669.246	96.94
669.449	82.94
669.651	81.94
669.854	77.94
670.057	83.94
670.259	76.94
670.462	82.94
670.665	83.94
670.867	64.94
671.07	87.94
671.272	85.94
671.475	99.94
671.677	75.94
671.88	97.94
672.082	75.94
672.284	66.94
672.487	78.94
672.689	76.94
672.892	79.94
