Data from NickelSpatula.Lamp.E5.5.P2_HRD10591_11-53-29-548.txt Node
Date: Tue Jul 23 11:53:29 EDT 2019
User: cochatt
Spectrometer: HR+D1059
Trigger mode: 1
Integration Time (sec): 1.000000E-1
Scans to average: 1
Electric dark correction enabled: true
Nonlinearity correction enabled: false
Boxcar width: 0
XAxis mode: Wavelengths
Number of Pixels in Spectrum: 2048
>>>>>Begin Spectral Data<<<<<
223.165	-14.31
223.4	-14.31
223.635	-14.31
223.869	-27.31
224.104	-6.31
224.338	-12.31
224.573	-19.31
224.808	-12.31
225.042	-12.31
225.277	3.69
225.511	-6.31
225.746	3.69
225.98	4.69
226.215	3.69
226.449	7.69
226.683	23.69
226.918	31.69
227.152	31.69
227.387	37.69
227.621	35.69
227.856	41.69
228.09	37.69
228.324	49.69
228.559	45.69
228.793	60.69
229.027	74.69
229.262	78.69
229.496	74.69
229.73	80.69
229.964	72.69
230.199	76.69
230.433	80.69
230.667	86.69
230.901	103.69
231.136	101.69
231.37	92.69
231.604	92.69
231.838	103.69
232.072	107.69
232.306	107.69
232.541	113.69
232.775	99.69
233.009	100.69
233.243	114.69
233.477	117.69
233.711	125.69
233.945	114.69
234.179	127.69
234.413	116.69
234.647	123.69
234.881	142.69
235.115	138.69
235.349	131.69
235.583	109.69
235.817	129.69
236.051	134.69
236.285	131.69
236.519	140.69
236.753	115.69
236.987	131.69
237.221	135.69
237.455	129.69
237.689	131.69
237.922	132.69
238.156	140.69
238.39	158.69
238.624	171.69
238.858	163.69
239.091	133.69
239.325	136.69
239.559	150.69
239.793	151.69
240.027	164.69
240.26	161.69
240.494	175.69
240.728	159.69
240.961	188.69
241.195	152.69
241.429	170.69
241.662	177.69
241.896	150.69
242.13	132.69
242.363	130.69
242.597	141.69
242.83	143.69
243.064	159.69
243.298	159.69
243.531	155.69
243.765	155.69
243.998	158.69
244.232	159.69
244.465	162.69
244.699	163.69
244.932	172.69
245.166	181.69
245.399	157.69
245.633	145.69
245.866	149.69
246.099	174.69
246.333	179.69
246.566	189.69
246.8	187.69
247.033	181.69
247.266	180.69
247.5	174.69
247.733	179.69
247.966	183.69
248.2	176.69
248.433	193.69
248.666	187.69
248.899	194.69
249.133	189.69
249.366	233.69
249.599	248.69
249.832	214.69
250.066	209.69
250.299	200.69
250.532	211.69
250.765	203.69
250.998	183.69
251.231	184.69
251.465	191.69
251.698	203.69
251.931	189.69
252.164	199.69
252.397	228.69
252.63	235.69
252.863	266.69
253.096	276.69
253.329	255.69
253.562	232.69
253.795	284.69
254.028	315.69
254.261	310.69
254.494	263.69
254.727	249.69
254.96	237.69
255.193	248.69
255.426	275.69
255.659	209.69
255.892	190.69
256.124	211.69
256.357	227.69
256.59	290.69
256.823	263.69
257.056	232.69
257.289	211.69
257.521	220.69
257.754	267.69
257.987	313.69
258.22	256.69
258.452	233.69
258.685	267.69
258.918	278.69
259.151	277.69
259.383	301.69
259.616	357.69
259.849	343.69
260.081	330.69
260.314	402.69
260.547	323.69
260.779	342.69
261.012	363.69
261.244	343.69
261.477	347.69
261.71	313.69
261.942	281.69
262.175	301.69
262.407	278.69
262.64	287.69
262.872	330.69
263.105	352.69
263.337	376.69
263.57	328.69
263.802	244.69
264.035	226.69
264.267	219.69
264.499	199.69
264.732	189.69
264.964	184.69
265.197	171.69
265.429	180.69
265.661	208.69
265.894	214.69
266.126	218.69
266.358	229.69
266.591	300.69
266.823	339.69
267.055	304.69
267.287	252.69
267.52	272.69
267.752	292.69
267.984	336.69
268.216	298.69
268.448	259.69
268.681	255.69
268.913	276.69
269.145	281.69
269.377	305.69
269.609	301.69
269.841	270.69
270.073	301.69
270.306	313.69
270.538	320.69
270.77	313.69
271.002	324.69
271.234	330.69
271.466	329.69
271.698	296.69
271.93	307.69
272.162	288.69
272.394	294.69
272.626	285.69
272.858	299.69
273.09	323.69
273.322	280.69
273.553	263.69
273.785	315.69
274.017	383.69
274.249	467.69
274.481	463.69
274.713	511.69
274.945	627.69
275.176	642.69
275.408	582.69
275.64	534.69
275.872	519.69
276.104	450.69
276.335	393.69
276.567	378.69
276.799	402.69
277.031	406.69
277.262	335.69
277.494	291.69
277.726	263.69
277.957	278.69
278.189	321.69
278.421	311.69
278.652	292.69
278.884	296.69
279.115	291.69
279.347	264.69
279.579	274.69
279.81	271.69
280.042	294.69
280.273	289.69
280.505	246.69
280.736	242.69
280.968	238.69
281.199	254.69
281.431	280.69
281.662	292.69
281.894	273.69
282.125	267.69
282.356	293.69
282.588	303.69
282.819	266.69
283.051	275.69
283.282	345.69
283.513	396.69
283.745	433.69
283.976	444.69
284.207	398.69
284.439	423.69
284.67	413.69
284.901	379.69
285.132	386.69
285.364	409.69
285.595	382.69
285.826	391.69
286.057	409.69
286.288	388.69
286.52	422.69
286.751	432.69
286.982	441.69
287.213	389.69
287.444	383.69
287.675	375.69
287.906	377.69
288.138	323.69
288.369	309.69
288.6	286.69
288.831	311.69
289.062	331.69
289.293	387.69
289.524	347.69
289.755	336.69
289.986	349.69
290.217	316.69
290.448	252.69
290.679	228.69
290.91	206.69
291.141	214.69
291.371	228.69
291.602	224.69
291.833	232.69
292.064	221.69
292.295	271.69
292.526	295.69
292.757	311.69
292.987	333.69
293.218	339.69
293.449	349.69
293.68	384.69
293.91	374.69
294.141	381.69
294.372	363.69
294.603	324.69
294.833	344.69
295.064	397.69
295.295	399.69
295.525	300.69
295.756	255.69
295.987	239.69
296.217	231.69
296.448	214.69
296.679	224.69
296.909	262.69
297.14	268.69
297.37	306.69
297.601	301.69
297.831	256.69
298.062	280.69
298.292	302.69
298.523	301.69
298.753	363.69
298.984	334.69
299.214	269.69
299.445	249.69
299.675	212.69
299.905	238.69
300.136	238.69
300.366	272.69
300.597	231.69
300.827	232.69
301.057	219.69
301.288	254.69
301.518	244.69
301.748	273.69
301.979	291.69
302.209	292.69
302.439	304.69
302.669	274.69
302.9	287.69
303.13	280.69
303.36	257.69
303.59	255.69
303.82	246.69
304.051	281.69
304.281	283.69
304.511	289.69
304.741	268.69
304.971	265.69
305.201	311.69
305.431	288.69
305.661	243.69
305.891	254.69
306.121	226.69
306.352	223.69
306.582	203.69
306.812	198.69
307.042	216.69
307.272	180.69
307.502	174.69
307.731	222.69
307.961	202.69
308.191	196.69
308.421	196.69
308.651	210.69
308.881	184.69
309.111	195.69
309.341	207.69
309.571	218.69
309.8	219.69
310.03	199.69
310.26	214.69
310.49	209.69
310.72	189.69
310.949	199.69
311.179	207.69
311.409	209.69
311.639	224.69
311.868	286.69
312.098	362.69
312.328	393.69
312.557	387.69
312.787	394.69
313.017	346.69
313.246	393.69
313.476	418.69
313.706	343.69
313.935	287.69
314.165	252.69
314.394	228.69
314.624	215.69
314.853	229.69
315.083	228.69
315.312	224.69
315.542	214.69
315.771	211.69
316.001	211.69
316.23	200.69
316.46	192.69
316.689	197.69
316.919	219.69
317.148	230.69
317.377	206.69
317.607	198.69
317.836	201.69
318.065	226.69
318.295	246.69
318.524	238.69
318.753	224.69
318.983	198.69
319.212	216.69
319.441	237.69
319.67	239.69
319.9	244.69
320.129	239.69
320.358	220.69
320.587	213.69
320.816	211.69
321.046	250.69
321.275	268.69
321.504	255.69
321.733	255.69
321.962	254.69
322.191	256.69
322.42	225.69
322.649	214.69
322.878	255.69
323.108	228.69
323.337	244.69
323.566	223.69
323.795	237.69
324.024	242.69
324.253	211.69
324.482	224.69
324.71	219.69
324.939	265.69
325.168	236.69
325.397	214.69
325.626	225.69
325.855	224.69
326.084	205.69
326.313	214.69
326.542	200.69
326.77	210.69
326.999	204.69
327.228	218.69
327.457	224.69
327.686	235.69
327.914	207.69
328.143	197.69
328.372	181.69
328.6	189.69
328.829	193.69
329.058	193.69
329.287	187.69
329.515	192.69
329.744	203.69
329.972	210.69
330.201	183.69
330.43	188.69
330.658	196.69
330.887	221.69
331.115	228.69
331.344	229.69
331.572	225.69
331.801	202.69
332.03	194.69
332.258	197.69
332.486	209.69
332.715	235.69
332.943	211.69
333.172	219.69
333.4	226.69
333.629	247.69
333.857	261.69
334.085	251.69
334.314	255.69
334.542	262.69
334.771	240.69
334.999	211.69
335.227	225.69
335.455	211.69
335.684	252.69
335.912	266.69
336.14	292.69
336.369	275.69
336.597	278.69
336.825	295.69
337.053	314.69
337.281	274.69
337.51	222.69
337.738	211.69
337.966	224.69
338.194	239.69
338.422	220.69
338.65	218.69
338.878	209.69
339.106	225.69
339.334	239.69
339.562	239.69
339.79	206.69
340.018	205.69
340.246	226.69
340.474	262.69
340.702	256.69
340.93	278.69
341.158	277.69
341.386	241.69
341.614	229.69
341.842	248.69
342.07	257.69
342.298	275.69
342.526	269.69
342.754	253.69
342.981	254.69
343.209	237.69
343.437	251.69
343.665	260.69
343.893	255.69
344.12	310.69
344.348	351.69
344.576	317.69
344.804	252.69
345.031	210.69
345.259	223.69
345.487	211.69
345.714	222.69
345.942	253.69
346.17	263.69
346.397	281.69
346.625	213.69
346.853	211.69
347.08	213.69
347.308	202.69
347.535	271.69
347.763	285.69
347.99	241.69
348.218	218.69
348.445	236.69
348.673	221.69
348.9	232.69
349.128	246.69
349.355	234.69
349.583	229.69
349.81	212.69
350.037	230.69
350.265	191.69
350.492	191.69
350.72	206.69
350.947	196.69
351.174	217.69
351.402	217.69
351.629	208.69
351.856	207.69
352.083	205.69
352.311	215.69
352.538	228.69
352.765	240.69
352.992	230.69
353.22	228.69
353.447	227.69
353.674	221.69
353.901	210.69
354.128	206.69
354.355	226.69
354.583	221.69
354.81	226.69
355.037	249.69
355.264	225.69
355.491	237.69
355.718	238.69
355.945	240.69
356.172	220.69
356.399	243.69
356.626	259.69
356.853	315.69
357.08	336.69
357.307	364.69
357.534	292.69
357.761	275.69
357.988	352.69
358.215	419.69
358.441	372.69
358.668	308.69
358.895	282.69
359.122	252.69
359.349	280.69
359.576	294.69
359.802	260.69
360.029	223.69
360.256	225.69
360.483	273.69
360.709	339.69
360.936	350.69
361.163	285.69
361.39	253.69
361.616	229.69
361.843	263.69
362.07	319.69
362.296	267.69
362.523	215.69
362.749	212.69
362.976	212.69
363.203	257.69
363.429	283.69
363.656	240.69
363.882	208.69
364.109	215.69
364.335	228.69
364.562	215.69
364.788	244.69
365.015	262.69
365.241	248.69
365.468	222.69
365.694	197.69
365.92	183.69
366.147	197.69
366.373	199.69
366.599	207.69
366.826	182.69
367.052	193.69
367.278	188.69
367.505	198.69
367.731	210.69
367.957	212.69
368.184	235.69
368.41	241.69
368.636	230.69
368.862	225.69
369.089	225.69
369.315	190.69
369.541	223.69
369.767	206.69
369.993	189.69
370.219	195.69
370.445	198.69
370.672	229.69
370.898	242.69
371.124	229.69
371.35	226.69
371.576	197.69
371.802	212.69
372.028	268.69
372.254	295.69
372.48	242.69
372.706	222.69
372.932	241.69
373.158	254.69
373.384	279.69
373.61	341.69
373.835	367.69
374.061	291.69
374.287	260.69
374.513	288.69
374.739	324.69
374.965	356.69
375.191	352.69
375.416	248.69
375.642	239.69
375.868	270.69
376.094	285.69
376.319	259.69
376.545	261.69
376.771	266.69
376.997	248.69
377.222	204.69
377.448	203.69
377.674	193.69
377.899	193.69
378.125	180.69
378.35	187.69
378.576	179.69
378.802	199.69
379.027	191.69
379.253	213.69
379.478	209.69
379.704	230.69
379.929	251.69
380.155	251.69
380.38	207.69
380.606	226.69
380.831	230.69
381.057	231.69
381.282	217.69
381.507	260.69
381.733	309.69
381.958	310.69
382.184	323.69
382.409	326.69
382.634	338.69
382.86	343.69
383.085	292.69
383.31	250.69
383.535	267.69
383.761	283.69
383.986	279.69
384.211	310.69
384.436	278.69
384.662	255.69
384.887	255.69
385.112	238.69
385.337	245.69
385.562	236.69
385.787	270.69
386.013	281.69
386.238	285.69
386.463	259.69
386.688	230.69
386.913	232.69
387.138	204.69
387.363	226.69
387.588	243.69
387.813	226.69
388.038	241.69
388.263	229.69
388.488	232.69
388.713	273.69
388.938	279.69
389.163	230.69
389.387	214.69
389.612	210.69
389.837	231.69
390.062	232.69
390.287	232.69
390.512	236.69
390.736	219.69
390.961	226.69
391.186	196.69
391.411	198.69
391.636	212.69
391.86	230.69
392.085	246.69
392.31	256.69
392.534	231.69
392.759	225.69
392.984	244.69
393.208	235.69
393.433	232.69
393.658	216.69
393.882	180.69
394.107	192.69
394.331	205.69
394.556	210.69
394.78	203.69
395.005	195.69
395.229	194.69
395.454	217.69
395.678	222.69
395.903	222.69
396.127	216.69
396.352	214.69
396.576	226.69
396.801	231.69
397.025	247.69
397.249	255.69
397.474	238.69
397.698	219.69
397.922	226.69
398.147	201.69
398.371	215.69
398.595	229.69
398.82	213.69
399.044	225.69
399.268	250.69
399.492	281.69
399.717	271.69
399.941	273.69
400.165	271.69
400.389	248.69
400.613	252.69
400.837	245.69
401.062	228.69
401.286	210.69
401.51	216.69
401.734	221.69
401.958	232.69
402.182	230.69
402.406	230.69
402.63	202.69
402.854	237.69
403.078	290.69
403.302	350.69
403.526	366.69
403.75	329.69
403.974	272.69
404.198	291.69
404.422	307.69
404.645	311.69
404.869	341.69
405.093	291.69
405.317	241.69
405.541	232.69
405.765	254.69
405.988	263.69
406.212	252.69
406.436	279.69
406.66	319.69
406.883	269.69
407.107	276.69
407.331	311.69
407.555	297.69
407.778	280.69
408.002	254.69
408.226	251.69
408.449	246.69
408.673	266.69
408.896	252.69
409.12	228.69
409.344	232.69
409.567	236.69
409.791	230.69
410.014	235.69
410.238	231.69
410.461	222.69
410.685	244.69
410.908	239.69
411.132	233.69
411.355	243.69
411.578	228.69
411.802	247.69
412.025	229.69
412.249	238.69
412.472	224.69
412.695	217.69
412.919	215.69
413.142	242.69
413.365	252.69
413.589	247.69
413.812	235.69
414.035	235.69
414.258	238.69
414.482	263.69
414.705	246.69
414.928	237.69
415.151	220.69
415.374	214.69
415.597	224.69
415.821	229.69
416.044	205.69
416.267	213.69
416.49	217.69
416.713	221.69
416.936	228.69
417.159	234.69
417.382	225.69
417.605	238.69
417.828	226.69
418.051	240.69
418.274	230.69
418.497	227.69
418.72	225.69
418.943	220.69
419.166	239.69
419.389	264.69
419.611	252.69
419.834	257.69
420.057	255.69
420.28	260.69
420.503	244.69
420.726	243.69
420.948	227.69
421.171	229.69
421.394	212.69
421.617	213.69
421.839	213.69
422.062	235.69
422.285	231.69
422.507	228.69
422.73	250.69
422.953	242.69
423.175	233.69
423.398	224.69
423.621	235.69
423.843	263.69
424.066	259.69
424.288	239.69
424.511	236.69
424.733	243.69
424.956	236.69
425.178	276.69
425.401	297.69
425.623	341.69
425.846	299.69
426.068	249.69
426.291	242.69
426.513	257.69
426.735	231.69
426.958	232.69
427.18	263.69
427.402	325.69
427.625	337.69
427.847	323.69
428.069	247.69
428.292	231.69
428.514	203.69
428.736	223.69
428.958	239.69
429.181	294.69
429.403	259.69
429.625	219.69
429.847	212.69
430.069	218.69
430.292	205.69
430.514	228.69
430.736	236.69
430.958	265.69
431.18	277.69
431.402	204.69
431.624	207.69
431.846	217.69
432.068	211.69
432.29	211.69
432.512	217.69
432.734	284.69
432.956	255.69
433.178	201.69
433.4	224.69
433.622	224.69
433.844	218.69
434.066	269.69
434.287	260.69
434.509	231.69
434.731	226.69
434.953	216.69
435.175	235.69
435.397	279.69
435.618	240.69
435.84	213.69
436.062	210.69
436.284	218.69
436.505	203.69
436.727	188.69
436.949	200.69
437.17	216.69
437.392	211.69
437.614	215.69
437.835	213.69
438.057	226.69
438.278	235.69
438.5	301.69
438.721	315.69
438.943	228.69
439.165	210.69
439.386	201.69
439.608	215.69
439.829	206.69
440.05	205.69
440.272	214.69
440.493	241.69
440.715	273.69
440.936	236.69
441.158	225.69
441.379	226.69
441.6	246.69
441.822	255.69
442.043	230.69
442.264	215.69
442.486	209.69
442.707	222.69
442.928	220.69
443.149	227.69
443.371	236.69
443.592	235.69
443.813	242.69
444.034	219.69
444.255	229.69
444.476	224.69
444.698	241.69
444.919	229.69
445.14	340.69
445.361	294.69
445.582	232.69
445.803	215.69
446.024	248.69
446.245	239.69
446.466	247.69
446.687	231.69
446.908	228.69
447.129	208.69
447.35	211.69
447.571	214.69
447.792	209.69
448.013	181.69
448.234	198.69
448.455	191.69
448.675	192.69
448.896	188.69
449.117	214.69
449.338	200.69
449.559	207.69
449.779	230.69
450	229.69
450.221	210.69
450.442	200.69
450.662	207.69
450.883	210.69
451.104	220.69
451.324	215.69
451.545	211.69
451.766	218.69
451.986	198.69
452.207	200.69
452.428	189.69
452.648	204.69
452.869	215.69
453.089	228.69
453.31	214.69
453.53	210.69
453.751	194.69
453.971	202.69
454.192	205.69
454.412	209.69
454.633	200.69
454.853	204.69
455.073	180.69
455.294	181.69
455.514	193.69
455.734	204.69
455.955	202.69
456.175	226.69
456.395	200.69
456.616	194.69
456.836	183.69
457.056	189.69
457.276	193.69
457.497	190.69
457.717	193.69
457.937	200.69
458.157	199.69
458.377	179.69
458.598	191.69
458.818	211.69
459.038	205.69
459.258	216.69
459.478	223.69
459.698	223.69
459.918	222.69
460.138	220.69
460.358	242.69
460.578	225.69
460.798	244.69
461.018	232.69
461.238	216.69
461.458	236.69
461.678	260.69
461.898	232.69
462.118	260.69
462.338	227.69
462.558	239.69
462.777	249.69
462.997	271.69
463.217	299.69
463.437	295.69
463.657	268.69
463.876	252.69
464.096	273.69
464.316	257.69
464.536	260.69
464.755	259.69
464.975	269.69
465.195	259.69
465.414	258.69
465.634	240.69
465.854	230.69
466.073	212.69
466.293	212.69
466.512	216.69
466.732	240.69
466.951	259.69
467.171	225.69
467.391	216.69
467.61	244.69
467.829	233.69
468.049	236.69
468.268	229.69
468.488	213.69
468.707	213.69
468.927	240.69
469.146	259.69
469.365	231.69
469.585	225.69
469.804	239.69
470.023	257.69
470.243	238.69
470.462	230.69
470.681	236.69
470.901	221.69
471.12	228.69
471.339	227.69
471.558	228.69
471.777	230.69
471.997	241.69
472.216	266.69
472.435	263.69
472.654	237.69
472.873	214.69
473.092	230.69
473.311	248.69
473.53	228.69
473.749	225.69
473.968	237.69
474.187	236.69
474.406	235.69
474.625	235.69
474.844	249.69
475.063	251.69
475.282	240.69
475.501	265.69
475.72	288.69
475.939	257.69
476.158	258.69
476.377	294.69
476.596	332.69
476.814	357.69
477.033	289.69
477.252	245.69
477.471	224.69
477.69	219.69
477.908	253.69
478.127	294.69
478.346	243.69
478.564	278.69
478.783	278.69
479.002	258.69
479.22	279.69
479.439	309.69
479.658	275.69
479.876	269.69
480.095	296.69
480.313	289.69
480.532	276.69
480.751	279.69
480.969	257.69
481.188	295.69
481.406	313.69
481.624	313.69
481.843	269.69
482.061	251.69
482.28	282.69
482.498	330.69
482.717	300.69
482.935	282.69
483.153	279.69
483.372	243.69
483.59	241.69
483.808	248.69
484.027	268.69
484.245	247.69
484.463	221.69
484.681	257.69
484.9	261.69
485.118	267.69
485.336	271.69
485.554	263.69
485.772	252.69
485.99	281.69
486.209	275.69
486.427	287.69
486.645	280.69
486.863	289.69
487.081	277.69
487.299	318.69
487.517	298.69
487.735	287.69
487.953	286.69
488.171	289.69
488.389	273.69
488.607	261.69
488.825	259.69
489.043	278.69
489.261	323.69
489.479	325.69
489.696	288.69
489.914	272.69
490.132	266.69
490.35	243.69
490.568	267.69
490.786	274.69
491.003	241.69
491.221	253.69
491.439	278.69
491.657	264.69
491.874	271.69
492.092	322.69
492.31	343.69
492.527	351.69
492.745	322.69
492.963	302.69
493.18	289.69
493.398	280.69
493.615	292.69
493.833	289.69
494.05	276.69
494.268	286.69
494.485	306.69
494.703	290.69
494.92	273.69
495.138	273.69
495.355	263.69
495.573	270.69
495.79	304.69
496.008	344.69
496.225	315.69
496.442	293.69
496.66	286.69
496.877	308.69
497.094	297.69
497.312	294.69
497.529	288.69
497.746	307.69
497.963	281.69
498.181	329.69
498.398	349.69
498.615	357.69
498.832	382.69
499.049	381.69
499.267	373.69
499.484	376.69
499.701	377.69
499.918	424.69
500.135	456.69
500.352	502.69
500.569	535.69
500.786	522.69
501.003	496.69
501.22	451.69
501.437	407.69
501.654	375.69
501.871	367.69
502.088	373.69
502.305	351.69
502.522	339.69
502.739	342.69
502.956	290.69
503.172	300.69
503.389	297.69
503.606	307.69
503.823	295.69
504.04	291.69
504.256	307.69
504.473	318.69
504.69	323.69
504.907	315.69
505.123	307.69
505.34	305.69
505.557	333.69
505.773	295.69
505.99	280.69
506.207	286.69
506.423	281.69
506.64	270.69
506.856	286.69
507.073	302.69
507.289	327.69
507.506	293.69
507.722	317.69
507.939	333.69
508.155	322.69
508.372	307.69
508.588	276.69
508.805	289.69
509.021	268.69
509.238	284.69
509.454	271.69
509.67	280.69
509.887	268.69
510.103	284.69
510.319	284.69
510.536	265.69
510.752	243.69
510.968	246.69
511.184	237.69
511.401	252.69
511.617	253.69
511.833	240.69
512.049	267.69
512.265	228.69
512.481	265.69
512.698	284.69
512.914	316.69
513.13	280.69
513.346	256.69
513.562	265.69
513.778	260.69
513.994	262.69
514.21	287.69
514.426	254.69
514.642	255.69
514.858	248.69
515.074	283.69
515.29	299.69
515.506	334.69
515.721	334.69
515.937	299.69
516.153	287.69
516.369	269.69
516.585	277.69
516.801	312.69
517.016	355.69
517.232	324.69
517.448	355.69
517.664	336.69
517.879	306.69
518.095	328.69
518.311	312.69
518.527	314.69
518.742	318.69
518.958	335.69
519.173	307.69
519.389	311.69
519.605	306.69
519.82	315.69
520.036	379.69
520.251	373.69
520.467	386.69
520.682	568.69
520.898	693.69
521.113	676.69
521.329	403.69
521.544	354.69
521.76	340.69
521.975	315.69
522.19	298.69
522.406	307.69
522.621	340.69
522.836	339.69
523.052	336.69
523.267	262.69
523.482	285.69
523.698	299.69
523.913	294.69
524.128	273.69
524.343	269.69
524.559	267.69
524.774	255.69
524.989	265.69
525.204	283.69
525.419	315.69
525.634	279.69
525.849	290.69
526.064	266.69
526.28	282.69
526.495	307.69
526.71	358.69
526.925	313.69
527.14	326.69
527.355	299.69
527.57	268.69
527.785	283.69
527.999	259.69
528.214	261.69
528.429	260.69
528.644	262.69
528.859	244.69
529.074	254.69
529.289	243.69
529.503	241.69
529.718	247.69
529.933	286.69
530.148	296.69
530.363	257.69
530.577	273.69
530.792	235.69
531.007	230.69
531.221	251.69
531.436	254.69
531.651	241.69
531.865	245.69
532.08	235.69
532.295	233.69
532.509	240.69
532.724	267.69
532.938	305.69
533.153	358.69
533.367	267.69
533.582	277.69
533.796	258.69
534.011	239.69
534.225	257.69
534.44	264.69
534.654	274.69
534.868	311.69
535.083	286.69
535.297	246.69
535.511	233.69
535.726	273.69
535.94	256.69
536.154	242.69
536.369	228.69
536.583	235.69
536.797	242.69
537.011	252.69
537.225	272.69
537.44	280.69
537.654	240.69
537.868	252.69
538.082	256.69
538.296	244.69
538.51	245.69
538.724	246.69
538.938	255.69
539.153	249.69
539.367	230.69
539.581	242.69
539.795	254.69
540.009	269.69
540.222	264.69
540.436	251.69
540.65	243.69
540.864	253.69
541.078	287.69
541.292	328.69
541.506	267.69
541.72	256.69
541.934	240.69
542.147	254.69
542.361	252.69
542.575	233.69
542.789	255.69
543.002	214.69
543.216	264.69
543.43	228.69
543.644	239.69
543.857	221.69
544.071	235.69
544.285	226.69
544.498	205.69
544.712	205.69
544.925	237.69
545.139	244.69
545.352	219.69
545.566	228.69
545.779	264.69
545.993	232.69
546.206	223.69
546.42	214.69
546.633	222.69
546.847	214.69
547.06	218.69
547.274	219.69
547.487	213.69
547.7	220.69
547.914	237.69
548.127	260.69
548.34	255.69
548.554	239.69
548.767	233.69
548.98	256.69
549.193	255.69
549.407	245.69
549.62	277.69
549.833	272.69
550.046	278.69
550.259	277.69
550.473	250.69
550.686	251.69
550.899	252.69
551.112	242.69
551.325	266.69
551.538	271.69
551.751	242.69
551.964	230.69
552.177	220.69
552.39	214.69
552.603	209.69
552.816	245.69
553.029	235.69
553.242	219.69
553.455	251.69
553.667	273.69
553.88	259.69
554.093	237.69
554.306	220.69
554.519	212.69
554.732	213.69
554.944	222.69
555.157	191.69
555.37	209.69
555.583	194.69
555.795	211.69
556.008	199.69
556.221	200.69
556.433	212.69
556.646	204.69
556.859	211.69
557.071	219.69
557.284	207.69
557.496	208.69
557.709	206.69
557.921	206.69
558.134	196.69
558.346	200.69
558.559	191.69
558.771	191.69
558.984	201.69
559.196	191.69
559.409	176.69
559.621	185.69
559.833	188.69
560.046	195.69
560.258	161.69
560.47	210.69
560.683	193.69
560.895	181.69
561.107	178.69
561.32	183.69
561.532	190.69
561.744	215.69
561.956	204.69
562.168	203.69
562.381	195.69
562.593	202.69
562.805	205.69
563.017	176.69
563.229	193.69
563.441	180.69
563.653	193.69
563.865	184.69
564.077	187.69
564.289	198.69
564.501	197.69
564.713	201.69
564.925	193.69
565.137	187.69
565.349	199.69
565.561	198.69
565.773	226.69
565.985	223.69
566.197	215.69
566.408	225.69
566.62	237.69
566.832	232.69
567.044	238.69
567.255	253.69
567.467	270.69
567.679	243.69
567.891	271.69
568.102	263.69
568.314	275.69
568.526	266.69
568.737	239.69
568.949	211.69
569.161	224.69
569.372	196.69
569.584	196.69
569.795	184.69
570.007	197.69
570.218	202.69
570.43	208.69
570.641	201.69
570.853	193.69
571.064	163.69
571.276	206.69
571.487	211.69
571.698	186.69
571.91	199.69
572.121	197.69
572.333	182.69
572.544	180.69
572.755	190.69
572.966	174.69
573.178	186.69
573.389	205.69
573.6	190.69
573.811	194.69
574.023	183.69
574.234	203.69
574.445	185.69
574.656	169.69
574.867	174.69
575.078	176.69
575.289	179.69
575.501	179.69
575.712	180.69
575.923	161.69
576.134	175.69
576.345	186.69
576.556	175.69
576.767	173.69
576.978	155.69
577.188	160.69
577.399	163.69
577.61	167.69
577.821	170.69
578.032	177.69
578.243	184.69
578.454	161.69
578.665	200.69
578.875	170.69
579.086	171.69
579.297	175.69
579.508	168.69
579.718	165.69
579.929	185.69
580.14	163.69
580.35	162.69
580.561	177.69
580.772	155.69
580.982	158.69
581.193	152.69
581.403	155.69
581.614	162.69
581.825	154.69
582.035	163.69
582.246	155.69
582.456	165.69
582.667	166.69
582.877	163.69
583.087	160.69
583.298	153.69
583.508	152.69
583.719	154.69
583.929	164.69
584.139	151.69
584.35	136.69
584.56	160.69
584.77	175.69
584.981	173.69
585.191	145.69
585.401	156.69
585.611	160.69
585.821	155.69
586.032	168.69
586.242	156.69
586.452	150.69
586.662	143.69
586.872	154.69
587.082	163.69
587.292	156.69
587.502	169.69
587.713	161.69
587.923	166.69
588.133	174.69
588.343	161.69
588.553	153.69
588.762	136.69
588.972	146.69
589.182	159.69
589.392	154.69
589.602	155.69
589.812	158.69
590.022	185.69
590.232	157.69
590.441	160.69
590.651	135.69
590.861	159.69
591.071	145.69
591.281	156.69
591.49	158.69
591.7	151.69
591.91	162.69
592.119	157.69
592.329	165.69
592.539	161.69
592.748	174.69
592.958	169.69
593.167	173.69
593.377	161.69
593.587	160.69
593.796	169.69
594.006	159.69
594.215	167.69
594.424	173.69
594.634	183.69
594.843	157.69
595.053	164.69
595.262	164.69
595.472	160.69
595.681	146.69
595.89	150.69
596.1	151.69
596.309	142.69
596.518	146.69
596.727	161.69
596.937	115.69
597.146	159.69
597.355	155.69
597.564	158.69
597.774	156.69
597.983	154.69
598.192	131.69
598.401	147.69
598.61	148.69
598.819	146.69
599.028	158.69
599.237	140.69
599.446	124.69
599.655	148.69
599.864	141.69
600.073	145.69
600.282	141.69
600.491	156.69
600.7	152.69
600.909	139.69
601.118	137.69
601.327	137.69
601.536	136.69
601.745	143.69
601.953	143.69
602.162	152.69
602.371	145.69
602.58	162.69
602.789	142.69
602.997	142.69
603.206	151.69
603.415	156.69
603.623	139.69
603.832	136.69
604.041	141.69
604.249	143.69
604.458	141.69
604.666	134.69
604.875	138.69
605.084	155.69
605.292	143.69
605.501	147.69
605.709	129.69
605.918	141.69
606.126	137.69
606.334	135.69
606.543	138.69
606.751	124.69
606.96	142.69
607.168	123.69
607.376	125.69
607.585	138.69
607.793	143.69
608.001	131.69
608.21	125.69
608.418	136.69
608.626	127.69
608.834	135.69
609.043	144.69
609.251	139.69
609.459	141.69
609.667	145.69
609.875	119.69
610.083	132.69
610.291	134.69
610.499	129.69
610.707	135.69
610.916	116.69
611.124	133.69
611.332	125.69
611.54	126.69
611.748	138.69
611.955	117.69
612.163	121.69
612.371	135.69
612.579	127.69
612.787	135.69
612.995	128.69
613.203	140.69
613.411	124.69
613.618	130.69
613.826	132.69
614.034	161.69
614.242	133.69
614.449	127.69
614.657	135.69
614.865	122.69
615.072	120.69
615.28	141.69
615.488	137.69
615.695	133.69
615.903	123.69
616.111	126.69
616.318	129.69
616.526	146.69
616.733	145.69
616.941	143.69
617.148	131.69
617.356	141.69
617.563	132.69
617.771	137.69
617.978	125.69
618.185	132.69
618.393	140.69
618.6	129.69
618.807	136.69
619.015	118.69
619.222	135.69
619.429	123.69
619.637	134.69
619.844	129.69
620.051	128.69
620.258	129.69
620.466	130.69
620.673	128.69
620.88	116.69
621.087	122.69
621.294	130.69
621.501	116.69
621.708	122.69
621.915	125.69
622.122	121.69
622.329	132.69
622.536	125.69
622.743	124.69
622.95	128.69
623.157	132.69
623.364	132.69
623.571	124.69
623.778	120.69
623.985	137.69
624.192	119.69
624.399	127.69
624.606	123.69
624.812	119.69
625.019	120.69
625.226	118.69
625.433	132.69
625.639	123.69
625.846	131.69
626.053	128.69
626.259	131.69
626.466	116.69
626.673	127.69
626.879	123.69
627.086	131.69
627.293	120.69
627.499	132.69
627.706	117.69
627.912	112.69
628.119	133.69
628.325	113.69
628.532	119.69
628.738	115.69
628.945	116.69
629.151	115.69
629.357	123.69
629.564	119.69
629.77	132.69
629.976	119.69
630.183	118.69
630.389	125.69
630.595	115.69
630.802	99.69
631.008	119.69
631.214	119.69
631.42	107.69
631.627	124.69
631.833	102.69
632.039	111.69
632.245	114.69
632.451	119.69
632.657	103.69
632.863	116.69
633.069	119.69
633.275	121.69
633.481	120.69
633.688	113.69
633.893	120.69
634.099	123.69
634.305	119.69
634.511	125.69
634.717	118.69
634.923	107.69
635.129	128.69
635.335	108.69
635.541	114.69
635.747	125.69
635.952	115.69
636.158	104.69
636.364	123.69
636.57	109.69
636.775	106.69
636.981	115.69
637.187	105.69
637.392	123.69
637.598	111.69
637.804	120.69
638.009	112.69
638.215	107.69
638.421	110.69
638.626	124.69
638.832	120.69
639.037	111.69
639.243	121.69
639.448	99.69
639.654	107.69
639.859	113.69
640.065	110.69
640.27	125.69
640.475	112.69
640.681	101.69
640.886	107.69
641.091	107.69
641.297	132.69
641.502	103.69
641.707	104.69
641.913	110.69
642.118	123.69
642.323	111.69
642.528	115.69
642.733	100.69
642.939	101.69
643.144	93.69
643.349	102.69
643.554	105.69
643.759	108.69
643.964	98.69
644.169	106.69
644.374	106.69
644.579	114.69
644.784	109.69
644.989	97.69
645.194	113.69
645.399	117.69
645.604	99.69
645.809	111.69
646.014	111.69
646.219	107.69
646.423	100.69
646.628	115.69
646.833	92.69
647.038	112.69
647.243	115.69
647.447	99.69
647.652	112.69
647.857	115.69
648.062	111.69
648.266	100.69
648.471	127.69
648.676	121.69
648.88	103.69
649.085	115.69
649.289	106.69
649.494	112.69
649.698	107.69
649.903	117.69
650.107	104.69
650.312	105.69
650.516	100.69
650.721	101.69
650.925	101.69
651.13	111.69
651.334	115.69
651.539	103.69
651.743	103.69
651.947	88.69
652.152	101.69
652.356	102.69
652.56	102.69
652.764	94.69
652.969	89.69
653.173	93.69
653.377	95.69
653.581	103.69
653.785	102.69
653.99	95.69
654.194	107.69
654.398	102.69
654.602	91.69
654.806	103.69
655.01	96.69
655.214	108.69
655.418	98.69
655.622	101.69
655.826	97.69
656.03	95.69
656.234	86.69
656.438	91.69
656.642	99.69
656.846	91.69
657.049	101.69
657.253	99.69
657.457	98.69
657.661	101.69
657.865	89.69
658.068	97.69
658.272	97.69
658.476	66.69
658.68	93.69
658.883	101.69
659.087	93.69
659.291	73.69
659.494	105.69
659.698	72.69
659.901	80.69
660.105	93.69
660.309	85.69
660.512	84.69
660.716	89.69
660.919	91.69
661.123	91.69
661.326	87.69
661.53	90.69
661.733	94.69
661.936	70.69
662.14	86.69
662.343	94.69
662.546	83.69
662.75	84.69
662.953	72.69
663.156	85.69
663.36	89.69
663.563	79.69
663.766	85.69
663.969	91.69
664.173	79.69
664.376	89.69
664.579	87.69
664.782	81.69
664.985	76.69
665.188	85.69
665.391	87.69
665.594	83.69
665.797	89.69
666	91.69
666.203	71.69
666.406	84.69
666.609	71.69
666.812	74.69
667.015	81.69
667.218	76.69
667.421	74.69
667.624	88.69
667.827	83.69
668.03	88.69
668.232	86.69
668.435	72.69
668.638	85.69
668.841	80.69
669.043	72.69
669.246	87.69
669.449	94.69
669.651	85.69
669.854	86.69
670.057	89.69
670.259	80.69
670.462	78.69
670.665	83.69
670.867	85.69
671.07	99.69
671.272	77.69
671.475	79.69
671.677	81.69
671.88	85.69
672.082	80.69
672.284	67.69
672.487	74.69
672.689	83.69
672.892	76.69
