Data from NickelSpatula.Lamp.E10.P2_HRD10591_11-58-29-528.txt Node
Date: Tue Jul 23 11:58:29 EDT 2019
User: cochatt
Spectrometer: HR+D1059
Trigger mode: 1
Integration Time (sec): 1.000000E-1
Scans to average: 1
Electric dark correction enabled: true
Nonlinearity correction enabled: false
Boxcar width: 0
XAxis mode: Wavelengths
Number of Pixels in Spectrum: 2048
>>>>>Begin Spectral Data<<<<<
223.165	-8.94
223.4	-8.94
223.635	-8.94
223.869	-28.94
224.104	-15.94
224.338	-17.94
224.573	-22.94
224.808	-19.94
225.042	-6.94
225.277	-9.94
225.511	12.06
225.746	1.06
225.98	5.06
226.215	11.06
226.449	26.06
226.683	21.06
226.918	29.06
227.152	26.06
227.387	44.06
227.621	39.06
227.856	50.06
228.09	59.06
228.324	48.06
228.559	53.06
228.793	66.06
229.027	146.06
229.262	162.06
229.496	153.06
229.73	177.06
229.964	197.06
230.199	216.06
230.433	227.06
230.667	202.06
230.901	197.06
231.136	205.06
231.37	201.06
231.604	205.06
231.838	239.06
232.072	259.06
232.306	236.06
232.541	239.06
232.775	232.06
233.009	253.06
233.243	302.06
233.477	316.06
233.711	339.06
233.945	339.06
234.179	353.06
234.413	348.06
234.647	391.06
234.881	455.06
235.115	438.06
235.349	389.06
235.583	352.06
235.817	333.06
236.051	365.06
236.285	422.06
236.519	459.06
236.753	432.06
236.987	425.06
237.221	377.06
237.455	393.06
237.689	435.06
237.922	464.06
238.156	469.06
238.39	567.06
238.624	637.06
238.858	582.06
239.091	496.06
239.325	500.06
239.559	478.06
239.793	554.06
240.027	645.06
240.26	595.06
240.494	563.06
240.728	586.06
240.961	681.06
241.195	639.06
241.429	620.06
241.662	597.06
241.896	523.06
242.13	485.06
242.363	452.06
242.597	464.06
242.83	554.06
243.064	524.06
243.298	579.06
243.531	627.06
243.765	641.06
243.998	624.06
244.232	594.06
244.465	596.06
244.699	575.06
244.932	650.06
245.166	613.06
245.399	547.06
245.633	541.06
245.866	574.06
246.099	586.06
246.333	709.06
246.566	753.06
246.8	743.06
247.033	728.06
247.266	683.06
247.5	693.06
247.733	681.06
247.966	624.06
248.2	674.06
248.433	760.06
248.666	819.06
248.899	848.06
249.133	827.06
249.366	970.06
249.599	1020.06
249.832	920.06
250.066	811.06
250.299	819.06
250.532	782.06
250.765	788.06
250.998	723.06
251.231	697.06
251.465	773.06
251.698	818.06
251.931	775.06
252.164	857.06
252.397	936.06
252.63	1020.06
252.863	1133.06
253.096	1189.06
253.329	1147.06
253.562	1066.06
253.795	1219.06
254.028	1333.06
254.261	1356.06
254.494	1235.06
254.727	1128.06
254.96	1108.06
255.193	1183.06
255.426	1117.06
255.659	841.06
255.892	772.06
256.124	864.06
256.357	1005.06
256.59	1171.06
256.823	1129.06
257.056	954.06
257.289	897.06
257.521	943.06
257.754	1115.06
257.987	1268.06
258.22	1085.06
258.452	963.06
258.685	1138.06
258.918	1285.06
259.151	1208.06
259.383	1274.06
259.616	1500.06
259.849	1506.06
260.081	1685.06
260.314	1911.06
260.547	1456.06
260.779	1448.06
261.012	1665.06
261.244	1589.06
261.477	1604.06
261.71	1524.06
261.942	1270.06
262.175	1250.06
262.407	1199.06
262.64	1230.06
262.872	1481.06
263.105	1632.06
263.337	1682.06
263.57	1470.06
263.802	1027.06
264.035	914.06
264.267	880.06
264.499	771.06
264.732	709.06
264.964	678.06
265.197	733.06
265.429	795.06
265.661	812.06
265.894	854.06
266.126	871.06
266.358	1010.06
266.591	1219.06
266.823	1497.06
267.055	1384.06
267.287	1229.06
267.52	1191.06
267.752	1278.06
267.984	1425.06
268.216	1357.06
268.448	1104.06
268.681	1083.06
268.913	1204.06
269.145	1233.06
269.377	1267.06
269.609	1266.06
269.841	1199.06
270.073	1266.06
270.306	1336.06
270.538	1325.06
270.77	1356.06
271.002	1364.06
271.234	1441.06
271.466	1457.06
271.698	1427.06
271.93	1403.06
272.162	1395.06
272.394	1397.06
272.626	1367.06
272.858	1446.06
273.09	1453.06
273.322	1259.06
273.553	1233.06
273.785	1462.06
274.017	1959.06
274.249	2408.06
274.481	2507.06
274.713	2702.06
274.945	3142.06
275.176	3191.06
275.408	2827.06
275.64	2536.06
275.872	2596.06
276.104	2197.06
276.335	1878.06
276.567	1871.06
276.799	1913.06
277.031	2045.06
277.262	1574.06
277.494	1228.06
277.726	1154.06
277.957	1297.06
278.189	1453.06
278.421	1447.06
278.652	1392.06
278.884	1347.06
279.115	1256.06
279.347	1169.06
279.579	1183.06
279.81	1157.06
280.042	1192.06
280.273	1213.06
280.505	1130.06
280.736	988.06
280.968	992.06
281.199	1088.06
281.431	1230.06
281.662	1214.06
281.894	1157.06
282.125	1249.06
282.356	1312.06
282.588	1336.06
282.819	1244.06
283.051	1392.06
283.282	1663.06
283.513	1908.06
283.745	2140.06
283.976	2147.06
284.207	1969.06
284.439	2039.06
284.67	1969.06
284.901	1721.06
285.132	1900.06
285.364	1957.06
285.595	1815.06
285.826	1935.06
286.057	2019.06
286.288	1905.06
286.52	1923.06
286.751	2071.06
286.982	2074.06
287.213	1744.06
287.444	1717.06
287.675	1803.06
287.906	1775.06
288.138	1488.06
288.369	1327.06
288.6	1268.06
288.831	1304.06
289.062	1514.06
289.293	1650.06
289.524	1521.06
289.755	1557.06
289.986	1627.06
290.217	1417.06
290.448	1098.06
290.679	930.06
290.91	903.06
291.141	907.06
291.371	953.06
291.602	948.06
291.833	972.06
292.064	1025.06
292.295	1180.06
292.526	1419.06
292.757	1407.06
292.987	1515.06
293.218	1503.06
293.449	1571.06
293.68	1666.06
293.91	1532.06
294.141	1578.06
294.372	1537.06
294.603	1380.06
294.833	1523.06
295.064	1777.06
295.295	1698.06
295.525	1299.06
295.756	1115.06
295.987	968.06
296.217	1001.06
296.448	1005.06
296.679	1068.06
296.909	1178.06
297.14	1293.06
297.37	1423.06
297.601	1313.06
297.831	1153.06
298.062	1195.06
298.292	1391.06
298.523	1473.06
298.753	1748.06
298.984	1572.06
299.214	1244.06
299.445	1073.06
299.675	1031.06
299.905	996.06
300.136	1060.06
300.366	1135.06
300.597	1107.06
300.827	993.06
301.057	947.06
301.288	1000.06
301.518	1075.06
301.748	1186.06
301.979	1281.06
302.209	1409.06
302.439	1419.06
302.669	1196.06
302.9	1208.06
303.13	1092.06
303.36	1067.06
303.59	1035.06
303.82	1036.06
304.051	1204.06
304.281	1279.06
304.511	1215.06
304.741	1104.06
304.971	1179.06
305.201	1252.06
305.431	1170.06
305.661	1041.06
305.891	1039.06
306.121	1024.06
306.352	930.06
306.582	854.06
306.812	840.06
307.042	822.06
307.272	765.06
307.502	782.06
307.731	864.06
307.961	891.06
308.191	835.06
308.421	805.06
308.651	772.06
308.881	755.06
309.111	758.06
309.341	806.06
309.571	875.06
309.8	898.06
310.03	887.06
310.26	935.06
310.49	959.06
310.72	872.06
310.949	823.06
311.179	865.06
311.409	891.06
311.639	1061.06
311.868	1376.06
312.098	1793.06
312.328	1888.06
312.557	1797.06
312.787	1836.06
313.017	1634.06
313.246	1783.06
313.476	1916.06
313.706	1555.06
313.935	1265.06
314.165	1041.06
314.394	936.06
314.624	920.06
314.853	952.06
315.083	1001.06
315.312	987.06
315.542	967.06
315.771	929.06
316.001	853.06
316.23	800.06
316.46	801.06
316.689	838.06
316.919	835.06
317.148	861.06
317.377	864.06
317.607	879.06
317.836	915.06
318.065	1098.06
318.295	1232.06
318.524	1106.06
318.753	937.06
318.983	907.06
319.212	904.06
319.441	957.06
319.67	1089.06
319.9	1176.06
320.129	1104.06
320.358	943.06
320.587	911.06
320.816	990.06
321.046	1134.06
321.275	1281.06
321.504	1299.06
321.733	1228.06
321.962	1178.06
322.191	1112.06
322.42	1050.06
322.649	1089.06
322.878	1181.06
323.108	1183.06
323.337	1065.06
323.566	1063.06
323.795	1041.06
324.024	1003.06
324.253	943.06
324.482	954.06
324.71	1040.06
324.939	1177.06
325.168	1103.06
325.397	927.06
325.626	883.06
325.855	900.06
326.084	896.06
326.313	843.06
326.542	817.06
326.77	843.06
326.999	885.06
327.228	929.06
327.457	992.06
327.686	996.06
327.914	869.06
328.143	831.06
328.372	847.06
328.6	829.06
328.829	858.06
329.058	874.06
329.287	863.06
329.515	865.06
329.744	851.06
329.972	837.06
330.201	782.06
330.43	829.06
330.658	932.06
330.887	1016.06
331.115	1000.06
331.344	947.06
331.572	943.06
331.801	886.06
332.03	824.06
332.258	868.06
332.486	908.06
332.715	960.06
332.943	890.06
333.172	885.06
333.4	929.06
333.629	1025.06
333.857	1054.06
334.085	1043.06
334.314	1055.06
334.542	996.06
334.771	953.06
334.999	927.06
335.227	895.06
335.455	945.06
335.684	1011.06
335.912	1192.06
336.14	1281.06
336.369	1229.06
336.597	1210.06
336.825	1321.06
337.053	1455.06
337.281	1205.06
337.51	955.06
337.738	957.06
337.966	1058.06
338.194	1153.06
338.422	1100.06
338.65	912.06
338.878	871.06
339.106	895.06
339.334	973.06
339.562	1041.06
339.79	975.06
340.018	940.06
340.246	1002.06
340.474	1148.06
340.702	1222.06
340.93	1293.06
341.158	1285.06
341.386	1101.06
341.614	1050.06
341.842	1091.06
342.07	1108.06
342.298	1300.06
342.526	1353.06
342.754	1186.06
342.981	1062.06
343.209	997.06
343.437	1087.06
343.665	1147.06
343.893	1107.06
344.12	1303.06
344.348	1533.06
344.576	1358.06
344.804	1133.06
345.031	1002.06
345.259	940.06
345.487	986.06
345.714	982.06
345.942	1052.06
346.17	1167.06
346.397	1091.06
346.625	972.06
346.853	910.06
347.08	903.06
347.308	953.06
347.535	1075.06
347.763	1111.06
347.99	960.06
348.218	897.06
348.445	927.06
348.673	933.06
348.9	944.06
349.128	1011.06
349.355	1050.06
349.583	1014.06
349.81	973.06
350.037	904.06
350.265	828.06
350.492	745.06
350.72	775.06
350.947	817.06
351.174	874.06
351.402	922.06
351.629	957.06
351.856	907.06
352.083	855.06
352.311	931.06
352.538	1011.06
352.765	1076.06
352.992	982.06
353.22	937.06
353.447	959.06
353.674	930.06
353.901	919.06
354.128	910.06
354.355	954.06
354.583	964.06
354.81	950.06
355.037	981.06
355.264	963.06
355.491	1036.06
355.718	1123.06
355.945	1081.06
356.172	1023.06
356.399	1078.06
356.626	1257.06
356.853	1546.06
357.08	1591.06
357.307	1650.06
357.534	1294.06
357.761	1363.06
357.988	1679.06
358.215	1961.06
358.441	1880.06
358.668	1523.06
358.895	1425.06
359.122	1155.06
359.349	1138.06
359.576	1261.06
359.802	1075.06
360.029	916.06
360.256	975.06
360.483	1228.06
360.709	1505.06
360.936	1581.06
361.163	1417.06
361.39	1078.06
361.616	1031.06
361.843	1201.06
362.07	1459.06
362.296	1300.06
362.523	1070.06
362.749	905.06
362.976	947.06
363.203	1160.06
363.429	1276.06
363.656	1045.06
363.882	969.06
364.109	985.06
364.335	979.06
364.562	925.06
364.788	1072.06
365.015	1247.06
365.241	1096.06
365.468	931.06
365.694	808.06
365.92	792.06
366.147	772.06
366.373	753.06
366.599	746.06
366.826	763.06
367.052	799.06
367.278	781.06
367.505	790.06
367.731	881.06
367.957	982.06
368.184	1004.06
368.41	967.06
368.636	994.06
368.862	1034.06
369.089	965.06
369.315	845.06
369.541	841.06
369.767	868.06
369.993	838.06
370.219	841.06
370.445	870.06
370.672	965.06
370.898	1055.06
371.124	1019.06
371.35	925.06
371.576	874.06
371.802	947.06
372.028	1111.06
372.254	1268.06
372.48	1088.06
372.706	995.06
372.932	1052.06
373.158	1112.06
373.384	1302.06
373.61	1724.06
373.835	1794.06
374.061	1309.06
374.287	1097.06
374.513	1311.06
374.739	1515.06
374.965	1630.06
375.191	1585.06
375.416	1128.06
375.642	986.06
375.868	1166.06
376.094	1267.06
376.319	1139.06
376.545	1212.06
376.771	1281.06
376.997	1114.06
377.222	864.06
377.448	737.06
377.674	719.06
377.899	739.06
378.125	726.06
378.35	723.06
378.576	768.06
378.802	841.06
379.027	876.06
379.253	852.06
379.478	895.06
379.704	994.06
379.929	1029.06
380.155	1041.06
380.38	936.06
380.606	972.06
380.831	1071.06
381.057	963.06
381.282	947.06
381.507	1132.06
381.733	1361.06
381.958	1440.06
382.184	1555.06
382.409	1608.06
382.634	1587.06
382.86	1650.06
383.085	1323.06
383.31	1108.06
383.535	1120.06
383.761	1160.06
383.986	1098.06
384.211	1335.06
384.436	1255.06
384.662	1012.06
384.887	974.06
385.112	983.06
385.337	994.06
385.562	960.06
385.787	1071.06
386.013	1192.06
386.238	1200.06
386.463	993.06
386.688	946.06
386.913	931.06
387.138	873.06
387.363	929.06
387.588	975.06
387.813	957.06
388.038	1061.06
388.263	932.06
388.488	929.06
388.713	1092.06
388.938	1127.06
389.163	996.06
389.387	908.06
389.612	891.06
389.837	906.06
390.062	939.06
390.287	952.06
390.512	956.06
390.736	901.06
390.961	852.06
391.186	815.06
391.411	825.06
391.636	821.06
391.86	909.06
392.085	966.06
392.31	937.06
392.534	940.06
392.759	918.06
392.984	955.06
393.208	939.06
393.433	860.06
393.658	815.06
393.882	787.06
394.107	773.06
394.331	790.06
394.556	771.06
394.78	818.06
395.005	825.06
395.229	831.06
395.454	843.06
395.678	861.06
395.903	890.06
396.127	835.06
396.352	858.06
396.576	946.06
396.801	964.06
397.025	1062.06
397.249	1075.06
397.474	908.06
397.698	903.06
397.922	961.06
398.147	895.06
398.371	897.06
398.595	965.06
398.82	918.06
399.044	910.06
399.268	984.06
399.492	1025.06
399.717	1055.06
399.941	1082.06
400.165	1041.06
400.389	1007.06
400.613	991.06
400.837	1013.06
401.062	917.06
401.286	887.06
401.51	867.06
401.734	858.06
401.958	900.06
402.182	891.06
402.406	866.06
402.63	891.06
402.854	929.06
403.078	1043.06
403.302	1261.06
403.526	1321.06
403.75	1169.06
403.974	1039.06
404.198	1072.06
404.422	1193.06
404.645	1377.06
404.869	1542.06
405.093	1139.06
405.317	973.06
405.541	945.06
405.765	970.06
405.988	986.06
406.212	1077.06
406.436	1221.06
406.66	1373.06
406.883	1123.06
407.107	1142.06
407.331	1312.06
407.555	1245.06
407.778	1081.06
408.002	1041.06
408.226	1011.06
408.449	988.06
408.673	979.06
408.896	928.06
409.12	891.06
409.344	911.06
409.567	869.06
409.791	894.06
410.014	872.06
410.238	876.06
410.461	856.06
410.685	884.06
410.908	885.06
411.132	916.06
411.355	926.06
411.578	917.06
411.802	925.06
412.025	966.06
412.249	972.06
412.472	950.06
412.695	949.06
412.919	925.06
413.142	955.06
413.365	1001.06
413.589	994.06
413.812	909.06
414.035	911.06
414.258	899.06
414.482	1010.06
414.705	1025.06
414.928	874.06
415.151	863.06
415.374	863.06
415.597	890.06
415.821	856.06
416.044	888.06
416.267	852.06
416.49	851.06
416.713	841.06
416.936	836.06
417.159	844.06
417.382	886.06
417.605	883.06
417.828	889.06
418.051	903.06
418.274	919.06
418.497	924.06
418.72	898.06
418.943	921.06
419.166	955.06
419.389	984.06
419.611	984.06
419.834	978.06
420.057	1092.06
420.28	1060.06
420.503	1018.06
420.726	884.06
420.948	833.06
421.171	875.06
421.394	855.06
421.617	839.06
421.839	884.06
422.062	920.06
422.285	907.06
422.507	902.06
422.73	923.06
422.953	958.06
423.175	932.06
423.398	943.06
423.621	1017.06
423.843	1012.06
424.066	945.06
424.288	923.06
424.511	881.06
424.733	901.06
424.956	953.06
425.178	1044.06
425.401	1197.06
425.623	1320.06
425.846	1120.06
426.068	983.06
426.291	1063.06
426.513	1000.06
426.735	940.06
426.958	964.06
427.18	1128.06
427.402	1421.06
427.625	1417.06
427.847	1152.06
428.069	893.06
428.292	890.06
428.514	893.06
428.736	845.06
428.958	926.06
429.181	1103.06
429.403	945.06
429.625	890.06
429.847	838.06
430.069	880.06
430.292	889.06
430.514	831.06
430.736	929.06
430.958	1157.06
431.18	1062.06
431.402	819.06
431.624	774.06
431.846	789.06
432.068	779.06
432.29	840.06
432.512	897.06
432.734	1202.06
432.956	1095.06
433.178	857.06
433.4	843.06
433.622	844.06
433.844	856.06
434.066	897.06
434.287	881.06
434.509	873.06
434.731	925.06
434.953	854.06
435.175	905.06
435.397	1007.06
435.618	874.06
435.84	811.06
436.062	808.06
436.284	823.06
436.505	761.06
436.727	776.06
436.949	800.06
437.17	817.06
437.392	840.06
437.614	828.06
437.835	815.06
438.057	829.06
438.278	977.06
438.5	1347.06
438.721	1338.06
438.943	920.06
439.165	799.06
439.386	799.06
439.608	778.06
439.829	784.06
440.05	773.06
440.272	807.06
440.493	984.06
440.715	1207.06
440.936	944.06
441.158	835.06
441.379	827.06
441.6	946.06
441.822	1019.06
442.043	897.06
442.264	836.06
442.486	889.06
442.707	860.06
442.928	846.06
443.149	881.06
443.371	872.06
443.592	909.06
443.813	901.06
444.034	846.06
444.255	910.06
444.476	939.06
444.698	932.06
444.919	939.06
445.14	1039.06
445.361	998.06
445.582	957.06
445.803	915.06
446.024	918.06
446.245	916.06
446.466	909.06
446.687	860.06
446.908	860.06
447.129	815.06
447.35	801.06
447.571	800.06
447.792	785.06
448.013	797.06
448.234	758.06
448.455	766.06
448.675	790.06
448.896	810.06
449.117	790.06
449.338	775.06
449.559	810.06
449.779	870.06
450	854.06
450.221	826.06
450.442	773.06
450.662	774.06
450.883	768.06
451.104	796.06
451.324	795.06
451.545	829.06
451.766	785.06
451.986	773.06
452.207	769.06
452.428	766.06
452.648	764.06
452.869	830.06
453.089	817.06
453.31	824.06
453.53	709.06
453.751	723.06
453.971	744.06
454.192	761.06
454.412	790.06
454.633	735.06
454.853	756.06
455.073	738.06
455.294	717.06
455.514	728.06
455.734	788.06
455.955	781.06
456.175	814.06
456.395	736.06
456.616	701.06
456.836	693.06
457.056	675.06
457.276	700.06
457.497	729.06
457.717	714.06
457.937	709.06
458.157	705.06
458.377	709.06
458.598	691.06
458.818	751.06
459.038	817.06
459.258	797.06
459.478	872.06
459.698	889.06
459.918	893.06
460.138	893.06
460.358	892.06
460.578	848.06
460.798	890.06
461.018	855.06
461.238	853.06
461.458	873.06
461.678	852.06
461.898	921.06
462.118	910.06
462.338	951.06
462.558	939.06
462.777	980.06
462.997	1007.06
463.217	1005.06
463.437	1026.06
463.657	1000.06
463.876	950.06
464.096	963.06
464.316	972.06
464.536	956.06
464.755	1012.06
464.975	1019.06
465.195	955.06
465.414	988.06
465.634	938.06
465.854	913.06
466.073	858.06
466.293	852.06
466.512	903.06
466.732	1015.06
466.951	1026.06
467.171	943.06
467.391	900.06
467.61	871.06
467.829	930.06
468.049	936.06
468.268	854.06
468.488	861.06
468.707	940.06
468.927	1028.06
469.146	1158.06
469.365	1030.06
469.585	941.06
469.804	985.06
470.023	1075.06
470.243	947.06
470.462	906.06
470.681	912.06
470.901	909.06
471.12	925.06
471.339	964.06
471.558	897.06
471.777	950.06
471.997	978.06
472.216	1100.06
472.435	1068.06
472.654	979.06
472.873	950.06
473.092	998.06
473.311	1040.06
473.53	944.06
473.749	949.06
473.968	986.06
474.187	968.06
474.406	929.06
474.625	905.06
474.844	947.06
475.063	1003.06
475.282	1012.06
475.501	1041.06
475.72	1116.06
475.939	1071.06
476.158	1067.06
476.377	1236.06
476.596	1403.06
476.814	1441.06
477.033	1236.06
477.252	1043.06
477.471	983.06
477.69	984.06
477.908	1060.06
478.127	1148.06
478.346	1027.06
478.564	1125.06
478.783	1065.06
479.002	1081.06
479.22	1279.06
479.439	1394.06
479.658	1226.06
479.876	1092.06
480.095	1188.06
480.313	1199.06
480.532	1111.06
480.751	1094.06
480.969	1099.06
481.188	1273.06
481.406	1319.06
481.624	1223.06
481.843	1112.06
482.061	1040.06
482.28	1212.06
482.498	1418.06
482.717	1336.06
482.935	1189.06
483.153	1103.06
483.372	1039.06
483.59	1008.06
483.808	1029.06
484.027	1022.06
484.245	980.06
484.463	986.06
484.681	988.06
484.9	1068.06
485.118	1159.06
485.336	1119.06
485.554	1012.06
485.772	1075.06
485.99	1135.06
486.209	1198.06
486.427	1203.06
486.645	1185.06
486.863	1218.06
487.081	1233.06
487.299	1345.06
487.517	1312.06
487.735	1201.06
487.953	1212.06
488.171	1251.06
488.389	1175.06
488.607	1120.06
488.825	1139.06
489.043	1217.06
489.261	1381.06
489.479	1506.06
489.696	1263.06
489.914	1133.06
490.132	1124.06
490.35	1100.06
490.568	1112.06
490.786	1104.06
491.003	1121.06
491.221	1150.06
491.439	1112.06
491.657	1135.06
491.874	1215.06
492.092	1456.06
492.31	1738.06
492.527	1694.06
492.745	1473.06
492.963	1301.06
493.18	1256.06
493.398	1284.06
493.615	1251.06
493.833	1256.06
494.05	1241.06
494.268	1224.06
494.485	1233.06
494.703	1203.06
494.92	1202.06
495.138	1207.06
495.355	1200.06
495.573	1228.06
495.79	1320.06
496.008	1735.06
496.225	1509.06
496.442	1336.06
496.66	1331.06
496.877	1426.06
497.094	1373.06
497.312	1281.06
497.529	1281.06
497.746	1301.06
497.963	1349.06
498.181	1465.06
498.398	1557.06
498.615	1623.06
498.832	1667.06
499.049	1665.06
499.267	1530.06
499.484	1505.06
499.701	1631.06
499.918	1711.06
500.135	1847.06
500.352	1884.06
500.569	1917.06
500.786	1985.06
501.003	1962.06
501.22	1769.06
501.437	1708.06
501.654	1641.06
501.871	1619.06
502.088	1659.06
502.305	1473.06
502.522	1503.06
502.739	1477.06
502.956	1369.06
503.172	1352.06
503.389	1272.06
503.606	1253.06
503.823	1288.06
504.04	1285.06
504.256	1323.06
504.473	1304.06
504.69	1333.06
504.907	1346.06
505.123	1353.06
505.34	1424.06
505.557	1412.06
505.773	1324.06
505.99	1246.06
506.207	1332.06
506.423	1248.06
506.64	1180.06
506.856	1211.06
507.073	1397.06
507.289	1313.06
507.506	1335.06
507.722	1405.06
507.939	1420.06
508.155	1459.06
508.372	1286.06
508.588	1269.06
508.805	1215.06
509.021	1194.06
509.238	1176.06
509.454	1148.06
509.67	1169.06
509.887	1183.06
510.103	1309.06
510.319	1255.06
510.536	1151.06
510.752	1077.06
510.968	1039.06
511.184	995.06
511.401	1009.06
511.617	1029.06
511.833	1024.06
512.049	1051.06
512.265	1080.06
512.481	1092.06
512.698	1207.06
512.914	1335.06
513.13	1216.06
513.346	1092.06
513.562	1152.06
513.778	1146.06
513.994	1112.06
514.21	1194.06
514.426	1199.06
514.642	1145.06
514.858	1119.06
515.074	1161.06
515.29	1256.06
515.506	1368.06
515.721	1327.06
515.937	1184.06
516.153	1128.06
516.369	1141.06
516.585	1185.06
516.801	1318.06
517.016	1543.06
517.232	1509.06
517.448	1500.06
517.664	1344.06
517.879	1289.06
518.095	1278.06
518.311	1273.06
518.527	1246.06
518.742	1335.06
518.958	1418.06
519.173	1373.06
519.389	1316.06
519.605	1370.06
519.82	1451.06
520.036	1725.06
520.251	1663.06
520.467	1577.06
520.682	2251.06
520.898	2753.06
521.113	2613.06
521.329	1663.06
521.544	1500.06
521.76	1448.06
521.975	1308.06
522.19	1239.06
522.406	1288.06
522.621	1431.06
522.836	1473.06
523.052	1515.06
523.267	1259.06
523.482	1272.06
523.698	1371.06
523.913	1309.06
524.128	1206.06
524.343	1159.06
524.559	1143.06
524.774	1089.06
524.989	1140.06
525.204	1191.06
525.419	1291.06
525.634	1207.06
525.849	1232.06
526.064	1224.06
526.28	1243.06
526.495	1464.06
526.71	1480.06
526.925	1310.06
527.14	1378.06
527.355	1268.06
527.57	1087.06
527.785	1174.06
527.999	1125.06
528.214	1047.06
528.429	1060.06
528.644	1037.06
528.859	1005.06
529.074	1014.06
529.289	987.06
529.503	996.06
529.718	1027.06
529.933	1153.06
530.148	1156.06
530.363	1018.06
530.577	985.06
530.792	971.06
531.007	961.06
531.221	962.06
531.436	980.06
531.651	999.06
531.865	1026.06
532.08	979.06
532.295	964.06
532.509	1019.06
532.724	1119.06
532.938	1271.06
533.153	1462.06
533.367	1179.06
533.582	1142.06
533.796	1089.06
534.011	1013.06
534.225	1047.06
534.44	1031.06
534.654	1061.06
534.868	1216.06
535.083	1101.06
535.297	981.06
535.511	1000.06
535.726	1113.06
535.94	1069.06
536.154	999.06
536.369	978.06
536.583	987.06
536.797	982.06
537.011	1009.06
537.225	1069.06
537.44	1115.06
537.654	985.06
537.868	976.06
538.082	1014.06
538.296	975.06
538.51	1039.06
538.724	1097.06
538.938	1009.06
539.153	959.06
539.367	945.06
539.581	963.06
539.795	1035.06
540.009	1129.06
540.222	1051.06
540.436	1029.06
540.65	1119.06
540.864	1150.06
541.078	1148.06
541.292	1253.06
541.506	1056.06
541.72	1029.06
541.934	1025.06
542.147	1016.06
542.361	980.06
542.575	1031.06
542.789	1001.06
543.002	939.06
543.216	1038.06
543.43	948.06
543.644	933.06
543.857	893.06
544.071	941.06
544.285	934.06
544.498	883.06
544.712	903.06
544.925	959.06
545.139	945.06
545.352	889.06
545.566	918.06
545.779	1009.06
545.993	937.06
546.206	899.06
546.42	883.06
546.633	893.06
546.847	845.06
547.06	850.06
547.274	832.06
547.487	873.06
547.7	953.06
547.914	989.06
548.127	1100.06
548.34	1063.06
548.554	893.06
548.767	981.06
548.98	1025.06
549.193	965.06
549.407	984.06
549.62	1160.06
549.833	1090.06
550.046	1129.06
550.259	1154.06
550.473	1001.06
550.686	945.06
550.899	975.06
551.112	973.06
551.325	1036.06
551.538	1089.06
551.751	939.06
551.964	893.06
552.177	854.06
552.39	882.06
552.603	874.06
552.816	906.06
553.029	887.06
553.242	853.06
553.455	923.06
553.667	1019.06
553.88	988.06
554.093	879.06
554.306	821.06
554.519	779.06
554.732	794.06
554.944	752.06
555.157	765.06
555.37	774.06
555.583	745.06
555.795	789.06
556.008	779.06
556.221	806.06
556.433	793.06
556.646	761.06
556.859	761.06
557.071	807.06
557.284	776.06
557.496	819.06
557.709	770.06
557.921	789.06
558.134	730.06
558.346	709.06
558.559	729.06
558.771	736.06
558.984	812.06
559.196	771.06
559.409	711.06
559.621	715.06
559.833	680.06
560.046	712.06
560.258	724.06
560.47	759.06
560.683	697.06
560.895	651.06
561.107	668.06
561.32	680.06
561.532	680.06
561.744	736.06
561.956	761.06
562.168	724.06
562.381	689.06
562.593	736.06
562.805	729.06
563.017	692.06
563.229	645.06
563.441	653.06
563.653	657.06
563.865	688.06
564.077	721.06
564.289	660.06
564.501	689.06
564.713	744.06
564.925	739.06
565.137	705.06
565.349	688.06
565.561	698.06
565.773	705.06
565.985	721.06
566.197	794.06
566.408	831.06
566.62	845.06
566.832	816.06
567.044	827.06
567.255	887.06
567.467	947.06
567.679	869.06
567.891	876.06
568.102	883.06
568.314	874.06
568.526	816.06
568.737	819.06
568.949	849.06
569.161	757.06
569.372	677.06
569.584	679.06
569.795	671.06
570.007	692.06
570.218	743.06
570.43	697.06
570.641	680.06
570.853	649.06
571.064	641.06
571.276	675.06
571.487	696.06
571.698	667.06
571.91	654.06
572.121	663.06
572.333	625.06
572.544	639.06
572.755	615.06
572.966	599.06
573.178	600.06
573.389	624.06
573.6	633.06
573.811	625.06
574.023	570.06
574.234	575.06
574.445	586.06
574.656	563.06
574.867	559.06
575.078	580.06
575.289	583.06
575.501	617.06
575.712	570.06
575.923	553.06
576.134	518.06
576.345	556.06
576.556	533.06
576.767	542.06
576.978	527.06
577.188	517.06
577.399	516.06
577.61	490.06
577.821	509.06
578.032	539.06
578.243	568.06
578.454	567.06
578.665	537.06
578.875	541.06
579.086	515.06
579.297	548.06
579.508	568.06
579.718	556.06
579.929	541.06
580.14	540.06
580.35	518.06
580.561	487.06
580.772	475.06
580.982	493.06
581.193	464.06
581.403	467.06
581.614	481.06
581.825	449.06
582.035	448.06
582.246	476.06
582.456	489.06
582.667	477.06
582.877	458.06
583.087	443.06
583.298	455.06
583.508	458.06
583.719	432.06
583.929	449.06
584.139	463.06
584.35	442.06
584.56	473.06
584.77	472.06
584.981	470.06
585.191	464.06
585.401	456.06
585.611	464.06
585.821	498.06
586.032	476.06
586.242	478.06
586.452	476.06
586.662	452.06
586.872	500.06
587.082	487.06
587.292	474.06
587.502	453.06
587.713	460.06
587.923	470.06
588.133	485.06
588.343	496.06
588.553	439.06
588.762	456.06
588.972	447.06
589.182	439.06
589.392	446.06
589.602	454.06
589.812	475.06
590.022	488.06
590.232	493.06
590.441	466.06
590.651	457.06
590.861	468.06
591.071	464.06
591.281	440.06
591.49	445.06
591.7	459.06
591.91	452.06
592.119	445.06
592.329	456.06
592.539	458.06
592.748	466.06
592.958	460.06
593.167	484.06
593.377	483.06
593.587	474.06
593.796	484.06
594.006	464.06
594.215	474.06
594.424	492.06
594.634	484.06
594.843	482.06
595.053	434.06
595.262	451.06
595.472	436.06
595.681	444.06
595.89	420.06
596.1	433.06
596.309	449.06
596.518	420.06
596.727	407.06
596.937	431.06
597.146	421.06
597.355	455.06
597.564	433.06
597.774	431.06
597.983	403.06
598.192	389.06
598.401	402.06
598.61	391.06
598.819	388.06
599.028	377.06
599.237	394.06
599.446	369.06
599.655	353.06
599.864	379.06
600.073	372.06
600.282	375.06
600.491	376.06
600.7	356.06
600.909	394.06
601.118	367.06
601.327	356.06
601.536	383.06
601.745	399.06
601.953	393.06
602.162	380.06
602.371	383.06
602.58	379.06
602.789	391.06
602.997	376.06
603.206	383.06
603.415	375.06
603.623	361.06
603.832	360.06
604.041	338.06
604.249	363.06
604.458	383.06
604.666	352.06
604.875	358.06
605.084	336.06
605.292	359.06
605.501	351.06
605.709	375.06
605.918	369.06
606.126	358.06
606.334	357.06
606.543	347.06
606.751	351.06
606.96	348.06
607.168	341.06
607.376	337.06
607.585	345.06
607.793	341.06
608.001	356.06
608.21	348.06
608.418	369.06
608.626	356.06
608.834	337.06
609.043	339.06
609.251	346.06
609.459	331.06
609.667	332.06
609.875	340.06
610.083	339.06
610.291	355.06
610.499	345.06
610.707	353.06
610.916	330.06
611.124	341.06
611.332	322.06
611.54	347.06
611.748	319.06
611.955	341.06
612.163	338.06
612.371	338.06
612.579	329.06
612.787	339.06
612.995	326.06
613.203	342.06
613.411	313.06
613.618	343.06
613.826	353.06
614.034	353.06
614.242	321.06
614.449	323.06
614.657	322.06
614.865	336.06
615.072	314.06
615.28	297.06
615.488	329.06
615.695	332.06
615.903	326.06
616.111	332.06
616.318	323.06
616.526	322.06
616.733	313.06
616.941	331.06
617.148	328.06
617.356	326.06
617.563	315.06
617.771	291.06
617.978	299.06
618.185	298.06
618.393	338.06
618.6	298.06
618.807	328.06
619.015	325.06
619.222	309.06
619.429	316.06
619.637	316.06
619.844	310.06
620.051	293.06
620.258	296.06
620.466	282.06
620.673	296.06
620.88	291.06
621.087	290.06
621.294	284.06
621.501	280.06
621.708	304.06
621.915	305.06
622.122	296.06
622.329	307.06
622.536	292.06
622.743	276.06
622.95	288.06
623.157	278.06
623.364	311.06
623.571	296.06
623.778	281.06
623.985	316.06
624.192	320.06
624.399	316.06
624.606	290.06
624.812	305.06
625.019	288.06
625.226	309.06
625.433	311.06
625.639	291.06
625.846	298.06
626.053	275.06
626.259	275.06
626.466	290.06
626.673	309.06
626.879	299.06
627.086	287.06
627.293	281.06
627.499	278.06
627.706	268.06
627.912	246.06
628.119	274.06
628.325	264.06
628.532	268.06
628.738	263.06
628.945	245.06
629.151	264.06
629.357	259.06
629.564	271.06
629.77	266.06
629.976	248.06
630.183	263.06
630.389	262.06
630.595	261.06
630.802	268.06
631.008	262.06
631.214	254.06
631.42	238.06
631.627	258.06
631.833	253.06
632.039	261.06
632.245	245.06
632.451	239.06
632.657	242.06
632.863	247.06
633.069	245.06
633.275	260.06
633.481	225.06
633.688	232.06
633.893	263.06
634.099	251.06
634.305	244.06
634.511	233.06
634.717	227.06
634.923	228.06
635.129	224.06
635.335	224.06
635.541	240.06
635.747	230.06
635.952	231.06
636.158	243.06
636.364	245.06
636.57	225.06
636.775	235.06
636.981	230.06
637.187	231.06
637.392	225.06
637.598	225.06
637.804	224.06
638.009	221.06
638.215	240.06
638.421	228.06
638.626	217.06
638.832	231.06
639.037	233.06
639.243	229.06
639.448	220.06
639.654	220.06
639.859	234.06
640.065	230.06
640.27	239.06
640.475	226.06
640.681	211.06
640.886	223.06
641.091	223.06
641.297	219.06
641.502	214.06
641.707	222.06
641.913	215.06
642.118	218.06
642.323	203.06
642.528	224.06
642.733	202.06
642.939	207.06
643.144	212.06
643.349	213.06
643.554	219.06
643.759	210.06
643.964	217.06
644.169	193.06
644.374	202.06
644.579	210.06
644.784	227.06
644.989	208.06
645.194	214.06
645.399	215.06
645.604	205.06
645.809	225.06
646.014	204.06
646.219	197.06
646.423	213.06
646.628	214.06
646.833	232.06
647.038	211.06
647.243	210.06
647.447	209.06
647.652	218.06
647.857	211.06
648.062	224.06
648.266	209.06
648.471	207.06
648.676	226.06
648.88	213.06
649.085	201.06
649.289	210.06
649.494	209.06
649.698	235.06
649.903	207.06
650.107	192.06
650.312	202.06
650.516	189.06
650.721	181.06
650.925	187.06
651.13	179.06
651.334	184.06
651.539	185.06
651.743	194.06
651.947	187.06
652.152	193.06
652.356	181.06
652.56	154.06
652.764	181.06
652.969	169.06
653.173	181.06
653.377	177.06
653.581	169.06
653.785	163.06
653.99	159.06
654.194	169.06
654.398	165.06
654.602	171.06
654.806	175.06
655.01	165.06
655.214	177.06
655.418	148.06
655.622	161.06
655.826	174.06
656.03	159.06
656.234	158.06
656.438	169.06
656.642	159.06
656.846	168.06
657.049	154.06
657.253	153.06
657.457	148.06
657.661	127.06
657.865	142.06
658.068	129.06
658.272	123.06
658.476	133.06
658.68	133.06
658.883	118.06
659.087	117.06
659.291	112.06
659.494	106.06
659.698	102.06
659.901	116.06
660.105	107.06
660.309	106.06
660.512	106.06
660.716	108.06
660.919	103.06
661.123	91.06
661.326	89.06
661.53	105.06
661.733	107.06
661.936	103.06
662.14	100.06
662.343	93.06
662.546	88.06
662.75	90.06
662.953	93.06
663.156	115.06
663.36	91.06
663.563	84.06
663.766	88.06
663.969	85.06
664.173	81.06
664.376	79.06
664.579	77.06
664.782	86.06
664.985	74.06
665.188	84.06
665.391	98.06
665.594	88.06
665.797	81.06
666	83.06
666.203	96.06
666.406	77.06
666.609	84.06
666.812	84.06
667.015	85.06
667.218	90.06
667.421	79.06
667.624	92.06
667.827	95.06
668.03	99.06
668.232	98.06
668.435	90.06
668.638	84.06
668.841	88.06
669.043	91.06
669.246	96.06
669.449	97.06
669.651	90.06
669.854	83.06
670.057	81.06
670.259	95.06
670.462	72.06
670.665	78.06
670.867	85.06
671.07	79.06
671.272	71.06
671.475	92.06
671.677	90.06
671.88	90.06
672.082	88.06
672.284	89.06
672.487	87.06
672.689	73.06
672.892	82.06
