Data from NickelSpatula.Lamp.E10.P2_HRD10591_11-57-29-532.txt Node
Date: Tue Jul 23 11:57:29 EDT 2019
User: cochatt
Spectrometer: HR+D1059
Trigger mode: 1
Integration Time (sec): 1.000000E-1
Scans to average: 1
Electric dark correction enabled: true
Nonlinearity correction enabled: false
Boxcar width: 0
XAxis mode: Wavelengths
Number of Pixels in Spectrum: 2048
>>>>>Begin Spectral Data<<<<<
223.165	-13.31
223.4	-13.31
223.635	-13.31
223.869	-18.31
224.104	-28.31
224.338	-18.31
224.573	-26.31
224.808	-13.31
225.042	-3.31
225.277	-0.31
225.511	-9.31
225.746	-5.31
225.98	8.69
226.215	5.69
226.449	18.69
226.683	35.69
226.918	33.69
227.152	33.69
227.387	25.69
227.621	39.69
227.856	33.69
228.09	46.69
228.324	60.69
228.559	58.69
228.793	81.69
229.027	130.69
229.262	158.69
229.496	146.69
229.73	173.69
229.964	179.69
230.199	205.69
230.433	206.69
230.667	208.69
230.901	210.69
231.136	181.69
231.37	190.69
231.604	223.69
231.838	234.69
232.072	260.69
232.306	234.69
232.541	239.69
232.775	241.69
233.009	266.69
233.243	314.69
233.477	295.69
233.711	343.69
233.945	330.69
234.179	328.69
234.413	334.69
234.647	373.69
234.881	453.69
235.115	393.69
235.349	404.69
235.583	367.69
235.817	366.69
236.051	373.69
236.285	394.69
236.519	472.69
236.753	437.69
236.987	422.69
237.221	402.69
237.455	414.69
237.689	412.69
237.922	434.69
238.156	458.69
238.39	529.69
238.624	651.69
238.858	615.69
239.091	468.69
239.325	501.69
239.559	462.69
239.793	526.69
240.027	637.69
240.26	608.69
240.494	566.69
240.728	556.69
240.961	663.69
241.195	626.69
241.429	598.69
241.662	588.69
241.896	510.69
242.13	478.69
242.363	459.69
242.597	448.69
242.83	514.69
243.064	527.69
243.298	576.69
243.531	601.69
243.765	610.69
243.998	629.69
244.232	592.69
244.465	603.69
244.699	541.69
244.932	660.69
245.166	613.69
245.399	528.69
245.633	508.69
245.866	562.69
246.099	640.69
246.333	691.69
246.566	751.69
246.8	732.69
247.033	710.69
247.266	673.69
247.5	686.69
247.733	669.69
247.966	655.69
248.2	672.69
248.433	743.69
248.666	801.69
248.899	799.69
249.133	853.69
249.366	964.69
249.599	1022.69
249.832	913.69
250.066	825.69
250.299	847.69
250.532	805.69
250.765	791.69
250.998	725.69
251.231	699.69
251.465	742.69
251.698	811.69
251.931	768.69
252.164	821.69
252.397	908.69
252.63	1011.69
252.863	1158.69
253.096	1150.69
253.329	1100.69
253.562	1090.69
253.795	1225.69
254.028	1348.69
254.261	1361.69
254.494	1228.69
254.727	1108.69
254.96	1099.69
255.193	1165.69
255.426	1080.69
255.659	856.69
255.892	758.69
256.124	845.69
256.357	994.69
256.59	1173.69
256.823	1113.69
257.056	922.69
257.289	927.69
257.521	949.69
257.754	1116.69
257.987	1253.69
258.22	1082.69
258.452	972.69
258.685	1121.69
258.918	1244.69
259.151	1181.69
259.383	1273.69
259.616	1450.69
259.849	1500.69
260.081	1658.69
260.314	1834.69
260.547	1459.69
260.779	1487.69
261.012	1686.69
261.244	1558.69
261.477	1603.69
261.71	1496.69
261.942	1277.69
262.175	1263.69
262.407	1197.69
262.64	1251.69
262.872	1441.69
263.105	1598.69
263.337	1672.69
263.57	1523.69
263.802	1032.69
264.035	880.69
264.267	850.69
264.499	748.69
264.732	719.69
264.964	686.69
265.197	702.69
265.429	720.69
265.661	803.69
265.894	855.69
266.126	903.69
266.358	997.69
266.591	1215.69
266.823	1465.69
267.055	1358.69
267.287	1237.69
267.52	1238.69
267.752	1314.69
267.984	1411.69
268.216	1316.69
268.448	1111.69
268.681	1097.69
268.913	1211.69
269.145	1238.69
269.377	1290.69
269.609	1270.69
269.841	1198.69
270.073	1232.69
270.306	1343.69
270.538	1382.69
270.77	1366.69
271.002	1352.69
271.234	1418.69
271.466	1460.69
271.698	1413.69
271.93	1412.69
272.162	1391.69
272.394	1378.69
272.626	1338.69
272.858	1373.69
273.09	1428.69
273.322	1282.69
273.553	1242.69
273.785	1430.69
274.017	1930.69
274.249	2354.69
274.481	2404.69
274.713	2663.69
274.945	3047.69
275.176	3163.69
275.408	2775.69
275.64	2504.69
275.872	2541.69
276.104	2112.69
276.335	1863.69
276.567	1871.69
276.799	1910.69
277.031	1982.69
277.262	1567.69
277.494	1200.69
277.726	1160.69
277.957	1286.69
278.189	1465.69
278.421	1416.69
278.652	1378.69
278.884	1322.69
279.115	1232.69
279.347	1150.69
279.579	1210.69
279.81	1162.69
280.042	1203.69
280.273	1225.69
280.505	1130.69
280.736	1003.69
280.968	1002.69
281.199	1052.69
281.431	1204.69
281.662	1203.69
281.894	1165.69
282.125	1229.69
282.356	1298.69
282.588	1374.69
282.819	1233.69
283.051	1366.69
283.282	1640.69
283.513	1945.69
283.745	2116.69
283.976	2116.69
284.207	1941.69
284.439	2018.69
284.67	1991.69
284.901	1767.69
285.132	1900.69
285.364	1983.69
285.595	1795.69
285.826	1890.69
286.057	1985.69
286.288	1887.69
286.52	1974.69
286.751	2044.69
286.982	2042.69
287.213	1795.69
287.444	1663.69
287.675	1778.69
287.906	1797.69
288.138	1532.69
288.369	1317.69
288.6	1258.69
288.831	1346.69
289.062	1551.69
289.293	1669.69
289.524	1564.69
289.755	1608.69
289.986	1594.69
290.217	1404.69
290.448	1070.69
290.679	964.69
290.91	910.69
291.141	922.69
291.371	963.69
291.602	948.69
291.833	972.69
292.064	1021.69
292.295	1193.69
292.526	1382.69
292.757	1440.69
292.987	1526.69
293.218	1532.69
293.449	1588.69
293.68	1661.69
293.91	1530.69
294.141	1589.69
294.372	1474.69
294.603	1414.69
294.833	1536.69
295.064	1801.69
295.295	1668.69
295.525	1278.69
295.756	1133.69
295.987	978.69
296.217	966.69
296.448	1005.69
296.679	1095.69
296.909	1188.69
297.14	1239.69
297.37	1382.69
297.601	1353.69
297.831	1106.69
298.062	1218.69
298.292	1397.69
298.523	1519.69
298.753	1730.69
298.984	1562.69
299.214	1208.69
299.445	1046.69
299.675	1021.69
299.905	1001.69
300.136	1033.69
300.366	1187.69
300.597	1142.69
300.827	995.69
301.057	978.69
301.288	1010.69
301.518	1062.69
301.748	1184.69
301.979	1295.69
302.209	1381.69
302.439	1402.69
302.669	1212.69
302.9	1251.69
303.13	1126.69
303.36	1078.69
303.59	1029.69
303.82	1073.69
304.051	1230.69
304.281	1320.69
304.511	1235.69
304.741	1127.69
304.971	1187.69
305.201	1268.69
305.431	1176.69
305.661	1040.69
305.891	1028.69
306.121	1044.69
306.352	939.69
306.582	859.69
306.812	882.69
307.042	859.69
307.272	790.69
307.502	802.69
307.731	853.69
307.961	871.69
308.191	837.69
308.421	807.69
308.651	770.69
308.881	764.69
309.111	788.69
309.341	827.69
309.571	886.69
309.8	902.69
310.03	916.69
310.26	976.69
310.49	940.69
310.72	865.69
310.949	821.69
311.179	888.69
311.409	922.69
311.639	1070.69
311.868	1344.69
312.098	1765.69
312.328	1903.69
312.557	1766.69
312.787	1834.69
313.017	1607.69
313.246	1727.69
313.476	1904.69
313.706	1563.69
313.935	1254.69
314.165	1028.69
314.394	926.69
314.624	951.69
314.853	1012.69
315.083	1063.69
315.312	983.69
315.542	1023.69
315.771	921.69
316.001	844.69
316.23	794.69
316.46	807.69
316.689	863.69
316.919	853.69
317.148	872.69
317.377	862.69
317.607	869.69
317.836	920.69
318.065	1087.69
318.295	1221.69
318.524	1129.69
318.753	986.69
318.983	943.69
319.212	871.69
319.441	986.69
319.67	1092.69
319.9	1180.69
320.129	1136.69
320.358	956.69
320.587	929.69
320.816	997.69
321.046	1149.69
321.275	1298.69
321.504	1266.69
321.733	1250.69
321.962	1204.69
322.191	1144.69
322.42	1072.69
322.649	1098.69
322.878	1154.69
323.108	1165.69
323.337	1104.69
323.566	1059.69
323.795	1068.69
324.024	1016.69
324.253	962.69
324.482	943.69
324.71	1060.69
324.939	1171.69
325.168	1096.69
325.397	903.69
325.626	891.69
325.855	920.69
326.084	914.69
326.313	862.69
326.542	809.69
326.77	888.69
326.999	869.69
327.228	935.69
327.457	956.69
327.686	1003.69
327.914	871.69
328.143	826.69
328.372	824.69
328.6	832.69
328.829	887.69
329.058	897.69
329.287	871.69
329.515	894.69
329.744	860.69
329.972	820.69
330.201	792.69
330.43	839.69
330.658	920.69
330.887	1021.69
331.115	990.69
331.344	984.69
331.572	955.69
331.801	874.69
332.03	820.69
332.258	868.69
332.486	942.69
332.715	956.69
332.943	908.69
333.172	897.69
333.4	910.69
333.629	999.69
333.857	1109.69
334.085	1071.69
334.314	1082.69
334.542	1011.69
334.771	940.69
334.999	917.69
335.227	927.69
335.455	905.69
335.684	1011.69
335.912	1166.69
336.14	1292.69
336.369	1226.69
336.597	1196.69
336.825	1315.69
337.053	1456.69
337.281	1212.69
337.51	990.69
337.738	931.69
337.966	1030.69
338.194	1166.69
338.422	1088.69
338.65	961.69
338.878	854.69
339.106	906.69
339.334	991.69
339.562	1036.69
339.79	991.69
340.018	965.69
340.246	1021.69
340.474	1144.69
340.702	1224.69
340.93	1279.69
341.158	1289.69
341.386	1076.69
341.614	1093.69
341.842	1073.69
342.07	1125.69
342.298	1287.69
342.526	1362.69
342.754	1170.69
342.981	1055.69
343.209	1039.69
343.437	1115.69
343.665	1162.69
343.893	1165.69
344.12	1373.69
344.348	1579.69
344.576	1372.69
344.804	1144.69
345.031	1021.69
345.259	944.69
345.487	978.69
345.714	1016.69
345.942	1063.69
346.17	1174.69
346.397	1118.69
346.625	976.69
346.853	960.69
347.08	920.69
347.308	988.69
347.535	1068.69
347.763	1131.69
347.99	981.69
348.218	908.69
348.445	956.69
348.673	942.69
348.9	939.69
349.128	1021.69
349.355	1063.69
349.583	1041.69
349.81	992.69
350.037	930.69
350.265	831.69
350.492	782.69
350.72	788.69
350.947	814.69
351.174	884.69
351.402	938.69
351.629	983.69
351.856	954.69
352.083	878.69
352.311	938.69
352.538	1040.69
352.765	1130.69
352.992	1029.69
353.22	935.69
353.447	986.69
353.674	927.69
353.901	932.69
354.128	965.69
354.355	979.69
354.583	934.69
354.81	958.69
355.037	999.69
355.264	978.69
355.491	1038.69
355.718	1160.69
355.945	1112.69
356.172	1082.69
356.399	1065.69
356.626	1282.69
356.853	1615.69
357.08	1640.69
357.307	1686.69
357.534	1334.69
357.761	1332.69
357.988	1685.69
358.215	1960.69
358.441	1859.69
358.668	1572.69
358.895	1427.69
359.122	1196.69
359.349	1149.69
359.576	1282.69
359.802	1062.69
360.029	908.69
360.256	983.69
360.483	1243.69
360.709	1544.69
360.936	1618.69
361.163	1395.69
361.39	1074.69
361.616	1024.69
361.843	1180.69
362.07	1462.69
362.296	1345.69
362.523	1008.69
362.749	932.69
362.976	973.69
363.203	1149.69
363.429	1316.69
363.656	1038.69
363.882	954.69
364.109	966.69
364.335	1008.69
364.562	991.69
364.788	1126.69
365.015	1274.69
365.241	1142.69
365.468	927.69
365.694	826.69
365.92	805.69
366.147	780.69
366.373	754.69
366.599	762.69
366.826	797.69
367.052	814.69
367.278	837.69
367.505	818.69
367.731	880.69
367.957	999.69
368.184	985.69
368.41	970.69
368.636	968.69
368.862	1038.69
369.089	990.69
369.315	873.69
369.541	862.69
369.767	866.69
369.993	828.69
370.219	820.69
370.445	889.69
370.672	1004.69
370.898	1030.69
371.124	1048.69
371.35	930.69
371.576	878.69
371.802	962.69
372.028	1136.69
372.254	1297.69
372.48	1132.69
372.706	1036.69
372.932	1056.69
373.158	1104.69
373.384	1309.69
373.61	1728.69
373.835	1788.69
374.061	1349.69
374.287	1122.69
374.513	1351.69
374.739	1622.69
374.965	1612.69
375.191	1582.69
375.416	1136.69
375.642	1021.69
375.868	1172.69
376.094	1266.69
376.319	1142.69
376.545	1257.69
376.771	1306.69
376.997	1125.69
377.222	860.69
377.448	746.69
377.674	741.69
377.899	742.69
378.125	765.69
378.35	738.69
378.576	748.69
378.802	855.69
379.027	925.69
379.253	869.69
379.478	896.69
379.704	998.69
379.929	1061.69
380.155	1069.69
380.38	950.69
380.606	988.69
380.831	1068.69
381.057	996.69
381.282	944.69
381.507	1140.69
381.733	1347.69
381.958	1490.69
382.184	1552.69
382.409	1633.69
382.634	1587.69
382.86	1633.69
383.085	1390.69
383.31	1122.69
383.535	1194.69
383.761	1198.69
383.986	1141.69
384.211	1360.69
384.436	1276.69
384.662	1026.69
384.887	991.69
385.112	1010.69
385.337	998.69
385.562	988.69
385.787	1067.69
386.013	1181.69
386.238	1221.69
386.463	997.69
386.688	935.69
386.913	925.69
387.138	910.69
387.363	951.69
387.588	974.69
387.813	986.69
388.038	1073.69
388.263	952.69
388.488	933.69
388.713	1115.69
388.938	1168.69
389.163	1006.69
389.387	892.69
389.612	887.69
389.837	922.69
390.062	935.69
390.287	967.69
390.512	989.69
390.736	921.69
390.961	857.69
391.186	824.69
391.411	820.69
391.636	831.69
391.86	911.69
392.085	986.69
392.31	971.69
392.534	930.69
392.759	926.69
392.984	948.69
393.208	959.69
393.433	870.69
393.658	788.69
393.882	804.69
394.107	771.69
394.331	799.69
394.556	787.69
394.78	797.69
395.005	803.69
395.229	852.69
395.454	849.69
395.678	886.69
395.903	888.69
396.127	853.69
396.352	865.69
396.576	944.69
396.801	972.69
397.025	1047.69
397.249	1100.69
397.474	931.69
397.698	924.69
397.922	932.69
398.147	903.69
398.371	911.69
398.595	955.69
398.82	934.69
399.044	972.69
399.268	1016.69
399.492	1026.69
399.717	1052.69
399.941	1092.69
400.165	1035.69
400.389	1036.69
400.613	1043.69
400.837	1022.69
401.062	894.69
401.286	901.69
401.51	922.69
401.734	898.69
401.958	929.69
402.182	891.69
402.406	880.69
402.63	926.69
402.854	936.69
403.078	1045.69
403.302	1283.69
403.526	1312.69
403.75	1204.69
403.974	1044.69
404.198	1082.69
404.422	1203.69
404.645	1406.69
404.869	1552.69
405.093	1150.69
405.317	1005.69
405.541	966.69
405.765	1006.69
405.988	1019.69
406.212	1053.69
406.436	1258.69
406.66	1395.69
406.883	1098.69
407.107	1138.69
407.331	1332.69
407.555	1266.69
407.778	1087.69
408.002	1018.69
408.226	1066.69
408.449	1037.69
408.673	1037.69
408.896	920.69
409.12	878.69
409.344	914.69
409.567	902.69
409.791	882.69
410.014	888.69
410.238	862.69
410.461	910.69
410.685	901.69
410.908	907.69
411.132	911.69
411.355	938.69
411.578	935.69
411.802	900.69
412.025	940.69
412.249	1002.69
412.472	942.69
412.695	944.69
412.919	944.69
413.142	958.69
413.365	1024.69
413.589	1024.69
413.812	905.69
414.035	888.69
414.258	926.69
414.482	1024.69
414.705	1034.69
414.928	900.69
415.151	868.69
415.374	899.69
415.597	900.69
415.821	914.69
416.044	896.69
416.267	847.69
416.49	868.69
416.713	845.69
416.936	831.69
417.159	846.69
417.382	865.69
417.605	898.69
417.828	890.69
418.051	900.69
418.274	947.69
418.497	904.69
418.72	906.69
418.943	941.69
419.166	994.69
419.389	1019.69
419.611	994.69
419.834	954.69
420.057	1100.69
420.28	1078.69
420.503	1002.69
420.726	892.69
420.948	862.69
421.171	901.69
421.394	859.69
421.617	845.69
421.839	883.69
422.062	926.69
422.285	915.69
422.507	948.69
422.73	964.69
422.953	959.69
423.175	938.69
423.398	950.69
423.621	1002.69
423.843	1029.69
424.066	966.69
424.288	918.69
424.511	904.69
424.733	918.69
424.956	940.69
425.178	1058.69
425.401	1169.69
425.623	1362.69
425.846	1116.69
426.068	1013.69
426.291	1089.69
426.513	1038.69
426.735	946.69
426.958	1000.69
427.18	1123.69
427.402	1455.69
427.625	1421.69
427.847	1185.69
428.069	927.69
428.292	877.69
428.514	887.69
428.736	890.69
428.958	921.69
429.181	1111.69
429.403	942.69
429.625	903.69
429.847	844.69
430.069	888.69
430.292	879.69
430.514	847.69
430.736	970.69
430.958	1165.69
431.18	1088.69
431.402	846.69
431.624	819.69
431.846	798.69
432.068	776.69
432.29	797.69
432.512	916.69
432.734	1188.69
432.956	1135.69
433.178	879.69
433.4	875.69
433.622	862.69
433.844	837.69
434.066	924.69
434.287	890.69
434.509	868.69
434.731	901.69
434.953	857.69
435.175	922.69
435.397	1019.69
435.618	913.69
435.84	818.69
436.062	814.69
436.284	836.69
436.505	796.69
436.727	775.69
436.949	810.69
437.17	830.69
437.392	847.69
437.614	823.69
437.835	812.69
438.057	820.69
438.278	957.69
438.5	1350.69
438.721	1343.69
438.943	942.69
439.165	795.69
439.386	776.69
439.608	784.69
439.829	781.69
440.05	796.69
440.272	854.69
440.493	975.69
440.715	1206.69
440.936	1006.69
441.158	870.69
441.379	860.69
441.6	976.69
441.822	1006.69
442.043	904.69
442.264	868.69
442.486	864.69
442.707	857.69
442.928	874.69
443.149	918.69
443.371	918.69
443.592	902.69
443.813	894.69
444.034	916.69
444.255	931.69
444.476	945.69
444.698	950.69
444.919	955.69
445.14	1034.69
445.361	1020.69
445.582	952.69
445.803	930.69
446.024	938.69
446.245	939.69
446.466	907.69
446.687	851.69
446.908	858.69
447.129	847.69
447.35	803.69
447.571	812.69
447.792	803.69
448.013	784.69
448.234	773.69
448.455	792.69
448.675	796.69
448.896	800.69
449.117	794.69
449.338	786.69
449.559	818.69
449.779	848.69
450	863.69
450.221	811.69
450.442	821.69
450.662	820.69
450.883	792.69
451.104	830.69
451.324	782.69
451.545	836.69
451.766	790.69
451.986	789.69
452.207	767.69
452.428	782.69
452.648	759.69
452.869	808.69
453.089	847.69
453.31	840.69
453.53	753.69
453.751	749.69
453.971	757.69
454.192	759.69
454.412	812.69
454.633	706.69
454.853	736.69
455.073	735.69
455.294	714.69
455.514	740.69
455.734	771.69
455.955	806.69
456.175	773.69
456.395	714.69
456.616	711.69
456.836	698.69
457.056	703.69
457.276	697.69
457.497	722.69
457.717	736.69
457.937	708.69
458.157	715.69
458.377	719.69
458.598	724.69
458.818	748.69
459.038	830.69
459.258	815.69
459.478	865.69
459.698	894.69
459.918	900.69
460.138	882.69
460.358	919.69
460.578	879.69
460.798	861.69
461.018	884.69
461.238	850.69
461.458	830.69
461.678	886.69
461.898	916.69
462.118	907.69
462.338	938.69
462.558	942.69
462.777	1007.69
462.997	1006.69
463.217	1010.69
463.437	1020.69
463.657	1026.69
463.876	960.69
464.096	934.69
464.316	974.69
464.536	966.69
464.755	1006.69
464.975	967.69
465.195	929.69
465.414	969.69
465.634	934.69
465.854	916.69
466.073	864.69
466.293	863.69
466.512	949.69
466.732	999.69
466.951	1036.69
467.171	936.69
467.391	881.69
467.61	861.69
467.829	910.69
468.049	902.69
468.268	886.69
468.488	831.69
468.707	906.69
468.927	1050.69
469.146	1114.69
469.365	1028.69
469.585	925.69
469.804	1007.69
470.023	1089.69
470.243	924.69
470.462	885.69
470.681	921.69
470.901	902.69
471.12	931.69
471.339	992.69
471.558	938.69
471.777	919.69
471.997	987.69
472.216	1121.69
472.435	1062.69
472.654	968.69
472.873	956.69
473.092	1006.69
473.311	1010.69
473.53	928.69
473.749	911.69
473.968	956.69
474.187	959.69
474.406	932.69
474.625	913.69
474.844	950.69
475.063	1004.69
475.282	1022.69
475.501	1064.69
475.72	1109.69
475.939	1051.69
476.158	1105.69
476.377	1254.69
476.596	1432.69
476.814	1467.69
477.033	1228.69
477.252	1044.69
477.471	981.69
477.69	996.69
477.908	1102.69
478.127	1145.69
478.346	1038.69
478.564	1123.69
478.783	1108.69
479.002	1108.69
479.22	1246.69
479.439	1374.69
479.658	1202.69
479.876	1124.69
480.095	1204.69
480.313	1253.69
480.532	1112.69
480.751	1086.69
480.969	1117.69
481.188	1247.69
481.406	1276.69
481.624	1218.69
481.843	1108.69
482.061	1075.69
482.28	1203.69
482.498	1416.69
482.717	1347.69
482.935	1151.69
483.153	1098.69
483.372	1023.69
483.59	1051.69
483.808	1055.69
484.027	1009.69
484.245	976.69
484.463	979.69
484.681	1011.69
484.9	1064.69
485.118	1138.69
485.336	1100.69
485.554	1023.69
485.772	1075.69
485.99	1167.69
486.209	1224.69
486.427	1215.69
486.645	1194.69
486.863	1237.69
487.081	1230.69
487.299	1362.69
487.517	1289.69
487.735	1184.69
487.953	1197.69
488.171	1235.69
488.389	1167.69
488.607	1097.69
488.825	1156.69
489.043	1260.69
489.261	1425.69
489.479	1486.69
489.696	1316.69
489.914	1150.69
490.132	1092.69
490.35	1138.69
490.568	1098.69
490.786	1079.69
491.003	1114.69
491.221	1142.69
491.439	1099.69
491.657	1111.69
491.874	1197.69
492.092	1463.69
492.31	1744.69
492.527	1691.69
492.745	1472.69
492.963	1288.69
493.18	1301.69
493.398	1301.69
493.615	1258.69
493.833	1234.69
494.05	1238.69
494.268	1229.69
494.485	1220.69
494.703	1156.69
494.92	1254.69
495.138	1202.69
495.355	1210.69
495.573	1233.69
495.79	1367.69
496.008	1743.69
496.225	1544.69
496.442	1394.69
496.66	1350.69
496.877	1421.69
497.094	1391.69
497.312	1315.69
497.529	1292.69
497.746	1313.69
497.963	1339.69
498.181	1432.69
498.398	1549.69
498.615	1596.69
498.832	1665.69
499.049	1692.69
499.267	1526.69
499.484	1526.69
499.701	1590.69
499.918	1732.69
500.135	1850.69
500.352	1869.69
500.569	1970.69
500.786	2006.69
501.003	2005.69
501.22	1819.69
501.437	1700.69
501.654	1621.69
501.871	1642.69
502.088	1622.69
502.305	1485.69
502.522	1518.69
502.739	1470.69
502.956	1354.69
503.172	1349.69
503.389	1280.69
503.606	1271.69
503.823	1283.69
504.04	1324.69
504.256	1330.69
504.473	1312.69
504.69	1335.69
504.907	1353.69
505.123	1374.69
505.34	1416.69
505.557	1396.69
505.773	1330.69
505.99	1252.69
506.207	1332.69
506.423	1234.69
506.64	1166.69
506.856	1219.69
507.073	1338.69
507.289	1315.69
507.506	1288.69
507.722	1425.69
507.939	1404.69
508.155	1399.69
508.372	1287.69
508.588	1277.69
508.805	1204.69
509.021	1204.69
509.238	1143.69
509.454	1157.69
509.67	1152.69
509.887	1173.69
510.103	1314.69
510.319	1294.69
510.536	1166.69
510.752	1079.69
510.968	1059.69
511.184	1012.69
511.401	1017.69
511.617	996.69
511.833	1068.69
512.049	1046.69
512.265	1082.69
512.481	1100.69
512.698	1207.69
512.914	1356.69
513.13	1200.69
513.346	1087.69
513.562	1160.69
513.778	1154.69
513.994	1113.69
514.21	1206.69
514.426	1194.69
514.642	1138.69
514.858	1107.69
515.074	1191.69
515.29	1267.69
515.506	1419.69
515.721	1317.69
515.937	1215.69
516.153	1140.69
516.369	1151.69
516.585	1215.69
516.801	1349.69
517.016	1571.69
517.232	1544.69
517.448	1504.69
517.664	1360.69
517.879	1261.69
518.095	1259.69
518.311	1240.69
518.527	1310.69
518.742	1367.69
518.958	1427.69
519.173	1379.69
519.389	1344.69
519.605	1377.69
519.82	1463.69
520.036	1714.69
520.251	1690.69
520.467	1557.69
520.682	2331.69
520.898	2822.69
521.113	2632.69
521.329	1713.69
521.544	1503.69
521.76	1483.69
521.975	1310.69
522.19	1268.69
522.406	1302.69
522.621	1456.69
522.836	1484.69
523.052	1504.69
523.267	1258.69
523.482	1270.69
523.698	1366.69
523.913	1307.69
524.128	1188.69
524.343	1164.69
524.559	1210.69
524.774	1149.69
524.989	1136.69
525.204	1166.69
525.419	1298.69
525.634	1212.69
525.849	1207.69
526.064	1251.69
526.28	1260.69
526.495	1430.69
526.71	1510.69
526.925	1293.69
527.14	1349.69
527.355	1309.69
527.57	1131.69
527.785	1166.69
527.999	1140.69
528.214	1068.69
528.429	1059.69
528.644	1049.69
528.859	1006.69
529.074	988.69
529.289	960.69
529.503	1015.69
529.718	1050.69
529.933	1143.69
530.148	1208.69
530.363	1062.69
530.577	1004.69
530.792	975.69
531.007	967.69
531.221	940.69
531.436	954.69
531.651	996.69
531.865	1020.69
532.08	1016.69
532.295	954.69
532.509	1016.69
532.724	1146.69
532.938	1276.69
533.153	1448.69
533.367	1206.69
533.582	1160.69
533.796	1063.69
534.011	1036.69
534.225	1049.69
534.44	1028.69
534.654	1055.69
534.868	1246.69
535.083	1096.69
535.297	1009.69
535.511	997.69
535.726	1135.69
535.94	1087.69
536.154	996.69
536.369	982.69
536.583	987.69
536.797	996.69
537.011	1021.69
537.225	1116.69
537.44	1168.69
537.654	994.69
537.868	1014.69
538.082	1000.69
538.296	991.69
538.51	1076.69
538.724	1062.69
538.938	1059.69
539.153	980.69
539.367	981.69
539.581	964.69
539.795	1003.69
540.009	1134.69
540.222	1025.69
540.436	1051.69
540.65	1166.69
540.864	1156.69
541.078	1174.69
541.292	1327.69
541.506	1093.69
541.72	1067.69
541.934	1001.69
542.147	1058.69
542.361	1026.69
542.575	1064.69
542.789	993.69
543.002	940.69
543.216	1056.69
543.43	954.69
543.644	939.69
543.857	924.69
544.071	926.69
544.285	931.69
544.498	929.69
544.712	911.69
544.925	981.69
545.139	946.69
545.352	890.69
545.566	894.69
545.779	1039.69
545.993	940.69
546.206	882.69
546.42	891.69
546.633	874.69
546.847	868.69
547.06	832.69
547.274	838.69
547.487	863.69
547.7	943.69
547.914	1002.69
548.127	1115.69
548.34	1077.69
548.554	968.69
548.767	982.69
548.98	1040.69
549.193	985.69
549.407	987.69
549.62	1160.69
549.833	1124.69
550.046	1142.69
550.259	1177.69
550.473	994.69
550.686	970.69
550.899	977.69
551.112	962.69
551.325	1019.69
551.538	1079.69
551.751	929.69
551.964	878.69
552.177	912.69
552.39	885.69
552.603	888.69
552.816	949.69
553.029	869.69
553.242	879.69
553.455	935.69
553.667	984.69
553.88	967.69
554.093	883.69
554.306	831.69
554.519	812.69
554.732	774.69
554.944	782.69
555.157	770.69
555.37	770.69
555.583	775.69
555.795	790.69
556.008	798.69
556.221	800.69
556.433	787.69
556.646	775.69
556.859	787.69
557.071	804.69
557.284	828.69
557.496	846.69
557.709	824.69
557.921	772.69
558.134	748.69
558.346	737.69
558.559	743.69
558.771	748.69
558.984	812.69
559.196	750.69
559.409	737.69
559.621	715.69
559.833	691.69
560.046	743.69
560.258	716.69
560.47	748.69
560.683	707.69
560.895	691.69
561.107	677.69
561.32	664.69
561.532	708.69
561.744	752.69
561.956	788.69
562.168	705.69
562.381	700.69
562.593	733.69
562.805	729.69
563.017	696.69
563.229	685.69
563.441	674.69
563.653	686.69
563.865	688.69
564.077	705.69
564.289	677.69
564.501	702.69
564.713	756.69
564.925	729.69
565.137	700.69
565.349	698.69
565.561	674.69
565.773	704.69
565.985	737.69
566.197	804.69
566.408	814.69
566.62	863.69
566.832	843.69
567.044	827.69
567.255	894.69
567.467	972.69
567.679	880.69
567.891	871.69
568.102	901.69
568.314	902.69
568.526	866.69
568.737	832.69
568.949	877.69
569.161	786.69
569.372	716.69
569.584	675.69
569.795	679.69
570.007	709.69
570.218	751.69
570.43	715.69
570.641	679.69
570.853	660.69
571.064	653.69
571.276	682.69
571.487	707.69
571.698	674.69
571.91	637.69
572.121	665.69
572.333	638.69
572.544	625.69
572.755	624.69
572.966	615.69
573.178	630.69
573.389	635.69
573.6	622.69
573.811	638.69
574.023	578.69
574.234	589.69
574.445	562.69
574.656	565.69
574.867	588.69
575.078	597.69
575.289	579.69
575.501	629.69
575.712	591.69
575.923	565.69
576.134	550.69
576.345	535.69
576.556	567.69
576.767	504.69
576.978	517.69
577.188	513.69
577.399	512.69
577.61	515.69
577.821	531.69
578.032	533.69
578.243	570.69
578.454	560.69
578.665	575.69
578.875	537.69
579.086	556.69
579.297	572.69
579.508	567.69
579.718	560.69
579.929	570.69
580.14	535.69
580.35	515.69
580.561	497.69
580.772	485.69
580.982	460.69
581.193	488.69
581.403	465.69
581.614	463.69
581.825	464.69
582.035	475.69
582.246	462.69
582.456	460.69
582.667	473.69
582.877	461.69
583.087	446.69
583.298	474.69
583.508	460.69
583.719	442.69
583.929	453.69
584.139	453.69
584.35	460.69
584.56	469.69
584.77	459.69
584.981	464.69
585.191	463.69
585.401	454.69
585.611	478.69
585.821	487.69
586.032	472.69
586.242	480.69
586.452	483.69
586.662	454.69
586.872	472.69
587.082	489.69
587.292	464.69
587.502	447.69
587.713	462.69
587.923	463.69
588.133	526.69
588.343	481.69
588.553	437.69
588.762	463.69
588.972	455.69
589.182	460.69
589.392	462.69
589.602	454.69
589.812	481.69
590.022	507.69
590.232	502.69
590.441	465.69
590.651	466.69
590.861	446.69
591.071	446.69
591.281	454.69
591.49	439.69
591.7	451.69
591.91	447.69
592.119	447.69
592.329	451.69
592.539	456.69
592.748	482.69
592.958	466.69
593.167	481.69
593.377	479.69
593.587	509.69
593.796	495.69
594.006	467.69
594.215	474.69
594.424	490.69
594.634	497.69
594.843	457.69
595.053	464.69
595.262	460.69
595.472	470.69
595.681	431.69
595.89	420.69
596.1	446.69
596.309	439.69
596.518	446.69
596.727	422.69
596.937	438.69
597.146	440.69
597.355	470.69
597.564	442.69
597.774	406.69
597.983	400.69
598.192	416.69
598.401	406.69
598.61	398.69
598.819	395.69
599.028	365.69
599.237	390.69
599.446	379.69
599.655	371.69
599.864	363.69
600.073	370.69
600.282	356.69
600.491	383.69
600.7	376.69
600.909	386.69
601.118	365.69
601.327	358.69
601.536	378.69
601.745	370.69
601.953	397.69
602.162	392.69
602.371	395.69
602.58	402.69
602.789	379.69
602.997	398.69
603.206	401.69
603.415	388.69
603.623	348.69
603.832	351.69
604.041	373.69
604.249	362.69
604.458	393.69
604.666	383.69
604.875	356.69
605.084	334.69
605.292	368.69
605.501	368.69
605.709	367.69
605.918	356.69
606.126	343.69
606.334	352.69
606.543	352.69
606.751	359.69
606.96	338.69
607.168	333.69
607.376	335.69
607.585	344.69
607.793	344.69
608.001	346.69
608.21	340.69
608.418	352.69
608.626	357.69
608.834	352.69
609.043	354.69
609.251	341.69
609.459	324.69
609.667	344.69
609.875	346.69
610.083	333.69
610.291	355.69
610.499	341.69
610.707	316.69
610.916	336.69
611.124	340.69
611.332	338.69
611.54	347.69
611.748	339.69
611.955	325.69
612.163	343.69
612.371	330.69
612.579	339.69
612.787	335.69
612.995	331.69
613.203	325.69
613.411	335.69
613.618	340.69
613.826	350.69
614.034	338.69
614.242	326.69
614.449	321.69
614.657	327.69
614.865	325.69
615.072	318.69
615.28	317.69
615.488	325.69
615.695	322.69
615.903	331.69
616.111	309.69
616.318	327.69
616.526	312.69
616.733	295.69
616.941	347.69
617.148	320.69
617.356	313.69
617.563	337.69
617.771	322.69
617.978	306.69
618.185	341.69
618.393	323.69
618.6	306.69
618.807	321.69
619.015	323.69
619.222	298.69
619.429	331.69
619.637	300.69
619.844	300.69
620.051	305.69
620.258	311.69
620.466	295.69
620.673	295.69
620.88	294.69
621.087	303.69
621.294	295.69
621.501	289.69
621.708	301.69
621.915	274.69
622.122	288.69
622.329	295.69
622.536	289.69
622.743	287.69
622.95	281.69
623.157	293.69
623.364	316.69
623.571	293.69
623.778	292.69
623.985	309.69
624.192	306.69
624.399	306.69
624.606	283.69
624.812	312.69
625.019	306.69
625.226	326.69
625.433	308.69
625.639	290.69
625.846	275.69
626.053	279.69
626.259	268.69
626.466	281.69
626.673	328.69
626.879	284.69
627.086	274.69
627.293	279.69
627.499	284.69
627.706	283.69
627.912	264.69
628.119	258.69
628.325	242.69
628.532	255.69
628.738	267.69
628.945	262.69
629.151	268.69
629.357	241.69
629.564	243.69
629.77	270.69
629.976	255.69
630.183	254.69
630.389	244.69
630.595	262.69
630.802	262.69
631.008	249.69
631.214	246.69
631.42	255.69
631.627	271.69
631.833	262.69
632.039	258.69
632.245	243.69
632.451	234.69
632.657	236.69
632.863	258.69
633.069	238.69
633.275	242.69
633.481	247.69
633.688	234.69
633.893	240.69
634.099	242.69
634.305	242.69
634.511	244.69
634.717	229.69
634.923	224.69
635.129	235.69
635.335	242.69
635.541	234.69
635.747	246.69
635.952	235.69
636.158	226.69
636.364	229.69
636.57	237.69
636.775	229.69
636.981	235.69
637.187	243.69
637.392	224.69
637.598	234.69
637.804	240.69
638.009	231.69
638.215	224.69
638.421	230.69
638.626	229.69
638.832	246.69
639.037	222.69
639.243	233.69
639.448	223.69
639.654	244.69
639.859	221.69
640.065	232.69
640.27	256.69
640.475	231.69
640.681	238.69
640.886	211.69
641.091	209.69
641.297	237.69
641.502	227.69
641.707	222.69
641.913	223.69
642.118	225.69
642.323	222.69
642.528	218.69
642.733	210.69
642.939	211.69
643.144	213.69
643.349	208.69
643.554	226.69
643.759	205.69
643.964	211.69
644.169	190.69
644.374	204.69
644.579	200.69
644.784	194.69
644.989	206.69
645.194	225.69
645.399	230.69
645.604	214.69
645.809	199.69
646.014	204.69
646.219	189.69
646.423	208.69
646.628	204.69
646.833	188.69
647.038	206.69
647.243	209.69
647.447	196.69
647.652	211.69
647.857	195.69
648.062	199.69
648.266	207.69
648.471	193.69
648.676	214.69
648.88	204.69
649.085	192.69
649.289	195.69
649.494	216.69
649.698	220.69
649.903	191.69
650.107	194.69
650.312	190.69
650.516	198.69
650.721	199.69
650.925	176.69
651.13	190.69
651.334	178.69
651.539	175.69
651.743	186.69
651.947	191.69
652.152	187.69
652.356	186.69
652.56	166.69
652.764	176.69
652.969	202.69
653.173	178.69
653.377	170.69
653.581	165.69
653.785	160.69
653.99	167.69
654.194	176.69
654.398	163.69
654.602	153.69
654.806	161.69
655.01	156.69
655.214	148.69
655.418	165.69
655.622	154.69
655.826	160.69
656.03	168.69
656.234	160.69
656.438	154.69
656.642	173.69
656.846	154.69
657.049	147.69
657.253	144.69
657.457	140.69
657.661	136.69
657.865	119.69
658.068	145.69
658.272	125.69
658.476	133.69
658.68	128.69
658.883	104.69
659.087	109.69
659.291	116.69
659.494	117.69
659.698	108.69
659.901	103.69
660.105	100.69
660.309	96.69
660.512	97.69
660.716	104.69
660.919	95.69
661.123	100.69
661.326	91.69
661.53	100.69
661.733	93.69
661.936	96.69
662.14	84.69
662.343	91.69
662.546	87.69
662.75	86.69
662.953	92.69
663.156	78.69
663.36	76.69
663.563	84.69
663.766	88.69
663.969	97.69
664.173	71.69
664.376	82.69
664.579	78.69
664.782	69.69
664.985	76.69
665.188	90.69
665.391	71.69
665.594	81.69
665.797	81.69
666	83.69
666.203	80.69
666.406	99.69
666.609	88.69
666.812	86.69
667.015	68.69
667.218	84.69
667.421	83.69
667.624	85.69
667.827	86.69
668.03	104.69
668.232	69.69
668.435	71.69
668.638	75.69
668.841	73.69
669.043	72.69
669.246	79.69
669.449	88.69
669.651	76.69
669.854	63.69
670.057	82.69
670.259	91.69
670.462	67.69
670.665	78.69
670.867	77.69
671.07	83.69
671.272	98.69
671.475	96.69
671.677	78.69
671.88	93.69
672.082	69.69
672.284	82.69
672.487	84.69
672.689	70.69
672.892	70.69
