Data from NickelSpatula.Lamp.E10.P2_HRD10591_11-58-42-527.txt Node
Date: Tue Jul 23 11:58:42 EDT 2019
User: cochatt
Spectrometer: HR+D1059
Trigger mode: 1
Integration Time (sec): 1.000000E-1
Scans to average: 1
Electric dark correction enabled: true
Nonlinearity correction enabled: false
Boxcar width: 0
XAxis mode: Wavelengths
Number of Pixels in Spectrum: 2048
>>>>>Begin Spectral Data<<<<<
223.165	-8.19
223.4	-8.19
223.635	-8.19
223.869	-15.19
224.104	-8.19
224.338	-5.19
224.573	-20.19
224.808	-14.19
225.042	-10.19
225.277	-7.19
225.511	-4.19
225.746	4.81
225.98	9.81
226.215	8.81
226.449	12.81
226.683	14.81
226.918	20.81
227.152	20.81
227.387	25.81
227.621	45.81
227.856	58.81
228.09	47.81
228.324	61.81
228.559	49.81
228.793	81.81
229.027	146.81
229.262	153.81
229.496	161.81
229.73	173.81
229.964	193.81
230.199	238.81
230.433	230.81
230.667	218.81
230.901	215.81
231.136	213.81
231.37	220.81
231.604	220.81
231.838	265.81
232.072	258.81
232.306	251.81
232.541	259.81
232.775	255.81
233.009	274.81
233.243	300.81
233.477	314.81
233.711	366.81
233.945	350.81
234.179	330.81
234.413	382.81
234.647	405.81
234.881	473.81
235.115	437.81
235.349	427.81
235.583	355.81
235.817	354.81
236.051	383.81
236.285	433.81
236.519	473.81
236.753	438.81
236.987	443.81
237.221	429.81
237.455	433.81
237.689	426.81
237.922	476.81
238.156	507.81
238.39	585.81
238.624	687.81
238.858	625.81
239.091	506.81
239.325	523.81
239.559	492.81
239.793	545.81
240.027	659.81
240.26	620.81
240.494	619.81
240.728	620.81
240.961	700.81
241.195	635.81
241.429	659.81
241.662	648.81
241.896	547.81
242.13	492.81
242.363	471.81
242.597	504.81
242.83	561.81
243.064	559.81
243.298	597.81
243.531	635.81
243.765	648.81
243.998	652.81
244.232	631.81
244.465	604.81
244.699	591.81
244.932	670.81
245.166	649.81
245.399	555.81
245.633	549.81
245.866	585.81
246.099	616.81
246.333	731.81
246.566	802.81
246.8	792.81
247.033	790.81
247.266	699.81
247.5	711.81
247.733	693.81
247.966	678.81
248.2	711.81
248.433	806.81
248.666	874.81
248.899	853.81
249.133	901.81
249.366	1031.81
249.599	1095.81
249.832	941.81
250.066	842.81
250.299	853.81
250.532	859.81
250.765	801.81
250.998	745.81
251.231	746.81
251.465	805.81
251.698	854.81
251.931	800.81
252.164	871.81
252.397	998.81
252.63	1116.81
252.863	1187.81
253.096	1236.81
253.329	1191.81
253.562	1140.81
253.795	1299.81
254.028	1385.81
254.261	1449.81
254.494	1311.81
254.727	1173.81
254.96	1167.81
255.193	1218.81
255.426	1157.81
255.659	881.81
255.892	804.81
256.124	870.81
256.357	1058.81
256.59	1236.81
256.823	1157.81
257.056	989.81
257.289	943.81
257.521	975.81
257.754	1167.81
257.987	1306.81
258.22	1159.81
258.452	1047.81
258.685	1199.81
258.918	1317.81
259.151	1294.81
259.383	1306.81
259.616	1518.81
259.849	1581.81
260.081	1737.81
260.314	1934.81
260.547	1502.81
260.779	1510.81
261.012	1770.81
261.244	1663.81
261.477	1692.81
261.71	1590.81
261.942	1287.81
262.175	1340.81
262.407	1293.81
262.64	1286.81
262.872	1567.81
263.105	1695.81
263.337	1754.81
263.57	1605.81
263.802	1040.81
264.035	910.81
264.267	917.81
264.499	777.81
264.732	716.81
264.964	694.81
265.197	738.81
265.429	774.81
265.661	836.81
265.894	869.81
266.126	913.81
266.358	1064.81
266.591	1270.81
266.823	1537.81
267.055	1431.81
267.287	1268.81
267.52	1299.81
267.752	1371.81
267.984	1453.81
268.216	1390.81
268.448	1161.81
268.681	1131.81
268.913	1201.81
269.145	1300.81
269.377	1329.81
269.609	1337.81
269.841	1256.81
270.073	1354.81
270.306	1388.81
270.538	1406.81
270.77	1446.81
271.002	1443.81
271.234	1509.81
271.466	1546.81
271.698	1523.81
271.93	1457.81
272.162	1511.81
272.394	1466.81
272.626	1423.81
272.858	1475.81
273.09	1507.81
273.322	1364.81
273.553	1358.81
273.785	1529.81
274.017	2034.81
274.249	2497.81
274.481	2606.81
274.713	2821.81
274.945	3207.81
275.176	3324.81
275.408	2943.81
275.64	2684.81
275.872	2702.81
276.104	2278.81
276.335	1967.81
276.567	1961.81
276.799	2041.81
277.031	2089.81
277.262	1632.81
277.494	1282.81
277.726	1253.81
277.957	1353.81
278.189	1517.81
278.421	1517.81
278.652	1482.81
278.884	1395.81
279.115	1289.81
279.347	1221.81
279.579	1225.81
279.81	1234.81
280.042	1238.81
280.273	1281.81
280.505	1149.81
280.736	1041.81
280.968	1049.81
281.199	1108.81
281.431	1248.81
281.662	1269.81
281.894	1187.81
282.125	1314.81
282.356	1394.81
282.588	1397.81
282.819	1315.81
283.051	1409.81
283.282	1737.81
283.513	1994.81
283.745	2197.81
283.976	2174.81
284.207	2084.81
284.439	2103.81
284.67	2071.81
284.901	1809.81
285.132	1991.81
285.364	2111.81
285.595	1922.81
285.826	2011.81
286.057	2133.81
286.288	2031.81
286.52	2040.81
286.751	2181.81
286.982	2147.81
287.213	1873.81
287.444	1788.81
287.675	1886.81
287.906	1890.81
288.138	1593.81
288.369	1375.81
288.6	1310.81
288.831	1376.81
289.062	1591.81
289.293	1715.81
289.524	1631.81
289.755	1658.81
289.986	1664.81
290.217	1450.81
290.448	1113.81
290.679	990.81
290.91	958.81
291.141	959.81
291.371	1014.81
291.602	1015.81
291.833	1023.81
292.064	1075.81
292.295	1255.81
292.526	1447.81
292.757	1458.81
292.987	1618.81
293.218	1566.81
293.449	1675.81
293.68	1690.81
293.91	1598.81
294.141	1651.81
294.372	1537.81
294.603	1429.81
294.833	1577.81
295.064	1852.81
295.295	1730.81
295.525	1341.81
295.756	1171.81
295.987	1027.81
296.217	1044.81
296.448	1076.81
296.679	1149.81
296.909	1270.81
297.14	1333.81
297.37	1497.81
297.601	1395.81
297.831	1193.81
298.062	1247.81
298.292	1481.81
298.523	1605.81
298.753	1812.81
298.984	1601.81
299.214	1304.81
299.445	1106.81
299.675	1069.81
299.905	1068.81
300.136	1120.81
300.366	1243.81
300.597	1189.81
300.827	1060.81
301.057	1013.81
301.288	1048.81
301.518	1150.81
301.748	1262.81
301.979	1390.81
302.209	1522.81
302.439	1534.81
302.669	1316.81
302.9	1253.81
303.13	1190.81
303.36	1137.81
303.59	1085.81
303.82	1121.81
304.051	1278.81
304.281	1373.81
304.511	1342.81
304.741	1169.81
304.971	1237.81
305.201	1331.81
305.431	1215.81
305.661	1085.81
305.891	1113.81
306.121	1116.81
306.352	994.81
306.582	891.81
306.812	863.81
307.042	884.81
307.272	812.81
307.502	833.81
307.731	878.81
307.961	924.81
308.191	877.81
308.421	798.81
308.651	817.81
308.881	787.81
309.111	791.81
309.341	847.81
309.571	917.81
309.8	947.81
310.03	986.81
310.26	1039.81
310.49	992.81
310.72	903.81
310.949	849.81
311.179	893.81
311.409	972.81
311.639	1130.81
311.868	1417.81
312.098	1855.81
312.328	2004.81
312.557	1928.81
312.787	1908.81
313.017	1689.81
313.246	1863.81
313.476	2012.81
313.706	1644.81
313.935	1357.81
314.165	1065.81
314.394	951.81
314.624	1006.81
314.853	1027.81
315.083	1069.81
315.312	1043.81
315.542	1019.81
315.771	967.81
316.001	879.81
316.23	845.81
316.46	872.81
316.689	897.81
316.919	918.81
317.148	930.81
317.377	895.81
317.607	895.81
317.836	947.81
318.065	1123.81
318.295	1257.81
318.524	1193.81
318.753	1004.81
318.983	966.81
319.212	938.81
319.441	1063.81
319.67	1158.81
319.9	1245.81
320.129	1181.81
320.358	1014.81
320.587	949.81
320.816	1039.81
321.046	1202.81
321.275	1376.81
321.504	1401.81
321.733	1322.81
321.962	1289.81
322.191	1221.81
322.42	1142.81
322.649	1170.81
322.878	1255.81
323.108	1243.81
323.337	1141.81
323.566	1131.81
323.795	1057.81
324.024	1052.81
324.253	1047.81
324.482	983.81
324.71	1117.81
324.939	1267.81
325.168	1163.81
325.397	977.81
325.626	914.81
325.855	941.81
326.084	934.81
326.313	877.81
326.542	862.81
326.77	905.81
326.999	937.81
327.228	969.81
327.457	1022.81
327.686	1032.81
327.914	899.81
328.143	847.81
328.372	846.81
328.6	865.81
328.829	917.81
329.058	912.81
329.287	907.81
329.515	938.81
329.744	909.81
329.972	837.81
330.201	794.81
330.43	867.81
330.658	960.81
330.887	1092.81
331.115	1111.81
331.344	1028.81
331.572	988.81
331.801	910.81
332.03	882.81
332.258	909.81
332.486	1007.81
332.715	1011.81
332.943	933.81
333.172	890.81
333.4	942.81
333.629	1037.81
333.857	1159.81
334.085	1159.81
334.314	1151.81
334.542	1079.81
334.771	976.81
334.999	971.81
335.227	940.81
335.455	956.81
335.684	1035.81
335.912	1222.81
336.14	1342.81
336.369	1298.81
336.597	1247.81
336.825	1408.81
337.053	1545.81
337.281	1246.81
337.51	1013.81
337.738	990.81
337.966	1079.81
338.194	1189.81
338.422	1119.81
338.65	956.81
338.878	887.81
339.106	943.81
339.334	1067.81
339.562	1132.81
339.79	1015.81
340.018	995.81
340.246	1074.81
340.474	1251.81
340.702	1306.81
340.93	1371.81
341.158	1343.81
341.386	1139.81
341.614	1158.81
341.842	1182.81
342.07	1232.81
342.298	1414.81
342.526	1444.81
342.754	1201.81
342.981	1135.81
343.209	1078.81
343.437	1177.81
343.665	1213.81
343.893	1216.81
344.12	1403.81
344.348	1643.81
344.576	1451.81
344.804	1227.81
345.031	1065.81
345.259	1013.81
345.487	1027.81
345.714	1067.81
345.942	1128.81
346.17	1218.81
346.397	1172.81
346.625	997.81
346.853	1033.81
347.08	958.81
347.308	1021.81
347.535	1175.81
347.763	1185.81
347.99	1026.81
348.218	941.81
348.445	996.81
348.673	1027.81
348.9	1007.81
349.128	1093.81
349.355	1124.81
349.583	1083.81
349.81	1066.81
350.037	975.81
350.265	862.81
350.492	808.81
350.72	833.81
350.947	870.81
351.174	893.81
351.402	993.81
351.629	1019.81
351.856	960.81
352.083	913.81
352.311	1046.81
352.538	1114.81
352.765	1193.81
352.992	1091.81
353.22	988.81
353.447	1046.81
353.674	970.81
353.901	1000.81
354.128	1003.81
354.355	1055.81
354.583	1026.81
354.81	998.81
355.037	1040.81
355.264	1030.81
355.491	1127.81
355.718	1229.81
355.945	1205.81
356.172	1099.81
356.399	1153.81
356.626	1395.81
356.853	1726.81
357.08	1797.81
357.307	1881.81
357.534	1442.81
357.761	1464.81
357.988	1831.81
358.215	2165.81
358.441	2017.81
358.668	1661.81
358.895	1565.81
359.122	1255.81
359.349	1226.81
359.576	1403.81
359.802	1111.81
360.029	985.81
360.256	1097.81
360.483	1320.81
360.709	1669.81
360.936	1740.81
361.163	1517.81
361.39	1166.81
361.616	1094.81
361.843	1274.81
362.07	1615.81
362.296	1457.81
362.523	1086.81
362.749	984.81
362.976	1012.81
363.203	1295.81
363.429	1390.81
363.656	1119.81
363.882	1025.81
364.109	1020.81
364.335	1026.81
364.562	1011.81
364.788	1180.81
365.015	1366.81
365.241	1222.81
365.468	984.81
365.694	875.81
365.92	818.81
366.147	821.81
366.373	807.81
366.599	813.81
366.826	859.81
367.052	837.81
367.278	850.81
367.505	831.81
367.731	934.81
367.957	1057.81
368.184	1070.81
368.41	1043.81
368.636	1043.81
368.862	1078.81
369.089	1046.81
369.315	950.81
369.541	935.81
369.767	917.81
369.993	874.81
370.219	891.81
370.445	927.81
370.672	1051.81
370.898	1158.81
371.124	1124.81
371.35	991.81
371.576	887.81
371.802	1009.81
372.028	1209.81
372.254	1394.81
372.48	1209.81
372.706	1063.81
372.932	1107.81
373.158	1166.81
373.384	1429.81
373.61	1905.81
373.835	1958.81
374.061	1471.81
374.287	1181.81
374.513	1422.81
374.739	1739.81
374.965	1783.81
375.191	1755.81
375.416	1201.81
375.642	1065.81
375.868	1222.81
376.094	1422.81
376.319	1198.81
376.545	1371.81
376.771	1431.81
376.997	1222.81
377.222	915.81
377.448	782.81
377.674	789.81
377.899	780.81
378.125	789.81
378.35	758.81
378.576	797.81
378.802	911.81
379.027	924.81
379.253	910.81
379.478	958.81
379.704	1106.81
379.929	1128.81
380.155	1107.81
380.38	972.81
380.606	1041.81
380.831	1160.81
381.057	1043.81
381.282	1035.81
381.507	1211.81
381.733	1502.81
381.958	1620.81
382.184	1683.81
382.409	1793.81
382.634	1769.81
382.86	1813.81
383.085	1468.81
383.31	1202.81
383.535	1251.81
383.761	1258.81
383.986	1239.81
384.211	1493.81
384.436	1419.81
384.662	1075.81
384.887	1031.81
385.112	1070.81
385.337	1092.81
385.562	1025.81
385.787	1129.81
386.013	1272.81
386.238	1293.81
386.463	1063.81
386.688	1018.81
386.913	1002.81
387.138	918.81
387.363	1006.81
387.588	1040.81
387.813	1027.81
388.038	1158.81
388.263	1022.81
388.488	996.81
388.713	1183.81
388.938	1306.81
389.163	1070.81
389.387	935.81
389.612	927.81
389.837	972.81
390.062	1021.81
390.287	1020.81
390.512	1028.81
390.736	974.81
390.961	934.81
391.186	891.81
391.411	843.81
391.636	862.81
391.86	947.81
392.085	1047.81
392.31	1037.81
392.534	991.81
392.759	967.81
392.984	1038.81
393.208	988.81
393.433	886.81
393.658	836.81
393.882	811.81
394.107	791.81
394.331	813.81
394.556	821.81
394.78	827.81
395.005	883.81
395.229	892.81
395.454	902.81
395.678	891.81
395.903	939.81
396.127	892.81
396.352	899.81
396.576	998.81
396.801	1021.81
397.025	1157.81
397.249	1182.81
397.474	964.81
397.698	913.81
397.922	1011.81
398.147	927.81
398.371	969.81
398.595	993.81
398.82	971.81
399.044	961.81
399.268	1024.81
399.492	1058.81
399.717	1083.81
399.941	1105.81
400.165	1071.81
400.389	1073.81
400.613	1082.81
400.837	1079.81
401.062	930.81
401.286	928.81
401.51	920.81
401.734	899.81
401.958	937.81
402.182	911.81
402.406	933.81
402.63	950.81
402.854	955.81
403.078	1087.81
403.302	1330.81
403.526	1358.81
403.75	1254.81
403.974	1063.81
404.198	1137.81
404.422	1297.81
404.645	1502.81
404.869	1713.81
405.093	1193.81
405.317	1013.81
405.541	996.81
405.765	1002.81
405.988	1041.81
406.212	1120.81
406.436	1335.81
406.66	1498.81
406.883	1147.81
407.107	1197.81
407.331	1409.81
407.555	1368.81
407.778	1116.81
408.002	1086.81
408.226	1067.81
408.449	1077.81
408.673	1061.81
408.896	965.81
409.12	967.81
409.344	948.81
409.567	902.81
409.791	914.81
410.014	894.81
410.238	926.81
410.461	916.81
410.685	924.81
410.908	941.81
411.132	967.81
411.355	955.81
411.578	971.81
411.802	982.81
412.025	1021.81
412.249	1005.81
412.472	980.81
412.695	989.81
412.919	983.81
413.142	984.81
413.365	1101.81
413.589	1090.81
413.812	993.81
414.035	930.81
414.258	940.81
414.482	1058.81
414.705	1107.81
414.928	942.81
415.151	911.81
415.374	884.81
415.597	956.81
415.821	938.81
416.044	911.81
416.267	906.81
416.49	894.81
416.713	883.81
416.936	867.81
417.159	869.81
417.382	919.81
417.605	899.81
417.828	920.81
418.051	939.81
418.274	945.81
418.497	967.81
418.72	963.81
418.943	987.81
419.166	1045.81
419.389	1049.81
419.611	1043.81
419.834	1057.81
420.057	1187.81
420.28	1149.81
420.503	1065.81
420.726	922.81
420.948	901.81
421.171	907.81
421.394	892.81
421.617	864.81
421.839	881.81
422.062	927.81
422.285	941.81
422.507	959.81
422.73	965.81
422.953	999.81
423.175	949.81
423.398	1006.81
423.621	1020.81
423.843	1098.81
424.066	1035.81
424.288	964.81
424.511	971.81
424.733	962.81
424.956	1001.81
425.178	1104.81
425.401	1271.81
425.623	1442.81
425.846	1169.81
426.068	1015.81
426.291	1135.81
426.513	1055.81
426.735	982.81
426.958	1025.81
427.18	1185.81
427.402	1557.81
427.625	1538.81
427.847	1232.81
428.069	944.81
428.292	940.81
428.514	935.81
428.736	890.81
428.958	961.81
429.181	1159.81
429.403	1015.81
429.625	916.81
429.847	905.81
430.069	933.81
430.292	939.81
430.514	882.81
430.736	977.81
430.958	1255.81
431.18	1139.81
431.402	862.81
431.624	837.81
431.846	821.81
432.068	818.81
432.29	840.81
432.512	972.81
432.734	1269.81
432.956	1191.81
433.178	902.81
433.4	858.81
433.622	855.81
433.844	897.81
434.066	981.81
434.287	934.81
434.509	885.81
434.731	955.81
434.953	887.81
435.175	911.81
435.397	1075.81
435.618	935.81
435.84	840.81
436.062	846.81
436.284	866.81
436.505	794.81
436.727	807.81
436.949	853.81
437.17	846.81
437.392	868.81
437.614	865.81
437.835	845.81
438.057	883.81
438.278	1021.81
438.5	1437.81
438.721	1449.81
438.943	962.81
439.165	825.81
439.386	819.81
439.608	813.81
439.829	827.81
440.05	847.81
440.272	890.81
440.493	1025.81
440.715	1274.81
440.936	1015.81
441.158	874.81
441.379	878.81
441.6	1010.81
441.822	1082.81
442.043	914.81
442.264	918.81
442.486	909.81
442.707	917.81
442.928	903.81
443.149	898.81
443.371	929.81
443.592	934.81
443.813	950.81
444.034	945.81
444.255	925.81
444.476	956.81
444.698	939.81
444.919	951.81
445.14	1089.81
445.361	1037.81
445.582	992.81
445.803	981.81
446.024	964.81
446.245	976.81
446.466	932.81
446.687	909.81
446.908	933.81
447.129	850.81
447.35	799.81
447.571	822.81
447.792	817.81
448.013	806.81
448.234	780.81
448.455	810.81
448.675	828.81
448.896	826.81
449.117	813.81
449.338	832.81
449.559	837.81
449.779	886.81
450	889.81
450.221	870.81
450.442	833.81
450.662	824.81
450.883	821.81
451.104	850.81
451.324	818.81
451.545	821.81
451.766	804.81
451.986	814.81
452.207	791.81
452.428	789.81
452.648	786.81
452.869	840.81
453.089	875.81
453.31	856.81
453.53	771.81
453.751	771.81
453.971	760.81
454.192	777.81
454.412	810.81
454.633	795.81
454.853	781.81
455.073	747.81
455.294	767.81
455.514	777.81
455.734	794.81
455.955	848.81
456.175	855.81
456.395	747.81
456.616	731.81
456.836	711.81
457.056	725.81
457.276	695.81
457.497	754.81
457.717	726.81
457.937	718.81
458.157	710.81
458.377	732.81
458.598	764.81
458.818	800.81
459.038	814.81
459.258	861.81
459.478	860.81
459.698	940.81
459.918	957.81
460.138	902.81
460.358	920.81
460.578	893.81
460.798	907.81
461.018	897.81
461.238	882.81
461.458	862.81
461.678	901.81
461.898	942.81
462.118	972.81
462.338	966.81
462.558	994.81
462.777	1025.81
462.997	1037.81
463.217	1018.81
463.437	1031.81
463.657	1054.81
463.876	1002.81
464.096	978.81
464.316	1009.81
464.536	1027.81
464.755	1035.81
464.975	1022.81
465.195	1001.81
465.414	1009.81
465.634	989.81
465.854	931.81
466.073	892.81
466.293	877.81
466.512	953.81
466.732	1034.81
466.951	1093.81
467.171	935.81
467.391	915.81
467.61	884.81
467.829	956.81
468.049	963.81
468.268	890.81
468.488	878.81
468.707	937.81
468.927	1095.81
469.146	1168.81
469.365	1079.81
469.585	994.81
469.804	1023.81
470.023	1124.81
470.243	1011.81
470.462	968.81
470.681	967.81
470.901	942.81
471.12	984.81
471.339	1010.81
471.558	960.81
471.777	965.81
471.997	1030.81
472.216	1131.81
472.435	1093.81
472.654	1002.81
472.873	1006.81
473.092	1013.81
473.311	1069.81
473.53	967.81
473.749	968.81
473.968	1035.81
474.187	1033.81
474.406	942.81
474.625	942.81
474.844	981.81
475.063	1043.81
475.282	1061.81
475.501	1105.81
475.72	1152.81
475.939	1124.81
476.158	1131.81
476.377	1277.81
476.596	1506.81
476.814	1535.81
477.033	1319.81
477.252	1076.81
477.471	1021.81
477.69	1047.81
477.908	1142.81
478.127	1143.81
478.346	1086.81
478.564	1187.81
478.783	1111.81
479.002	1142.81
479.22	1317.81
479.439	1427.81
479.658	1283.81
479.876	1181.81
480.095	1226.81
480.313	1247.81
480.532	1126.81
480.751	1133.81
480.969	1147.81
481.188	1325.81
481.406	1337.81
481.624	1236.81
481.843	1168.81
482.061	1102.81
482.28	1219.81
482.498	1507.81
482.717	1414.81
482.935	1202.81
483.153	1173.81
483.372	1115.81
483.59	1093.81
483.808	1066.81
484.027	1051.81
484.245	1047.81
484.463	1010.81
484.681	1025.81
484.9	1148.81
485.118	1227.81
485.336	1147.81
485.554	1087.81
485.772	1113.81
485.99	1201.81
486.209	1279.81
486.427	1257.81
486.645	1209.81
486.863	1292.81
487.081	1241.81
487.299	1417.81
487.517	1399.81
487.735	1254.81
487.953	1291.81
488.171	1317.81
488.389	1197.81
488.607	1132.81
488.825	1196.81
489.043	1293.81
489.261	1541.81
489.479	1606.81
489.696	1301.81
489.914	1198.81
490.132	1131.81
490.35	1134.81
490.568	1152.81
490.786	1123.81
491.003	1190.81
491.221	1208.81
491.439	1135.81
491.657	1167.81
491.874	1260.81
492.092	1547.81
492.31	1861.81
492.527	1857.81
492.745	1588.81
492.963	1373.81
493.18	1310.81
493.398	1325.81
493.615	1294.81
493.833	1277.81
494.05	1259.81
494.268	1301.81
494.485	1286.81
494.703	1215.81
494.92	1265.81
495.138	1238.81
495.355	1217.81
495.573	1299.81
495.79	1450.81
496.008	1889.81
496.225	1634.81
496.442	1425.81
496.66	1387.81
496.877	1479.81
497.094	1426.81
497.312	1330.81
497.529	1353.81
497.746	1342.81
497.963	1448.81
498.181	1530.81
498.398	1604.81
498.615	1721.81
498.832	1741.81
499.049	1722.81
499.267	1579.81
499.484	1585.81
499.701	1626.81
499.918	1791.81
500.135	1922.81
500.352	1935.81
500.569	2038.81
500.786	2088.81
501.003	2075.81
501.22	1886.81
501.437	1803.81
501.654	1682.81
501.871	1673.81
502.088	1729.81
502.305	1523.81
502.522	1555.81
502.739	1512.81
502.956	1451.81
503.172	1387.81
503.389	1346.81
503.606	1301.81
503.823	1335.81
504.04	1370.81
504.256	1333.81
504.473	1361.81
504.69	1407.81
504.907	1421.81
505.123	1413.81
505.34	1497.81
505.557	1441.81
505.773	1349.81
505.99	1350.81
506.207	1371.81
506.423	1298.81
506.64	1219.81
506.856	1263.81
507.073	1422.81
507.289	1392.81
507.506	1370.81
507.722	1433.81
507.939	1509.81
508.155	1495.81
508.372	1343.81
508.588	1274.81
508.805	1270.81
509.021	1273.81
509.238	1210.81
509.454	1203.81
509.67	1207.81
509.887	1208.81
510.103	1353.81
510.319	1338.81
510.536	1194.81
510.752	1116.81
510.968	1099.81
511.184	1042.81
511.401	1072.81
511.617	1057.81
511.833	1057.81
512.049	1067.81
512.265	1127.81
512.481	1163.81
512.698	1248.81
512.914	1417.81
513.13	1271.81
513.346	1131.81
513.562	1198.81
513.778	1220.81
513.994	1165.81
514.21	1272.81
514.426	1252.81
514.642	1182.81
514.858	1191.81
515.074	1194.81
515.29	1303.81
515.506	1482.81
515.721	1405.81
515.937	1258.81
516.153	1218.81
516.369	1201.81
516.585	1250.81
516.801	1413.81
517.016	1639.81
517.232	1610.81
517.448	1542.81
517.664	1412.81
517.879	1323.81
518.095	1290.81
518.311	1272.81
518.527	1330.81
518.742	1415.81
518.958	1491.81
519.173	1424.81
519.389	1387.81
519.605	1443.81
519.82	1521.81
520.036	1793.81
520.251	1750.81
520.467	1646.81
520.682	2464.81
520.898	3098.81
521.113	2854.81
521.329	1777.81
521.544	1570.81
521.76	1525.81
521.975	1393.81
522.19	1313.81
522.406	1368.81
522.621	1525.81
522.836	1573.81
523.052	1632.81
523.267	1319.81
523.482	1345.81
523.698	1452.81
523.913	1394.81
524.128	1243.81
524.343	1197.81
524.559	1228.81
524.774	1163.81
524.989	1201.81
525.204	1225.81
525.419	1339.81
525.634	1270.81
525.849	1250.81
526.064	1260.81
526.28	1277.81
526.495	1542.81
526.71	1573.81
526.925	1390.81
527.14	1473.81
527.355	1413.81
527.57	1150.81
527.785	1251.81
527.999	1158.81
528.214	1061.81
528.429	1116.81
528.644	1093.81
528.859	1020.81
529.074	973.81
529.289	1012.81
529.503	1009.81
529.718	1033.81
529.933	1252.81
530.148	1250.81
530.363	1064.81
530.577	1027.81
530.792	1014.81
531.007	1035.81
531.221	998.81
531.436	1002.81
531.651	1000.81
531.865	1028.81
532.08	1058.81
532.295	1027.81
532.509	1056.81
532.724	1225.81
532.938	1357.81
533.153	1571.81
533.367	1266.81
533.582	1189.81
533.796	1107.81
534.011	1053.81
534.225	1093.81
534.44	1080.81
534.654	1146.81
534.868	1283.81
535.083	1163.81
535.297	1039.81
535.511	1051.81
535.726	1160.81
535.94	1105.81
536.154	1033.81
536.369	1007.81
536.583	1043.81
536.797	1032.81
537.011	1081.81
537.225	1158.81
537.44	1179.81
537.654	1073.81
537.868	1038.81
538.082	1037.81
538.296	1021.81
538.51	1126.81
538.724	1113.81
538.938	1077.81
539.153	1035.81
539.367	1003.81
539.581	1022.81
539.795	1062.81
540.009	1205.81
540.222	1103.81
540.436	1100.81
540.65	1198.81
540.864	1192.81
541.078	1247.81
541.292	1403.81
541.506	1123.81
541.72	1107.81
541.934	1054.81
542.147	1054.81
542.361	1057.81
542.575	1101.81
542.789	1100.81
543.002	1016.81
543.216	1114.81
543.43	998.81
543.644	969.81
543.857	952.81
544.071	977.81
544.285	979.81
544.498	919.81
544.712	948.81
544.925	1039.81
545.139	974.81
545.352	898.81
545.566	935.81
545.779	1056.81
545.993	987.81
546.206	910.81
546.42	916.81
546.633	892.81
546.847	842.81
547.06	895.81
547.274	894.81
547.487	927.81
547.7	976.81
547.914	1033.81
548.127	1141.81
548.34	1105.81
548.554	980.81
548.767	1042.81
548.98	1092.81
549.193	996.81
549.407	1039.81
549.62	1217.81
549.833	1139.81
550.046	1173.81
550.259	1174.81
550.473	1042.81
550.686	991.81
550.899	1004.81
551.112	1003.81
551.325	1084.81
551.538	1102.81
551.751	993.81
551.964	900.81
552.177	926.81
552.39	910.81
552.603	897.81
552.816	985.81
553.029	918.81
553.242	873.81
553.455	926.81
553.667	1041.81
553.88	997.81
554.093	919.81
554.306	862.81
554.519	822.81
554.732	799.81
554.944	791.81
555.157	782.81
555.37	800.81
555.583	801.81
555.795	811.81
556.008	840.81
556.221	873.81
556.433	806.81
556.646	770.81
556.859	805.81
557.071	813.81
557.284	848.81
557.496	885.81
557.709	840.81
557.921	846.81
558.134	775.81
558.346	760.81
558.559	738.81
558.771	779.81
558.984	852.81
559.196	807.81
559.409	753.81
559.621	746.81
559.833	730.81
560.046	748.81
560.258	761.81
560.47	757.81
560.683	705.81
560.895	710.81
561.107	695.81
561.32	686.81
561.532	716.81
561.744	775.81
561.956	836.81
562.168	732.81
562.381	718.81
562.593	724.81
562.805	760.81
563.017	713.81
563.229	701.81
563.441	684.81
563.653	706.81
563.865	701.81
564.077	718.81
564.289	702.81
564.501	710.81
564.713	759.81
564.925	751.81
565.137	713.81
565.349	724.81
565.561	731.81
565.773	759.81
565.985	759.81
566.197	802.81
566.408	859.81
566.62	886.81
566.832	852.81
567.044	851.81
567.255	941.81
567.467	988.81
567.679	914.81
567.891	858.81
568.102	933.81
568.314	933.81
568.526	892.81
568.737	816.81
568.949	909.81
569.161	791.81
569.372	734.81
569.584	715.81
569.795	687.81
570.007	700.81
570.218	765.81
570.43	719.81
570.641	729.81
570.853	695.81
571.064	671.81
571.276	706.81
571.487	731.81
571.698	714.81
571.91	681.81
572.121	701.81
572.333	654.81
572.544	634.81
572.755	633.81
572.966	641.81
573.178	639.81
573.389	645.81
573.6	656.81
573.811	660.81
574.023	580.81
574.234	585.81
574.445	612.81
574.656	589.81
574.867	582.81
575.078	575.81
575.289	618.81
575.501	627.81
575.712	603.81
575.923	580.81
576.134	551.81
576.345	590.81
576.556	589.81
576.767	543.81
576.978	550.81
577.188	530.81
577.399	537.81
577.61	538.81
577.821	523.81
578.032	561.81
578.243	613.81
578.454	607.81
578.665	596.81
578.875	561.81
579.086	575.81
579.297	577.81
579.508	577.81
579.718	565.81
579.929	558.81
580.14	575.81
580.35	525.81
580.561	506.81
580.772	488.81
580.982	513.81
581.193	485.81
581.403	480.81
581.614	486.81
581.825	507.81
582.035	489.81
582.246	451.81
582.456	477.81
582.667	499.81
582.877	481.81
583.087	484.81
583.298	458.81
583.508	470.81
583.719	456.81
583.929	467.81
584.139	469.81
584.35	470.81
584.56	490.81
584.77	465.81
584.981	527.81
585.191	473.81
585.401	473.81
585.611	477.81
585.821	497.81
586.032	524.81
586.242	495.81
586.452	491.81
586.662	475.81
586.872	524.81
587.082	517.81
587.292	478.81
587.502	480.81
587.713	463.81
587.923	476.81
588.133	508.81
588.343	506.81
588.553	467.81
588.762	451.81
588.972	468.81
589.182	448.81
589.392	463.81
589.602	467.81
589.812	508.81
590.022	534.81
590.232	517.81
590.441	469.81
590.651	463.81
590.861	459.81
591.071	475.81
591.281	458.81
591.49	451.81
591.7	476.81
591.91	461.81
592.119	472.81
592.329	465.81
592.539	487.81
592.748	491.81
592.958	463.81
593.167	492.81
593.377	484.81
593.587	494.81
593.796	517.81
594.006	489.81
594.215	463.81
594.424	513.81
594.634	517.81
594.843	504.81
595.053	474.81
595.262	467.81
595.472	453.81
595.681	451.81
595.89	429.81
596.1	443.81
596.309	430.81
596.518	452.81
596.727	436.81
596.937	426.81
597.146	471.81
597.355	503.81
597.564	462.81
597.774	439.81
597.983	425.81
598.192	430.81
598.401	400.81
598.61	406.81
598.819	391.81
599.028	388.81
599.237	392.81
599.446	390.81
599.655	367.81
599.864	371.81
600.073	386.81
600.282	371.81
600.491	389.81
600.7	390.81
600.909	406.81
601.118	405.81
601.327	394.81
601.536	398.81
601.745	394.81
601.953	422.81
602.162	397.81
602.371	400.81
602.58	411.81
602.789	400.81
602.997	380.81
603.206	386.81
603.415	393.81
603.623	381.81
603.832	375.81
604.041	377.81
604.249	370.81
604.458	394.81
604.666	391.81
604.875	358.81
605.084	350.81
605.292	383.81
605.501	399.81
605.709	389.81
605.918	370.81
606.126	367.81
606.334	385.81
606.543	345.81
606.751	377.81
606.96	362.81
607.168	370.81
607.376	352.81
607.585	350.81
607.793	377.81
608.001	366.81
608.21	364.81
608.418	389.81
608.626	401.81
608.834	354.81
609.043	339.81
609.251	360.81
609.459	333.81
609.667	364.81
609.875	354.81
610.083	357.81
610.291	357.81
610.499	371.81
610.707	343.81
610.916	341.81
611.124	351.81
611.332	327.81
611.54	346.81
611.748	348.81
611.955	357.81
612.163	363.81
612.371	333.81
612.579	337.81
612.787	341.81
612.995	326.81
613.203	335.81
613.411	337.81
613.618	341.81
613.826	365.81
614.034	382.81
614.242	355.81
614.449	315.81
614.657	332.81
614.865	326.81
615.072	341.81
615.28	313.81
615.488	322.81
615.695	328.81
615.903	342.81
616.111	333.81
616.318	328.81
616.526	332.81
616.733	347.81
616.941	332.81
617.148	333.81
617.356	325.81
617.563	340.81
617.771	322.81
617.978	332.81
618.185	319.81
618.393	309.81
618.6	329.81
618.807	318.81
619.015	323.81
619.222	320.81
619.429	339.81
619.637	327.81
619.844	326.81
620.051	300.81
620.258	332.81
620.466	306.81
620.673	302.81
620.88	301.81
621.087	298.81
621.294	303.81
621.501	299.81
621.708	296.81
621.915	280.81
622.122	306.81
622.329	309.81
622.536	294.81
622.743	307.81
622.95	293.81
623.157	298.81
623.364	317.81
623.571	312.81
623.778	308.81
623.985	316.81
624.192	322.81
624.399	323.81
624.606	289.81
624.812	316.81
625.019	313.81
625.226	321.81
625.433	310.81
625.639	316.81
625.846	272.81
626.053	281.81
626.259	292.81
626.466	290.81
626.673	323.81
626.879	287.81
627.086	283.81
627.293	291.81
627.499	301.81
627.706	276.81
627.912	263.81
628.119	284.81
628.325	275.81
628.532	292.81
628.738	277.81
628.945	258.81
629.151	279.81
629.357	250.81
629.564	269.81
629.77	261.81
629.976	276.81
630.183	261.81
630.389	277.81
630.595	284.81
630.802	259.81
631.008	268.81
631.214	254.81
631.42	260.81
631.627	257.81
631.833	244.81
632.039	241.81
632.245	254.81
632.451	262.81
632.657	244.81
632.863	258.81
633.069	243.81
633.275	248.81
633.481	236.81
633.688	258.81
633.893	267.81
634.099	253.81
634.305	249.81
634.511	234.81
634.717	253.81
634.923	234.81
635.129	247.81
635.335	245.81
635.541	260.81
635.747	238.81
635.952	235.81
636.158	246.81
636.364	244.81
636.57	259.81
636.775	261.81
636.981	231.81
637.187	233.81
637.392	241.81
637.598	244.81
637.804	240.81
638.009	241.81
638.215	219.81
638.421	215.81
638.626	224.81
638.832	227.81
639.037	225.81
639.243	228.81
639.448	229.81
639.654	261.81
639.859	235.81
640.065	241.81
640.27	262.81
640.475	231.81
640.681	238.81
640.886	243.81
641.091	237.81
641.297	214.81
641.502	222.81
641.707	237.81
641.913	215.81
642.118	239.81
642.323	231.81
642.528	245.81
642.733	225.81
642.939	219.81
643.144	214.81
643.349	229.81
643.554	242.81
643.759	214.81
643.964	203.81
644.169	223.81
644.374	219.81
644.579	217.81
644.784	219.81
644.989	221.81
645.194	211.81
645.399	221.81
645.604	206.81
645.809	225.81
646.014	225.81
646.219	211.81
646.423	222.81
646.628	219.81
646.833	207.81
647.038	208.81
647.243	224.81
647.447	213.81
647.652	214.81
647.857	235.81
648.062	231.81
648.266	216.81
648.471	209.81
648.676	210.81
648.88	199.81
649.085	209.81
649.289	213.81
649.494	221.81
649.698	221.81
649.903	244.81
650.107	223.81
650.312	202.81
650.516	189.81
650.721	192.81
650.925	199.81
651.13	208.81
651.334	182.81
651.539	195.81
651.743	189.81
651.947	185.81
652.152	196.81
652.356	171.81
652.56	193.81
652.764	190.81
652.969	174.81
653.173	188.81
653.377	174.81
653.581	172.81
653.785	173.81
653.99	173.81
654.194	179.81
654.398	173.81
654.602	181.81
654.806	172.81
655.01	184.81
655.214	169.81
655.418	166.81
655.622	151.81
655.826	163.81
656.03	166.81
656.234	172.81
656.438	183.81
656.642	172.81
656.846	164.81
657.049	162.81
657.253	157.81
657.457	166.81
657.661	143.81
657.865	141.81
658.068	140.81
658.272	126.81
658.476	130.81
658.68	123.81
658.883	135.81
659.087	105.81
659.291	119.81
659.494	113.81
659.698	114.81
659.901	114.81
660.105	108.81
660.309	119.81
660.512	108.81
660.716	94.81
660.919	103.81
661.123	101.81
661.326	100.81
661.53	89.81
661.733	82.81
661.936	86.81
662.14	99.81
662.343	114.81
662.546	89.81
662.75	101.81
662.953	107.81
663.156	98.81
663.36	93.81
663.563	82.81
663.766	93.81
663.969	98.81
664.173	89.81
664.376	89.81
664.579	84.81
664.782	79.81
664.985	89.81
665.188	96.81
665.391	86.81
665.594	90.81
665.797	71.81
666	83.81
666.203	73.81
666.406	85.81
666.609	100.81
666.812	82.81
667.015	93.81
667.218	72.81
667.421	85.81
667.624	85.81
667.827	79.81
668.03	95.81
668.232	74.81
668.435	88.81
668.638	87.81
668.841	80.81
669.043	79.81
669.246	86.81
669.449	96.81
669.651	92.81
669.854	107.81
670.057	84.81
670.259	87.81
670.462	89.81
670.665	98.81
670.867	93.81
671.07	82.81
671.272	93.81
671.475	91.81
671.677	89.81
671.88	84.81
672.082	77.81
672.284	99.81
672.487	95.81
672.689	89.81
672.892	73.81
