Data from NickelSpatula.Lamp.E5.5.P2_HRD10591_11-51-13-562.txt Node
Date: Tue Jul 23 11:51:13 EDT 2019
User: cochatt
Spectrometer: HR+D1059
Trigger mode: 1
Integration Time (sec): 1.000000E-1
Scans to average: 1
Electric dark correction enabled: true
Nonlinearity correction enabled: false
Boxcar width: 0
XAxis mode: Wavelengths
Number of Pixels in Spectrum: 2048
>>>>>Begin Spectral Data<<<<<
223.165	-11.94
223.4	-11.94
223.635	-11.94
223.869	-20.94
224.104	-25.94
224.338	-6.94
224.573	-18.94
224.808	-1.94
225.042	-1.94
225.277	-15.94
225.511	-11.94
225.746	8.06
225.98	2.06
226.215	21.06
226.449	17.06
226.683	23.06
226.918	16.06
227.152	29.06
227.387	30.06
227.621	25.06
227.856	38.06
228.09	62.06
228.324	35.06
228.559	63.06
228.793	63.06
229.027	68.06
229.262	69.06
229.496	85.06
229.73	81.06
229.964	92.06
230.199	94.06
230.433	90.06
230.667	88.06
230.901	93.06
231.136	73.06
231.37	97.06
231.604	79.06
231.838	97.06
232.072	102.06
232.306	97.06
232.541	104.06
232.775	108.06
233.009	99.06
233.243	109.06
233.477	105.06
233.711	102.06
233.945	99.06
234.179	104.06
234.413	113.06
234.647	110.06
234.881	129.06
235.115	129.06
235.349	108.06
235.583	114.06
235.817	111.06
236.051	113.06
236.285	120.06
236.519	119.06
236.753	110.06
236.987	130.06
237.221	120.06
237.455	113.06
237.689	127.06
237.922	114.06
238.156	121.06
238.39	145.06
238.624	153.06
238.858	135.06
239.091	149.06
239.325	133.06
239.559	115.06
239.793	126.06
240.027	167.06
240.26	139.06
240.494	138.06
240.728	146.06
240.961	159.06
241.195	161.06
241.429	149.06
241.662	144.06
241.896	140.06
242.13	137.06
242.363	123.06
242.597	125.06
242.83	146.06
243.064	121.06
243.298	143.06
243.531	165.06
243.765	163.06
243.998	160.06
244.232	151.06
244.465	150.06
244.699	143.06
244.932	167.06
245.166	150.06
245.399	146.06
245.633	139.06
245.866	152.06
246.099	137.06
246.333	160.06
246.566	177.06
246.8	164.06
247.033	170.06
247.266	165.06
247.5	155.06
247.733	149.06
247.966	141.06
248.2	153.06
248.433	161.06
248.666	176.06
248.899	166.06
249.133	182.06
249.366	197.06
249.599	198.06
249.832	196.06
250.066	191.06
250.299	179.06
250.532	194.06
250.765	183.06
250.998	164.06
251.231	167.06
251.465	177.06
251.698	169.06
251.931	175.06
252.164	172.06
252.397	193.06
252.63	211.06
252.863	223.06
253.096	241.06
253.329	210.06
253.562	194.06
253.795	234.06
254.028	251.06
254.261	245.06
254.494	221.06
254.727	203.06
254.96	209.06
255.193	242.06
255.426	219.06
255.659	183.06
255.892	189.06
256.124	187.06
256.357	217.06
256.59	252.06
256.823	228.06
257.056	213.06
257.289	192.06
257.521	194.06
257.754	238.06
257.987	269.06
258.22	224.06
258.452	201.06
258.685	227.06
258.918	253.06
259.151	249.06
259.383	254.06
259.616	290.06
259.849	299.06
260.081	311.06
260.314	326.06
260.547	274.06
260.779	296.06
261.012	343.06
261.244	307.06
261.477	304.06
261.71	281.06
261.942	256.06
262.175	245.06
262.407	239.06
262.64	239.06
262.872	289.06
263.105	287.06
263.337	313.06
263.57	296.06
263.802	217.06
264.035	200.06
264.267	195.06
264.499	187.06
264.732	184.06
264.964	149.06
265.197	189.06
265.429	168.06
265.661	183.06
265.894	200.06
266.126	198.06
266.358	207.06
266.591	253.06
266.823	282.06
267.055	257.06
267.287	237.06
267.52	251.06
267.752	269.06
267.984	289.06
268.216	287.06
268.448	221.06
268.681	218.06
268.913	219.06
269.145	269.06
269.377	276.06
269.609	269.06
269.841	257.06
270.073	255.06
270.306	263.06
270.538	272.06
270.77	264.06
271.002	276.06
271.234	288.06
271.466	290.06
271.698	280.06
271.93	243.06
272.162	275.06
272.394	263.06
272.626	265.06
272.858	287.06
273.09	294.06
273.322	246.06
273.553	227.06
273.785	271.06
274.017	301.06
274.249	411.06
274.481	396.06
274.713	440.06
274.945	488.06
275.176	497.06
275.408	446.06
275.64	439.06
275.872	420.06
276.104	380.06
276.335	326.06
276.567	337.06
276.799	331.06
277.031	363.06
277.262	289.06
277.494	249.06
277.726	236.06
277.957	262.06
278.189	294.06
278.421	276.06
278.652	277.06
278.884	251.06
279.115	248.06
279.347	238.06
279.579	263.06
279.81	238.06
280.042	240.06
280.273	256.06
280.505	244.06
280.736	230.06
280.968	226.06
281.199	223.06
281.431	256.06
281.662	243.06
281.894	256.06
282.125	252.06
282.356	281.06
282.588	264.06
282.819	253.06
283.051	268.06
283.282	309.06
283.513	324.06
283.745	385.06
283.976	373.06
284.207	346.06
284.439	375.06
284.67	359.06
284.901	324.06
285.132	365.06
285.364	355.06
285.595	341.06
285.826	368.06
286.057	356.06
286.288	363.06
286.52	363.06
286.751	376.06
286.982	372.06
287.213	329.06
287.444	328.06
287.675	329.06
287.906	342.06
288.138	299.06
288.369	276.06
288.6	273.06
288.831	280.06
289.062	296.06
289.293	328.06
289.524	324.06
289.755	295.06
289.986	306.06
290.217	283.06
290.448	238.06
290.679	219.06
290.91	211.06
291.141	207.06
291.371	231.06
291.602	207.06
291.833	221.06
292.064	238.06
292.295	249.06
292.526	266.06
292.757	291.06
292.987	282.06
293.218	287.06
293.449	327.06
293.68	332.06
293.91	319.06
294.141	329.06
294.372	300.06
294.603	280.06
294.833	313.06
295.064	344.06
295.295	339.06
295.525	264.06
295.756	254.06
295.987	217.06
296.217	239.06
296.448	210.06
296.679	238.06
296.909	250.06
297.14	230.06
297.37	272.06
297.601	261.06
297.831	243.06
298.062	275.06
298.292	273.06
298.523	283.06
298.753	300.06
298.984	305.06
299.214	272.06
299.445	226.06
299.675	209.06
299.905	233.06
300.136	228.06
300.366	243.06
300.597	236.06
300.827	236.06
301.057	219.06
301.288	214.06
301.518	214.06
301.748	256.06
301.979	250.06
302.209	277.06
302.439	288.06
302.669	272.06
302.9	246.06
303.13	238.06
303.36	243.06
303.59	212.06
303.82	240.06
304.051	259.06
304.281	255.06
304.511	286.06
304.741	229.06
304.971	236.06
305.201	245.06
305.431	243.06
305.661	217.06
305.891	231.06
306.121	230.06
306.352	230.06
306.582	199.06
306.812	188.06
307.042	208.06
307.272	188.06
307.502	188.06
307.731	197.06
307.961	197.06
308.191	179.06
308.421	189.06
308.651	201.06
308.881	190.06
309.111	194.06
309.341	185.06
309.571	200.06
309.8	200.06
310.03	207.06
310.26	217.06
310.49	212.06
310.72	203.06
310.949	201.06
311.179	205.06
311.409	208.06
311.639	217.06
311.868	268.06
312.098	310.06
312.328	350.06
312.557	340.06
312.787	343.06
313.017	324.06
313.246	316.06
313.476	356.06
313.706	321.06
313.935	255.06
314.165	224.06
314.394	191.06
314.624	217.06
314.853	228.06
315.083	200.06
315.312	208.06
315.542	230.06
315.771	206.06
316.001	189.06
316.23	207.06
316.46	209.06
316.689	191.06
316.919	209.06
317.148	196.06
317.377	201.06
317.607	182.06
317.836	210.06
318.065	201.06
318.295	225.06
318.524	247.06
318.753	197.06
318.983	199.06
319.212	179.06
319.441	200.06
319.67	224.06
319.9	225.06
320.129	211.06
320.358	211.06
320.587	190.06
320.816	208.06
321.046	232.06
321.275	247.06
321.504	239.06
321.733	231.06
321.962	223.06
322.191	226.06
322.42	231.06
322.649	216.06
322.878	228.06
323.108	206.06
323.337	231.06
323.566	235.06
323.795	241.06
324.024	211.06
324.253	215.06
324.482	209.06
324.71	224.06
324.939	259.06
325.168	229.06
325.397	221.06
325.626	209.06
325.855	215.06
326.084	208.06
326.313	223.06
326.542	209.06
326.77	205.06
326.999	216.06
327.228	197.06
327.457	200.06
327.686	210.06
327.914	203.06
328.143	196.06
328.372	190.06
328.6	191.06
328.829	200.06
329.058	193.06
329.287	201.06
329.515	201.06
329.744	194.06
329.972	179.06
330.201	183.06
330.43	211.06
330.658	196.06
330.887	227.06
331.115	215.06
331.344	223.06
331.572	201.06
331.801	193.06
332.03	200.06
332.258	189.06
332.486	223.06
332.715	215.06
332.943	212.06
333.172	227.06
333.4	233.06
333.629	249.06
333.857	254.06
334.085	240.06
334.314	239.06
334.542	238.06
334.771	247.06
334.999	226.06
335.227	209.06
335.455	216.06
335.684	237.06
335.912	260.06
336.14	261.06
336.369	259.06
336.597	276.06
336.825	273.06
337.053	294.06
337.281	254.06
337.51	222.06
337.738	226.06
337.966	204.06
338.194	233.06
338.422	221.06
338.65	214.06
338.878	207.06
339.106	209.06
339.334	212.06
339.562	227.06
339.79	219.06
340.018	203.06
340.246	222.06
340.474	243.06
340.702	249.06
340.93	263.06
341.158	286.06
341.386	225.06
341.614	231.06
341.842	230.06
342.07	242.06
342.298	247.06
342.526	276.06
342.754	233.06
342.981	238.06
343.209	227.06
343.437	226.06
343.665	244.06
343.893	255.06
344.12	291.06
344.348	309.06
344.576	291.06
344.804	243.06
345.031	239.06
345.259	240.06
345.487	214.06
345.714	242.06
345.942	221.06
346.17	243.06
346.397	240.06
346.625	235.06
346.853	212.06
347.08	206.06
347.308	237.06
347.535	247.06
347.763	259.06
347.99	211.06
348.218	215.06
348.445	238.06
348.673	207.06
348.9	222.06
349.128	220.06
349.355	251.06
349.583	220.06
349.81	205.06
350.037	208.06
350.265	195.06
350.492	196.06
350.72	188.06
350.947	188.06
351.174	206.06
351.402	193.06
351.629	221.06
351.856	213.06
352.083	191.06
352.311	215.06
352.538	219.06
352.765	253.06
352.992	233.06
353.22	224.06
353.447	210.06
353.674	216.06
353.901	196.06
354.128	207.06
354.355	221.06
354.583	237.06
354.81	231.06
355.037	238.06
355.264	229.06
355.491	229.06
355.718	235.06
355.945	235.06
356.172	241.06
356.399	227.06
356.626	257.06
356.853	286.06
357.08	305.06
357.307	322.06
357.534	242.06
357.761	291.06
357.988	326.06
358.215	369.06
358.441	339.06
358.668	320.06
358.895	293.06
359.122	261.06
359.349	243.06
359.576	303.06
359.802	252.06
360.029	212.06
360.256	223.06
360.483	259.06
360.709	311.06
360.936	309.06
361.163	273.06
361.39	244.06
361.616	216.06
361.843	240.06
362.07	273.06
362.296	252.06
362.523	218.06
362.749	191.06
362.976	214.06
363.203	248.06
363.429	257.06
363.656	235.06
363.882	217.06
364.109	213.06
364.335	220.06
364.562	217.06
364.788	212.06
365.015	259.06
365.241	232.06
365.468	196.06
365.694	192.06
365.92	209.06
366.147	200.06
366.373	206.06
366.599	179.06
366.826	189.06
367.052	188.06
367.278	200.06
367.505	185.06
367.731	199.06
367.957	227.06
368.184	217.06
368.41	213.06
368.636	227.06
368.862	240.06
369.089	229.06
369.315	203.06
369.541	209.06
369.767	194.06
369.993	186.06
370.219	201.06
370.445	207.06
370.672	207.06
370.898	219.06
371.124	225.06
371.35	208.06
371.576	196.06
371.802	211.06
372.028	230.06
372.254	263.06
372.48	241.06
372.706	243.06
372.932	252.06
373.158	256.06
373.384	277.06
373.61	313.06
373.835	338.06
374.061	286.06
374.287	239.06
374.513	281.06
374.739	316.06
374.965	323.06
375.191	319.06
375.416	252.06
375.642	223.06
375.868	257.06
376.094	263.06
376.319	240.06
376.545	247.06
376.771	236.06
376.997	230.06
377.222	196.06
377.448	197.06
377.674	201.06
377.899	182.06
378.125	184.06
378.35	184.06
378.576	201.06
378.802	199.06
379.027	197.06
379.253	202.06
379.478	203.06
379.704	223.06
379.929	215.06
380.155	220.06
380.38	202.06
380.606	210.06
380.831	254.06
381.057	228.06
381.282	207.06
381.507	239.06
381.733	280.06
381.958	299.06
382.184	301.06
382.409	321.06
382.634	321.06
382.86	342.06
383.085	269.06
383.31	259.06
383.535	262.06
383.761	263.06
383.986	254.06
384.211	285.06
384.436	278.06
384.662	229.06
384.887	223.06
385.112	222.06
385.337	239.06
385.562	235.06
385.787	249.06
386.013	284.06
386.238	269.06
386.463	238.06
386.688	234.06
386.913	213.06
387.138	225.06
387.363	211.06
387.588	215.06
387.813	229.06
388.038	235.06
388.263	219.06
388.488	230.06
388.713	263.06
388.938	263.06
389.163	226.06
389.387	231.06
389.612	210.06
389.837	223.06
390.062	225.06
390.287	223.06
390.512	223.06
390.736	230.06
390.961	216.06
391.186	221.06
391.411	207.06
391.636	216.06
391.86	216.06
392.085	233.06
392.31	255.06
392.534	221.06
392.759	213.06
392.984	214.06
393.208	234.06
393.433	213.06
393.658	200.06
393.882	195.06
394.107	204.06
394.331	201.06
394.556	209.06
394.78	205.06
395.005	196.06
395.229	222.06
395.454	222.06
395.678	215.06
395.903	216.06
396.127	212.06
396.352	224.06
396.576	223.06
396.801	233.06
397.025	238.06
397.249	255.06
397.474	220.06
397.698	219.06
397.922	234.06
398.147	225.06
398.371	212.06
398.595	231.06
398.82	228.06
399.044	241.06
399.268	247.06
399.492	265.06
399.717	280.06
399.941	281.06
400.165	271.06
400.389	253.06
400.613	265.06
400.837	244.06
401.062	221.06
401.286	199.06
401.51	230.06
401.734	210.06
401.958	229.06
402.182	244.06
402.406	218.06
402.63	226.06
402.854	247.06
403.078	271.06
403.302	348.06
403.526	352.06
403.75	319.06
403.974	295.06
404.198	271.06
404.422	316.06
404.645	317.06
404.869	323.06
405.093	293.06
405.317	280.06
405.541	243.06
405.765	267.06
405.988	238.06
406.212	257.06
406.436	268.06
406.66	304.06
406.883	272.06
407.107	276.06
407.331	320.06
407.555	299.06
407.778	289.06
408.002	275.06
408.226	285.06
408.449	265.06
408.673	272.06
408.896	254.06
409.12	243.06
409.344	255.06
409.567	239.06
409.791	239.06
410.014	263.06
410.238	241.06
410.461	242.06
410.685	237.06
410.908	237.06
411.132	231.06
411.355	231.06
411.578	240.06
411.802	226.06
412.025	251.06
412.249	247.06
412.472	251.06
412.695	247.06
412.919	231.06
413.142	238.06
413.365	243.06
413.589	248.06
413.812	235.06
414.035	214.06
414.258	221.06
414.482	253.06
414.705	249.06
414.928	229.06
415.151	221.06
415.374	201.06
415.597	224.06
415.821	232.06
416.044	215.06
416.267	223.06
416.49	197.06
416.713	216.06
416.936	222.06
417.159	231.06
417.382	234.06
417.605	241.06
417.828	238.06
418.051	231.06
418.274	234.06
418.497	240.06
418.72	233.06
418.943	236.06
419.166	238.06
419.389	253.06
419.611	230.06
419.834	253.06
420.057	260.06
420.28	262.06
420.503	252.06
420.726	236.06
420.948	226.06
421.171	224.06
421.394	221.06
421.617	220.06
421.839	233.06
422.062	214.06
422.285	223.06
422.507	253.06
422.73	227.06
422.953	253.06
423.175	253.06
423.398	247.06
423.621	262.06
423.843	267.06
424.066	259.06
424.288	242.06
424.511	238.06
424.733	251.06
424.956	251.06
425.178	268.06
425.401	301.06
425.623	352.06
425.846	309.06
426.068	254.06
426.291	237.06
426.513	239.06
426.735	243.06
426.958	231.06
427.18	279.06
427.402	295.06
427.625	339.06
427.847	325.06
428.069	239.06
428.292	223.06
428.514	253.06
428.736	235.06
428.958	239.06
429.181	275.06
429.403	255.06
429.625	210.06
429.847	219.06
430.069	223.06
430.292	220.06
430.514	225.06
430.736	232.06
430.958	270.06
431.18	251.06
431.402	192.06
431.624	224.06
431.846	219.06
432.068	212.06
432.29	235.06
432.512	232.06
432.734	243.06
432.956	248.06
433.178	221.06
433.4	207.06
433.622	223.06
433.844	216.06
434.066	241.06
434.287	255.06
434.509	252.06
434.731	245.06
434.953	232.06
435.175	225.06
435.397	265.06
435.618	251.06
435.84	213.06
436.062	227.06
436.284	239.06
436.505	213.06
436.727	205.06
436.949	223.06
437.17	221.06
437.392	206.06
437.614	218.06
437.835	223.06
438.057	222.06
438.278	246.06
438.5	287.06
438.721	283.06
438.943	238.06
439.165	221.06
439.386	207.06
439.608	234.06
439.829	207.06
440.05	212.06
440.272	231.06
440.493	243.06
440.715	273.06
440.936	240.06
441.158	217.06
441.379	232.06
441.6	242.06
441.822	247.06
442.043	242.06
442.264	236.06
442.486	221.06
442.707	231.06
442.928	220.06
443.149	248.06
443.371	219.06
443.592	243.06
443.813	219.06
444.034	226.06
444.255	232.06
444.476	251.06
444.698	267.06
444.919	273.06
445.14	367.06
445.361	292.06
445.582	251.06
445.803	235.06
446.024	221.06
446.245	239.06
446.466	233.06
446.687	228.06
446.908	232.06
447.129	223.06
447.35	224.06
447.571	214.06
447.792	209.06
448.013	212.06
448.234	197.06
448.455	189.06
448.675	202.06
448.896	206.06
449.117	211.06
449.338	208.06
449.559	213.06
449.779	227.06
450	216.06
450.221	220.06
450.442	223.06
450.662	203.06
450.883	213.06
451.104	215.06
451.324	211.06
451.545	228.06
451.766	220.06
451.986	207.06
452.207	196.06
452.428	215.06
452.648	211.06
452.869	229.06
453.089	227.06
453.31	221.06
453.53	193.06
453.751	211.06
453.971	205.06
454.192	212.06
454.412	224.06
454.633	210.06
454.853	218.06
455.073	199.06
455.294	204.06
455.514	205.06
455.734	194.06
455.955	215.06
456.175	216.06
456.395	196.06
456.616	190.06
456.836	158.06
457.056	200.06
457.276	191.06
457.497	190.06
457.717	207.06
457.937	212.06
458.157	209.06
458.377	205.06
458.598	188.06
458.818	208.06
459.038	212.06
459.258	215.06
459.478	213.06
459.698	224.06
459.918	217.06
460.138	222.06
460.358	251.06
460.578	261.06
460.798	252.06
461.018	264.06
461.238	240.06
461.458	235.06
461.678	238.06
461.898	238.06
462.118	240.06
462.338	249.06
462.558	253.06
462.777	244.06
462.997	273.06
463.217	295.06
463.437	289.06
463.657	280.06
463.876	260.06
464.096	275.06
464.316	271.06
464.536	263.06
464.755	266.06
464.975	273.06
465.195	260.06
465.414	245.06
465.634	247.06
465.854	227.06
466.073	222.06
466.293	219.06
466.512	220.06
466.732	229.06
466.951	230.06
467.171	222.06
467.391	211.06
467.61	208.06
467.829	214.06
468.049	231.06
468.268	228.06
468.488	237.06
468.707	203.06
468.927	239.06
469.146	264.06
469.365	253.06
469.585	227.06
469.804	254.06
470.023	255.06
470.243	227.06
470.462	251.06
470.681	212.06
470.901	225.06
471.12	240.06
471.339	216.06
471.558	229.06
471.777	235.06
471.997	234.06
472.216	265.06
472.435	248.06
472.654	224.06
472.873	223.06
473.092	237.06
473.311	252.06
473.53	240.06
473.749	237.06
473.968	233.06
474.187	228.06
474.406	218.06
474.625	215.06
474.844	221.06
475.063	249.06
475.282	219.06
475.501	241.06
475.72	283.06
475.939	256.06
476.158	257.06
476.377	283.06
476.596	299.06
476.814	318.06
477.033	274.06
477.252	248.06
477.471	226.06
477.69	243.06
477.908	257.06
478.127	251.06
478.346	255.06
478.564	288.06
478.783	277.06
479.002	259.06
479.22	287.06
479.439	319.06
479.658	271.06
479.876	259.06
480.095	288.06
480.313	318.06
480.532	274.06
480.751	272.06
480.969	256.06
481.188	280.06
481.406	303.06
481.624	275.06
481.843	244.06
482.061	260.06
482.28	277.06
482.498	324.06
482.717	319.06
482.935	265.06
483.153	259.06
483.372	252.06
483.59	256.06
483.808	269.06
484.027	243.06
484.245	229.06
484.463	237.06
484.681	236.06
484.9	247.06
485.118	265.06
485.336	252.06
485.554	232.06
485.772	255.06
485.99	278.06
486.209	297.06
486.427	275.06
486.645	264.06
486.863	295.06
487.081	304.06
487.299	308.06
487.517	302.06
487.735	275.06
487.953	274.06
488.171	286.06
488.389	243.06
488.607	255.06
488.825	268.06
489.043	288.06
489.261	303.06
489.479	316.06
489.696	282.06
489.914	260.06
490.132	264.06
490.35	254.06
490.568	269.06
490.786	253.06
491.003	260.06
491.221	258.06
491.439	273.06
491.657	258.06
491.874	257.06
492.092	288.06
492.31	346.06
492.527	338.06
492.745	320.06
492.963	281.06
493.18	297.06
493.398	283.06
493.615	261.06
493.833	265.06
494.05	271.06
494.268	271.06
494.485	255.06
494.703	262.06
494.92	284.06
495.138	244.06
495.355	282.06
495.573	280.06
495.79	304.06
496.008	329.06
496.225	322.06
496.442	289.06
496.66	309.06
496.877	308.06
497.094	309.06
497.312	286.06
497.529	289.06
497.746	284.06
497.963	311.06
498.181	312.06
498.398	315.06
498.615	348.06
498.832	359.06
499.049	387.06
499.267	353.06
499.484	377.06
499.701	407.06
499.918	442.06
500.135	496.06
500.352	545.06
500.569	530.06
500.786	539.06
501.003	508.06
501.22	461.06
501.437	436.06
501.654	413.06
501.871	383.06
502.088	357.06
502.305	343.06
502.522	346.06
502.739	336.06
502.956	309.06
503.172	286.06
503.389	283.06
503.606	285.06
503.823	305.06
504.04	293.06
504.256	295.06
504.473	304.06
504.69	305.06
504.907	325.06
505.123	295.06
505.34	299.06
505.557	308.06
505.773	288.06
505.99	280.06
506.207	299.06
506.423	279.06
506.64	266.06
506.856	269.06
507.073	300.06
507.289	278.06
507.506	290.06
507.722	290.06
507.939	309.06
508.155	323.06
508.372	273.06
508.588	273.06
508.805	252.06
509.021	264.06
509.238	262.06
509.454	254.06
509.67	258.06
509.887	256.06
510.103	296.06
510.319	269.06
510.536	257.06
510.752	251.06
510.968	238.06
511.184	248.06
511.401	249.06
511.617	231.06
511.833	244.06
512.049	261.06
512.265	259.06
512.481	269.06
512.698	263.06
512.914	300.06
513.13	283.06
513.346	257.06
513.562	258.06
513.778	242.06
513.994	233.06
514.21	255.06
514.426	259.06
514.642	269.06
514.858	261.06
515.074	245.06
515.29	286.06
515.506	297.06
515.721	286.06
515.937	288.06
516.153	262.06
516.369	271.06
516.585	286.06
516.801	304.06
517.016	332.06
517.232	332.06
517.448	328.06
517.664	309.06
517.879	336.06
518.095	304.06
518.311	299.06
518.527	277.06
518.742	330.06
518.958	344.06
519.173	335.06
519.389	302.06
519.605	301.06
519.82	324.06
520.036	355.06
520.251	338.06
520.467	332.06
520.682	527.06
520.898	650.06
521.113	624.06
521.329	394.06
521.544	343.06
521.76	321.06
521.975	288.06
522.19	277.06
522.406	294.06
522.621	304.06
522.836	317.06
523.052	334.06
523.267	281.06
523.482	275.06
523.698	298.06
523.913	291.06
524.128	265.06
524.343	263.06
524.559	279.06
524.774	247.06
524.989	252.06
525.204	285.06
525.419	274.06
525.634	268.06
525.849	284.06
526.064	265.06
526.28	289.06
526.495	281.06
526.71	339.06
526.925	317.06
527.14	306.06
527.355	287.06
527.57	262.06
527.785	269.06
527.999	246.06
528.214	246.06
528.429	245.06
528.644	248.06
528.859	245.06
529.074	247.06
529.289	238.06
529.503	225.06
529.718	259.06
529.933	282.06
530.148	294.06
530.363	260.06
530.577	254.06
530.792	245.06
531.007	238.06
531.221	234.06
531.436	239.06
531.651	232.06
531.865	257.06
532.08	257.06
532.295	256.06
532.509	262.06
532.724	262.06
532.938	280.06
533.153	329.06
533.367	269.06
533.582	267.06
533.796	246.06
534.011	248.06
534.225	254.06
534.44	261.06
534.654	293.06
534.868	315.06
535.083	292.06
535.297	257.06
535.511	246.06
535.726	279.06
535.94	260.06
536.154	237.06
536.369	231.06
536.583	232.06
536.797	226.06
537.011	228.06
537.225	241.06
537.44	274.06
537.654	229.06
537.868	233.06
538.082	247.06
538.296	243.06
538.51	257.06
538.724	277.06
538.938	257.06
539.153	244.06
539.367	250.06
539.581	236.06
539.795	246.06
540.009	251.06
540.222	237.06
540.436	253.06
540.65	251.06
540.864	267.06
541.078	278.06
541.292	319.06
541.506	253.06
541.72	238.06
541.934	255.06
542.147	231.06
542.361	245.06
542.575	253.06
542.789	244.06
543.002	232.06
543.216	251.06
543.43	241.06
543.644	229.06
543.857	225.06
544.071	216.06
544.285	242.06
544.498	234.06
544.712	235.06
544.925	249.06
545.139	235.06
545.352	230.06
545.566	237.06
545.779	249.06
545.993	220.06
546.206	221.06
546.42	220.06
546.633	234.06
546.847	208.06
547.06	220.06
547.274	226.06
547.487	214.06
547.7	245.06
547.914	227.06
548.127	255.06
548.34	257.06
548.554	238.06
548.767	240.06
548.98	251.06
549.193	225.06
549.407	259.06
549.62	266.06
549.833	257.06
550.046	278.06
550.259	279.06
550.473	255.06
550.686	238.06
550.899	247.06
551.112	212.06
551.325	254.06
551.538	251.06
551.751	221.06
551.964	230.06
552.177	218.06
552.39	231.06
552.603	221.06
552.816	231.06
553.029	215.06
553.242	217.06
553.455	236.06
553.667	263.06
553.88	249.06
554.093	224.06
554.306	201.06
554.519	224.06
554.732	222.06
554.944	201.06
555.157	208.06
555.37	212.06
555.583	205.06
555.795	195.06
556.008	208.06
556.221	200.06
556.433	215.06
556.646	206.06
556.859	197.06
557.071	205.06
557.284	216.06
557.496	216.06
557.709	215.06
557.921	199.06
558.134	188.06
558.346	193.06
558.559	193.06
558.771	201.06
558.984	190.06
559.196	211.06
559.409	208.06
559.621	192.06
559.833	176.06
560.046	191.06
560.258	187.06
560.47	203.06
560.683	169.06
560.895	181.06
561.107	201.06
561.32	176.06
561.532	177.06
561.744	203.06
561.956	211.06
562.168	210.06
562.381	194.06
562.593	199.06
562.805	206.06
563.017	207.06
563.229	195.06
563.441	179.06
563.653	187.06
563.865	189.06
564.077	193.06
564.289	206.06
564.501	206.06
564.713	196.06
564.925	200.06
565.137	202.06
565.349	206.06
565.561	222.06
565.773	211.06
565.985	214.06
566.197	217.06
566.408	226.06
566.62	248.06
566.832	257.06
567.044	239.06
567.255	263.06
567.467	278.06
567.679	288.06
567.891	280.06
568.102	292.06
568.314	287.06
568.526	265.06
568.737	248.06
568.949	231.06
569.161	220.06
569.372	198.06
569.584	192.06
569.795	197.06
570.007	204.06
570.218	212.06
570.43	224.06
570.641	204.06
570.853	204.06
571.064	182.06
571.276	198.06
571.487	206.06
571.698	202.06
571.91	218.06
572.121	201.06
572.333	175.06
572.544	177.06
572.755	184.06
572.966	175.06
573.178	191.06
573.389	200.06
573.6	183.06
573.811	204.06
574.023	180.06
574.234	181.06
574.445	180.06
574.656	172.06
574.867	178.06
575.078	183.06
575.289	175.06
575.501	179.06
575.712	163.06
575.923	168.06
576.134	165.06
576.345	166.06
576.556	167.06
576.767	161.06
576.978	166.06
577.188	163.06
577.399	178.06
577.61	167.06
577.821	176.06
578.032	174.06
578.243	197.06
578.454	177.06
578.665	191.06
578.875	193.06
579.086	177.06
579.297	176.06
579.508	189.06
579.718	178.06
579.929	168.06
580.14	161.06
580.35	167.06
580.561	177.06
580.772	163.06
580.982	176.06
581.193	171.06
581.403	160.06
581.614	168.06
581.825	173.06
582.035	155.06
582.246	150.06
582.456	161.06
582.667	145.06
582.877	160.06
583.087	166.06
583.298	165.06
583.508	152.06
583.719	149.06
583.929	147.06
584.139	150.06
584.35	147.06
584.56	165.06
584.77	162.06
584.981	145.06
585.191	166.06
585.401	157.06
585.611	151.06
585.821	154.06
586.032	161.06
586.242	172.06
586.452	140.06
586.662	161.06
586.872	147.06
587.082	164.06
587.292	152.06
587.502	144.06
587.713	179.06
587.923	157.06
588.133	157.06
588.343	155.06
588.553	155.06
588.762	167.06
588.972	146.06
589.182	154.06
589.392	153.06
589.602	158.06
589.812	166.06
590.022	149.06
590.232	174.06
590.441	150.06
590.651	149.06
590.861	166.06
591.071	157.06
591.281	161.06
591.49	152.06
591.7	169.06
591.91	137.06
592.119	166.06
592.329	173.06
592.539	161.06
592.748	165.06
592.958	156.06
593.167	168.06
593.377	176.06
593.587	181.06
593.796	163.06
594.006	177.06
594.215	168.06
594.424	179.06
594.634	168.06
594.843	169.06
595.053	148.06
595.262	158.06
595.472	166.06
595.681	178.06
595.89	159.06
596.1	141.06
596.309	147.06
596.518	156.06
596.727	154.06
596.937	141.06
597.146	153.06
597.355	152.06
597.564	129.06
597.774	151.06
597.983	168.06
598.192	137.06
598.401	153.06
598.61	149.06
598.819	137.06
599.028	145.06
599.237	136.06
599.446	140.06
599.655	131.06
599.864	135.06
600.073	150.06
600.282	138.06
600.491	146.06
600.7	141.06
600.909	141.06
601.118	140.06
601.327	144.06
601.536	142.06
601.745	130.06
601.953	150.06
602.162	132.06
602.371	151.06
602.58	147.06
602.789	152.06
602.997	159.06
603.206	148.06
603.415	131.06
603.623	125.06
603.832	127.06
604.041	138.06
604.249	138.06
604.458	138.06
604.666	140.06
604.875	131.06
605.084	157.06
605.292	138.06
605.501	136.06
605.709	148.06
605.918	135.06
606.126	132.06
606.334	145.06
606.543	148.06
606.751	150.06
606.96	143.06
607.168	112.06
607.376	131.06
607.585	143.06
607.793	140.06
608.001	131.06
608.21	139.06
608.418	138.06
608.626	135.06
608.834	129.06
609.043	130.06
609.251	156.06
609.459	127.06
609.667	143.06
609.875	137.06
610.083	161.06
610.291	128.06
610.499	135.06
610.707	129.06
610.916	112.06
611.124	140.06
611.332	130.06
611.54	132.06
611.748	136.06
611.955	118.06
612.163	136.06
612.371	145.06
612.579	131.06
612.787	130.06
612.995	119.06
613.203	143.06
613.411	139.06
613.618	129.06
613.826	127.06
614.034	147.06
614.242	139.06
614.449	125.06
614.657	117.06
614.865	125.06
615.072	131.06
615.28	122.06
615.488	142.06
615.695	127.06
615.903	127.06
616.111	143.06
616.318	143.06
616.526	131.06
616.733	121.06
616.941	136.06
617.148	146.06
617.356	129.06
617.563	136.06
617.771	137.06
617.978	147.06
618.185	123.06
618.393	128.06
618.6	137.06
618.807	141.06
619.015	123.06
619.222	136.06
619.429	135.06
619.637	132.06
619.844	128.06
620.051	118.06
620.258	125.06
620.466	139.06
620.673	124.06
620.88	137.06
621.087	127.06
621.294	119.06
621.501	127.06
621.708	118.06
621.915	117.06
622.122	127.06
622.329	118.06
622.536	128.06
622.743	113.06
622.95	138.06
623.157	119.06
623.364	123.06
623.571	125.06
623.778	124.06
623.985	130.06
624.192	132.06
624.399	123.06
624.606	128.06
624.812	120.06
625.019	128.06
625.226	142.06
625.433	132.06
625.639	115.06
625.846	124.06
626.053	120.06
626.259	117.06
626.466	117.06
626.673	137.06
626.879	129.06
627.086	113.06
627.293	132.06
627.499	121.06
627.706	121.06
627.912	117.06
628.119	120.06
628.325	121.06
628.532	116.06
628.738	109.06
628.945	123.06
629.151	122.06
629.357	125.06
629.564	115.06
629.77	115.06
629.976	124.06
630.183	109.06
630.389	125.06
630.595	116.06
630.802	112.06
631.008	121.06
631.214	129.06
631.42	116.06
631.627	111.06
631.833	112.06
632.039	111.06
632.245	115.06
632.451	124.06
632.657	124.06
632.863	116.06
633.069	113.06
633.275	103.06
633.481	112.06
633.688	127.06
633.893	129.06
634.099	123.06
634.305	120.06
634.511	119.06
634.717	109.06
634.923	108.06
635.129	116.06
635.335	113.06
635.541	112.06
635.747	127.06
635.952	111.06
636.158	119.06
636.364	104.06
636.57	122.06
636.775	123.06
636.981	111.06
637.187	111.06
637.392	117.06
637.598	120.06
637.804	120.06
638.009	108.06
638.215	108.06
638.421	101.06
638.626	123.06
638.832	116.06
639.037	124.06
639.243	117.06
639.448	119.06
639.654	104.06
639.859	114.06
640.065	117.06
640.27	112.06
640.475	103.06
640.681	107.06
640.886	118.06
641.091	97.06
641.297	119.06
641.502	118.06
641.707	117.06
641.913	116.06
642.118	97.06
642.323	105.06
642.528	111.06
642.733	107.06
642.939	114.06
643.144	104.06
643.349	103.06
643.554	118.06
643.759	119.06
643.964	104.06
644.169	111.06
644.374	119.06
644.579	96.06
644.784	129.06
644.989	116.06
645.194	115.06
645.399	122.06
645.604	96.06
645.809	103.06
646.014	104.06
646.219	92.06
646.423	97.06
646.628	103.06
646.833	112.06
647.038	105.06
647.243	97.06
647.447	111.06
647.652	105.06
647.857	96.06
648.062	110.06
648.266	114.06
648.471	124.06
648.676	110.06
648.88	99.06
649.085	107.06
649.289	100.06
649.494	109.06
649.698	109.06
649.903	104.06
650.107	115.06
650.312	113.06
650.516	117.06
650.721	108.06
650.925	95.06
651.13	87.06
651.334	87.06
651.539	117.06
651.743	118.06
651.947	110.06
652.152	104.06
652.356	103.06
652.56	111.06
652.764	102.06
652.969	82.06
653.173	101.06
653.377	99.06
653.581	101.06
653.785	89.06
653.99	98.06
654.194	103.06
654.398	93.06
654.602	108.06
654.806	92.06
655.01	97.06
655.214	101.06
655.418	109.06
655.622	103.06
655.826	104.06
656.03	100.06
656.234	94.06
656.438	93.06
656.642	93.06
656.846	91.06
657.049	89.06
657.253	100.06
657.457	92.06
657.661	93.06
657.865	89.06
658.068	76.06
658.272	84.06
658.476	81.06
658.68	96.06
658.883	85.06
659.087	86.06
659.291	81.06
659.494	83.06
659.698	79.06
659.901	76.06
660.105	80.06
660.309	73.06
660.512	113.06
660.716	85.06
660.919	90.06
661.123	84.06
661.326	82.06
661.53	86.06
661.733	71.06
661.936	70.06
662.14	72.06
662.343	89.06
662.546	82.06
662.75	86.06
662.953	98.06
663.156	75.06
663.36	75.06
663.563	71.06
663.766	88.06
663.969	71.06
664.173	79.06
664.376	74.06
664.579	77.06
664.782	89.06
664.985	96.06
665.188	93.06
665.391	81.06
665.594	75.06
665.797	84.06
666	91.06
666.203	83.06
666.406	85.06
666.609	87.06
666.812	76.06
667.015	81.06
667.218	84.06
667.421	85.06
667.624	78.06
667.827	70.06
668.03	73.06
668.232	81.06
668.435	83.06
668.638	78.06
668.841	83.06
669.043	74.06
669.246	60.06
669.449	88.06
669.651	86.06
669.854	73.06
670.057	72.06
670.259	69.06
670.462	68.06
670.665	76.06
670.867	72.06
671.07	86.06
671.272	80.06
671.475	72.06
671.677	78.06
671.88	65.06
672.082	82.06
672.284	81.06
672.487	86.06
672.689	85.06
672.892	72.06
