Data from NickelSpatula.Lamp.E10.P2_HRD10591_11-58-53-527.txt Node
Date: Tue Jul 23 11:58:53 EDT 2019
User: cochatt
Spectrometer: HR+D1059
Trigger mode: 1
Integration Time (sec): 1.000000E-1
Scans to average: 1
Electric dark correction enabled: true
Nonlinearity correction enabled: false
Boxcar width: 0
XAxis mode: Wavelengths
Number of Pixels in Spectrum: 2048
>>>>>Begin Spectral Data<<<<<
223.165	-29.75
223.4	-29.75
223.635	-29.75
223.869	-23.75
224.104	-21.75
224.338	-8.75
224.573	-10.75
224.808	-4.75
225.042	-2.75
225.277	-3.75
225.511	-8.75
225.746	9.25
225.98	12.25
226.215	16.25
226.449	10.25
226.683	12.25
226.918	25.25
227.152	29.25
227.387	33.25
227.621	42.25
227.856	46.25
228.09	43.25
228.324	54.25
228.559	50.25
228.793	87.25
229.027	150.25
229.262	157.25
229.496	170.25
229.73	169.25
229.964	191.25
230.199	216.25
230.433	207.25
230.667	209.25
230.901	210.25
231.136	196.25
231.37	225.25
231.604	228.25
231.838	233.25
232.072	249.25
232.306	240.25
232.541	256.25
232.775	244.25
233.009	282.25
233.243	298.25
233.477	319.25
233.711	351.25
233.945	343.25
234.179	325.25
234.413	351.25
234.647	400.25
234.881	458.25
235.115	434.25
235.349	418.25
235.583	377.25
235.817	348.25
236.051	380.25
236.285	422.25
236.519	470.25
236.753	434.25
236.987	436.25
237.221	426.25
237.455	431.25
237.689	446.25
237.922	463.25
238.156	489.25
238.39	553.25
238.624	671.25
238.858	604.25
239.091	486.25
239.325	507.25
239.559	494.25
239.793	542.25
240.027	658.25
240.26	620.25
240.494	611.25
240.728	631.25
240.961	683.25
241.195	655.25
241.429	629.25
241.662	631.25
241.896	553.25
242.13	497.25
242.363	454.25
242.597	468.25
242.83	551.25
243.064	550.25
243.298	587.25
243.531	653.25
243.765	650.25
243.998	637.25
244.232	609.25
244.465	599.25
244.699	591.25
244.932	660.25
245.166	620.25
245.399	568.25
245.633	569.25
245.866	601.25
246.099	608.25
246.333	745.25
246.566	751.25
246.8	786.25
247.033	758.25
247.266	701.25
247.5	690.25
247.733	681.25
247.966	665.25
248.2	675.25
248.433	804.25
248.666	887.25
248.899	854.25
249.133	888.25
249.366	998.25
249.599	1067.25
249.832	976.25
250.066	816.25
250.299	840.25
250.532	817.25
250.765	807.25
250.998	753.25
251.231	746.25
251.465	821.25
251.698	839.25
251.931	820.25
252.164	866.25
252.397	949.25
252.63	1074.25
252.863	1191.25
253.096	1233.25
253.329	1188.25
253.562	1132.25
253.795	1239.25
254.028	1406.25
254.261	1408.25
254.494	1321.25
254.727	1162.25
254.96	1123.25
255.193	1196.25
255.426	1137.25
255.659	871.25
255.892	811.25
256.124	883.25
256.357	1053.25
256.59	1222.25
256.823	1170.25
257.056	998.25
257.289	934.25
257.521	996.25
257.754	1176.25
257.987	1310.25
258.22	1119.25
258.452	1023.25
258.685	1151.25
258.918	1343.25
259.151	1246.25
259.383	1293.25
259.616	1510.25
259.849	1588.25
260.081	1704.25
260.314	1958.25
260.547	1476.25
260.779	1481.25
261.012	1735.25
261.244	1622.25
261.477	1662.25
261.71	1575.25
261.942	1326.25
262.175	1302.25
262.407	1253.25
262.64	1271.25
262.872	1510.25
263.105	1670.25
263.337	1750.25
263.57	1526.25
263.802	1019.25
264.035	906.25
264.267	876.25
264.499	760.25
264.732	709.25
264.964	705.25
265.197	721.25
265.429	767.25
265.661	836.25
265.894	870.25
266.126	960.25
266.358	1050.25
266.591	1270.25
266.823	1475.25
267.055	1438.25
267.287	1245.25
267.52	1282.25
267.752	1330.25
267.984	1455.25
268.216	1397.25
268.448	1119.25
268.681	1126.25
268.913	1222.25
269.145	1264.25
269.377	1320.25
269.609	1288.25
269.841	1232.25
270.073	1323.25
270.306	1362.25
270.538	1420.25
270.77	1419.25
271.002	1402.25
271.234	1470.25
271.466	1524.25
271.698	1446.25
271.93	1463.25
272.162	1457.25
272.394	1434.25
272.626	1407.25
272.858	1451.25
273.09	1488.25
273.322	1349.25
273.553	1255.25
273.785	1549.25
274.017	2015.25
274.249	2436.25
274.481	2584.25
274.713	2822.25
274.945	3218.25
275.176	3286.25
275.408	2936.25
275.64	2663.25
275.872	2667.25
276.104	2231.25
276.335	1950.25
276.567	1966.25
276.799	2011.25
277.031	2142.25
277.262	1616.25
277.494	1275.25
277.726	1255.25
277.957	1333.25
278.189	1522.25
278.421	1488.25
278.652	1432.25
278.884	1390.25
279.115	1246.25
279.347	1215.25
279.579	1181.25
279.81	1235.25
280.042	1210.25
280.273	1269.25
280.505	1123.25
280.736	996.25
280.968	1023.25
281.199	1076.25
281.431	1249.25
281.662	1218.25
281.894	1186.25
282.125	1260.25
282.356	1362.25
282.588	1420.25
282.819	1288.25
283.051	1380.25
283.282	1684.25
283.513	1942.25
283.745	2239.25
283.976	2217.25
284.207	2050.25
284.439	2140.25
284.67	2067.25
284.901	1803.25
285.132	1959.25
285.364	2023.25
285.595	1882.25
285.826	1983.25
286.057	2072.25
286.288	1979.25
286.52	2048.25
286.751	2126.25
286.982	2132.25
287.213	1834.25
287.444	1771.25
287.675	1872.25
287.906	1823.25
288.138	1570.25
288.369	1394.25
288.6	1314.25
288.831	1362.25
289.062	1576.25
289.293	1714.25
289.524	1614.25
289.755	1603.25
289.986	1662.25
290.217	1447.25
290.448	1096.25
290.679	976.25
290.91	926.25
291.141	939.25
291.371	1015.25
291.602	994.25
291.833	962.25
292.064	1054.25
292.295	1246.25
292.526	1416.25
292.757	1480.25
292.987	1562.25
293.218	1542.25
293.449	1622.25
293.68	1702.25
293.91	1622.25
294.141	1686.25
294.372	1526.25
294.603	1429.25
294.833	1625.25
295.064	1850.25
295.295	1730.25
295.525	1322.25
295.756	1148.25
295.987	1022.25
296.217	1014.25
296.448	1048.25
296.679	1118.25
296.909	1280.25
297.14	1312.25
297.37	1435.25
297.601	1351.25
297.831	1161.25
298.062	1280.25
298.292	1423.25
298.523	1579.25
298.753	1764.25
298.984	1586.25
299.214	1259.25
299.445	1082.25
299.675	1044.25
299.905	1031.25
300.136	1079.25
300.366	1175.25
300.597	1168.25
300.827	1038.25
301.057	991.25
301.288	1026.25
301.518	1091.25
301.748	1208.25
301.979	1320.25
302.209	1491.25
302.439	1466.25
302.669	1255.25
302.9	1276.25
303.13	1146.25
303.36	1127.25
303.59	1059.25
303.82	1112.25
304.051	1258.25
304.281	1348.25
304.511	1312.25
304.741	1150.25
304.971	1208.25
305.201	1292.25
305.431	1226.25
305.661	1068.25
305.891	1074.25
306.121	1090.25
306.352	983.25
306.582	884.25
306.812	874.25
307.042	872.25
307.272	812.25
307.502	811.25
307.731	867.25
307.961	917.25
308.191	898.25
308.421	815.25
308.651	809.25
308.881	771.25
309.111	785.25
309.341	799.25
309.571	888.25
309.8	916.25
310.03	932.25
310.26	1002.25
310.49	992.25
310.72	886.25
310.949	840.25
311.179	906.25
311.409	935.25
311.639	1082.25
311.868	1406.25
312.098	1835.25
312.328	1959.25
312.557	1851.25
312.787	1955.25
313.017	1718.25
313.246	1849.25
313.476	1987.25
313.706	1629.25
313.935	1267.25
314.165	1070.25
314.394	968.25
314.624	966.25
314.853	1030.25
315.083	1063.25
315.312	1009.25
315.542	1014.25
315.771	971.25
316.001	886.25
316.23	872.25
316.46	824.25
316.689	848.25
316.919	882.25
317.148	892.25
317.377	861.25
317.607	891.25
317.836	946.25
318.065	1094.25
318.295	1232.25
318.524	1149.25
318.753	997.25
318.983	942.25
319.212	935.25
319.441	1007.25
319.67	1119.25
319.9	1215.25
320.129	1140.25
320.358	988.25
320.587	926.25
320.816	1012.25
321.046	1173.25
321.275	1351.25
321.504	1345.25
321.733	1257.25
321.962	1202.25
322.191	1158.25
322.42	1114.25
322.649	1136.25
322.878	1228.25
323.108	1197.25
323.337	1088.25
323.566	1083.25
323.795	1033.25
324.024	1016.25
324.253	966.25
324.482	977.25
324.71	1073.25
324.939	1226.25
325.168	1122.25
325.397	935.25
325.626	932.25
325.855	906.25
326.084	920.25
326.313	888.25
326.542	823.25
326.77	878.25
326.999	909.25
327.228	956.25
327.457	1040.25
327.686	1010.25
327.914	912.25
328.143	858.25
328.372	832.25
328.6	856.25
328.829	867.25
329.058	910.25
329.287	926.25
329.515	927.25
329.744	881.25
329.972	819.25
330.201	819.25
330.43	850.25
330.658	948.25
330.887	1070.25
331.115	1041.25
331.344	1006.25
331.572	959.25
331.801	916.25
332.03	854.25
332.258	901.25
332.486	938.25
332.715	959.25
332.943	900.25
333.172	912.25
333.4	938.25
333.629	1030.25
333.857	1117.25
334.085	1112.25
334.314	1099.25
334.542	1044.25
334.771	978.25
334.999	951.25
335.227	932.25
335.455	918.25
335.684	1015.25
335.912	1222.25
336.14	1310.25
336.369	1267.25
336.597	1204.25
336.825	1356.25
337.053	1537.25
337.281	1236.25
337.51	1026.25
337.738	965.25
337.966	1059.25
338.194	1199.25
338.422	1107.25
338.65	982.25
338.878	890.25
339.106	910.25
339.334	1024.25
339.562	1103.25
339.79	1020.25
340.018	958.25
340.246	1024.25
340.474	1212.25
340.702	1288.25
340.93	1336.25
341.158	1323.25
341.386	1086.25
341.614	1112.25
341.842	1095.25
342.07	1151.25
342.298	1324.25
342.526	1378.25
342.754	1198.25
342.981	1105.25
343.209	1060.25
343.437	1152.25
343.665	1219.25
343.893	1226.25
344.12	1342.25
344.348	1626.25
344.576	1448.25
344.804	1182.25
345.031	1064.25
345.259	999.25
345.487	1006.25
345.714	1032.25
345.942	1100.25
346.17	1198.25
346.397	1124.25
346.625	999.25
346.853	951.25
347.08	957.25
347.308	1014.25
347.535	1122.25
347.763	1131.25
347.99	978.25
348.218	896.25
348.445	946.25
348.673	979.25
348.9	963.25
349.128	1059.25
349.355	1088.25
349.583	1060.25
349.81	1014.25
350.037	926.25
350.265	828.25
350.492	821.25
350.72	812.25
350.947	840.25
351.174	896.25
351.402	949.25
351.629	975.25
351.856	966.25
352.083	880.25
352.311	995.25
352.538	1091.25
352.765	1161.25
352.992	1046.25
353.22	974.25
353.447	1001.25
353.674	973.25
353.901	971.25
354.128	980.25
354.355	1001.25
354.583	982.25
354.81	946.25
355.037	992.25
355.264	993.25
355.491	1091.25
355.718	1177.25
355.945	1134.25
356.172	1099.25
356.399	1120.25
356.626	1349.25
356.853	1656.25
357.08	1748.25
357.307	1753.25
357.534	1383.25
357.761	1408.25
357.988	1742.25
358.215	2099.25
358.441	1956.25
358.668	1651.25
358.895	1542.25
359.122	1263.25
359.349	1217.25
359.576	1339.25
359.802	1095.25
360.029	935.25
360.256	1022.25
360.483	1267.25
360.709	1586.25
360.936	1635.25
361.163	1435.25
361.39	1143.25
361.616	1046.25
361.843	1248.25
362.07	1563.25
362.296	1393.25
362.523	1067.25
362.749	957.25
362.976	991.25
363.203	1219.25
363.429	1362.25
363.656	1096.25
363.882	1001.25
364.109	1002.25
364.335	999.25
364.562	1007.25
364.788	1156.25
365.015	1320.25
365.241	1186.25
365.468	972.25
365.694	855.25
365.92	822.25
366.147	772.25
366.373	774.25
366.599	801.25
366.826	802.25
367.052	838.25
367.278	839.25
367.505	822.25
367.731	914.25
367.957	1026.25
368.184	1039.25
368.41	1000.25
368.636	1022.25
368.862	1049.25
369.089	1036.25
369.315	898.25
369.541	914.25
369.767	893.25
369.993	859.25
370.219	852.25
370.445	907.25
370.672	1026.25
370.898	1100.25
371.124	1090.25
371.35	946.25
371.576	884.25
371.802	991.25
372.028	1156.25
372.254	1333.25
372.48	1147.25
372.706	1050.25
372.932	1088.25
373.158	1154.25
373.384	1401.25
373.61	1857.25
373.835	1890.25
374.061	1380.25
374.287	1192.25
374.513	1406.25
374.739	1657.25
374.965	1727.25
375.191	1682.25
375.416	1178.25
375.642	1022.25
375.868	1178.25
376.094	1388.25
376.319	1193.25
376.545	1302.25
376.771	1385.25
376.997	1160.25
377.222	873.25
377.448	780.25
377.674	786.25
377.899	732.25
378.125	739.25
378.35	775.25
378.576	802.25
378.802	859.25
379.027	930.25
379.253	875.25
379.478	918.25
379.704	1054.25
379.929	1119.25
380.155	1086.25
380.38	959.25
380.606	972.25
380.831	1121.25
381.057	1006.25
381.282	976.25
381.507	1193.25
381.733	1484.25
381.958	1546.25
382.184	1660.25
382.409	1696.25
382.634	1658.25
382.86	1756.25
383.085	1464.25
383.31	1136.25
383.535	1242.25
383.761	1238.25
383.986	1150.25
384.211	1438.25
384.436	1348.25
384.662	1049.25
384.887	992.25
385.112	1012.25
385.337	1051.25
385.562	964.25
385.787	1116.25
386.013	1241.25
386.238	1249.25
386.463	996.25
386.688	986.25
386.913	960.25
387.138	916.25
387.363	974.25
387.588	988.25
387.813	989.25
388.038	1113.25
388.263	996.25
388.488	948.25
388.713	1084.25
388.938	1245.25
389.163	1035.25
389.387	914.25
389.612	938.25
389.837	975.25
390.062	939.25
390.287	990.25
390.512	1010.25
390.736	938.25
390.961	889.25
391.186	859.25
391.411	837.25
391.636	872.25
391.86	927.25
392.085	1012.25
392.31	1039.25
392.534	952.25
392.759	950.25
392.984	1001.25
393.208	938.25
393.433	886.25
393.658	791.25
393.882	824.25
394.107	779.25
394.331	824.25
394.556	798.25
394.78	814.25
395.005	812.25
395.229	868.25
395.454	886.25
395.678	876.25
395.903	913.25
396.127	862.25
396.352	889.25
396.576	965.25
396.801	1006.25
397.025	1100.25
397.249	1138.25
397.474	932.25
397.698	914.25
397.922	963.25
398.147	930.25
398.371	915.25
398.595	988.25
398.82	942.25
399.044	956.25
399.268	991.25
399.492	1032.25
399.717	1045.25
399.941	1107.25
400.165	1056.25
400.389	1032.25
400.613	1050.25
400.837	1030.25
401.062	927.25
401.286	917.25
401.51	924.25
401.734	869.25
401.958	908.25
402.182	924.25
402.406	901.25
402.63	918.25
402.854	939.25
403.078	1060.25
403.302	1287.25
403.526	1321.25
403.75	1209.25
403.974	1042.25
404.198	1104.25
404.422	1236.25
404.645	1474.25
404.869	1590.25
405.093	1172.25
405.317	1014.25
405.541	971.25
405.765	1016.25
405.988	1040.25
406.212	1115.25
406.436	1302.25
406.66	1420.25
406.883	1116.25
407.107	1173.25
407.331	1375.25
407.555	1278.25
407.778	1084.25
408.002	1044.25
408.226	1039.25
408.449	1051.25
408.673	1027.25
408.896	924.25
409.12	931.25
409.344	911.25
409.567	878.25
409.791	930.25
410.014	904.25
410.238	867.25
410.461	894.25
410.685	920.25
410.908	902.25
411.132	939.25
411.355	916.25
411.578	959.25
411.802	919.25
412.025	998.25
412.249	1015.25
412.472	952.25
412.695	974.25
412.919	976.25
413.142	1009.25
413.365	1062.25
413.589	1065.25
413.812	946.25
414.035	908.25
414.258	944.25
414.482	1040.25
414.705	1047.25
414.928	892.25
415.151	891.25
415.374	878.25
415.597	912.25
415.821	932.25
416.044	896.25
416.267	863.25
416.49	879.25
416.713	882.25
416.936	884.25
417.159	882.25
417.382	908.25
417.605	909.25
417.828	902.25
418.051	944.25
418.274	958.25
418.497	930.25
418.72	908.25
418.943	976.25
419.166	977.25
419.389	1016.25
419.611	1009.25
419.834	1022.25
420.057	1126.25
420.28	1096.25
420.503	1024.25
420.726	929.25
420.948	910.25
421.171	894.25
421.394	865.25
421.617	852.25
421.839	861.25
422.062	928.25
422.285	945.25
422.507	944.25
422.73	947.25
422.953	973.25
423.175	954.25
423.398	955.25
423.621	1005.25
423.843	1089.25
424.066	990.25
424.288	972.25
424.511	912.25
424.733	914.25
424.956	963.25
425.178	1082.25
425.401	1251.25
425.623	1360.25
425.846	1151.25
426.068	1036.25
426.291	1121.25
426.513	1054.25
426.735	933.25
426.958	1005.25
427.18	1168.25
427.402	1515.25
427.625	1502.25
427.847	1227.25
428.069	922.25
428.292	920.25
428.514	906.25
428.736	868.25
428.958	942.25
429.181	1100.25
429.403	958.25
429.625	898.25
429.847	897.25
430.069	910.25
430.292	920.25
430.514	898.25
430.736	958.25
430.958	1212.25
431.18	1087.25
431.402	844.25
431.624	817.25
431.846	819.25
432.068	803.25
432.29	817.25
432.512	935.25
432.734	1259.25
432.956	1121.25
433.178	873.25
433.4	836.25
433.622	850.25
433.844	905.25
434.066	928.25
434.287	902.25
434.509	907.25
434.731	934.25
434.953	882.25
435.175	937.25
435.397	1031.25
435.618	898.25
435.84	841.25
436.062	832.25
436.284	850.25
436.505	811.25
436.727	788.25
436.949	797.25
437.17	827.25
437.392	866.25
437.614	855.25
437.835	838.25
438.057	862.25
438.278	991.25
438.5	1395.25
438.721	1384.25
438.943	951.25
439.165	820.25
439.386	799.25
439.608	810.25
439.829	799.25
440.05	812.25
440.272	843.25
440.493	1018.25
440.715	1255.25
440.936	985.25
441.158	875.25
441.379	879.25
441.6	973.25
441.822	1020.25
442.043	886.25
442.264	881.25
442.486	902.25
442.707	872.25
442.928	866.25
443.149	890.25
443.371	907.25
443.592	926.25
443.813	891.25
444.034	908.25
444.255	905.25
444.476	955.25
444.698	955.25
444.919	935.25
445.14	1079.25
445.361	1018.25
445.582	964.25
445.803	908.25
446.024	948.25
446.245	946.25
446.466	900.25
446.687	882.25
446.908	892.25
447.129	844.25
447.35	826.25
447.571	809.25
447.792	809.25
448.013	827.25
448.234	787.25
448.455	788.25
448.675	786.25
448.896	808.25
449.117	795.25
449.338	804.25
449.559	843.25
449.779	887.25
450	865.25
450.221	848.25
450.442	821.25
450.662	774.25
450.883	768.25
451.104	820.25
451.324	803.25
451.545	840.25
451.766	808.25
451.986	770.25
452.207	780.25
452.428	785.25
452.648	787.25
452.869	826.25
453.089	836.25
453.31	858.25
453.53	753.25
453.751	778.25
453.971	766.25
454.192	770.25
454.412	811.25
454.633	737.25
454.853	766.25
455.073	720.25
455.294	736.25
455.514	724.25
455.734	768.25
455.955	816.25
456.175	874.25
456.395	741.25
456.616	715.25
456.836	709.25
457.056	712.25
457.276	704.25
457.497	722.25
457.717	722.25
457.937	743.25
458.157	722.25
458.377	735.25
458.598	774.25
458.818	753.25
459.038	798.25
459.258	830.25
459.478	871.25
459.698	896.25
459.918	917.25
460.138	862.25
460.358	894.25
460.578	853.25
460.798	892.25
461.018	906.25
461.238	869.25
461.458	858.25
461.678	873.25
461.898	935.25
462.118	917.25
462.338	950.25
462.558	971.25
462.777	1010.25
462.997	998.25
463.217	1012.25
463.437	1031.25
463.657	1003.25
463.876	963.25
464.096	973.25
464.316	972.25
464.536	968.25
464.755	1046.25
464.975	1042.25
465.195	924.25
465.414	1012.25
465.634	974.25
465.854	943.25
466.073	870.25
466.293	850.25
466.512	932.25
466.732	997.25
466.951	1056.25
467.171	898.25
467.391	866.25
467.61	869.25
467.829	944.25
468.049	942.25
468.268	883.25
468.488	908.25
468.707	917.25
468.927	1092.25
469.146	1152.25
469.365	1020.25
469.585	991.25
469.804	1030.25
470.023	1104.25
470.243	942.25
470.462	918.25
470.681	934.25
470.901	926.25
471.12	977.25
471.339	980.25
471.558	918.25
471.777	954.25
471.997	990.25
472.216	1150.25
472.435	1085.25
472.654	988.25
472.873	969.25
473.092	990.25
473.311	1082.25
473.53	979.25
473.749	919.25
473.968	992.25
474.187	970.25
474.406	943.25
474.625	932.25
474.844	970.25
475.063	1020.25
475.282	1045.25
475.501	1068.25
475.72	1142.25
475.939	1096.25
476.158	1096.25
476.377	1256.25
476.596	1451.25
476.814	1534.25
477.033	1268.25
477.252	1082.25
477.471	993.25
477.69	1017.25
477.908	1127.25
478.127	1118.25
478.346	1059.25
478.564	1134.25
478.783	1068.25
479.002	1108.25
479.22	1322.25
479.439	1434.25
479.658	1257.25
479.876	1105.25
480.095	1219.25
480.313	1240.25
480.532	1122.25
480.751	1077.25
480.969	1144.25
481.188	1322.25
481.406	1302.25
481.624	1250.25
481.843	1117.25
482.061	1077.25
482.28	1226.25
482.498	1488.25
482.717	1405.25
482.935	1245.25
483.153	1131.25
483.372	1060.25
483.59	1063.25
483.808	1081.25
484.027	1011.25
484.245	996.25
484.463	990.25
484.681	1023.25
484.9	1109.25
485.118	1199.25
485.336	1120.25
485.554	1041.25
485.772	1075.25
485.99	1188.25
486.209	1246.25
486.427	1271.25
486.645	1227.25
486.863	1256.25
487.081	1234.25
487.299	1382.25
487.517	1374.25
487.735	1213.25
487.953	1234.25
488.171	1266.25
488.389	1182.25
488.607	1134.25
488.825	1188.25
489.043	1284.25
489.261	1470.25
489.479	1556.25
489.696	1299.25
489.914	1183.25
490.132	1120.25
490.35	1104.25
490.568	1163.25
490.786	1122.25
491.003	1148.25
491.221	1167.25
491.439	1142.25
491.657	1154.25
491.874	1247.25
492.092	1476.25
492.31	1825.25
492.527	1726.25
492.745	1542.25
492.963	1356.25
493.18	1295.25
493.398	1332.25
493.615	1302.25
493.833	1249.25
494.05	1230.25
494.268	1262.25
494.485	1217.25
494.703	1250.25
494.92	1243.25
495.138	1194.25
495.355	1222.25
495.573	1274.25
495.79	1380.25
496.008	1851.25
496.225	1563.25
496.442	1392.25
496.66	1362.25
496.877	1454.25
497.094	1408.25
497.312	1333.25
497.529	1304.25
497.746	1327.25
497.963	1374.25
498.181	1520.25
498.398	1600.25
498.615	1656.25
498.832	1741.25
499.049	1707.25
499.267	1578.25
499.484	1524.25
499.701	1651.25
499.918	1739.25
500.135	1920.25
500.352	1912.25
500.569	1961.25
500.786	2058.25
501.003	2067.25
501.22	1824.25
501.437	1737.25
501.654	1603.25
501.871	1636.25
502.088	1667.25
502.305	1500.25
502.522	1516.25
502.739	1536.25
502.956	1410.25
503.172	1356.25
503.389	1309.25
503.606	1270.25
503.823	1310.25
504.04	1365.25
504.256	1317.25
504.473	1361.25
504.69	1414.25
504.907	1412.25
505.123	1403.25
505.34	1462.25
505.557	1441.25
505.773	1351.25
505.99	1318.25
506.207	1394.25
506.423	1250.25
506.64	1217.25
506.856	1277.25
507.073	1375.25
507.289	1342.25
507.506	1345.25
507.722	1402.25
507.939	1450.25
508.155	1481.25
508.372	1323.25
508.588	1302.25
508.805	1250.25
509.021	1242.25
509.238	1193.25
509.454	1207.25
509.67	1174.25
509.887	1209.25
510.103	1337.25
510.319	1359.25
510.536	1182.25
510.752	1114.25
510.968	1068.25
511.184	1040.25
511.401	1051.25
511.617	1047.25
511.833	1041.25
512.049	1059.25
512.265	1067.25
512.481	1143.25
512.698	1286.25
512.914	1402.25
513.13	1253.25
513.346	1135.25
513.562	1176.25
513.778	1196.25
513.994	1173.25
514.21	1246.25
514.426	1212.25
514.642	1168.25
514.858	1154.25
515.074	1214.25
515.29	1308.25
515.506	1422.25
515.721	1334.25
515.937	1307.25
516.153	1182.25
516.369	1157.25
516.585	1228.25
516.801	1392.25
517.016	1651.25
517.232	1593.25
517.448	1524.25
517.664	1398.25
517.879	1304.25
518.095	1298.25
518.311	1295.25
518.527	1313.25
518.742	1390.25
518.958	1451.25
519.173	1404.25
519.389	1361.25
519.605	1416.25
519.82	1548.25
520.036	1772.25
520.251	1724.25
520.467	1612.25
520.682	2398.25
520.898	2868.25
521.113	2762.25
521.329	1739.25
521.544	1532.25
521.76	1517.25
521.975	1358.25
522.19	1286.25
522.406	1322.25
522.621	1505.25
522.836	1544.25
523.052	1562.25
523.267	1297.25
523.482	1309.25
523.698	1417.25
523.913	1346.25
524.128	1229.25
524.343	1168.25
524.559	1215.25
524.774	1150.25
524.989	1186.25
525.204	1202.25
525.419	1341.25
525.634	1263.25
525.849	1243.25
526.064	1286.25
526.28	1249.25
526.495	1510.25
526.71	1530.25
526.925	1408.25
527.14	1457.25
527.355	1363.25
527.57	1128.25
527.785	1184.25
527.999	1147.25
528.214	1096.25
528.429	1074.25
528.644	1123.25
528.859	1032.25
529.074	1027.25
529.289	990.25
529.503	976.25
529.718	980.25
529.933	1181.25
530.148	1211.25
530.363	1050.25
530.577	1050.25
530.792	1032.25
531.007	992.25
531.221	962.25
531.436	976.25
531.651	997.25
531.865	1033.25
532.08	1057.25
532.295	1000.25
532.509	1068.25
532.724	1169.25
532.938	1318.25
533.153	1529.25
533.367	1252.25
533.582	1208.25
533.796	1107.25
534.011	1057.25
534.225	1074.25
534.44	1107.25
534.654	1094.25
534.868	1248.25
535.083	1118.25
535.297	1030.25
535.511	1027.25
535.726	1175.25
535.94	1106.25
536.154	1042.25
536.369	1003.25
536.583	1023.25
536.797	1028.25
537.011	1057.25
537.225	1111.25
537.44	1203.25
537.654	1017.25
537.868	1024.25
538.082	1026.25
538.296	1022.25
538.51	1090.25
538.724	1074.25
538.938	1060.25
539.153	995.25
539.367	969.25
539.581	978.25
539.795	1045.25
540.009	1134.25
540.222	1055.25
540.436	1077.25
540.65	1159.25
540.864	1166.25
541.078	1201.25
541.292	1359.25
541.506	1115.25
541.72	1092.25
541.934	1050.25
542.147	1028.25
542.361	1016.25
542.575	1059.25
542.789	1029.25
543.002	961.25
543.216	1068.25
543.43	950.25
543.644	962.25
543.857	920.25
544.071	959.25
544.285	972.25
544.498	934.25
544.712	924.25
544.925	992.25
545.139	946.25
545.352	922.25
545.566	938.25
545.779	1058.25
545.993	978.25
546.206	920.25
546.42	906.25
546.633	879.25
546.847	845.25
547.06	899.25
547.274	881.25
547.487	932.25
547.7	979.25
547.914	1002.25
548.127	1143.25
548.34	1065.25
548.554	993.25
548.767	1030.25
548.98	1056.25
549.193	969.25
549.407	1004.25
549.62	1201.25
549.833	1115.25
550.046	1157.25
550.259	1152.25
550.473	1041.25
550.686	996.25
550.899	1027.25
551.112	1011.25
551.325	1068.25
551.538	1076.25
551.751	944.25
551.964	900.25
552.177	900.25
552.39	873.25
552.603	922.25
552.816	956.25
553.029	905.25
553.242	897.25
553.455	944.25
553.667	1040.25
553.88	967.25
554.093	886.25
554.306	855.25
554.519	820.25
554.732	788.25
554.944	786.25
555.157	784.25
555.37	772.25
555.583	790.25
555.795	798.25
556.008	817.25
556.221	815.25
556.433	801.25
556.646	788.25
556.859	781.25
557.071	842.25
557.284	832.25
557.496	830.25
557.709	822.25
557.921	795.25
558.134	743.25
558.346	716.25
558.559	762.25
558.771	743.25
558.984	837.25
559.196	775.25
559.409	730.25
559.621	704.25
559.833	714.25
560.046	730.25
560.258	748.25
560.47	754.25
560.683	716.25
560.895	705.25
561.107	689.25
561.32	687.25
561.532	713.25
561.744	760.25
561.956	788.25
562.168	712.25
562.381	702.25
562.593	720.25
562.805	743.25
563.017	686.25
563.229	686.25
563.441	688.25
563.653	687.25
563.865	680.25
564.077	696.25
564.289	672.25
564.501	710.25
564.713	758.25
564.925	737.25
565.137	711.25
565.349	699.25
565.561	700.25
565.773	728.25
565.985	748.25
566.197	797.25
566.408	846.25
566.62	871.25
566.832	865.25
567.044	840.25
567.255	887.25
567.467	963.25
567.679	921.25
567.891	886.25
568.102	872.25
568.314	909.25
568.526	853.25
568.737	850.25
568.949	860.25
569.161	763.25
569.372	688.25
569.584	697.25
569.795	707.25
570.007	718.25
570.218	757.25
570.43	736.25
570.641	711.25
570.853	652.25
571.064	668.25
571.276	702.25
571.487	710.25
571.698	652.25
571.91	658.25
572.121	702.25
572.333	613.25
572.544	622.25
572.755	636.25
572.966	631.25
573.178	631.25
573.389	652.25
573.6	653.25
573.811	643.25
574.023	573.25
574.234	584.25
574.445	606.25
574.656	566.25
574.867	562.25
575.078	600.25
575.289	592.25
575.501	620.25
575.712	592.25
575.923	536.25
576.134	516.25
576.345	553.25
576.556	543.25
576.767	543.25
576.978	545.25
577.188	535.25
577.399	530.25
577.61	519.25
577.821	536.25
578.032	553.25
578.243	548.25
578.454	586.25
578.665	558.25
578.875	565.25
579.086	551.25
579.297	576.25
579.508	574.25
579.718	572.25
579.929	571.25
580.14	538.25
580.35	502.25
580.561	483.25
580.772	501.25
580.982	495.25
581.193	490.25
581.403	472.25
581.614	482.25
581.825	472.25
582.035	488.25
582.246	460.25
582.456	458.25
582.667	464.25
582.877	480.25
583.087	481.25
583.298	451.25
583.508	453.25
583.719	455.25
583.929	481.25
584.139	482.25
584.35	458.25
584.56	485.25
584.77	481.25
584.981	484.25
585.191	480.25
585.401	483.25
585.611	502.25
585.821	516.25
586.032	488.25
586.242	487.25
586.452	471.25
586.662	455.25
586.872	490.25
587.082	483.25
587.292	477.25
587.502	454.25
587.713	468.25
587.923	468.25
588.133	490.25
588.343	496.25
588.553	461.25
588.762	440.25
588.972	459.25
589.182	450.25
589.392	437.25
589.602	483.25
589.812	481.25
590.022	512.25
590.232	520.25
590.441	488.25
590.651	464.25
590.861	458.25
591.071	459.25
591.281	442.25
591.49	452.25
591.7	465.25
591.91	447.25
592.119	461.25
592.329	440.25
592.539	466.25
592.748	466.25
592.958	465.25
593.167	471.25
593.377	481.25
593.587	488.25
593.796	487.25
594.006	480.25
594.215	482.25
594.424	496.25
594.634	520.25
594.843	484.25
595.053	459.25
595.262	466.25
595.472	473.25
595.681	433.25
595.89	411.25
596.1	436.25
596.309	462.25
596.518	432.25
596.727	426.25
596.937	416.25
597.146	437.25
597.355	473.25
597.564	449.25
597.774	411.25
597.983	430.25
598.192	404.25
598.401	414.25
598.61	403.25
598.819	392.25
599.028	389.25
599.237	371.25
599.446	388.25
599.655	387.25
599.864	373.25
600.073	364.25
600.282	376.25
600.491	388.25
600.7	394.25
600.909	409.25
601.118	404.25
601.327	382.25
601.536	388.25
601.745	396.25
601.953	410.25
602.162	392.25
602.371	396.25
602.58	400.25
602.789	390.25
602.997	393.25
603.206	395.25
603.415	378.25
603.623	362.25
603.832	372.25
604.041	371.25
604.249	349.25
604.458	390.25
604.666	390.25
604.875	355.25
605.084	353.25
605.292	373.25
605.501	373.25
605.709	367.25
605.918	350.25
606.126	358.25
606.334	354.25
606.543	366.25
606.751	376.25
606.96	368.25
607.168	344.25
607.376	365.25
607.585	334.25
607.793	353.25
608.001	336.25
608.21	358.25
608.418	372.25
608.626	348.25
608.834	372.25
609.043	370.25
609.251	339.25
609.459	335.25
609.667	338.25
609.875	352.25
610.083	333.25
610.291	369.25
610.499	360.25
610.707	352.25
610.916	337.25
611.124	333.25
611.332	342.25
611.54	337.25
611.748	346.25
611.955	351.25
612.163	345.25
612.371	322.25
612.579	330.25
612.787	324.25
612.995	316.25
613.203	340.25
613.411	342.25
613.618	337.25
613.826	341.25
614.034	354.25
614.242	337.25
614.449	337.25
614.657	320.25
614.865	332.25
615.072	349.25
615.28	322.25
615.488	326.25
615.695	324.25
615.903	337.25
616.111	338.25
616.318	318.25
616.526	319.25
616.733	329.25
616.941	321.25
617.148	312.25
617.356	322.25
617.563	309.25
617.771	343.25
617.978	294.25
618.185	313.25
618.393	325.25
618.6	321.25
618.807	311.25
619.015	311.25
619.222	318.25
619.429	320.25
619.637	332.25
619.844	313.25
620.051	314.25
620.258	299.25
620.466	309.25
620.673	282.25
620.88	293.25
621.087	282.25
621.294	291.25
621.501	288.25
621.708	301.25
621.915	292.25
622.122	313.25
622.329	298.25
622.536	297.25
622.743	300.25
622.95	283.25
623.157	300.25
623.364	305.25
623.571	302.25
623.778	292.25
623.985	302.25
624.192	313.25
624.399	314.25
624.606	304.25
624.812	291.25
625.019	322.25
625.226	328.25
625.433	306.25
625.639	294.25
625.846	282.25
626.053	260.25
626.259	281.25
626.466	284.25
626.673	301.25
626.879	302.25
627.086	283.25
627.293	270.25
627.499	265.25
627.706	286.25
627.912	266.25
628.119	274.25
628.325	288.25
628.532	275.25
628.738	279.25
628.945	272.25
629.151	267.25
629.357	259.25
629.564	269.25
629.77	263.25
629.976	259.25
630.183	247.25
630.389	247.25
630.595	258.25
630.802	244.25
631.008	261.25
631.214	269.25
631.42	242.25
631.627	259.25
631.833	255.25
632.039	245.25
632.245	238.25
632.451	253.25
632.657	251.25
632.863	246.25
633.069	268.25
633.275	255.25
633.481	257.25
633.688	242.25
633.893	226.25
634.099	229.25
634.305	244.25
634.511	230.25
634.717	240.25
634.923	247.25
635.129	237.25
635.335	234.25
635.541	239.25
635.747	238.25
635.952	247.25
636.158	238.25
636.364	241.25
636.57	250.25
636.775	239.25
636.981	222.25
637.187	238.25
637.392	236.25
637.598	227.25
637.804	223.25
638.009	229.25
638.215	244.25
638.421	233.25
638.626	229.25
638.832	221.25
639.037	238.25
639.243	234.25
639.448	234.25
639.654	243.25
639.859	217.25
640.065	226.25
640.27	249.25
640.475	238.25
640.681	244.25
640.886	234.25
641.091	226.25
641.297	226.25
641.502	235.25
641.707	225.25
641.913	212.25
642.118	240.25
642.323	222.25
642.528	238.25
642.733	229.25
642.939	209.25
643.144	211.25
643.349	228.25
643.554	228.25
643.759	213.25
643.964	215.25
644.169	201.25
644.374	224.25
644.579	203.25
644.784	210.25
644.989	201.25
645.194	224.25
645.399	211.25
645.604	212.25
645.809	227.25
646.014	223.25
646.219	198.25
646.423	211.25
646.628	228.25
646.833	220.25
647.038	221.25
647.243	224.25
647.447	213.25
647.652	213.25
647.857	226.25
648.062	211.25
648.266	214.25
648.471	204.25
648.676	221.25
648.88	210.25
649.085	196.25
649.289	210.25
649.494	200.25
649.698	232.25
649.903	208.25
650.107	196.25
650.312	211.25
650.516	198.25
650.721	190.25
650.925	188.25
651.13	187.25
651.334	179.25
651.539	171.25
651.743	191.25
651.947	178.25
652.152	171.25
652.356	180.25
652.56	182.25
652.764	164.25
652.969	185.25
653.173	177.25
653.377	155.25
653.581	168.25
653.785	160.25
653.99	164.25
654.194	161.25
654.398	162.25
654.602	157.25
654.806	164.25
655.01	168.25
655.214	175.25
655.418	160.25
655.622	162.25
655.826	143.25
656.03	168.25
656.234	171.25
656.438	176.25
656.642	192.25
656.846	161.25
657.049	161.25
657.253	154.25
657.457	134.25
657.661	138.25
657.865	147.25
658.068	134.25
658.272	120.25
658.476	125.25
658.68	113.25
658.883	123.25
659.087	146.25
659.291	112.25
659.494	106.25
659.698	111.25
659.901	108.25
660.105	115.25
660.309	112.25
660.512	105.25
660.716	92.25
660.919	103.25
661.123	115.25
661.326	90.25
661.53	98.25
661.733	89.25
661.936	110.25
662.14	84.25
662.343	82.25
662.546	92.25
662.75	98.25
662.953	87.25
663.156	76.25
663.36	106.25
663.563	100.25
663.766	90.25
663.969	55.25
664.173	80.25
664.376	76.25
664.579	85.25
664.782	84.25
664.985	86.25
665.188	73.25
665.391	88.25
665.594	87.25
665.797	78.25
666	71.25
666.203	90.25
666.406	87.25
666.609	87.25
666.812	87.25
667.015	88.25
667.218	88.25
667.421	92.25
667.624	74.25
667.827	79.25
668.03	74.25
668.232	77.25
668.435	92.25
668.638	89.25
668.841	88.25
669.043	92.25
669.246	76.25
669.449	92.25
669.651	84.25
669.854	83.25
670.057	74.25
670.259	86.25
670.462	88.25
670.665	91.25
670.867	79.25
671.07	91.25
671.272	103.25
671.475	91.25
671.677	101.25
671.88	92.25
672.082	85.25
672.284	81.25
672.487	80.25
672.689	80.25
672.892	77.25
