Data from NickelSpatula.Lamp.E10.P2_HRD10591_11-57-49-531.txt Node
Date: Tue Jul 23 11:57:49 EDT 2019
User: cochatt
Spectrometer: HR+D1059
Trigger mode: 1
Integration Time (sec): 1.000000E-1
Scans to average: 1
Electric dark correction enabled: true
Nonlinearity correction enabled: false
Boxcar width: 0
XAxis mode: Wavelengths
Number of Pixels in Spectrum: 2048
>>>>>Begin Spectral Data<<<<<
223.165	-5.19
223.4	-5.19
223.635	-5.19
223.869	-17.19
224.104	-10.19
224.338	-5.19
224.573	-29.19
224.808	-15.19
225.042	-21.19
225.277	11.81
225.511	-5.19
225.746	1.81
225.98	-5.19
226.215	-1.19
226.449	23.81
226.683	29.81
226.918	26.81
227.152	20.81
227.387	33.81
227.621	29.81
227.856	30.81
228.09	35.81
228.324	42.81
228.559	51.81
228.793	84.81
229.027	124.81
229.262	158.81
229.496	145.81
229.73	163.81
229.964	171.81
230.199	189.81
230.433	205.81
230.667	191.81
230.901	203.81
231.136	197.81
231.37	196.81
231.604	211.81
231.838	212.81
232.072	248.81
232.306	242.81
232.541	238.81
232.775	252.81
233.009	267.81
233.243	296.81
233.477	299.81
233.711	329.81
233.945	323.81
234.179	319.81
234.413	345.81
234.647	386.81
234.881	436.81
235.115	410.81
235.349	398.81
235.583	329.81
235.817	340.81
236.051	352.81
236.285	398.81
236.519	452.81
236.753	408.81
236.987	439.81
237.221	385.81
237.455	396.81
237.689	401.81
237.922	459.81
238.156	445.81
238.39	526.81
238.624	627.81
238.858	575.81
239.091	462.81
239.325	492.81
239.559	483.81
239.793	537.81
240.027	650.81
240.26	588.81
240.494	544.81
240.728	580.81
240.961	667.81
241.195	622.81
241.429	597.81
241.662	582.81
241.896	515.81
242.13	477.81
242.363	449.81
242.597	445.81
242.83	523.81
243.064	523.81
243.298	571.81
243.531	618.81
243.765	620.81
243.998	612.81
244.232	573.81
244.465	590.81
244.699	564.81
244.932	642.81
245.166	606.81
245.399	542.81
245.633	527.81
245.866	554.81
246.099	590.81
246.333	682.81
246.566	760.81
246.8	742.81
247.033	698.81
247.266	660.81
247.5	656.81
247.733	640.81
247.966	638.81
248.2	656.81
248.433	747.81
248.666	828.81
248.899	818.81
249.133	840.81
249.366	964.81
249.599	1018.81
249.832	932.81
250.066	806.81
250.299	826.81
250.532	760.81
250.765	766.81
250.998	708.81
251.231	691.81
251.465	755.81
251.698	797.81
251.931	754.81
252.164	812.81
252.397	882.81
252.63	1000.81
252.863	1129.81
253.096	1157.81
253.329	1098.81
253.562	1076.81
253.795	1176.81
254.028	1279.81
254.261	1308.81
254.494	1204.81
254.727	1072.81
254.96	1040.81
255.193	1132.81
255.426	1082.81
255.659	833.81
255.892	750.81
256.124	857.81
256.357	966.81
256.59	1164.81
256.823	1098.81
257.056	894.81
257.289	864.81
257.521	941.81
257.754	1082.81
257.987	1217.81
258.22	1071.81
258.452	972.81
258.685	1112.81
258.918	1231.81
259.151	1197.81
259.383	1258.81
259.616	1450.81
259.849	1525.81
260.081	1666.81
260.314	1820.81
260.547	1441.81
260.779	1445.81
261.012	1657.81
261.244	1536.81
261.477	1595.81
261.71	1490.81
261.942	1265.81
262.175	1273.81
262.407	1178.81
262.64	1259.81
262.872	1445.81
263.105	1595.81
263.337	1679.81
263.57	1484.81
263.802	1014.81
264.035	883.81
264.267	864.81
264.499	756.81
264.732	695.81
264.964	666.81
265.197	676.81
265.429	752.81
265.661	783.81
265.894	801.81
266.126	886.81
266.358	1024.81
266.591	1188.81
266.823	1430.81
267.055	1352.81
267.287	1206.81
267.52	1230.81
267.752	1262.81
267.984	1402.81
268.216	1346.81
268.448	1103.81
268.681	1057.81
268.913	1141.81
269.145	1245.81
269.377	1240.81
269.609	1280.81
269.841	1153.81
270.073	1221.81
270.306	1334.81
270.538	1338.81
270.77	1363.81
271.002	1370.81
271.234	1428.81
271.466	1454.81
271.698	1397.81
271.93	1372.81
272.162	1342.81
272.394	1361.81
272.626	1333.81
272.858	1364.81
273.09	1448.81
273.322	1269.81
273.553	1203.81
273.785	1472.81
274.017	1868.81
274.249	2321.81
274.481	2434.81
274.713	2674.81
274.945	3028.81
275.176	3163.81
275.408	2776.81
275.64	2515.81
275.872	2510.81
276.104	2126.81
276.335	1829.81
276.567	1857.81
276.799	1908.81
277.031	2011.81
277.262	1542.81
277.494	1206.81
277.726	1162.81
277.957	1280.81
278.189	1418.81
278.421	1408.81
278.652	1380.81
278.884	1302.81
279.115	1189.81
279.347	1168.81
279.579	1164.81
279.81	1121.81
280.042	1122.81
280.273	1154.81
280.505	1090.81
280.736	985.81
280.968	983.81
281.199	1046.81
281.431	1194.81
281.662	1164.81
281.894	1117.81
282.125	1197.81
282.356	1273.81
282.588	1350.81
282.819	1222.81
283.051	1328.81
283.282	1627.81
283.513	1880.81
283.745	2084.81
283.976	2117.81
284.207	1939.81
284.439	2018.81
284.67	1938.81
284.901	1733.81
285.132	1832.81
285.364	1946.81
285.595	1766.81
285.826	1908.81
286.057	1936.81
286.288	1879.81
286.52	1891.81
286.751	2022.81
286.982	2000.81
287.213	1741.81
287.444	1678.81
287.675	1772.81
287.906	1762.81
288.138	1471.81
288.369	1309.81
288.6	1247.81
288.831	1282.81
289.062	1513.81
289.293	1635.81
289.524	1527.81
289.755	1580.81
289.986	1581.81
290.217	1390.81
290.448	1100.81
290.679	930.81
290.91	874.81
291.141	896.81
291.371	913.81
291.602	941.81
291.833	931.81
292.064	1006.81
292.295	1158.81
292.526	1314.81
292.757	1355.81
292.987	1483.81
293.218	1504.81
293.449	1540.81
293.68	1622.81
293.91	1515.81
294.141	1583.81
294.372	1476.81
294.603	1377.81
294.833	1537.81
295.064	1760.81
295.295	1625.81
295.525	1260.81
295.756	1090.81
295.987	930.81
296.217	977.81
296.448	990.81
296.679	1057.81
296.909	1164.81
297.14	1234.81
297.37	1374.81
297.601	1297.81
297.831	1120.81
298.062	1170.81
298.292	1365.81
298.523	1497.81
298.753	1669.81
298.984	1512.81
299.214	1206.81
299.445	1032.81
299.675	977.81
299.905	955.81
300.136	1011.81
300.366	1102.81
300.597	1110.81
300.827	950.81
301.057	937.81
301.288	956.81
301.518	1037.81
301.748	1180.81
301.979	1253.81
302.209	1329.81
302.439	1376.81
302.669	1152.81
302.9	1166.81
303.13	1128.81
303.36	1054.81
303.59	992.81
303.82	1031.81
304.051	1173.81
304.281	1276.81
304.511	1226.81
304.741	1071.81
304.971	1129.81
305.201	1236.81
305.431	1150.81
305.661	975.81
305.891	976.81
306.121	999.81
306.352	924.81
306.582	841.81
306.812	798.81
307.042	813.81
307.272	780.81
307.502	793.81
307.731	845.81
307.961	864.81
308.191	800.81
308.421	774.81
308.651	793.81
308.881	750.81
309.111	768.81
309.341	811.81
309.571	855.81
309.8	889.81
310.03	890.81
310.26	915.81
310.49	910.81
310.72	833.81
310.949	810.81
311.179	834.81
311.409	896.81
311.639	1048.81
311.868	1337.81
312.098	1683.81
312.328	1839.81
312.557	1772.81
312.787	1814.81
313.017	1599.81
313.246	1710.81
313.476	1884.81
313.706	1538.81
313.935	1217.81
314.165	1030.81
314.394	905.81
314.624	933.81
314.853	971.81
315.083	1018.81
315.312	975.81
315.542	943.81
315.771	903.81
316.001	837.81
316.23	801.81
316.46	842.81
316.689	826.81
316.919	838.81
317.148	875.81
317.377	830.81
317.607	835.81
317.836	925.81
318.065	1045.81
318.295	1157.81
318.524	1095.81
318.753	931.81
318.983	876.81
319.212	878.81
319.441	929.81
319.67	1052.81
319.9	1130.81
320.129	1048.81
320.358	926.81
320.587	886.81
320.816	960.81
321.046	1103.81
321.275	1247.81
321.504	1262.81
321.733	1189.81
321.962	1138.81
322.191	1115.81
322.42	1030.81
322.649	1041.81
322.878	1139.81
323.108	1124.81
323.337	1055.81
323.566	1048.81
323.795	1024.81
324.024	968.81
324.253	916.81
324.482	933.81
324.71	1018.81
324.939	1152.81
325.168	1036.81
325.397	884.81
325.626	857.81
325.855	878.81
326.084	886.81
326.313	864.81
326.542	801.81
326.77	849.81
326.999	850.81
327.228	920.81
327.457	921.81
327.686	960.81
327.914	833.81
328.143	795.81
328.372	789.81
328.6	790.81
328.829	845.81
329.058	835.81
329.287	861.81
329.515	841.81
329.744	834.81
329.972	806.81
330.201	760.81
330.43	784.81
330.658	888.81
330.887	1024.81
331.115	956.81
331.344	958.81
331.572	906.81
331.801	864.81
332.03	818.81
332.258	849.81
332.486	910.81
332.715	947.81
332.943	875.81
333.172	856.81
333.4	888.81
333.629	959.81
333.857	1055.81
334.085	1046.81
334.314	1066.81
334.542	1011.81
334.771	918.81
334.999	907.81
335.227	900.81
335.455	918.81
335.684	984.81
335.912	1152.81
336.14	1268.81
336.369	1206.81
336.597	1141.81
336.825	1306.81
337.053	1462.81
337.281	1170.81
337.51	951.81
337.738	912.81
337.966	1037.81
338.194	1115.81
338.422	1042.81
338.65	916.81
338.878	836.81
339.106	881.81
339.334	954.81
339.562	1050.81
339.79	945.81
340.018	947.81
340.246	986.81
340.474	1131.81
340.702	1194.81
340.93	1244.81
341.158	1221.81
341.386	1055.81
341.614	1051.81
341.842	1039.81
342.07	1079.81
342.298	1272.81
342.526	1313.81
342.754	1101.81
342.981	1043.81
343.209	992.81
343.437	1094.81
343.665	1125.81
343.893	1120.81
344.12	1304.81
344.348	1453.81
344.576	1368.81
344.804	1125.81
345.031	977.81
345.259	951.81
345.487	971.81
345.714	970.81
345.942	1062.81
346.17	1133.81
346.397	1072.81
346.625	945.81
346.853	918.81
347.08	864.81
347.308	952.81
347.535	1049.81
347.763	1068.81
347.99	949.81
348.218	877.81
348.445	917.81
348.673	931.81
348.9	941.81
349.128	992.81
349.355	1036.81
349.583	960.81
349.81	954.81
350.037	870.81
350.265	796.81
350.492	770.81
350.72	746.81
350.947	781.81
351.174	835.81
351.402	890.81
351.629	929.81
351.856	865.81
352.083	875.81
352.311	898.81
352.538	989.81
352.765	1060.81
352.992	965.81
353.22	929.81
353.447	940.81
353.674	904.81
353.901	918.81
354.128	937.81
354.355	964.81
354.583	950.81
354.81	930.81
355.037	942.81
355.264	957.81
355.491	1009.81
355.718	1088.81
355.945	1076.81
356.172	1022.81
356.399	1021.81
356.626	1232.81
356.853	1484.81
357.08	1547.81
357.307	1614.81
357.534	1264.81
357.761	1309.81
357.988	1592.81
358.215	1869.81
358.441	1768.81
358.668	1484.81
358.895	1406.81
359.122	1126.81
359.349	1140.81
359.576	1242.81
359.802	1036.81
360.029	890.81
360.256	966.81
360.483	1149.81
360.709	1467.81
360.936	1545.81
361.163	1309.81
361.39	1018.81
361.616	976.81
361.843	1172.81
362.07	1409.81
362.296	1258.81
362.523	1021.81
362.749	895.81
362.976	920.81
363.203	1128.81
363.429	1246.81
363.656	1004.81
363.882	956.81
364.109	936.81
364.335	950.81
364.562	915.81
364.788	1026.81
365.015	1206.81
365.241	1094.81
365.468	918.81
365.694	817.81
365.92	766.81
366.147	754.81
366.373	725.81
366.599	763.81
366.826	774.81
367.052	775.81
367.278	790.81
367.505	798.81
367.731	856.81
367.957	958.81
368.184	986.81
368.41	948.81
368.636	969.81
368.862	998.81
369.089	938.81
369.315	867.81
369.541	826.81
369.767	825.81
369.993	817.81
370.219	783.81
370.445	881.81
370.672	957.81
370.898	1013.81
371.124	1019.81
371.35	909.81
371.576	853.81
371.802	952.81
372.028	1098.81
372.254	1251.81
372.48	1080.81
372.706	962.81
372.932	1000.81
373.158	1056.81
373.384	1252.81
373.61	1679.81
373.835	1723.81
374.061	1304.81
374.287	1072.81
374.513	1270.81
374.739	1527.81
374.965	1576.81
375.191	1570.81
375.416	1091.81
375.642	978.81
375.868	1140.81
376.094	1241.81
376.319	1084.81
376.545	1208.81
376.771	1242.81
376.997	1093.81
377.222	798.81
377.448	712.81
377.674	729.81
377.899	734.81
378.125	733.81
378.35	724.81
378.576	750.81
378.802	792.81
379.027	895.81
379.253	838.81
379.478	877.81
379.704	989.81
379.929	1020.81
380.155	1014.81
380.38	898.81
380.606	954.81
380.831	1031.81
381.057	979.81
381.282	905.81
381.507	1075.81
381.733	1334.81
381.958	1413.81
382.184	1494.81
382.409	1550.81
382.634	1516.81
382.86	1625.81
383.085	1314.81
383.31	1081.81
383.535	1136.81
383.761	1160.81
383.986	1118.81
384.211	1306.81
384.436	1262.81
384.662	965.81
384.887	924.81
385.112	962.81
385.337	987.81
385.562	924.81
385.787	1031.81
386.013	1148.81
386.238	1158.81
386.463	958.81
386.688	935.81
386.913	894.81
387.138	852.81
387.363	924.81
387.588	932.81
387.813	933.81
388.038	1037.81
388.263	942.81
388.488	899.81
388.713	1032.81
388.938	1136.81
389.163	961.81
389.387	895.81
389.612	892.81
389.837	927.81
390.062	934.81
390.287	949.81
390.512	972.81
390.736	887.81
390.961	853.81
391.186	804.81
391.411	815.81
391.636	824.81
391.86	865.81
392.085	957.81
392.31	929.81
392.534	890.81
392.759	893.81
392.984	910.81
393.208	916.81
393.433	822.81
393.658	794.81
393.882	748.81
394.107	751.81
394.331	773.81
394.556	781.81
394.78	771.81
395.005	804.81
395.229	858.81
395.454	854.81
395.678	857.81
395.903	866.81
396.127	837.81
396.352	861.81
396.576	931.81
396.801	956.81
397.025	1022.81
397.249	1050.81
397.474	876.81
397.698	886.81
397.922	934.81
398.147	892.81
398.371	875.81
398.595	902.81
398.82	902.81
399.044	893.81
399.268	972.81
399.492	1014.81
399.717	1005.81
399.941	1043.81
400.165	997.81
400.389	948.81
400.613	1026.81
400.837	994.81
401.062	874.81
401.286	872.81
401.51	875.81
401.734	880.81
401.958	888.81
402.182	869.81
402.406	874.81
402.63	894.81
402.854	920.81
403.078	1014.81
403.302	1228.81
403.526	1255.81
403.75	1130.81
403.974	1034.81
404.198	1079.81
404.422	1154.81
404.645	1338.81
404.869	1458.81
405.093	1122.81
405.317	972.81
405.541	954.81
405.765	952.81
405.988	984.81
406.212	1045.81
406.436	1228.81
406.66	1311.81
406.883	1096.81
407.107	1084.81
407.331	1304.81
407.555	1240.81
407.778	1053.81
408.002	1008.81
408.226	1033.81
408.449	1010.81
408.673	955.81
408.896	898.81
409.12	872.81
409.344	872.81
409.567	859.81
409.791	861.81
410.014	838.81
410.238	866.81
410.461	883.81
410.685	840.81
410.908	888.81
411.132	921.81
411.355	932.81
411.578	902.81
411.802	929.81
412.025	931.81
412.249	953.81
412.472	914.81
412.695	900.81
412.919	932.81
413.142	957.81
413.365	996.81
413.589	993.81
413.812	898.81
414.035	888.81
414.258	883.81
414.482	1011.81
414.705	1012.81
414.928	866.81
415.151	884.81
415.374	856.81
415.597	898.81
415.821	856.81
416.044	846.81
416.267	856.81
416.49	839.81
416.713	825.81
416.936	825.81
417.159	814.81
417.382	861.81
417.605	888.81
417.828	886.81
418.051	878.81
418.274	888.81
418.497	888.81
418.72	889.81
418.943	923.81
419.166	953.81
419.389	980.81
419.611	956.81
419.834	993.81
420.057	1062.81
420.28	1070.81
420.503	998.81
420.726	865.81
420.948	867.81
421.171	846.81
421.394	848.81
421.617	827.81
421.839	832.81
422.062	907.81
422.285	931.81
422.507	886.81
422.73	905.81
422.953	925.81
423.175	909.81
423.398	890.81
423.621	979.81
423.843	987.81
424.066	958.81
424.288	898.81
424.511	879.81
424.733	886.81
424.956	902.81
425.178	1018.81
425.401	1147.81
425.623	1306.81
425.846	1074.81
426.068	989.81
426.291	1039.81
426.513	990.81
426.735	892.81
426.958	954.81
427.18	1092.81
427.402	1384.81
427.625	1389.81
427.847	1122.81
428.069	861.81
428.292	848.81
428.514	864.81
428.736	857.81
428.958	900.81
429.181	1076.81
429.403	909.81
429.625	865.81
429.847	832.81
430.069	857.81
430.292	878.81
430.514	842.81
430.736	920.81
430.958	1124.81
431.18	1023.81
431.402	788.81
431.624	796.81
431.846	787.81
432.068	740.81
432.29	803.81
432.512	891.81
432.734	1108.81
432.956	1086.81
433.178	863.81
433.4	805.81
433.622	811.81
433.844	864.81
434.066	907.81
434.287	888.81
434.509	851.81
434.731	891.81
434.953	845.81
435.175	884.81
435.397	997.81
435.618	867.81
435.84	824.81
436.062	796.81
436.284	808.81
436.505	788.81
436.727	770.81
436.949	773.81
437.17	798.81
437.392	867.81
437.614	843.81
437.835	797.81
438.057	817.81
438.278	946.81
438.5	1300.81
438.721	1285.81
438.943	890.81
439.165	812.81
439.386	756.81
439.608	775.81
439.829	756.81
440.05	772.81
440.272	849.81
440.493	951.81
440.715	1172.81
440.936	949.81
441.158	828.81
441.379	819.81
441.6	918.81
441.822	989.81
442.043	857.81
442.264	837.81
442.486	833.81
442.707	824.81
442.928	855.81
443.149	853.81
443.371	893.81
443.592	912.81
443.813	897.81
444.034	885.81
444.255	883.81
444.476	907.81
444.698	927.81
444.919	922.81
445.14	1018.81
445.361	979.81
445.582	899.81
445.803	913.81
446.024	903.81
446.245	927.81
446.466	880.81
446.687	836.81
446.908	857.81
447.129	819.81
447.35	760.81
447.571	759.81
447.792	774.81
448.013	754.81
448.234	748.81
448.455	762.81
448.675	784.81
448.896	768.81
449.117	769.81
449.338	773.81
449.559	787.81
449.779	832.81
450	849.81
450.221	817.81
450.442	792.81
450.662	792.81
450.883	790.81
451.104	784.81
451.324	760.81
451.545	775.81
451.766	774.81
451.986	763.81
452.207	740.81
452.428	763.81
452.648	745.81
452.869	765.81
453.089	844.81
453.31	812.81
453.53	747.81
453.751	705.81
453.971	728.81
454.192	765.81
454.412	768.81
454.633	725.81
454.853	714.81
455.073	723.81
455.294	699.81
455.514	724.81
455.734	751.81
455.955	758.81
456.175	793.81
456.395	738.81
456.616	684.81
456.836	684.81
457.056	704.81
457.276	650.81
457.497	688.81
457.717	713.81
457.937	694.81
458.157	705.81
458.377	686.81
458.598	729.81
458.818	744.81
459.038	787.81
459.258	778.81
459.478	808.81
459.698	868.81
459.918	865.81
460.138	822.81
460.358	865.81
460.578	829.81
460.798	860.81
461.018	884.81
461.238	832.81
461.458	812.81
461.678	842.81
461.898	909.81
462.118	901.81
462.338	907.81
462.558	922.81
462.777	961.81
462.997	992.81
463.217	962.81
463.437	984.81
463.657	982.81
463.876	958.81
464.096	915.81
464.316	933.81
464.536	977.81
464.755	996.81
464.975	964.81
465.195	918.81
465.414	959.81
465.634	910.81
465.854	904.81
466.073	851.81
466.293	863.81
466.512	873.81
466.732	984.81
466.951	1012.81
467.171	894.81
467.391	841.81
467.61	844.81
467.829	881.81
468.049	892.81
468.268	846.81
468.488	839.81
468.707	885.81
468.927	1022.81
469.146	1112.81
469.365	987.81
469.585	898.81
469.804	986.81
470.023	1079.81
470.243	938.81
470.462	898.81
470.681	890.81
470.901	880.81
471.12	950.81
471.339	931.81
471.558	886.81
471.777	906.81
471.997	940.81
472.216	1054.81
472.435	1014.81
472.654	969.81
472.873	925.81
473.092	976.81
473.311	1022.81
473.53	913.81
473.749	898.81
473.968	948.81
474.187	919.81
474.406	928.81
474.625	898.81
474.844	915.81
475.063	998.81
475.282	993.81
475.501	1026.81
475.72	1103.81
475.939	1042.81
476.158	1042.81
476.377	1206.81
476.596	1420.81
476.814	1391.81
477.033	1216.81
477.252	1010.81
477.471	982.81
477.69	973.81
477.908	1071.81
478.127	1121.81
478.346	1030.81
478.564	1097.81
478.783	1048.81
479.002	1060.81
479.22	1245.81
479.439	1382.81
479.658	1176.81
479.876	1092.81
480.095	1174.81
480.313	1198.81
480.532	1095.81
480.751	1090.81
480.969	1071.81
481.188	1214.81
481.406	1250.81
481.624	1206.81
481.843	1070.81
482.061	1044.81
482.28	1167.81
482.498	1426.81
482.717	1340.81
482.935	1166.81
483.153	1108.81
483.372	1028.81
483.59	1023.81
483.808	1004.81
484.027	1000.81
484.245	970.81
484.463	953.81
484.681	1001.81
484.9	1083.81
485.118	1154.81
485.336	1059.81
485.554	1025.81
485.772	1047.81
485.99	1122.81
486.209	1230.81
486.427	1174.81
486.645	1157.81
486.863	1205.81
487.081	1184.81
487.299	1330.81
487.517	1265.81
487.735	1168.81
487.953	1201.81
488.171	1202.81
488.389	1158.81
488.607	1110.81
488.825	1144.81
489.043	1207.81
489.261	1372.81
489.479	1475.81
489.696	1213.81
489.914	1157.81
490.132	1076.81
490.35	1076.81
490.568	1112.81
490.786	1089.81
491.003	1072.81
491.221	1124.81
491.439	1119.81
491.657	1083.81
491.874	1202.81
492.092	1415.81
492.31	1654.81
492.527	1677.81
492.745	1470.81
492.963	1298.81
493.18	1264.81
493.398	1283.81
493.615	1262.81
493.833	1211.81
494.05	1209.81
494.268	1203.81
494.485	1179.81
494.703	1173.81
494.92	1198.81
495.138	1169.81
495.355	1176.81
495.573	1198.81
495.79	1322.81
496.008	1743.81
496.225	1473.81
496.442	1322.81
496.66	1297.81
496.877	1363.81
497.094	1346.81
497.312	1253.81
497.529	1253.81
497.746	1250.81
497.963	1336.81
498.181	1409.81
498.398	1533.81
498.615	1594.81
498.832	1627.81
499.049	1638.81
499.267	1484.81
499.484	1467.81
499.701	1571.81
499.918	1661.81
500.135	1826.81
500.352	1806.81
500.569	1958.81
500.786	2010.81
501.003	1942.81
501.22	1753.81
501.437	1658.81
501.654	1588.81
501.871	1572.81
502.088	1629.81
502.305	1434.81
502.522	1462.81
502.739	1467.81
502.956	1341.81
503.172	1330.81
503.389	1247.81
503.606	1223.81
503.823	1264.81
504.04	1270.81
504.256	1279.81
504.473	1327.81
504.69	1289.81
504.907	1323.81
505.123	1338.81
505.34	1450.81
505.557	1393.81
505.773	1300.81
505.99	1264.81
506.207	1341.81
506.423	1205.81
506.64	1161.81
506.856	1195.81
507.073	1352.81
507.289	1290.81
507.506	1293.81
507.722	1368.81
507.939	1394.81
508.155	1414.81
508.372	1261.81
508.588	1240.81
508.805	1166.81
509.021	1160.81
509.238	1147.81
509.454	1127.81
509.67	1136.81
509.887	1154.81
510.103	1252.81
510.319	1252.81
510.536	1140.81
510.752	1048.81
510.968	998.81
511.184	1003.81
511.401	1010.81
511.617	989.81
511.833	1005.81
512.049	1030.81
512.265	1069.81
512.481	1095.81
512.698	1216.81
512.914	1329.81
513.13	1204.81
513.346	1109.81
513.562	1118.81
513.778	1142.81
513.994	1098.81
514.21	1197.81
514.426	1149.81
514.642	1124.81
514.858	1104.81
515.074	1120.81
515.29	1245.81
515.506	1375.81
515.721	1307.81
515.937	1185.81
516.153	1109.81
516.369	1117.81
516.585	1173.81
516.801	1324.81
517.016	1528.81
517.232	1483.81
517.448	1492.81
517.664	1311.81
517.879	1240.81
518.095	1226.81
518.311	1221.81
518.527	1251.81
518.742	1346.81
518.958	1432.81
519.173	1340.81
519.389	1304.81
519.605	1336.81
519.82	1466.81
520.036	1689.81
520.251	1675.81
520.467	1516.81
520.682	2222.81
520.898	2683.81
521.113	2564.81
521.329	1636.81
521.544	1489.81
521.76	1457.81
521.975	1297.81
522.19	1242.81
522.406	1251.81
522.621	1422.81
522.836	1448.81
523.052	1497.81
523.267	1232.81
523.482	1222.81
523.698	1340.81
523.913	1282.81
524.128	1190.81
524.343	1139.81
524.559	1148.81
524.774	1089.81
524.989	1109.81
525.204	1154.81
525.419	1311.81
525.634	1177.81
525.849	1216.81
526.064	1204.81
526.28	1213.81
526.495	1431.81
526.71	1448.81
526.925	1272.81
527.14	1347.81
527.355	1296.81
527.57	1116.81
527.785	1137.81
527.999	1084.81
528.214	1031.81
528.429	1072.81
528.644	1027.81
528.859	1010.81
529.074	958.81
529.289	961.81
529.503	956.81
529.718	961.81
529.933	1110.81
530.148	1144.81
530.363	1022.81
530.577	977.81
530.792	962.81
531.007	973.81
531.221	920.81
531.436	946.81
531.651	939.81
531.865	997.81
532.08	977.81
532.295	956.81
532.509	996.81
532.724	1150.81
532.938	1245.81
533.153	1441.81
533.367	1194.81
533.582	1141.81
533.796	1051.81
534.011	1009.81
534.225	1039.81
534.44	1010.81
534.654	1052.81
534.868	1212.81
535.083	1056.81
535.297	973.81
535.511	1005.81
535.726	1116.81
535.94	1050.81
536.154	1002.81
536.369	923.81
536.583	946.81
536.797	976.81
537.011	970.81
537.225	1072.81
537.44	1108.81
537.654	993.81
537.868	1007.81
538.082	979.81
538.296	932.81
538.51	1056.81
538.724	1058.81
538.938	1049.81
539.153	945.81
539.367	923.81
539.581	962.81
539.795	1016.81
540.009	1083.81
540.222	1004.81
540.436	1028.81
540.65	1100.81
540.864	1073.81
541.078	1155.81
541.292	1261.81
541.506	1049.81
541.72	1008.81
541.934	1000.81
542.147	995.81
542.361	1000.81
542.575	1036.81
542.789	994.81
543.002	922.81
543.216	1017.81
543.43	916.81
543.644	925.81
543.857	887.81
544.071	933.81
544.285	889.81
544.498	890.81
544.712	885.81
544.925	961.81
545.139	910.81
545.352	855.81
545.566	880.81
545.779	981.81
545.993	941.81
546.206	865.81
546.42	838.81
546.633	849.81
546.847	848.81
547.06	833.81
547.274	844.81
547.487	834.81
547.7	941.81
547.914	971.81
548.127	1061.81
548.34	1054.81
548.554	951.81
548.767	988.81
548.98	1027.81
549.193	988.81
549.407	987.81
549.62	1157.81
549.833	1067.81
550.046	1098.81
550.259	1137.81
550.473	979.81
550.686	929.81
550.899	944.81
551.112	931.81
551.325	1013.81
551.538	1049.81
551.751	947.81
551.964	867.81
552.177	861.81
552.39	842.81
552.603	874.81
552.816	891.81
553.029	876.81
553.242	859.81
553.455	924.81
553.667	979.81
553.88	938.81
554.093	876.81
554.306	812.81
554.519	784.81
554.732	772.81
554.944	756.81
555.157	781.81
555.37	754.81
555.583	751.81
555.795	752.81
556.008	800.81
556.221	790.81
556.433	761.81
556.646	736.81
556.859	766.81
557.071	802.81
557.284	788.81
557.496	790.81
557.709	774.81
557.921	766.81
558.134	708.81
558.346	719.81
558.559	696.81
558.771	737.81
558.984	783.81
559.196	744.81
559.409	719.81
559.621	691.81
559.833	656.81
560.046	716.81
560.258	691.81
560.47	742.81
560.683	666.81
560.895	659.81
561.107	667.81
561.32	656.81
561.532	652.81
561.744	734.81
561.956	749.81
562.168	692.81
562.381	650.81
562.593	708.81
562.805	723.81
563.017	675.81
563.229	643.81
563.441	637.81
563.653	674.81
563.865	659.81
564.077	672.81
564.289	692.81
564.501	708.81
564.713	748.81
564.925	715.81
565.137	675.81
565.349	653.81
565.561	691.81
565.773	696.81
565.985	708.81
566.197	760.81
566.408	829.81
566.62	789.81
566.832	837.81
567.044	810.81
567.255	871.81
567.467	973.81
567.679	860.81
567.891	842.81
568.102	882.81
568.314	882.81
568.526	819.81
568.737	807.81
568.949	833.81
569.161	720.81
569.372	660.81
569.584	672.81
569.795	666.81
570.007	697.81
570.218	704.81
570.43	695.81
570.641	665.81
570.853	644.81
571.064	650.81
571.276	641.81
571.487	681.81
571.698	642.81
571.91	656.81
572.121	660.81
572.333	604.81
572.544	618.81
572.755	616.81
572.966	592.81
573.178	595.81
573.389	622.81
573.6	609.81
573.811	618.81
574.023	553.81
574.234	541.81
574.445	557.81
574.656	532.81
574.867	571.81
575.078	588.81
575.289	572.81
575.501	620.81
575.712	586.81
575.923	557.81
576.134	545.81
576.345	551.81
576.556	539.81
576.767	510.81
576.978	505.81
577.188	503.81
577.399	511.81
577.61	513.81
577.821	515.81
578.032	518.81
578.243	548.81
578.454	555.81
578.665	569.81
578.875	552.81
579.086	547.81
579.297	546.81
579.508	566.81
579.718	541.81
579.929	545.81
580.14	520.81
580.35	503.81
580.561	482.81
580.772	459.81
580.982	482.81
581.193	447.81
581.403	434.81
581.614	462.81
581.825	455.81
582.035	450.81
582.246	441.81
582.456	453.81
582.667	469.81
582.877	446.81
583.087	444.81
583.298	455.81
583.508	442.81
583.719	458.81
583.929	442.81
584.139	434.81
584.35	451.81
584.56	469.81
584.77	454.81
584.981	467.81
585.191	452.81
585.401	447.81
585.611	472.81
585.821	476.81
586.032	484.81
586.242	462.81
586.452	454.81
586.662	470.81
586.872	480.81
587.082	474.81
587.292	457.81
587.502	440.81
587.713	454.81
587.923	458.81
588.133	483.81
588.343	482.81
588.553	439.81
588.762	433.81
588.972	452.81
589.182	419.81
589.392	411.81
589.602	458.81
589.812	469.81
590.022	501.81
590.232	498.81
590.441	462.81
590.651	430.81
590.861	440.81
591.071	455.81
591.281	437.81
591.49	416.81
591.7	444.81
591.91	428.81
592.119	450.81
592.329	434.81
592.539	461.81
592.748	456.81
592.958	437.81
593.167	460.81
593.377	471.81
593.587	476.81
593.796	460.81
594.006	467.81
594.215	466.81
594.424	475.81
594.634	504.81
594.843	474.81
595.053	446.81
595.262	442.81
595.472	413.81
595.681	421.81
595.89	412.81
596.1	416.81
596.309	425.81
596.518	434.81
596.727	421.81
596.937	426.81
597.146	397.81
597.355	456.81
597.564	428.81
597.774	396.81
597.983	398.81
598.192	409.81
598.401	394.81
598.61	377.81
598.819	376.81
599.028	371.81
599.237	384.81
599.446	389.81
599.655	377.81
599.864	370.81
600.073	382.81
600.282	377.81
600.491	364.81
600.7	386.81
600.909	378.81
601.118	396.81
601.327	360.81
601.536	381.81
601.745	366.81
601.953	382.81
602.162	384.81
602.371	373.81
602.58	402.81
602.789	383.81
602.997	375.81
603.206	376.81
603.415	346.81
603.623	350.81
603.832	364.81
604.041	354.81
604.249	354.81
604.458	375.81
604.666	338.81
604.875	353.81
605.084	332.81
605.292	344.81
605.501	355.81
605.709	342.81
605.918	354.81
606.126	348.81
606.334	332.81
606.543	352.81
606.751	330.81
606.96	341.81
607.168	346.81
607.376	330.81
607.585	342.81
607.793	342.81
608.001	338.81
608.21	352.81
608.418	345.81
608.626	344.81
608.834	324.81
609.043	348.81
609.251	332.81
609.459	338.81
609.667	329.81
609.875	327.81
610.083	317.81
610.291	340.81
610.499	341.81
610.707	339.81
610.916	323.81
611.124	325.81
611.332	348.81
611.54	331.81
611.748	329.81
611.955	332.81
612.163	330.81
612.371	315.81
612.579	334.81
612.787	332.81
612.995	321.81
613.203	327.81
613.411	329.81
613.618	323.81
613.826	347.81
614.034	334.81
614.242	313.81
614.449	315.81
614.657	316.81
614.865	314.81
615.072	322.81
615.28	320.81
615.488	329.81
615.695	320.81
615.903	323.81
616.111	318.81
616.318	329.81
616.526	324.81
616.733	325.81
616.941	312.81
617.148	316.81
617.356	292.81
617.563	291.81
617.771	323.81
617.978	321.81
618.185	308.81
618.393	320.81
618.6	321.81
618.807	329.81
619.015	326.81
619.222	300.81
619.429	314.81
619.637	297.81
619.844	284.81
620.051	305.81
620.258	308.81
620.466	290.81
620.673	282.81
620.88	294.81
621.087	272.81
621.294	281.81
621.501	304.81
621.708	290.81
621.915	304.81
622.122	294.81
622.329	274.81
622.536	286.81
622.743	287.81
622.95	271.81
623.157	270.81
623.364	317.81
623.571	286.81
623.778	298.81
623.985	314.81
624.192	298.81
624.399	284.81
624.606	282.81
624.812	276.81
625.019	296.81
625.226	311.81
625.433	300.81
625.639	290.81
625.846	284.81
626.053	273.81
626.259	270.81
626.466	277.81
626.673	299.81
626.879	283.81
627.086	245.81
627.293	255.81
627.499	280.81
627.706	266.81
627.912	244.81
628.119	261.81
628.325	264.81
628.532	256.81
628.738	224.81
628.945	258.81
629.151	252.81
629.357	251.81
629.564	260.81
629.77	262.81
629.976	236.81
630.183	236.81
630.389	259.81
630.595	257.81
630.802	260.81
631.008	230.81
631.214	266.81
631.42	233.81
631.627	256.81
631.833	252.81
632.039	232.81
632.245	247.81
632.451	237.81
632.657	244.81
632.863	236.81
633.069	238.81
633.275	251.81
633.481	221.81
633.688	243.81
633.893	242.81
634.099	260.81
634.305	229.81
634.511	224.81
634.717	217.81
634.923	239.81
635.129	223.81
635.335	229.81
635.541	236.81
635.747	227.81
635.952	224.81
636.158	224.81
636.364	235.81
636.57	236.81
636.775	239.81
636.981	208.81
637.187	223.81
637.392	219.81
637.598	213.81
637.804	217.81
638.009	233.81
638.215	226.81
638.421	222.81
638.626	220.81
638.832	223.81
639.037	237.81
639.243	208.81
639.448	217.81
639.654	226.81
639.859	227.81
640.065	217.81
640.27	229.81
640.475	225.81
640.681	221.81
640.886	217.81
641.091	213.81
641.297	229.81
641.502	213.81
641.707	212.81
641.913	218.81
642.118	208.81
642.323	204.81
642.528	237.81
642.733	204.81
642.939	198.81
643.144	236.81
643.349	220.81
643.554	206.81
643.759	224.81
643.964	209.81
644.169	215.81
644.374	216.81
644.579	212.81
644.784	175.81
644.989	216.81
645.194	209.81
645.399	205.81
645.604	199.81
645.809	208.81
646.014	213.81
646.219	216.81
646.423	197.81
646.628	197.81
646.833	206.81
647.038	210.81
647.243	201.81
647.447	200.81
647.652	188.81
647.857	202.81
648.062	216.81
648.266	223.81
648.471	204.81
648.676	196.81
648.88	190.81
649.085	206.81
649.289	205.81
649.494	210.81
649.698	202.81
649.903	206.81
650.107	216.81
650.312	208.81
650.516	204.81
650.721	179.81
650.925	177.81
651.13	190.81
651.334	186.81
651.539	193.81
651.743	177.81
651.947	178.81
652.152	172.81
652.356	170.81
652.56	178.81
652.764	169.81
652.969	163.81
653.173	165.81
653.377	168.81
653.581	172.81
653.785	156.81
653.99	150.81
654.194	158.81
654.398	155.81
654.602	163.81
654.806	173.81
655.01	163.81
655.214	141.81
655.418	144.81
655.622	148.81
655.826	144.81
656.03	153.81
656.234	163.81
656.438	164.81
656.642	153.81
656.846	160.81
657.049	141.81
657.253	130.81
657.457	149.81
657.661	134.81
657.865	140.81
658.068	130.81
658.272	116.81
658.476	121.81
658.68	118.81
658.883	108.81
659.087	112.81
659.291	109.81
659.494	104.81
659.698	114.81
659.901	107.81
660.105	106.81
660.309	93.81
660.512	113.81
660.716	101.81
660.919	89.81
661.123	87.81
661.326	95.81
661.53	80.81
661.733	86.81
661.936	90.81
662.14	85.81
662.343	81.81
662.546	79.81
662.75	82.81
662.953	89.81
663.156	92.81
663.36	87.81
663.563	85.81
663.766	93.81
663.969	94.81
664.173	76.81
664.376	73.81
664.579	80.81
664.782	79.81
664.985	76.81
665.188	85.81
665.391	78.81
665.594	72.81
665.797	74.81
666	77.81
666.203	72.81
666.406	69.81
666.609	66.81
666.812	77.81
667.015	83.81
667.218	88.81
667.421	81.81
667.624	89.81
667.827	92.81
668.03	83.81
668.232	77.81
668.435	76.81
668.638	69.81
668.841	78.81
669.043	78.81
669.246	104.81
669.449	78.81
669.651	71.81
669.854	88.81
670.057	86.81
670.259	83.81
670.462	78.81
670.665	67.81
670.867	81.81
671.07	74.81
671.272	77.81
671.475	79.81
671.677	70.81
671.88	81.81
672.082	81.81
672.284	79.81
672.487	95.81
672.689	93.81
672.892	84.81
