Data from NickelSpatula.Lamp.E10.P2_HRD10591_11-57-44-530.txt Node
Date: Tue Jul 23 11:57:44 EDT 2019
User: cochatt
Spectrometer: HR+D1059
Trigger mode: 1
Integration Time (sec): 1.000000E-1
Scans to average: 1
Electric dark correction enabled: true
Nonlinearity correction enabled: false
Boxcar width: 0
XAxis mode: Wavelengths
Number of Pixels in Spectrum: 2048
>>>>>Begin Spectral Data<<<<<
223.165	-21.88
223.4	-21.88
223.635	-21.88
223.869	-31.88
224.104	-5.88
224.338	1.12
224.573	-17.88
224.808	-4.88
225.042	-1.88
225.277	-9.88
225.511	-4.88
225.746	2.12
225.98	11.12
226.215	8.12
226.449	15.12
226.683	7.12
226.918	35.12
227.152	19.12
227.387	32.12
227.621	45.12
227.856	41.12
228.09	46.12
228.324	45.12
228.559	60.12
228.793	89.12
229.027	138.12
229.262	155.12
229.496	146.12
229.73	162.12
229.964	195.12
230.199	203.12
230.433	207.12
230.667	202.12
230.901	195.12
231.136	179.12
231.37	204.12
231.604	231.12
231.838	233.12
232.072	241.12
232.306	244.12
232.541	230.12
232.775	242.12
233.009	275.12
233.243	289.12
233.477	288.12
233.711	345.12
233.945	316.12
234.179	311.12
234.413	348.12
234.647	381.12
234.881	451.12
235.115	416.12
235.349	403.12
235.583	354.12
235.817	356.12
236.051	373.12
236.285	405.12
236.519	446.12
236.753	424.12
236.987	422.12
237.221	398.12
237.455	407.12
237.689	419.12
237.922	466.12
238.156	481.12
238.39	544.12
238.624	654.12
238.858	595.12
239.091	477.12
239.325	535.12
239.559	473.12
239.793	536.12
240.027	625.12
240.26	587.12
240.494	567.12
240.728	590.12
240.961	677.12
241.195	631.12
241.429	643.12
241.662	610.12
241.896	535.12
242.13	463.12
242.363	456.12
242.597	462.12
242.83	520.12
243.064	533.12
243.298	585.12
243.531	611.12
243.765	610.12
243.998	617.12
244.232	594.12
244.465	566.12
244.699	570.12
244.932	628.12
245.166	630.12
245.399	554.12
245.633	537.12
245.866	562.12
246.099	609.12
246.333	706.12
246.566	758.12
246.8	734.12
247.033	709.12
247.266	676.12
247.5	669.12
247.733	656.12
247.966	635.12
248.2	693.12
248.433	775.12
248.666	814.12
248.899	832.12
249.133	853.12
249.366	964.12
249.599	1048.12
249.832	935.12
250.066	786.12
250.299	828.12
250.532	807.12
250.765	771.12
250.998	730.12
251.231	696.12
251.465	790.12
251.698	813.12
251.931	797.12
252.164	813.12
252.397	918.12
252.63	996.12
252.863	1105.12
253.096	1184.12
253.329	1130.12
253.562	1090.12
253.795	1211.12
254.028	1343.12
254.261	1322.12
254.494	1232.12
254.727	1124.12
254.96	1092.12
255.193	1145.12
255.426	1104.12
255.659	846.12
255.892	776.12
256.124	834.12
256.357	1012.12
256.59	1181.12
256.823	1111.12
257.056	961.12
257.289	907.12
257.521	934.12
257.754	1121.12
257.987	1259.12
258.22	1109.12
258.452	998.12
258.685	1135.12
258.918	1254.12
259.151	1207.12
259.383	1309.12
259.616	1491.12
259.849	1542.12
260.081	1682.12
260.314	1841.12
260.547	1443.12
260.779	1417.12
261.012	1697.12
261.244	1582.12
261.477	1586.12
261.71	1508.12
261.942	1247.12
262.175	1267.12
262.407	1199.12
262.64	1232.12
262.872	1478.12
263.105	1649.12
263.337	1695.12
263.57	1541.12
263.802	1054.12
264.035	890.12
264.267	871.12
264.499	761.12
264.732	699.12
264.964	678.12
265.197	707.12
265.429	754.12
265.661	806.12
265.894	821.12
266.126	905.12
266.358	1002.12
266.591	1217.12
266.823	1483.12
267.055	1379.12
267.287	1220.12
267.52	1235.12
267.752	1274.12
267.984	1438.12
268.216	1339.12
268.448	1107.12
268.681	1086.12
268.913	1193.12
269.145	1250.12
269.377	1296.12
269.609	1310.12
269.841	1217.12
270.073	1270.12
270.306	1330.12
270.538	1335.12
270.77	1365.12
271.002	1378.12
271.234	1458.12
271.466	1453.12
271.698	1432.12
271.93	1388.12
272.162	1398.12
272.394	1393.12
272.626	1390.12
272.858	1404.12
273.09	1473.12
273.322	1270.12
273.553	1233.12
273.785	1481.12
274.017	1907.12
274.249	2393.12
274.481	2409.12
274.713	2669.12
274.945	3063.12
275.176	3201.12
275.408	2778.12
275.64	2538.12
275.872	2547.12
276.104	2195.12
276.335	1879.12
276.567	1861.12
276.799	1920.12
277.031	2018.12
277.262	1576.12
277.494	1210.12
277.726	1186.12
277.957	1317.12
278.189	1473.12
278.421	1450.12
278.652	1410.12
278.884	1323.12
279.115	1229.12
279.347	1171.12
279.579	1201.12
279.81	1178.12
280.042	1208.12
280.273	1216.12
280.505	1114.12
280.736	984.12
280.968	964.12
281.199	1089.12
281.431	1158.12
281.662	1202.12
281.894	1151.12
282.125	1233.12
282.356	1311.12
282.588	1341.12
282.819	1246.12
283.051	1360.12
283.282	1662.12
283.513	1939.12
283.745	2120.12
283.976	2169.12
284.207	1979.12
284.439	2062.12
284.67	2009.12
284.901	1775.12
285.132	1894.12
285.364	1974.12
285.595	1868.12
285.826	1951.12
286.057	2024.12
286.288	1957.12
286.52	1941.12
286.751	2081.12
286.982	2050.12
287.213	1753.12
287.444	1764.12
287.675	1769.12
287.906	1824.12
288.138	1528.12
288.369	1367.12
288.6	1238.12
288.831	1342.12
289.062	1534.12
289.293	1661.12
289.524	1593.12
289.755	1597.12
289.986	1628.12
290.217	1376.12
290.448	1093.12
290.679	966.12
290.91	877.12
291.141	919.12
291.371	979.12
291.602	969.12
291.833	987.12
292.064	1029.12
292.295	1169.12
292.526	1347.12
292.757	1421.12
292.987	1553.12
293.218	1529.12
293.449	1583.12
293.68	1643.12
293.91	1562.12
294.141	1622.12
294.372	1470.12
294.603	1364.12
294.833	1513.12
295.064	1817.12
295.295	1717.12
295.525	1279.12
295.756	1119.12
295.987	999.12
296.217	1001.12
296.448	1019.12
296.679	1075.12
296.909	1202.12
297.14	1278.12
297.37	1362.12
297.601	1314.12
297.831	1136.12
298.062	1240.12
298.292	1367.12
298.523	1470.12
298.753	1708.12
298.984	1525.12
299.214	1232.12
299.445	1042.12
299.675	1007.12
299.905	987.12
300.136	1019.12
300.366	1137.12
300.597	1111.12
300.827	979.12
301.057	928.12
301.288	969.12
301.518	1009.12
301.748	1194.12
301.979	1249.12
302.209	1400.12
302.439	1349.12
302.669	1167.12
302.9	1219.12
303.13	1147.12
303.36	1050.12
303.59	1011.12
303.82	1075.12
304.051	1222.12
304.281	1329.12
304.511	1269.12
304.741	1143.12
304.971	1163.12
305.201	1221.12
305.431	1169.12
305.661	1017.12
305.891	1012.12
306.121	1037.12
306.352	966.12
306.582	852.12
306.812	838.12
307.042	858.12
307.272	788.12
307.502	787.12
307.731	862.12
307.961	885.12
308.191	830.12
308.421	785.12
308.651	791.12
308.881	766.12
309.111	753.12
309.341	805.12
309.571	857.12
309.8	895.12
310.03	915.12
310.26	946.12
310.49	954.12
310.72	861.12
310.949	847.12
311.179	881.12
311.409	938.12
311.639	1062.12
311.868	1367.12
312.098	1752.12
312.328	1895.12
312.557	1845.12
312.787	1858.12
313.017	1617.12
313.246	1773.12
313.476	1926.12
313.706	1587.12
313.935	1270.12
314.165	1010.12
314.394	950.12
314.624	958.12
314.853	1037.12
315.083	1040.12
315.312	1007.12
315.542	997.12
315.771	951.12
316.001	847.12
316.23	835.12
316.46	843.12
316.689	835.12
316.919	834.12
317.148	856.12
317.377	847.12
317.607	881.12
317.836	941.12
318.065	1074.12
318.295	1190.12
318.524	1127.12
318.753	961.12
318.983	936.12
319.212	915.12
319.441	973.12
319.67	1078.12
319.9	1169.12
320.129	1073.12
320.358	924.12
320.587	912.12
320.816	951.12
321.046	1119.12
321.275	1302.12
321.504	1271.12
321.733	1179.12
321.962	1168.12
322.191	1125.12
322.42	1045.12
322.649	1070.12
322.878	1161.12
323.108	1138.12
323.337	1086.12
323.566	1065.12
323.795	1018.12
324.024	974.12
324.253	965.12
324.482	929.12
324.71	1028.12
324.939	1158.12
325.168	1104.12
325.397	906.12
325.626	858.12
325.855	908.12
326.084	897.12
326.313	853.12
326.542	818.12
326.77	869.12
326.999	885.12
327.228	944.12
327.457	988.12
327.686	977.12
327.914	864.12
328.143	794.12
328.372	799.12
328.6	821.12
328.829	835.12
329.058	882.12
329.287	851.12
329.515	874.12
329.744	860.12
329.972	838.12
330.201	794.12
330.43	818.12
330.658	919.12
330.887	1045.12
331.115	1017.12
331.344	1013.12
331.572	961.12
331.801	900.12
332.03	826.12
332.258	869.12
332.486	941.12
332.715	960.12
332.943	910.12
333.172	890.12
333.4	952.12
333.629	1023.12
333.857	1093.12
334.085	1083.12
334.314	1070.12
334.542	1026.12
334.771	980.12
334.999	934.12
335.227	921.12
335.455	930.12
335.684	1010.12
335.912	1160.12
336.14	1305.12
336.369	1249.12
336.597	1176.12
336.825	1338.12
337.053	1462.12
337.281	1225.12
337.51	959.12
337.738	973.12
337.966	1049.12
338.194	1139.12
338.422	1077.12
338.65	945.12
338.878	839.12
339.106	893.12
339.334	992.12
339.562	1057.12
339.79	997.12
340.018	950.12
340.246	1008.12
340.474	1143.12
340.702	1221.12
340.93	1275.12
341.158	1273.12
341.386	1079.12
341.614	1078.12
341.842	1089.12
342.07	1118.12
342.298	1282.12
342.526	1338.12
342.754	1161.12
342.981	1054.12
343.209	1036.12
343.437	1114.12
343.665	1159.12
343.893	1119.12
344.12	1343.12
344.348	1556.12
344.576	1353.12
344.804	1139.12
345.031	1024.12
345.259	942.12
345.487	966.12
345.714	1006.12
345.942	1065.12
346.17	1162.12
346.397	1089.12
346.625	993.12
346.853	949.12
347.08	905.12
347.308	964.12
347.535	1094.12
347.763	1121.12
347.99	979.12
348.218	893.12
348.445	953.12
348.673	951.12
348.9	954.12
349.128	1020.12
349.355	1065.12
349.583	1039.12
349.81	983.12
350.037	931.12
350.265	828.12
350.492	779.12
350.72	787.12
350.947	808.12
351.174	850.12
351.402	925.12
351.629	983.12
351.856	909.12
352.083	857.12
352.311	910.12
352.538	1014.12
352.765	1100.12
352.992	989.12
353.22	955.12
353.447	955.12
353.674	893.12
353.901	914.12
354.128	931.12
354.355	912.12
354.583	975.12
354.81	956.12
355.037	999.12
355.264	960.12
355.491	1022.12
355.718	1084.12
355.945	1067.12
356.172	1014.12
356.399	1071.12
356.626	1297.12
356.853	1494.12
357.08	1616.12
357.307	1604.12
357.534	1286.12
357.761	1350.12
357.988	1620.12
358.215	1917.12
358.441	1841.12
358.668	1520.12
358.895	1395.12
359.122	1164.12
359.349	1200.12
359.576	1223.12
359.802	1064.12
360.029	919.12
360.256	971.12
360.483	1227.12
360.709	1508.12
360.936	1547.12
361.163	1363.12
361.39	1043.12
361.616	994.12
361.843	1135.12
362.07	1426.12
362.296	1311.12
362.523	1049.12
362.749	906.12
362.976	970.12
363.203	1160.12
363.429	1266.12
363.656	997.12
363.882	957.12
364.109	965.12
364.335	945.12
364.562	933.12
364.788	1057.12
365.015	1218.12
365.241	1131.12
365.468	934.12
365.694	776.12
365.92	797.12
366.147	763.12
366.373	773.12
366.599	786.12
366.826	783.12
367.052	831.12
367.278	804.12
367.505	786.12
367.731	876.12
367.957	977.12
368.184	987.12
368.41	959.12
368.636	974.12
368.862	1011.12
369.089	950.12
369.315	874.12
369.541	869.12
369.767	825.12
369.993	829.12
370.219	819.12
370.445	882.12
370.672	965.12
370.898	1061.12
371.124	1030.12
371.35	914.12
371.576	850.12
371.802	909.12
372.028	1097.12
372.254	1277.12
372.48	1069.12
372.706	1009.12
372.932	1055.12
373.158	1078.12
373.384	1314.12
373.61	1717.12
373.835	1725.12
374.061	1299.12
374.287	1122.12
374.513	1304.12
374.739	1553.12
374.965	1588.12
375.191	1563.12
375.416	1151.12
375.642	966.12
375.868	1164.12
376.094	1289.12
376.319	1120.12
376.545	1217.12
376.771	1295.12
376.997	1096.12
377.222	867.12
377.448	737.12
377.674	730.12
377.899	722.12
378.125	720.12
378.35	751.12
378.576	768.12
378.802	820.12
379.027	862.12
379.253	858.12
379.478	869.12
379.704	987.12
379.929	1047.12
380.155	1032.12
380.38	929.12
380.606	944.12
380.831	1082.12
381.057	956.12
381.282	948.12
381.507	1096.12
381.733	1381.12
381.958	1441.12
382.184	1518.12
382.409	1611.12
382.634	1569.12
382.86	1614.12
383.085	1329.12
383.31	1106.12
383.535	1142.12
383.761	1177.12
383.986	1115.12
384.211	1330.12
384.436	1297.12
384.662	990.12
384.887	981.12
385.112	977.12
385.337	987.12
385.562	954.12
385.787	1060.12
386.013	1177.12
386.238	1161.12
386.463	1006.12
386.688	959.12
386.913	911.12
387.138	895.12
387.363	926.12
387.588	960.12
387.813	918.12
388.038	1033.12
388.263	933.12
388.488	926.12
388.713	1059.12
388.938	1144.12
389.163	978.12
389.387	885.12
389.612	901.12
389.837	926.12
390.062	921.12
390.287	954.12
390.512	988.12
390.736	901.12
390.961	889.12
391.186	827.12
391.411	834.12
391.636	843.12
391.86	903.12
392.085	970.12
392.31	974.12
392.534	908.12
392.759	893.12
392.984	969.12
393.208	939.12
393.433	850.12
393.658	807.12
393.882	785.12
394.107	775.12
394.331	794.12
394.556	805.12
394.78	777.12
395.005	815.12
395.229	862.12
395.454	843.12
395.678	861.12
395.903	880.12
396.127	870.12
396.352	849.12
396.576	958.12
396.801	983.12
397.025	1026.12
397.249	1105.12
397.474	926.12
397.698	889.12
397.922	948.12
398.147	923.12
398.371	903.12
398.595	930.12
398.82	945.12
399.044	941.12
399.268	963.12
399.492	1046.12
399.717	1054.12
399.941	1091.12
400.165	1053.12
400.389	1019.12
400.613	1048.12
400.837	1031.12
401.062	928.12
401.286	911.12
401.51	879.12
401.734	893.12
401.958	904.12
402.182	888.12
402.406	894.12
402.63	889.12
402.854	927.12
403.078	1062.12
403.302	1222.12
403.526	1294.12
403.75	1177.12
403.974	1027.12
404.198	1073.12
404.422	1213.12
404.645	1365.12
404.869	1527.12
405.093	1162.12
405.317	1002.12
405.541	968.12
405.765	1019.12
405.988	1005.12
406.212	1084.12
406.436	1255.12
406.66	1387.12
406.883	1119.12
407.107	1114.12
407.331	1300.12
407.555	1256.12
407.778	1062.12
408.002	1045.12
408.226	1021.12
408.449	1010.12
408.673	976.12
408.896	907.12
409.12	908.12
409.344	913.12
409.567	877.12
409.791	914.12
410.014	894.12
410.238	872.12
410.461	890.12
410.685	908.12
410.908	901.12
411.132	925.12
411.355	913.12
411.578	932.12
411.802	930.12
412.025	979.12
412.249	947.12
412.472	937.12
412.695	929.12
412.919	953.12
413.142	985.12
413.365	1031.12
413.589	1021.12
413.812	918.12
414.035	886.12
414.258	925.12
414.482	1006.12
414.705	1029.12
414.928	889.12
415.151	862.12
415.374	854.12
415.597	945.12
415.821	899.12
416.044	871.12
416.267	850.12
416.49	877.12
416.713	862.12
416.936	817.12
417.159	868.12
417.382	866.12
417.605	896.12
417.828	890.12
418.051	895.12
418.274	921.12
418.497	944.12
418.72	897.12
418.943	930.12
419.166	995.12
419.389	1005.12
419.611	999.12
419.834	986.12
420.057	1088.12
420.28	1064.12
420.503	1012.12
420.726	898.12
420.948	868.12
421.171	881.12
421.394	881.12
421.617	891.12
421.839	888.12
422.062	933.12
422.285	922.12
422.507	949.12
422.73	930.12
422.953	951.12
423.175	921.12
423.398	963.12
423.621	979.12
423.843	1018.12
424.066	958.12
424.288	893.12
424.511	889.12
424.733	902.12
424.956	932.12
425.178	1047.12
425.401	1187.12
425.623	1327.12
425.846	1115.12
426.068	983.12
426.291	1065.12
426.513	1011.12
426.735	911.12
426.958	968.12
427.18	1129.12
427.402	1418.12
427.625	1394.12
427.847	1162.12
428.069	909.12
428.292	881.12
428.514	859.12
428.736	842.12
428.958	939.12
429.181	1065.12
429.403	948.12
429.625	909.12
429.847	861.12
430.069	867.12
430.292	885.12
430.514	866.12
430.736	933.12
430.958	1141.12
431.18	1040.12
431.402	800.12
431.624	810.12
431.846	789.12
432.068	802.12
432.29	799.12
432.512	868.12
432.734	1143.12
432.956	1105.12
433.178	867.12
433.4	826.12
433.622	850.12
433.844	884.12
434.066	901.12
434.287	882.12
434.509	913.12
434.731	919.12
434.953	861.12
435.175	917.12
435.397	1003.12
435.618	890.12
435.84	799.12
436.062	821.12
436.284	804.12
436.505	793.12
436.727	794.12
436.949	799.12
437.17	837.12
437.392	867.12
437.614	847.12
437.835	839.12
438.057	834.12
438.278	958.12
438.5	1302.12
438.721	1337.12
438.943	925.12
439.165	783.12
439.386	798.12
439.608	787.12
439.829	779.12
440.05	797.12
440.272	842.12
440.493	970.12
440.715	1142.12
440.936	964.12
441.158	863.12
441.379	849.12
441.6	957.12
441.822	1007.12
442.043	868.12
442.264	874.12
442.486	877.12
442.707	870.12
442.928	839.12
443.149	874.12
443.371	861.12
443.592	926.12
443.813	909.12
444.034	917.12
444.255	901.12
444.476	930.12
444.698	928.12
444.919	947.12
445.14	1049.12
445.361	1013.12
445.582	954.12
445.803	920.12
446.024	901.12
446.245	913.12
446.466	922.12
446.687	867.12
446.908	865.12
447.129	822.12
447.35	795.12
447.571	793.12
447.792	795.12
448.013	787.12
448.234	798.12
448.455	791.12
448.675	771.12
448.896	802.12
449.117	779.12
449.338	793.12
449.559	825.12
449.779	846.12
450	849.12
450.221	801.12
450.442	832.12
450.662	802.12
450.883	808.12
451.104	831.12
451.324	764.12
451.545	784.12
451.766	801.12
451.986	783.12
452.207	785.12
452.428	768.12
452.648	771.12
452.869	809.12
453.089	853.12
453.31	832.12
453.53	746.12
453.751	768.12
453.971	765.12
454.192	752.12
454.412	783.12
454.633	739.12
454.853	730.12
455.073	732.12
455.294	713.12
455.514	753.12
455.734	761.12
455.955	811.12
456.175	844.12
456.395	741.12
456.616	710.12
456.836	701.12
457.056	681.12
457.276	673.12
457.497	734.12
457.717	706.12
457.937	705.12
458.157	746.12
458.377	694.12
458.598	741.12
458.818	768.12
459.038	823.12
459.258	839.12
459.478	850.12
459.698	863.12
459.918	891.12
460.138	877.12
460.358	871.12
460.578	836.12
460.798	881.12
461.018	895.12
461.238	870.12
461.458	840.12
461.678	881.12
461.898	914.12
462.118	890.12
462.338	936.12
462.558	925.12
462.777	987.12
462.997	1011.12
463.217	994.12
463.437	1050.12
463.657	1009.12
463.876	965.12
464.096	962.12
464.316	965.12
464.536	960.12
464.755	1000.12
464.975	1027.12
465.195	953.12
465.414	966.12
465.634	953.12
465.854	908.12
466.073	849.12
466.293	858.12
466.512	910.12
466.732	1023.12
466.951	1045.12
467.171	919.12
467.391	905.12
467.61	878.12
467.829	941.12
468.049	924.12
468.268	864.12
468.488	881.12
468.707	899.12
468.927	1059.12
469.146	1143.12
469.365	1010.12
469.585	961.12
469.804	1021.12
470.023	1084.12
470.243	946.12
470.462	917.12
470.681	926.12
470.901	918.12
471.12	989.12
471.339	955.12
471.558	923.12
471.777	924.12
471.997	971.12
472.216	1096.12
472.435	1074.12
472.654	981.12
472.873	935.12
473.092	978.12
473.311	1033.12
473.53	935.12
473.749	904.12
473.968	965.12
474.187	973.12
474.406	935.12
474.625	929.12
474.844	939.12
475.063	1017.12
475.282	1034.12
475.501	1071.12
475.72	1080.12
475.939	1081.12
476.158	1066.12
476.377	1228.12
476.596	1423.12
476.814	1447.12
477.033	1235.12
477.252	1031.12
477.471	977.12
477.69	992.12
477.908	1060.12
478.127	1144.12
478.346	1029.12
478.564	1122.12
478.783	1111.12
479.002	1085.12
479.22	1275.12
479.439	1390.12
479.658	1213.12
479.876	1117.12
480.095	1221.12
480.313	1202.12
480.532	1104.12
480.751	1085.12
480.969	1107.12
481.188	1261.12
481.406	1295.12
481.624	1210.12
481.843	1117.12
482.061	1077.12
482.28	1184.12
482.498	1408.12
482.717	1339.12
482.935	1191.12
483.153	1133.12
483.372	1053.12
483.59	1033.12
483.808	1031.12
484.027	1010.12
484.245	987.12
484.463	966.12
484.681	1009.12
484.9	1102.12
485.118	1173.12
485.336	1089.12
485.554	1065.12
485.772	1055.12
485.99	1127.12
486.209	1184.12
486.427	1181.12
486.645	1205.12
486.863	1233.12
487.081	1211.12
487.299	1328.12
487.517	1320.12
487.735	1201.12
487.953	1229.12
488.171	1221.12
488.389	1177.12
488.607	1113.12
488.825	1121.12
489.043	1236.12
489.261	1417.12
489.479	1481.12
489.696	1265.12
489.914	1159.12
490.132	1135.12
490.35	1115.12
490.568	1122.12
490.786	1099.12
491.003	1115.12
491.221	1173.12
491.439	1141.12
491.657	1126.12
491.874	1202.12
492.092	1461.12
492.31	1671.12
492.527	1675.12
492.745	1499.12
492.963	1277.12
493.18	1274.12
493.398	1290.12
493.615	1258.12
493.833	1221.12
494.05	1215.12
494.268	1240.12
494.485	1198.12
494.703	1219.12
494.92	1204.12
495.138	1188.12
495.355	1184.12
495.573	1246.12
495.79	1351.12
496.008	1724.12
496.225	1504.12
496.442	1346.12
496.66	1347.12
496.877	1400.12
497.094	1365.12
497.312	1287.12
497.529	1272.12
497.746	1343.12
497.963	1377.12
498.181	1497.12
498.398	1583.12
498.615	1625.12
498.832	1688.12
499.049	1688.12
499.267	1534.12
499.484	1533.12
499.701	1606.12
499.918	1720.12
500.135	1842.12
500.352	1920.12
500.569	1975.12
500.786	2034.12
501.003	2005.12
501.22	1790.12
501.437	1703.12
501.654	1653.12
501.871	1615.12
502.088	1647.12
502.305	1466.12
502.522	1476.12
502.739	1485.12
502.956	1358.12
503.172	1365.12
503.389	1317.12
503.606	1255.12
503.823	1256.12
504.04	1315.12
504.256	1320.12
504.473	1323.12
504.69	1369.12
504.907	1397.12
505.123	1329.12
505.34	1386.12
505.557	1413.12
505.773	1321.12
505.99	1270.12
506.207	1320.12
506.423	1257.12
506.64	1183.12
506.856	1248.12
507.073	1356.12
507.289	1305.12
507.506	1352.12
507.722	1423.12
507.939	1386.12
508.155	1413.12
508.372	1265.12
508.588	1279.12
508.805	1203.12
509.021	1207.12
509.238	1169.12
509.454	1149.12
509.67	1151.12
509.887	1190.12
510.103	1325.12
510.319	1303.12
510.536	1149.12
510.752	1090.12
510.968	1053.12
511.184	1015.12
511.401	1037.12
511.617	1027.12
511.833	1040.12
512.049	1070.12
512.265	1075.12
512.481	1136.12
512.698	1211.12
512.914	1315.12
513.13	1229.12
513.346	1163.12
513.562	1170.12
513.778	1136.12
513.994	1121.12
514.21	1188.12
514.426	1174.12
514.642	1138.12
514.858	1123.12
515.074	1158.12
515.29	1257.12
515.506	1394.12
515.721	1353.12
515.937	1205.12
516.153	1185.12
516.369	1140.12
516.585	1213.12
516.801	1359.12
517.016	1549.12
517.232	1517.12
517.448	1462.12
517.664	1366.12
517.879	1257.12
518.095	1252.12
518.311	1237.12
518.527	1312.12
518.742	1360.12
518.958	1447.12
519.173	1405.12
519.389	1331.12
519.605	1358.12
519.82	1465.12
520.036	1697.12
520.251	1683.12
520.467	1543.12
520.682	2251.12
520.898	2762.12
521.113	2625.12
521.329	1667.12
521.544	1505.12
521.76	1485.12
521.975	1343.12
522.19	1272.12
522.406	1305.12
522.621	1409.12
522.836	1500.12
523.052	1489.12
523.267	1234.12
523.482	1255.12
523.698	1339.12
523.913	1338.12
524.128	1208.12
524.343	1135.12
524.559	1145.12
524.774	1116.12
524.989	1119.12
525.204	1152.12
525.419	1301.12
525.634	1197.12
525.849	1238.12
526.064	1240.12
526.28	1230.12
526.495	1456.12
526.71	1474.12
526.925	1315.12
527.14	1345.12
527.355	1305.12
527.57	1130.12
527.785	1171.12
527.999	1111.12
528.214	1073.12
528.429	1032.12
528.644	1047.12
528.859	997.12
529.074	987.12
529.289	969.12
529.503	1007.12
529.718	1000.12
529.933	1181.12
530.148	1191.12
530.363	1041.12
530.577	991.12
530.792	967.12
531.007	968.12
531.221	960.12
531.436	979.12
531.651	955.12
531.865	990.12
532.08	1001.12
532.295	989.12
532.509	997.12
532.724	1130.12
532.938	1289.12
533.153	1464.12
533.367	1225.12
533.582	1139.12
533.796	1060.12
534.011	1053.12
534.225	1032.12
534.44	1038.12
534.654	1083.12
534.868	1215.12
535.083	1114.12
535.297	1003.12
535.511	982.12
535.726	1119.12
535.94	1045.12
536.154	985.12
536.369	1003.12
536.583	999.12
536.797	997.12
537.011	1034.12
537.225	1069.12
537.44	1153.12
537.654	1008.12
537.868	1010.12
538.082	1005.12
538.296	991.12
538.51	1058.12
538.724	1071.12
538.938	1045.12
539.153	966.12
539.367	993.12
539.581	983.12
539.795	1032.12
540.009	1126.12
540.222	1051.12
540.436	1047.12
540.65	1121.12
540.864	1117.12
541.078	1156.12
541.292	1335.12
541.506	1047.12
541.72	1058.12
541.934	1002.12
542.147	1021.12
542.361	1018.12
542.575	1033.12
542.789	1024.12
543.002	969.12
543.216	1037.12
543.43	937.12
543.644	921.12
543.857	890.12
544.071	933.12
544.285	922.12
544.498	899.12
544.712	894.12
544.925	986.12
545.139	957.12
545.352	874.12
545.566	903.12
545.779	1055.12
545.993	971.12
546.206	869.12
546.42	872.12
546.633	854.12
546.847	857.12
547.06	848.12
547.274	879.12
547.487	850.12
547.7	937.12
547.914	981.12
548.127	1104.12
548.34	1062.12
548.554	961.12
548.767	976.12
548.98	1049.12
549.193	967.12
549.407	994.12
549.62	1172.12
549.833	1113.12
550.046	1145.12
550.259	1158.12
550.473	1009.12
550.686	976.12
550.899	986.12
551.112	965.12
551.325	1039.12
551.538	1068.12
551.751	933.12
551.964	891.12
552.177	894.12
552.39	877.12
552.603	869.12
552.816	901.12
553.029	862.12
553.242	877.12
553.455	923.12
553.667	998.12
553.88	972.12
554.093	871.12
554.306	857.12
554.519	809.12
554.732	769.12
554.944	778.12
555.157	757.12
555.37	760.12
555.583	791.12
555.795	783.12
556.008	774.12
556.221	790.12
556.433	784.12
556.646	797.12
556.859	786.12
557.071	826.12
557.284	819.12
557.496	821.12
557.709	807.12
557.921	795.12
558.134	754.12
558.346	751.12
558.559	737.12
558.771	769.12
558.984	819.12
559.196	768.12
559.409	721.12
559.621	706.12
559.833	710.12
560.046	712.12
560.258	703.12
560.47	728.12
560.683	710.12
560.895	685.12
561.107	656.12
561.32	684.12
561.532	701.12
561.744	759.12
561.956	754.12
562.168	725.12
562.381	685.12
562.593	719.12
562.805	724.12
563.017	705.12
563.229	677.12
563.441	678.12
563.653	694.12
563.865	692.12
564.077	695.12
564.289	670.12
564.501	699.12
564.713	753.12
564.925	705.12
565.137	702.12
565.349	663.12
565.561	690.12
565.773	724.12
565.985	730.12
566.197	791.12
566.408	821.12
566.62	849.12
566.832	824.12
567.044	863.12
567.255	901.12
567.467	941.12
567.679	879.12
567.891	879.12
568.102	886.12
568.314	900.12
568.526	828.12
568.737	833.12
568.949	872.12
569.161	762.12
569.372	697.12
569.584	683.12
569.795	657.12
570.007	673.12
570.218	763.12
570.43	728.12
570.641	711.12
570.853	677.12
571.064	640.12
571.276	703.12
571.487	713.12
571.698	667.12
571.91	659.12
572.121	670.12
572.333	590.12
572.544	620.12
572.755	637.12
572.966	600.12
573.178	593.12
573.389	653.12
573.6	633.12
573.811	649.12
574.023	588.12
574.234	592.12
574.445	570.12
574.656	577.12
574.867	614.12
575.078	605.12
575.289	576.12
575.501	626.12
575.712	592.12
575.923	553.12
576.134	547.12
576.345	571.12
576.556	544.12
576.767	535.12
576.978	508.12
577.188	529.12
577.399	543.12
577.61	515.12
577.821	523.12
578.032	537.12
578.243	558.12
578.454	582.12
578.665	576.12
578.875	557.12
579.086	522.12
579.297	557.12
579.508	581.12
579.718	539.12
579.929	528.12
580.14	536.12
580.35	509.12
580.561	473.12
580.772	479.12
580.982	480.12
581.193	483.12
581.403	454.12
581.614	479.12
581.825	461.12
582.035	468.12
582.246	454.12
582.456	458.12
582.667	477.12
582.877	432.12
583.087	451.12
583.298	461.12
583.508	473.12
583.719	450.12
583.929	446.12
584.139	448.12
584.35	462.12
584.56	463.12
584.77	449.12
584.981	485.12
585.191	464.12
585.401	452.12
585.611	479.12
585.821	515.12
586.032	495.12
586.242	473.12
586.452	477.12
586.662	457.12
586.872	487.12
587.082	484.12
587.292	463.12
587.502	451.12
587.713	456.12
587.923	467.12
588.133	506.12
588.343	486.12
588.553	466.12
588.762	461.12
588.972	441.12
589.182	439.12
589.392	466.12
589.602	450.12
589.812	472.12
590.022	517.12
590.232	509.12
590.441	475.12
590.651	451.12
590.861	454.12
591.071	460.12
591.281	462.12
591.49	449.12
591.7	438.12
591.91	451.12
592.119	459.12
592.329	462.12
592.539	454.12
592.748	498.12
592.958	455.12
593.167	468.12
593.377	468.12
593.587	506.12
593.796	487.12
594.006	453.12
594.215	500.12
594.424	481.12
594.634	494.12
594.843	477.12
595.053	487.12
595.262	450.12
595.472	445.12
595.681	437.12
595.89	431.12
596.1	438.12
596.309	444.12
596.518	437.12
596.727	420.12
596.937	405.12
597.146	434.12
597.355	484.12
597.564	447.12
597.774	407.12
597.983	393.12
598.192	383.12
598.401	397.12
598.61	402.12
598.819	393.12
599.028	394.12
599.237	417.12
599.446	367.12
599.655	374.12
599.864	380.12
600.073	358.12
600.282	389.12
600.491	385.12
600.7	376.12
600.909	387.12
601.118	383.12
601.327	388.12
601.536	359.12
601.745	382.12
601.953	401.12
602.162	384.12
602.371	419.12
602.58	411.12
602.789	385.12
602.997	353.12
603.206	374.12
603.415	374.12
603.623	357.12
603.832	358.12
604.041	368.12
604.249	362.12
604.458	396.12
604.666	359.12
604.875	361.12
605.084	337.12
605.292	345.12
605.501	370.12
605.709	353.12
605.918	350.12
606.126	357.12
606.334	350.12
606.543	359.12
606.751	379.12
606.96	352.12
607.168	347.12
607.376	349.12
607.585	345.12
607.793	368.12
608.001	354.12
608.21	331.12
608.418	359.12
608.626	358.12
608.834	355.12
609.043	348.12
609.251	347.12
609.459	358.12
609.667	334.12
609.875	344.12
610.083	328.12
610.291	360.12
610.499	374.12
610.707	324.12
610.916	321.12
611.124	330.12
611.332	323.12
611.54	338.12
611.748	329.12
611.955	322.12
612.163	331.12
612.371	341.12
612.579	330.12
612.787	346.12
612.995	323.12
613.203	336.12
613.411	342.12
613.618	319.12
613.826	337.12
614.034	343.12
614.242	334.12
614.449	310.12
614.657	312.12
614.865	306.12
615.072	337.12
615.28	317.12
615.488	321.12
615.695	313.12
615.903	330.12
616.111	337.12
616.318	307.12
616.526	319.12
616.733	322.12
616.941	324.12
617.148	329.12
617.356	341.12
617.563	306.12
617.771	308.12
617.978	323.12
618.185	317.12
618.393	326.12
618.6	314.12
618.807	323.12
619.015	317.12
619.222	322.12
619.429	342.12
619.637	305.12
619.844	303.12
620.051	286.12
620.258	287.12
620.466	305.12
620.673	296.12
620.88	287.12
621.087	287.12
621.294	292.12
621.501	274.12
621.708	291.12
621.915	299.12
622.122	297.12
622.329	282.12
622.536	302.12
622.743	292.12
622.95	298.12
623.157	301.12
623.364	299.12
623.571	304.12
623.778	294.12
623.985	304.12
624.192	310.12
624.399	305.12
624.606	294.12
624.812	308.12
625.019	305.12
625.226	330.12
625.433	302.12
625.639	283.12
625.846	272.12
626.053	273.12
626.259	276.12
626.466	289.12
626.673	312.12
626.879	282.12
627.086	267.12
627.293	267.12
627.499	274.12
627.706	280.12
627.912	285.12
628.119	285.12
628.325	267.12
628.532	258.12
628.738	258.12
628.945	246.12
629.151	273.12
629.357	276.12
629.564	266.12
629.77	265.12
629.976	255.12
630.183	262.12
630.389	267.12
630.595	265.12
630.802	256.12
631.008	263.12
631.214	248.12
631.42	264.12
631.627	266.12
631.833	250.12
632.039	250.12
632.245	260.12
632.451	242.12
632.657	243.12
632.863	244.12
633.069	263.12
633.275	243.12
633.481	236.12
633.688	239.12
633.893	267.12
634.099	254.12
634.305	247.12
634.511	235.12
634.717	237.12
634.923	223.12
635.129	251.12
635.335	233.12
635.541	237.12
635.747	251.12
635.952	242.12
636.158	234.12
636.364	241.12
636.57	225.12
636.775	238.12
636.981	236.12
637.187	220.12
637.392	232.12
637.598	230.12
637.804	220.12
638.009	238.12
638.215	247.12
638.421	242.12
638.626	228.12
638.832	227.12
639.037	216.12
639.243	238.12
639.448	221.12
639.654	231.12
639.859	232.12
640.065	212.12
640.27	238.12
640.475	218.12
640.681	216.12
640.886	218.12
641.091	214.12
641.297	227.12
641.502	218.12
641.707	214.12
641.913	217.12
642.118	228.12
642.323	208.12
642.528	218.12
642.733	216.12
642.939	241.12
643.144	213.12
643.349	222.12
643.554	216.12
643.759	203.12
643.964	214.12
644.169	219.12
644.374	209.12
644.579	221.12
644.784	226.12
644.989	218.12
645.194	207.12
645.399	224.12
645.604	201.12
645.809	204.12
646.014	210.12
646.219	211.12
646.423	218.12
646.628	211.12
646.833	199.12
647.038	205.12
647.243	207.12
647.447	216.12
647.652	218.12
647.857	220.12
648.062	214.12
648.266	208.12
648.471	213.12
648.676	223.12
648.88	232.12
649.085	216.12
649.289	203.12
649.494	209.12
649.698	221.12
649.903	210.12
650.107	217.12
650.312	185.12
650.516	177.12
650.721	183.12
650.925	200.12
651.13	189.12
651.334	180.12
651.539	199.12
651.743	185.12
651.947	174.12
652.152	175.12
652.356	182.12
652.56	161.12
652.764	181.12
652.969	202.12
653.173	170.12
653.377	180.12
653.581	164.12
653.785	167.12
653.99	162.12
654.194	169.12
654.398	157.12
654.602	155.12
654.806	158.12
655.01	159.12
655.214	152.12
655.418	169.12
655.622	165.12
655.826	168.12
656.03	160.12
656.234	153.12
656.438	150.12
656.642	156.12
656.846	150.12
657.049	168.12
657.253	152.12
657.457	136.12
657.661	153.12
657.865	137.12
658.068	115.12
658.272	113.12
658.476	119.12
658.68	115.12
658.883	127.12
659.087	118.12
659.291	110.12
659.494	112.12
659.698	117.12
659.901	113.12
660.105	92.12
660.309	120.12
660.512	90.12
660.716	97.12
660.919	88.12
661.123	108.12
661.326	98.12
661.53	106.12
661.733	114.12
661.936	106.12
662.14	85.12
662.343	96.12
662.546	82.12
662.75	89.12
662.953	78.12
663.156	75.12
663.36	80.12
663.563	84.12
663.766	91.12
663.969	87.12
664.173	81.12
664.376	81.12
664.579	81.12
664.782	69.12
664.985	78.12
665.188	80.12
665.391	84.12
665.594	63.12
665.797	81.12
666	89.12
666.203	90.12
666.406	92.12
666.609	79.12
666.812	79.12
667.015	93.12
667.218	76.12
667.421	72.12
667.624	93.12
667.827	93.12
668.03	90.12
668.232	97.12
668.435	88.12
668.638	83.12
668.841	73.12
669.043	85.12
669.246	80.12
669.449	85.12
669.651	93.12
669.854	90.12
670.057	83.12
670.259	69.12
670.462	66.12
670.665	73.12
670.867	99.12
671.07	92.12
671.272	90.12
671.475	90.12
671.677	89.12
671.88	88.12
672.082	81.12
672.284	85.12
672.487	78.12
672.689	86.12
672.892	74.12
