Data from NickelSpatula.Lamp.E5.5.P2_HRD10591_11-52-01-557.txt Node
Date: Tue Jul 23 11:52:01 EDT 2019
User: cochatt
Spectrometer: HR+D1059
Trigger mode: 1
Integration Time (sec): 1.000000E-1
Scans to average: 1
Electric dark correction enabled: true
Nonlinearity correction enabled: false
Boxcar width: 0
XAxis mode: Wavelengths
Number of Pixels in Spectrum: 2048
>>>>>Begin Spectral Data<<<<<
223.165	-1.25
223.4	-1.25
223.635	-1.25
223.869	-18.25
224.104	-15.25
224.338	-11.25
224.573	-15.25
224.808	-23.25
225.042	-6.25
225.277	-8.25
225.511	-4.25
225.746	-2.25
225.98	7.75
226.215	8.75
226.449	17.75
226.683	16.75
226.918	25.75
227.152	28.75
227.387	32.75
227.621	35.75
227.856	31.75
228.09	52.75
228.324	50.75
228.559	59.75
228.793	54.75
229.027	94.75
229.262	74.75
229.496	83.75
229.73	87.75
229.964	83.75
230.199	99.75
230.433	86.75
230.667	90.75
230.901	102.75
231.136	96.75
231.37	99.75
231.604	103.75
231.838	105.75
232.072	118.75
232.306	120.75
232.541	108.75
232.775	113.75
233.009	114.75
233.243	121.75
233.477	121.75
233.711	123.75
233.945	128.75
234.179	137.75
234.413	137.75
234.647	129.75
234.881	137.75
235.115	130.75
235.349	123.75
235.583	116.75
235.817	124.75
236.051	115.75
236.285	127.75
236.519	145.75
236.753	120.75
236.987	121.75
237.221	124.75
237.455	131.75
237.689	134.75
237.922	137.75
238.156	150.75
238.39	152.75
238.624	182.75
238.858	148.75
239.091	140.75
239.325	143.75
239.559	137.75
239.793	151.75
240.027	184.75
240.26	174.75
240.494	162.75
240.728	157.75
240.961	195.75
241.195	173.75
241.429	195.75
241.662	163.75
241.896	160.75
242.13	140.75
242.363	132.75
242.597	142.75
242.83	157.75
243.064	160.75
243.298	161.75
243.531	181.75
243.765	168.75
243.998	174.75
244.232	187.75
244.465	181.75
244.699	155.75
244.932	173.75
245.166	172.75
245.399	162.75
245.633	155.75
245.866	168.75
246.099	162.75
246.333	197.75
246.566	190.75
246.8	198.75
247.033	197.75
247.266	172.75
247.5	164.75
247.733	178.75
247.966	160.75
248.2	178.75
248.433	199.75
248.666	196.75
248.899	200.75
249.133	210.75
249.366	238.75
249.599	223.75
249.832	225.75
250.066	205.75
250.299	206.75
250.532	192.75
250.765	202.75
250.998	180.75
251.231	177.75
251.465	196.75
251.698	196.75
251.931	208.75
252.164	190.75
252.397	240.75
252.63	239.75
252.863	261.75
253.096	291.75
253.329	271.75
253.562	261.75
253.795	299.75
254.028	307.75
254.261	316.75
254.494	273.75
254.727	259.75
254.96	260.75
255.193	270.75
255.426	266.75
255.659	224.75
255.892	203.75
256.124	220.75
256.357	243.75
256.59	284.75
256.823	281.75
257.056	230.75
257.289	220.75
257.521	249.75
257.754	280.75
257.987	320.75
258.22	281.75
258.452	250.75
258.685	260.75
258.918	296.75
259.151	289.75
259.383	294.75
259.616	346.75
259.849	353.75
260.081	376.75
260.314	423.75
260.547	338.75
260.779	342.75
261.012	394.75
261.244	369.75
261.477	383.75
261.71	330.75
261.942	310.75
262.175	294.75
262.407	296.75
262.64	300.75
262.872	336.75
263.105	366.75
263.337	376.75
263.57	349.75
263.802	256.75
264.035	219.75
264.267	223.75
264.499	198.75
264.732	195.75
264.964	182.75
265.197	191.75
265.429	191.75
265.661	217.75
265.894	228.75
266.126	228.75
266.358	233.75
266.591	290.75
266.823	330.75
267.055	334.75
267.287	281.75
267.52	288.75
267.752	317.75
267.984	324.75
268.216	325.75
268.448	274.75
268.681	262.75
268.913	293.75
269.145	301.75
269.377	311.75
269.609	309.75
269.841	279.75
270.073	300.75
270.306	307.75
270.538	316.75
270.77	319.75
271.002	335.75
271.234	344.75
271.466	343.75
271.698	334.75
271.93	317.75
272.162	302.75
272.394	294.75
272.626	320.75
272.858	292.75
273.09	352.75
273.322	273.75
273.553	277.75
273.785	316.75
274.017	405.75
274.249	465.75
274.481	498.75
274.713	553.75
274.945	623.75
275.176	656.75
275.408	588.75
275.64	560.75
275.872	540.75
276.104	479.75
276.335	419.75
276.567	402.75
276.799	422.75
277.031	450.75
277.262	364.75
277.494	280.75
277.726	267.75
277.957	294.75
278.189	324.75
278.421	320.75
278.652	325.75
278.884	304.75
279.115	298.75
279.347	278.75
279.579	289.75
279.81	302.75
280.042	294.75
280.273	291.75
280.505	280.75
280.736	230.75
280.968	251.75
281.199	261.75
281.431	304.75
281.662	288.75
281.894	265.75
282.125	293.75
282.356	322.75
282.588	304.75
282.819	271.75
283.051	286.75
283.282	361.75
283.513	436.75
283.745	471.75
283.976	489.75
284.207	429.75
284.439	430.75
284.67	418.75
284.901	388.75
285.132	430.75
285.364	431.75
285.595	392.75
285.826	411.75
286.057	428.75
286.288	432.75
286.52	442.75
286.751	452.75
286.982	449.75
287.213	386.75
287.444	390.75
287.675	401.75
287.906	390.75
288.138	347.75
288.369	315.75
288.6	305.75
288.831	308.75
289.062	364.75
289.293	374.75
289.524	358.75
289.755	348.75
289.986	371.75
290.217	322.75
290.448	266.75
290.679	243.75
290.91	220.75
291.141	232.75
291.371	239.75
291.602	236.75
291.833	237.75
292.064	248.75
292.295	276.75
292.526	302.75
292.757	317.75
292.987	328.75
293.218	347.75
293.449	355.75
293.68	393.75
293.91	366.75
294.141	382.75
294.372	359.75
294.603	324.75
294.833	367.75
295.064	421.75
295.295	423.75
295.525	309.75
295.756	269.75
295.987	243.75
296.217	222.75
296.448	241.75
296.679	253.75
296.909	276.75
297.14	303.75
297.37	301.75
297.601	310.75
297.831	293.75
298.062	291.75
298.292	308.75
298.523	322.75
298.753	366.75
298.984	340.75
299.214	287.75
299.445	260.75
299.675	248.75
299.905	252.75
300.136	232.75
300.366	270.75
300.597	241.75
300.827	239.75
301.057	224.75
301.288	241.75
301.518	263.75
301.748	277.75
301.979	301.75
302.209	308.75
302.439	325.75
302.669	295.75
302.9	295.75
303.13	274.75
303.36	260.75
303.59	260.75
303.82	272.75
304.051	297.75
304.281	320.75
304.511	302.75
304.741	266.75
304.971	258.75
305.201	289.75
305.431	269.75
305.661	241.75
305.891	230.75
306.121	257.75
306.352	237.75
306.582	220.75
306.812	221.75
307.042	197.75
307.272	204.75
307.502	206.75
307.731	209.75
307.961	215.75
308.191	202.75
308.421	191.75
308.651	198.75
308.881	192.75
309.111	198.75
309.341	197.75
309.571	208.75
309.8	216.75
310.03	189.75
310.26	220.75
310.49	216.75
310.72	206.75
310.949	213.75
311.179	212.75
311.409	202.75
311.639	237.75
311.868	297.75
312.098	374.75
312.328	415.75
312.557	407.75
312.787	408.75
313.017	354.75
313.246	376.75
313.476	410.75
313.706	331.75
313.935	290.75
314.165	245.75
314.394	228.75
314.624	213.75
314.853	244.75
315.083	233.75
315.312	231.75
315.542	242.75
315.771	229.75
316.001	198.75
316.23	215.75
316.46	202.75
316.689	201.75
316.919	216.75
317.148	225.75
317.377	213.75
317.607	201.75
317.836	218.75
318.065	245.75
318.295	261.75
318.524	267.75
318.753	232.75
318.983	223.75
319.212	219.75
319.441	228.75
319.67	253.75
319.9	254.75
320.129	255.75
320.358	197.75
320.587	231.75
320.816	224.75
321.046	249.75
321.275	272.75
321.504	271.75
321.733	260.75
321.962	257.75
322.191	250.75
322.42	224.75
322.649	250.75
322.878	242.75
323.108	259.75
323.337	246.75
323.566	227.75
323.795	235.75
324.024	244.75
324.253	234.75
324.482	219.75
324.71	247.75
324.939	264.75
325.168	243.75
325.397	213.75
325.626	215.75
325.855	228.75
326.084	236.75
326.313	211.75
326.542	216.75
326.77	220.75
326.999	217.75
327.228	235.75
327.457	233.75
327.686	233.75
327.914	225.75
328.143	209.75
328.372	209.75
328.6	197.75
328.829	213.75
329.058	216.75
329.287	214.75
329.515	225.75
329.744	218.75
329.972	216.75
330.201	201.75
330.43	215.75
330.658	210.75
330.887	229.75
331.115	247.75
331.344	224.75
331.572	229.75
331.801	193.75
332.03	212.75
332.258	206.75
332.486	230.75
332.715	232.75
332.943	225.75
333.172	228.75
333.4	217.75
333.629	261.75
333.857	260.75
334.085	262.75
334.314	264.75
334.542	263.75
334.771	247.75
334.999	233.75
335.227	236.75
335.455	242.75
335.684	231.75
335.912	260.75
336.14	305.75
336.369	297.75
336.597	288.75
336.825	293.75
337.053	322.75
337.281	280.75
337.51	239.75
337.738	224.75
337.966	252.75
338.194	274.75
338.422	268.75
338.65	219.75
338.878	222.75
339.106	210.75
339.334	246.75
339.562	246.75
339.79	221.75
340.018	217.75
340.246	227.75
340.474	292.75
340.702	281.75
340.93	260.75
341.158	284.75
341.386	223.75
341.614	243.75
341.842	225.75
342.07	259.75
342.298	280.75
342.526	313.75
342.754	263.75
342.981	260.75
343.209	252.75
343.437	249.75
343.665	261.75
343.893	269.75
344.12	323.75
344.348	359.75
344.576	318.75
344.804	262.75
345.031	213.75
345.259	225.75
345.487	229.75
345.714	240.75
345.942	260.75
346.17	262.75
346.397	286.75
346.625	249.75
346.853	236.75
347.08	222.75
347.308	242.75
347.535	276.75
347.763	285.75
347.99	246.75
348.218	210.75
348.445	232.75
348.673	242.75
348.9	222.75
349.128	255.75
349.355	246.75
349.583	231.75
349.81	231.75
350.037	223.75
350.265	217.75
350.492	190.75
350.72	191.75
350.947	195.75
351.174	204.75
351.402	221.75
351.629	223.75
351.856	212.75
352.083	212.75
352.311	222.75
352.538	256.75
352.765	250.75
352.992	233.75
353.22	238.75
353.447	217.75
353.674	212.75
353.901	207.75
354.128	203.75
354.355	212.75
354.583	217.75
354.81	247.75
355.037	252.75
355.264	230.75
355.491	241.75
355.718	237.75
355.945	252.75
356.172	249.75
356.399	236.75
356.626	282.75
356.853	330.75
357.08	354.75
357.307	351.75
357.534	294.75
357.761	311.75
357.988	364.75
358.215	430.75
358.441	384.75
358.668	338.75
358.895	310.75
359.122	263.75
359.349	278.75
359.576	289.75
359.802	248.75
360.029	219.75
360.256	231.75
360.483	286.75
360.709	313.75
360.936	336.75
361.163	317.75
361.39	261.75
361.616	247.75
361.843	258.75
362.07	316.75
362.296	274.75
362.523	227.75
362.749	216.75
362.976	217.75
363.203	278.75
363.429	280.75
363.656	233.75
363.882	217.75
364.109	231.75
364.335	228.75
364.562	210.75
364.788	236.75
365.015	276.75
365.241	259.75
365.468	237.75
365.694	191.75
365.92	196.75
366.147	187.75
366.373	185.75
366.599	203.75
366.826	203.75
367.052	197.75
367.278	207.75
367.505	204.75
367.731	216.75
367.957	225.75
368.184	229.75
368.41	232.75
368.636	231.75
368.862	252.75
369.089	234.75
369.315	216.75
369.541	216.75
369.767	199.75
369.993	198.75
370.219	197.75
370.445	221.75
370.672	238.75
370.898	255.75
371.124	229.75
371.35	230.75
371.576	216.75
371.802	228.75
372.028	278.75
372.254	305.75
372.48	282.75
372.706	239.75
372.932	254.75
373.158	270.75
373.384	296.75
373.61	371.75
373.835	372.75
374.061	293.75
374.287	261.75
374.513	300.75
374.739	362.75
374.965	364.75
375.191	363.75
375.416	263.75
375.642	258.75
375.868	264.75
376.094	296.75
376.319	274.75
376.545	293.75
376.771	284.75
376.997	270.75
377.222	207.75
377.448	194.75
377.674	203.75
377.899	192.75
378.125	202.75
378.35	192.75
378.576	191.75
378.802	209.75
379.027	226.75
379.253	208.75
379.478	220.75
379.704	261.75
379.929	279.75
380.155	259.75
380.38	227.75
380.606	232.75
380.831	252.75
381.057	223.75
381.282	225.75
381.507	244.75
381.733	298.75
381.958	328.75
382.184	326.75
382.409	361.75
382.634	348.75
382.86	352.75
383.085	317.75
383.31	256.75
383.535	288.75
383.761	275.75
383.986	263.75
384.211	308.75
384.436	299.75
384.662	258.75
384.887	240.75
385.112	259.75
385.337	262.75
385.562	255.75
385.787	277.75
386.013	291.75
386.238	288.75
386.463	268.75
386.688	245.75
386.913	225.75
387.138	213.75
387.363	217.75
387.588	242.75
387.813	250.75
388.038	280.75
388.263	235.75
388.488	237.75
388.713	265.75
388.938	270.75
389.163	231.75
389.387	213.75
389.612	232.75
389.837	223.75
390.062	231.75
390.287	256.75
390.512	236.75
390.736	224.75
390.961	220.75
391.186	230.75
391.411	211.75
391.636	202.75
391.86	222.75
392.085	248.75
392.31	241.75
392.534	241.75
392.759	226.75
392.984	248.75
393.208	242.75
393.433	232.75
393.658	215.75
393.882	220.75
394.107	199.75
394.331	202.75
394.556	195.75
394.78	208.75
395.005	221.75
395.229	216.75
395.454	209.75
395.678	216.75
395.903	213.75
396.127	217.75
396.352	214.75
396.576	231.75
396.801	224.75
397.025	243.75
397.249	266.75
397.474	221.75
397.698	227.75
397.922	248.75
398.147	213.75
398.371	224.75
398.595	241.75
398.82	258.75
399.044	244.75
399.268	256.75
399.492	292.75
399.717	264.75
399.941	284.75
400.165	293.75
400.389	254.75
400.613	253.75
400.837	256.75
401.062	240.75
401.286	217.75
401.51	228.75
401.734	231.75
401.958	232.75
402.182	240.75
402.406	229.75
402.63	224.75
402.854	239.75
403.078	285.75
403.302	359.75
403.526	390.75
403.75	330.75
403.974	279.75
404.198	275.75
404.422	316.75
404.645	339.75
404.869	358.75
405.093	291.75
405.317	267.75
405.541	271.75
405.765	274.75
405.988	260.75
406.212	276.75
406.436	325.75
406.66	320.75
406.883	278.75
407.107	266.75
407.331	307.75
407.555	312.75
407.778	266.75
408.002	278.75
408.226	274.75
408.449	267.75
408.673	265.75
408.896	260.75
409.12	239.75
409.344	242.75
409.567	248.75
409.791	253.75
410.014	235.75
410.238	247.75
410.461	227.75
410.685	246.75
410.908	253.75
411.132	235.75
411.355	238.75
411.578	242.75
411.802	238.75
412.025	239.75
412.249	237.75
412.472	262.75
412.695	255.75
412.919	258.75
413.142	238.75
413.365	266.75
413.589	253.75
413.812	237.75
414.035	262.75
414.258	212.75
414.482	232.75
414.705	256.75
414.928	236.75
415.151	231.75
415.374	237.75
415.597	217.75
415.821	236.75
416.044	244.75
416.267	254.75
416.49	226.75
416.713	226.75
416.936	226.75
417.159	231.75
417.382	223.75
417.605	228.75
417.828	243.75
418.051	238.75
418.274	257.75
418.497	249.75
418.72	258.75
418.943	258.75
419.166	246.75
419.389	253.75
419.611	260.75
419.834	240.75
420.057	268.75
420.28	255.75
420.503	233.75
420.726	236.75
420.948	228.75
421.171	221.75
421.394	237.75
421.617	248.75
421.839	222.75
422.062	233.75
422.285	232.75
422.507	224.75
422.73	238.75
422.953	238.75
423.175	227.75
423.398	255.75
423.621	272.75
423.843	256.75
424.066	225.75
424.288	252.75
424.511	248.75
424.733	227.75
424.956	240.75
425.178	264.75
425.401	306.75
425.623	357.75
425.846	282.75
426.068	241.75
426.291	270.75
426.513	248.75
426.735	226.75
426.958	248.75
427.18	276.75
427.402	343.75
427.625	362.75
427.847	294.75
428.069	236.75
428.292	228.75
428.514	220.75
428.736	210.75
428.958	276.75
429.181	321.75
429.403	260.75
429.625	242.75
429.847	231.75
430.069	234.75
430.292	239.75
430.514	222.75
430.736	233.75
430.958	272.75
431.18	264.75
431.402	216.75
431.624	217.75
431.846	213.75
432.068	226.75
432.29	223.75
432.512	244.75
432.734	276.75
432.956	261.75
433.178	229.75
433.4	220.75
433.622	212.75
433.844	225.75
434.066	260.75
434.287	243.75
434.509	222.75
434.731	242.75
434.953	232.75
435.175	266.75
435.397	288.75
435.618	226.75
435.84	237.75
436.062	208.75
436.284	219.75
436.505	213.75
436.727	223.75
436.949	229.75
437.17	219.75
437.392	233.75
437.614	230.75
437.835	207.75
438.057	209.75
438.278	241.75
438.5	324.75
438.721	328.75
438.943	227.75
439.165	214.75
439.386	206.75
439.608	211.75
439.829	201.75
440.05	207.75
440.272	213.75
440.493	245.75
440.715	290.75
440.936	251.75
441.158	243.75
441.379	223.75
441.6	248.75
441.822	262.75
442.043	231.75
442.264	244.75
442.486	247.75
442.707	249.75
442.928	236.75
443.149	216.75
443.371	225.75
443.592	233.75
443.813	249.75
444.034	244.75
444.255	240.75
444.476	274.75
444.698	269.75
444.919	265.75
445.14	339.75
445.361	307.75
445.582	246.75
445.803	250.75
446.024	258.75
446.245	258.75
446.466	243.75
446.687	216.75
446.908	240.75
447.129	217.75
447.35	220.75
447.571	225.75
447.792	208.75
448.013	208.75
448.234	202.75
448.455	233.75
448.675	190.75
448.896	199.75
449.117	213.75
449.338	216.75
449.559	216.75
449.779	232.75
450	216.75
450.221	222.75
450.442	223.75
450.662	238.75
450.883	222.75
451.104	216.75
451.324	219.75
451.545	231.75
451.766	233.75
451.986	212.75
452.207	211.75
452.428	221.75
452.648	220.75
452.869	220.75
453.089	211.75
453.31	227.75
453.53	205.75
453.751	216.75
453.971	204.75
454.192	218.75
454.412	206.75
454.633	196.75
454.853	188.75
455.073	196.75
455.294	202.75
455.514	198.75
455.734	211.75
455.955	212.75
456.175	208.75
456.395	196.75
456.616	188.75
456.836	210.75
457.056	191.75
457.276	191.75
457.497	204.75
457.717	214.75
457.937	185.75
458.157	204.75
458.377	207.75
458.598	191.75
458.818	209.75
459.038	209.75
459.258	227.75
459.478	230.75
459.698	232.75
459.918	220.75
460.138	238.75
460.358	240.75
460.578	243.75
460.798	223.75
461.018	246.75
461.238	238.75
461.458	242.75
461.678	232.75
461.898	243.75
462.118	252.75
462.338	272.75
462.558	230.75
462.777	253.75
462.997	287.75
463.217	287.75
463.437	306.75
463.657	285.75
463.876	270.75
464.096	266.75
464.316	282.75
464.536	264.75
464.755	286.75
464.975	273.75
465.195	264.75
465.414	260.75
465.634	254.75
465.854	248.75
466.073	207.75
466.293	215.75
466.512	231.75
466.732	263.75
466.951	262.75
467.171	248.75
467.391	240.75
467.61	232.75
467.829	233.75
468.049	221.75
468.268	221.75
468.488	225.75
468.707	227.75
468.927	264.75
469.146	278.75
469.365	240.75
469.585	243.75
469.804	256.75
470.023	266.75
470.243	243.75
470.462	243.75
470.681	228.75
470.901	234.75
471.12	240.75
471.339	253.75
471.558	244.75
471.777	241.75
471.997	236.75
472.216	273.75
472.435	276.75
472.654	240.75
472.873	253.75
473.092	253.75
473.311	238.75
473.53	264.75
473.749	234.75
473.968	236.75
474.187	246.75
474.406	246.75
474.625	223.75
474.844	246.75
475.063	252.75
475.282	242.75
475.501	277.75
475.72	283.75
475.939	272.75
476.158	265.75
476.377	290.75
476.596	334.75
476.814	367.75
477.033	302.75
477.252	264.75
477.471	254.75
477.69	258.75
477.908	267.75
478.127	293.75
478.346	263.75
478.564	289.75
478.783	282.75
479.002	267.75
479.22	286.75
479.439	339.75
479.658	316.75
479.876	284.75
480.095	288.75
480.313	305.75
480.532	288.75
480.751	271.75
480.969	290.75
481.188	293.75
481.406	316.75
481.624	300.75
481.843	274.75
482.061	266.75
482.28	288.75
482.498	354.75
482.717	348.75
482.935	295.75
483.153	276.75
483.372	269.75
483.59	277.75
483.808	266.75
484.027	264.75
484.245	255.75
484.463	247.75
484.681	255.75
484.9	266.75
485.118	305.75
485.336	272.75
485.554	271.75
485.772	268.75
485.99	280.75
486.209	309.75
486.427	308.75
486.645	281.75
486.863	314.75
487.081	310.75
487.299	320.75
487.517	300.75
487.735	288.75
487.953	293.75
488.171	294.75
488.389	273.75
488.607	276.75
488.825	264.75
489.043	307.75
489.261	308.75
489.479	326.75
489.696	296.75
489.914	285.75
490.132	267.75
490.35	264.75
490.568	267.75
490.786	262.75
491.003	268.75
491.221	261.75
491.439	257.75
491.657	278.75
491.874	269.75
492.092	332.75
492.31	345.75
492.527	371.75
492.745	322.75
492.963	307.75
493.18	293.75
493.398	311.75
493.615	314.75
493.833	287.75
494.05	291.75
494.268	300.75
494.485	288.75
494.703	284.75
494.92	284.75
495.138	292.75
495.355	287.75
495.573	294.75
495.79	300.75
496.008	363.75
496.225	331.75
496.442	302.75
496.66	306.75
496.877	305.75
497.094	307.75
497.312	315.75
497.529	314.75
497.746	316.75
497.963	311.75
498.181	337.75
498.398	358.75
498.615	389.75
498.832	389.75
499.049	415.75
499.267	378.75
499.484	392.75
499.701	402.75
499.918	436.75
500.135	498.75
500.352	523.75
500.569	563.75
500.786	564.75
501.003	547.75
501.22	478.75
501.437	432.75
501.654	406.75
501.871	388.75
502.088	388.75
502.305	336.75
502.522	348.75
502.739	339.75
502.956	331.75
503.172	318.75
503.389	304.75
503.606	295.75
503.823	306.75
504.04	305.75
504.256	301.75
504.473	312.75
504.69	334.75
504.907	322.75
505.123	309.75
505.34	346.75
505.557	324.75
505.773	308.75
505.99	297.75
506.207	316.75
506.423	301.75
506.64	276.75
506.856	280.75
507.073	310.75
507.289	327.75
507.506	304.75
507.722	316.75
507.939	307.75
508.155	313.75
508.372	293.75
508.588	301.75
508.805	281.75
509.021	284.75
509.238	280.75
509.454	280.75
509.67	278.75
509.887	290.75
510.103	309.75
510.319	303.75
510.536	290.75
510.752	271.75
510.968	243.75
511.184	232.75
511.401	262.75
511.617	256.75
511.833	252.75
512.049	272.75
512.265	269.75
512.481	284.75
512.698	305.75
512.914	311.75
513.13	295.75
513.346	267.75
513.562	284.75
513.778	270.75
513.994	260.75
514.21	289.75
514.426	280.75
514.642	267.75
514.858	269.75
515.074	285.75
515.29	287.75
515.506	327.75
515.721	318.75
515.937	288.75
516.153	288.75
516.369	283.75
516.585	301.75
516.801	292.75
517.016	358.75
517.232	357.75
517.448	356.75
517.664	351.75
517.879	330.75
518.095	324.75
518.311	342.75
518.527	335.75
518.742	330.75
518.958	349.75
519.173	335.75
519.389	316.75
519.605	314.75
519.82	333.75
520.036	374.75
520.251	375.75
520.467	367.75
520.682	548.75
520.898	689.75
521.113	679.75
521.329	412.75
521.544	359.75
521.76	345.75
521.975	322.75
522.19	301.75
522.406	320.75
522.621	355.75
522.836	329.75
523.052	338.75
523.267	300.75
523.482	297.75
523.698	314.75
523.913	329.75
524.128	288.75
524.343	268.75
524.559	284.75
524.774	273.75
524.989	280.75
525.204	291.75
525.419	302.75
525.634	293.75
525.849	312.75
526.064	297.75
526.28	317.75
526.495	353.75
526.71	354.75
526.925	317.75
527.14	319.75
527.355	322.75
527.57	263.75
527.785	290.75
527.999	295.75
528.214	273.75
528.429	260.75
528.644	254.75
528.859	269.75
529.074	255.75
529.289	250.75
529.503	237.75
529.718	244.75
529.933	279.75
530.148	295.75
530.363	258.75
530.577	257.75
530.792	240.75
531.007	257.75
531.221	255.75
531.436	256.75
531.651	262.75
531.865	245.75
532.08	248.75
532.295	256.75
532.509	257.75
532.724	286.75
532.938	315.75
533.153	370.75
533.367	321.75
533.582	275.75
533.796	264.75
534.011	273.75
534.225	258.75
534.44	265.75
534.654	284.75
534.868	339.75
535.083	297.75
535.297	270.75
535.511	253.75
535.726	286.75
535.94	287.75
536.154	272.75
536.369	243.75
536.583	263.75
536.797	247.75
537.011	252.75
537.225	284.75
537.44	289.75
537.654	253.75
537.868	252.75
538.082	246.75
538.296	260.75
538.51	266.75
538.724	265.75
538.938	249.75
539.153	239.75
539.367	233.75
539.581	246.75
539.795	272.75
540.009	258.75
540.222	258.75
540.436	258.75
540.65	289.75
540.864	288.75
541.078	291.75
541.292	334.75
541.506	258.75
541.72	258.75
541.934	249.75
542.147	247.75
542.361	252.75
542.575	259.75
542.789	266.75
543.002	239.75
543.216	257.75
543.43	244.75
543.644	248.75
543.857	243.75
544.071	246.75
544.285	255.75
544.498	220.75
544.712	231.75
544.925	262.75
545.139	220.75
545.352	230.75
545.566	218.75
545.779	248.75
545.993	241.75
546.206	218.75
546.42	230.75
546.633	220.75
546.847	227.75
547.06	231.75
547.274	225.75
547.487	229.75
547.7	238.75
547.914	252.75
548.127	271.75
548.34	283.75
548.554	248.75
548.767	240.75
548.98	277.75
549.193	258.75
549.407	272.75
549.62	279.75
549.833	275.75
550.046	276.75
550.259	303.75
550.473	264.75
550.686	240.75
550.899	260.75
551.112	263.75
551.325	256.75
551.538	253.75
551.751	237.75
551.964	240.75
552.177	226.75
552.39	230.75
552.603	233.75
552.816	251.75
553.029	229.75
553.242	242.75
553.455	239.75
553.667	270.75
553.88	266.75
554.093	248.75
554.306	222.75
554.519	215.75
554.732	210.75
554.944	221.75
555.157	212.75
555.37	199.75
555.583	214.75
555.795	206.75
556.008	211.75
556.221	220.75
556.433	217.75
556.646	214.75
556.859	213.75
557.071	223.75
557.284	211.75
557.496	225.75
557.709	220.75
557.921	214.75
558.134	184.75
558.346	193.75
558.559	196.75
558.771	218.75
558.984	202.75
559.196	211.75
559.409	198.75
559.621	213.75
559.833	189.75
560.046	189.75
560.258	194.75
560.47	206.75
560.683	194.75
560.895	193.75
561.107	207.75
561.32	207.75
561.532	198.75
561.744	202.75
561.956	214.75
562.168	190.75
562.381	200.75
562.593	213.75
562.805	224.75
563.017	188.75
563.229	197.75
563.441	199.75
563.653	201.75
563.865	206.75
564.077	201.75
564.289	187.75
564.501	214.75
564.713	214.75
564.925	215.75
565.137	211.75
565.349	200.75
565.561	218.75
565.773	213.75
565.985	210.75
566.197	229.75
566.408	243.75
566.62	271.75
566.832	245.75
567.044	250.75
567.255	257.75
567.467	280.75
567.679	277.75
567.891	265.75
568.102	269.75
568.314	286.75
568.526	243.75
568.737	239.75
568.949	233.75
569.161	242.75
569.372	212.75
569.584	210.75
569.795	206.75
570.007	200.75
570.218	217.75
570.43	209.75
570.641	202.75
570.853	197.75
571.064	215.75
571.276	212.75
571.487	207.75
571.698	218.75
571.91	215.75
572.121	205.75
572.333	201.75
572.544	186.75
572.755	207.75
572.966	173.75
573.178	177.75
573.389	194.75
573.6	187.75
573.811	199.75
574.023	172.75
574.234	191.75
574.445	189.75
574.656	203.75
574.867	193.75
575.078	186.75
575.289	182.75
575.501	190.75
575.712	184.75
575.923	192.75
576.134	196.75
576.345	179.75
576.556	205.75
576.767	188.75
576.978	163.75
577.188	176.75
577.399	165.75
577.61	167.75
577.821	179.75
578.032	185.75
578.243	179.75
578.454	173.75
578.665	190.75
578.875	184.75
579.086	177.75
579.297	180.75
579.508	178.75
579.718	177.75
579.929	169.75
580.14	170.75
580.35	189.75
580.561	164.75
580.772	154.75
580.982	153.75
581.193	147.75
581.403	176.75
581.614	156.75
581.825	169.75
582.035	162.75
582.246	154.75
582.456	157.75
582.667	162.75
582.877	170.75
583.087	156.75
583.298	153.75
583.508	165.75
583.719	156.75
583.929	158.75
584.139	162.75
584.35	170.75
584.56	157.75
584.77	164.75
584.981	149.75
585.191	162.75
585.401	149.75
585.611	154.75
585.821	175.75
586.032	178.75
586.242	152.75
586.452	165.75
586.662	156.75
586.872	171.75
587.082	169.75
587.292	154.75
587.502	141.75
587.713	146.75
587.923	143.75
588.133	181.75
588.343	170.75
588.553	170.75
588.762	173.75
588.972	165.75
589.182	160.75
589.392	170.75
589.602	175.75
589.812	161.75
590.022	169.75
590.232	178.75
590.441	186.75
590.651	142.75
590.861	157.75
591.071	179.75
591.281	155.75
591.49	162.75
591.7	160.75
591.91	167.75
592.119	170.75
592.329	165.75
592.539	158.75
592.748	163.75
592.958	167.75
593.167	162.75
593.377	173.75
593.587	176.75
593.796	172.75
594.006	169.75
594.215	174.75
594.424	172.75
594.634	185.75
594.843	176.75
595.053	156.75
595.262	171.75
595.472	161.75
595.681	157.75
595.89	151.75
596.1	162.75
596.309	168.75
596.518	169.75
596.727	155.75
596.937	150.75
597.146	157.75
597.355	171.75
597.564	145.75
597.774	144.75
597.983	151.75
598.192	157.75
598.401	136.75
598.61	142.75
598.819	148.75
599.028	141.75
599.237	140.75
599.446	147.75
599.655	154.75
599.864	139.75
600.073	134.75
600.282	149.75
600.491	162.75
600.7	163.75
600.909	136.75
601.118	134.75
601.327	139.75
601.536	149.75
601.745	128.75
601.953	148.75
602.162	150.75
602.371	159.75
602.58	149.75
602.789	166.75
602.997	140.75
603.206	148.75
603.415	138.75
603.623	141.75
603.832	151.75
604.041	151.75
604.249	141.75
604.458	154.75
604.666	145.75
604.875	133.75
605.084	139.75
605.292	148.75
605.501	141.75
605.709	156.75
605.918	145.75
606.126	149.75
606.334	153.75
606.543	132.75
606.751	143.75
606.96	121.75
607.168	138.75
607.376	144.75
607.585	148.75
607.793	134.75
608.001	143.75
608.21	138.75
608.418	138.75
608.626	149.75
608.834	146.75
609.043	145.75
609.251	128.75
609.459	138.75
609.667	140.75
609.875	142.75
610.083	138.75
610.291	135.75
610.499	136.75
610.707	127.75
610.916	144.75
611.124	128.75
611.332	130.75
611.54	132.75
611.748	133.75
611.955	131.75
612.163	135.75
612.371	133.75
612.579	150.75
612.787	131.75
612.995	145.75
613.203	144.75
613.411	134.75
613.618	148.75
613.826	116.75
614.034	151.75
614.242	150.75
614.449	143.75
614.657	127.75
614.865	134.75
615.072	144.75
615.28	124.75
615.488	128.75
615.695	135.75
615.903	143.75
616.111	137.75
616.318	145.75
616.526	127.75
616.733	127.75
616.941	136.75
617.148	124.75
617.356	136.75
617.563	131.75
617.771	129.75
617.978	140.75
618.185	125.75
618.393	137.75
618.6	146.75
618.807	122.75
619.015	143.75
619.222	127.75
619.429	137.75
619.637	130.75
619.844	145.75
620.051	121.75
620.258	132.75
620.466	132.75
620.673	141.75
620.88	135.75
621.087	125.75
621.294	143.75
621.501	119.75
621.708	124.75
621.915	119.75
622.122	143.75
622.329	135.75
622.536	144.75
622.743	126.75
622.95	129.75
623.157	134.75
623.364	132.75
623.571	121.75
623.778	124.75
623.985	145.75
624.192	122.75
624.399	128.75
624.606	135.75
624.812	124.75
625.019	123.75
625.226	131.75
625.433	140.75
625.639	139.75
625.846	112.75
626.053	126.75
626.259	117.75
626.466	133.75
626.673	130.75
626.879	139.75
627.086	116.75
627.293	122.75
627.499	122.75
627.706	122.75
627.912	122.75
628.119	111.75
628.325	144.75
628.532	117.75
628.738	108.75
628.945	130.75
629.151	124.75
629.357	121.75
629.564	128.75
629.77	118.75
629.976	120.75
630.183	117.75
630.389	122.75
630.595	113.75
630.802	129.75
631.008	121.75
631.214	120.75
631.42	126.75
631.627	143.75
631.833	113.75
632.039	128.75
632.245	135.75
632.451	124.75
632.657	120.75
632.863	121.75
633.069	130.75
633.275	126.75
633.481	123.75
633.688	109.75
633.893	111.75
634.099	111.75
634.305	112.75
634.511	109.75
634.717	108.75
634.923	117.75
635.129	110.75
635.335	117.75
635.541	116.75
635.747	114.75
635.952	119.75
636.158	117.75
636.364	117.75
636.57	113.75
636.775	108.75
636.981	117.75
637.187	118.75
637.392	128.75
637.598	105.75
637.804	97.75
638.009	107.75
638.215	117.75
638.421	115.75
638.626	116.75
638.832	115.75
639.037	101.75
639.243	118.75
639.448	122.75
639.654	120.75
639.859	119.75
640.065	121.75
640.27	110.75
640.475	117.75
640.681	108.75
640.886	114.75
641.091	121.75
641.297	119.75
641.502	117.75
641.707	99.75
641.913	114.75
642.118	102.75
642.323	111.75
642.528	117.75
642.733	115.75
642.939	119.75
643.144	125.75
643.349	130.75
643.554	114.75
643.759	112.75
643.964	109.75
644.169	116.75
644.374	116.75
644.579	112.75
644.784	108.75
644.989	118.75
645.194	114.75
645.399	109.75
645.604	112.75
645.809	121.75
646.014	115.75
646.219	122.75
646.423	94.75
646.628	101.75
646.833	120.75
647.038	119.75
647.243	124.75
647.447	120.75
647.652	112.75
647.857	114.75
648.062	115.75
648.266	97.75
648.471	118.75
648.676	124.75
648.88	114.75
649.085	113.75
649.289	115.75
649.494	104.75
649.698	106.75
649.903	109.75
650.107	114.75
650.312	105.75
650.516	108.75
650.721	105.75
650.925	103.75
651.13	101.75
651.334	104.75
651.539	120.75
651.743	117.75
651.947	98.75
652.152	108.75
652.356	110.75
652.56	113.75
652.764	117.75
652.969	102.75
653.173	100.75
653.377	97.75
653.581	97.75
653.785	87.75
653.99	95.75
654.194	100.75
654.398	106.75
654.602	93.75
654.806	80.75
655.01	101.75
655.214	94.75
655.418	88.75
655.622	98.75
655.826	93.75
656.03	87.75
656.234	99.75
656.438	102.75
656.642	108.75
656.846	110.75
657.049	92.75
657.253	92.75
657.457	103.75
657.661	87.75
657.865	94.75
658.068	93.75
658.272	89.75
658.476	100.75
658.68	84.75
658.883	88.75
659.087	87.75
659.291	93.75
659.494	92.75
659.698	89.75
659.901	93.75
660.105	82.75
660.309	88.75
660.512	92.75
660.716	96.75
660.919	90.75
661.123	112.75
661.326	91.75
661.53	70.75
661.733	84.75
661.936	94.75
662.14	71.75
662.343	81.75
662.546	81.75
662.75	92.75
662.953	85.75
663.156	90.75
663.36	92.75
663.563	84.75
663.766	70.75
663.969	80.75
664.173	69.75
664.376	80.75
664.579	94.75
664.782	89.75
664.985	96.75
665.188	79.75
665.391	87.75
665.594	77.75
665.797	80.75
666	82.75
666.203	75.75
666.406	60.75
666.609	77.75
666.812	73.75
667.015	77.75
667.218	78.75
667.421	78.75
667.624	88.75
667.827	81.75
668.03	64.75
668.232	84.75
668.435	79.75
668.638	83.75
668.841	56.75
669.043	73.75
669.246	85.75
669.449	72.75
669.651	74.75
669.854	90.75
670.057	73.75
670.259	74.75
670.462	71.75
670.665	86.75
670.867	101.75
671.07	95.75
671.272	77.75
671.475	70.75
671.677	86.75
671.88	87.75
672.082	88.75
672.284	88.75
672.487	61.75
672.689	78.75
672.892	78.75
