Data from NickelSpatula.Lamp.E5.5.P2_HRD10591_11-53-09-550.txt Node
Date: Tue Jul 23 11:53:09 EDT 2019
User: cochatt
Spectrometer: HR+D1059
Trigger mode: 1
Integration Time (sec): 1.000000E-1
Scans to average: 1
Electric dark correction enabled: true
Nonlinearity correction enabled: false
Boxcar width: 0
XAxis mode: Wavelengths
Number of Pixels in Spectrum: 2048
>>>>>Begin Spectral Data<<<<<
223.165	-17.31
223.4	-17.31
223.635	-17.31
223.869	-14.31
224.104	-13.31
224.338	-10.31
224.573	-6.31
224.808	-13.31
225.042	-3.31
225.277	-3.31
225.511	-0.31
225.746	8.69
225.98	7.69
226.215	-1.31
226.449	4.69
226.683	13.69
226.918	28.69
227.152	19.69
227.387	38.69
227.621	37.69
227.856	37.69
228.09	40.69
228.324	27.69
228.559	47.69
228.793	45.69
229.027	81.69
229.262	69.69
229.496	87.69
229.73	87.69
229.964	94.69
230.199	111.69
230.433	74.69
230.667	92.69
230.901	78.69
231.136	85.69
231.37	100.69
231.604	110.69
231.838	98.69
232.072	103.69
232.306	96.69
232.541	90.69
232.775	104.69
233.009	111.69
233.243	114.69
233.477	126.69
233.711	127.69
233.945	110.69
234.179	114.69
234.413	109.69
234.647	118.69
234.881	141.69
235.115	141.69
235.349	124.69
235.583	128.69
235.817	103.69
236.051	142.69
236.285	124.69
236.519	137.69
236.753	124.69
236.987	129.69
237.221	136.69
237.455	134.69
237.689	143.69
237.922	124.69
238.156	141.69
238.39	144.69
238.624	178.69
238.858	165.69
239.091	152.69
239.325	152.69
239.559	140.69
239.793	161.69
240.027	166.69
240.26	153.69
240.494	162.69
240.728	154.69
240.961	177.69
241.195	178.69
241.429	151.69
241.662	174.69
241.896	134.69
242.13	142.69
242.363	140.69
242.597	138.69
242.83	149.69
243.064	139.69
243.298	168.69
243.531	147.69
243.765	192.69
243.998	162.69
244.232	170.69
244.465	158.69
244.699	176.69
244.932	179.69
245.166	169.69
245.399	162.69
245.633	142.69
245.866	163.69
246.099	170.69
246.333	191.69
246.566	209.69
246.8	181.69
247.033	187.69
247.266	154.69
247.5	174.69
247.733	183.69
247.966	151.69
248.2	161.69
248.433	180.69
248.666	202.69
248.899	201.69
249.133	189.69
249.366	218.69
249.599	252.69
249.832	220.69
250.066	204.69
250.299	207.69
250.532	195.69
250.765	194.69
250.998	171.69
251.231	186.69
251.465	180.69
251.698	211.69
251.931	197.69
252.164	209.69
252.397	215.69
252.63	229.69
252.863	261.69
253.096	248.69
253.329	246.69
253.562	229.69
253.795	274.69
254.028	289.69
254.261	312.69
254.494	268.69
254.727	274.69
254.96	260.69
255.193	256.69
255.426	253.69
255.659	198.69
255.892	186.69
256.124	204.69
256.357	247.69
256.59	269.69
256.823	268.69
257.056	235.69
257.289	222.69
257.521	229.69
257.754	260.69
257.987	300.69
258.22	268.69
258.452	251.69
258.685	252.69
258.918	276.69
259.151	284.69
259.383	276.69
259.616	320.69
259.849	332.69
260.081	359.69
260.314	399.69
260.547	322.69
260.779	345.69
261.012	380.69
261.244	352.69
261.477	358.69
261.71	318.69
261.942	284.69
262.175	277.69
262.407	285.69
262.64	272.69
262.872	318.69
263.105	355.69
263.337	372.69
263.57	338.69
263.802	254.69
264.035	223.69
264.267	210.69
264.499	182.69
264.732	188.69
264.964	179.69
265.197	187.69
265.429	191.69
265.661	196.69
265.894	224.69
266.126	234.69
266.358	255.69
266.591	306.69
266.823	336.69
267.055	325.69
267.287	292.69
267.52	282.69
267.752	282.69
267.984	330.69
268.216	312.69
268.448	259.69
268.681	256.69
268.913	281.69
269.145	282.69
269.377	290.69
269.609	293.69
269.841	263.69
270.073	299.69
270.306	305.69
270.538	320.69
270.77	328.69
271.002	309.69
271.234	333.69
271.466	320.69
271.698	310.69
271.93	286.69
272.162	302.69
272.394	302.69
272.626	286.69
272.858	312.69
273.09	311.69
273.322	276.69
273.553	254.69
273.785	284.69
274.017	406.69
274.249	466.69
274.481	472.69
274.713	519.69
274.945	623.69
275.176	613.69
275.408	556.69
275.64	511.69
275.872	501.69
276.104	445.69
276.335	412.69
276.567	392.69
276.799	409.69
277.031	424.69
277.262	331.69
277.494	270.69
277.726	260.69
277.957	286.69
278.189	328.69
278.421	332.69
278.652	293.69
278.884	276.69
279.115	280.69
279.347	280.69
279.579	254.69
279.81	270.69
280.042	276.69
280.273	306.69
280.505	288.69
280.736	231.69
280.968	241.69
281.199	268.69
281.431	278.69
281.662	263.69
281.894	276.69
282.125	284.69
282.356	297.69
282.588	299.69
282.819	288.69
283.051	290.69
283.282	351.69
283.513	390.69
283.745	454.69
283.976	434.69
284.207	404.69
284.439	422.69
284.67	407.69
284.901	364.69
285.132	385.69
285.364	399.69
285.595	392.69
285.826	406.69
286.057	387.69
286.288	401.69
286.52	398.69
286.751	428.69
286.982	434.69
287.213	386.69
287.444	359.69
287.675	396.69
287.906	394.69
288.138	327.69
288.369	311.69
288.6	301.69
288.831	318.69
289.062	339.69
289.293	378.69
289.524	358.69
289.755	348.69
289.986	346.69
290.217	320.69
290.448	274.69
290.679	218.69
290.91	217.69
291.141	213.69
291.371	232.69
291.602	234.69
291.833	233.69
292.064	239.69
292.295	272.69
292.526	311.69
292.757	318.69
292.987	346.69
293.218	336.69
293.449	336.69
293.68	396.69
293.91	354.69
294.141	356.69
294.372	349.69
294.603	310.69
294.833	335.69
295.064	416.69
295.295	397.69
295.525	287.69
295.756	259.69
295.987	246.69
296.217	251.69
296.448	258.69
296.679	241.69
296.909	259.69
297.14	286.69
297.37	304.69
297.601	302.69
297.831	271.69
298.062	278.69
298.292	313.69
298.523	342.69
298.753	380.69
298.984	343.69
299.214	302.69
299.445	237.69
299.675	228.69
299.905	249.69
300.136	240.69
300.366	258.69
300.597	256.69
300.827	256.69
301.057	220.69
301.288	229.69
301.518	262.69
301.748	287.69
301.979	291.69
302.209	333.69
302.439	319.69
302.669	264.69
302.9	289.69
303.13	275.69
303.36	272.69
303.59	258.69
303.82	261.69
304.051	282.69
304.281	296.69
304.511	298.69
304.741	270.69
304.971	276.69
305.201	298.69
305.431	280.69
305.661	250.69
305.891	262.69
306.121	258.69
306.352	220.69
306.582	208.69
306.812	182.69
307.042	191.69
307.272	200.69
307.502	206.69
307.731	208.69
307.961	215.69
308.191	216.69
308.421	191.69
308.651	200.69
308.881	187.69
309.111	203.69
309.341	193.69
309.571	224.69
309.8	205.69
310.03	221.69
310.26	219.69
310.49	240.69
310.72	206.69
310.949	206.69
311.179	213.69
311.409	223.69
311.639	238.69
311.868	298.69
312.098	348.69
312.328	399.69
312.557	380.69
312.787	393.69
313.017	327.69
313.246	362.69
313.476	426.69
313.706	347.69
313.935	290.69
314.165	247.69
314.394	223.69
314.624	224.69
314.853	245.69
315.083	250.69
315.312	227.69
315.542	234.69
315.771	206.69
316.001	214.69
316.23	191.69
316.46	200.69
316.689	210.69
316.919	224.69
317.148	209.69
317.377	186.69
317.607	192.69
317.836	210.69
318.065	239.69
318.295	280.69
318.524	265.69
318.753	222.69
318.983	218.69
319.212	224.69
319.441	208.69
319.67	235.69
319.9	266.69
320.129	260.69
320.358	233.69
320.587	200.69
320.816	222.69
321.046	250.69
321.275	270.69
321.504	277.69
321.733	254.69
321.962	285.69
322.191	246.69
322.42	243.69
322.649	243.69
322.878	248.69
323.108	253.69
323.337	240.69
323.566	232.69
323.795	241.69
324.024	234.69
324.253	222.69
324.482	230.69
324.71	249.69
324.939	263.69
325.168	252.69
325.397	227.69
325.626	215.69
325.855	211.69
326.084	214.69
326.313	216.69
326.542	205.69
326.77	213.69
326.999	216.69
327.228	224.69
327.457	225.69
327.686	223.69
327.914	197.69
328.143	183.69
328.372	190.69
328.6	210.69
328.829	186.69
329.058	215.69
329.287	224.69
329.515	206.69
329.744	222.69
329.972	199.69
330.201	189.69
330.43	206.69
330.658	223.69
330.887	244.69
331.115	228.69
331.344	230.69
331.572	236.69
331.801	209.69
332.03	203.69
332.258	202.69
332.486	226.69
332.715	235.69
332.943	222.69
333.172	204.69
333.4	219.69
333.629	237.69
333.857	256.69
334.085	266.69
334.314	252.69
334.542	256.69
334.771	239.69
334.999	224.69
335.227	210.69
335.455	248.69
335.684	240.69
335.912	251.69
336.14	281.69
336.369	264.69
336.597	286.69
336.825	301.69
337.053	347.69
337.281	266.69
337.51	221.69
337.738	225.69
337.966	252.69
338.194	265.69
338.422	239.69
338.65	204.69
338.878	210.69
339.106	215.69
339.334	222.69
339.562	236.69
339.79	223.69
340.018	218.69
340.246	238.69
340.474	253.69
340.702	274.69
340.93	271.69
341.158	282.69
341.386	248.69
341.614	255.69
341.842	247.69
342.07	243.69
342.298	292.69
342.526	285.69
342.754	242.69
342.981	250.69
343.209	227.69
343.437	263.69
343.665	279.69
343.893	270.69
344.12	308.69
344.348	348.69
344.576	304.69
344.804	272.69
345.031	237.69
345.259	238.69
345.487	225.69
345.714	236.69
345.942	258.69
346.17	268.69
346.397	271.69
346.625	218.69
346.853	220.69
347.08	220.69
347.308	213.69
347.535	264.69
347.763	268.69
347.99	244.69
348.218	231.69
348.445	236.69
348.673	240.69
348.9	231.69
349.128	240.69
349.355	242.69
349.583	243.69
349.81	234.69
350.037	223.69
350.265	200.69
350.492	195.69
350.72	204.69
350.947	199.69
351.174	190.69
351.402	215.69
351.629	224.69
351.856	221.69
352.083	198.69
352.311	221.69
352.538	227.69
352.765	250.69
352.992	254.69
353.22	230.69
353.447	231.69
353.674	229.69
353.901	217.69
354.128	217.69
354.355	221.69
354.583	221.69
354.81	226.69
355.037	256.69
355.264	243.69
355.491	241.69
355.718	247.69
355.945	247.69
356.172	248.69
356.399	236.69
356.626	275.69
356.853	322.69
357.08	366.69
357.307	376.69
357.534	275.69
357.761	308.69
357.988	384.69
358.215	419.69
358.441	389.69
358.668	351.69
358.895	322.69
359.122	282.69
359.349	271.69
359.576	326.69
359.802	264.69
360.029	226.69
360.256	249.69
360.483	288.69
360.709	354.69
360.936	351.69
361.163	319.69
361.39	261.69
361.616	224.69
361.843	270.69
362.07	323.69
362.296	306.69
362.523	237.69
362.749	225.69
362.976	236.69
363.203	246.69
363.429	275.69
363.656	232.69
363.882	240.69
364.109	240.69
364.335	228.69
364.562	220.69
364.788	251.69
365.015	268.69
365.241	274.69
365.468	217.69
365.694	194.69
365.92	210.69
366.147	202.69
366.373	181.69
366.599	191.69
366.826	195.69
367.052	172.69
367.278	194.69
367.505	178.69
367.731	199.69
367.957	231.69
368.184	250.69
368.41	218.69
368.636	232.69
368.862	235.69
369.089	224.69
369.315	195.69
369.541	206.69
369.767	203.69
369.993	207.69
370.219	201.69
370.445	227.69
370.672	220.69
370.898	259.69
371.124	260.69
371.35	235.69
371.576	206.69
371.802	218.69
372.028	266.69
372.254	306.69
372.48	271.69
372.706	233.69
372.932	265.69
373.158	268.69
373.384	291.69
373.61	358.69
373.835	378.69
374.061	316.69
374.287	268.69
374.513	311.69
374.739	352.69
374.965	377.69
375.191	372.69
375.416	272.69
375.642	229.69
375.868	268.69
376.094	312.69
376.319	272.69
376.545	272.69
376.771	300.69
376.997	269.69
377.222	213.69
377.448	181.69
377.674	196.69
377.899	183.69
378.125	180.69
378.35	178.69
378.576	194.69
378.802	206.69
379.027	212.69
379.253	213.69
379.478	222.69
379.704	246.69
379.929	231.69
380.155	252.69
380.38	213.69
380.606	215.69
380.831	241.69
381.057	238.69
381.282	224.69
381.507	257.69
381.733	292.69
381.958	316.69
382.184	359.69
382.409	350.69
382.634	366.69
382.86	370.69
383.085	301.69
383.31	263.69
383.535	292.69
383.761	289.69
383.986	256.69
384.211	319.69
384.436	311.69
384.662	241.69
384.887	250.69
385.112	255.69
385.337	262.69
385.562	243.69
385.787	276.69
386.013	287.69
386.238	282.69
386.463	234.69
386.688	256.69
386.913	237.69
387.138	223.69
387.363	224.69
387.588	229.69
387.813	227.69
388.038	267.69
388.263	234.69
388.488	227.69
388.713	256.69
388.938	275.69
389.163	231.69
389.387	214.69
389.612	219.69
389.837	234.69
390.062	224.69
390.287	240.69
390.512	214.69
390.736	217.69
390.961	228.69
391.186	222.69
391.411	210.69
391.636	203.69
391.86	224.69
392.085	264.69
392.31	282.69
392.534	247.69
392.759	229.69
392.984	267.69
393.208	222.69
393.433	192.69
393.658	225.69
393.882	197.69
394.107	203.69
394.331	204.69
394.556	204.69
394.78	199.69
395.005	201.69
395.229	215.69
395.454	223.69
395.678	209.69
395.903	227.69
396.127	222.69
396.352	207.69
396.576	210.69
396.801	228.69
397.025	262.69
397.249	280.69
397.474	209.69
397.698	240.69
397.922	250.69
398.147	222.69
398.371	232.69
398.595	232.69
398.82	222.69
399.044	220.69
399.268	252.69
399.492	269.69
399.717	301.69
399.941	300.69
400.165	260.69
400.389	258.69
400.613	254.69
400.837	247.69
401.062	223.69
401.286	220.69
401.51	225.69
401.734	226.69
401.958	223.69
402.182	228.69
402.406	235.69
402.63	245.69
402.854	253.69
403.078	287.69
403.302	374.69
403.526	398.69
403.75	345.69
403.974	298.69
404.198	284.69
404.422	307.69
404.645	328.69
404.869	349.69
405.093	279.69
405.317	254.69
405.541	262.69
405.765	259.69
405.988	253.69
406.212	265.69
406.436	287.69
406.66	325.69
406.883	289.69
407.107	278.69
407.331	302.69
407.555	319.69
407.778	270.69
408.002	270.69
408.226	262.69
408.449	253.69
408.673	239.69
408.896	226.69
409.12	229.69
409.344	219.69
409.567	221.69
409.791	229.69
410.014	243.69
410.238	234.69
410.461	240.69
410.685	240.69
410.908	226.69
411.132	228.69
411.355	234.69
411.578	230.69
411.802	220.69
412.025	253.69
412.249	232.69
412.472	237.69
412.695	234.69
412.919	251.69
413.142	224.69
413.365	243.69
413.589	248.69
413.812	243.69
414.035	239.69
414.258	235.69
414.482	242.69
414.705	262.69
414.928	226.69
415.151	215.69
415.374	226.69
415.597	226.69
415.821	229.69
416.044	225.69
416.267	214.69
416.49	221.69
416.713	216.69
416.936	218.69
417.159	218.69
417.382	222.69
417.605	219.69
417.828	227.69
418.051	230.69
418.274	246.69
418.497	221.69
418.72	224.69
418.943	234.69
419.166	258.69
419.389	252.69
419.611	230.69
419.834	249.69
420.057	265.69
420.28	251.69
420.503	240.69
420.726	222.69
420.948	221.69
421.171	231.69
421.394	239.69
421.617	219.69
421.839	224.69
422.062	243.69
422.285	232.69
422.507	231.69
422.73	230.69
422.953	248.69
423.175	237.69
423.398	241.69
423.621	271.69
423.843	264.69
424.066	238.69
424.288	242.69
424.511	231.69
424.733	216.69
424.956	234.69
425.178	261.69
425.401	300.69
425.623	340.69
425.846	287.69
426.068	264.69
426.291	268.69
426.513	255.69
426.735	241.69
426.958	238.69
427.18	256.69
427.402	363.69
427.625	359.69
427.847	298.69
428.069	251.69
428.292	242.69
428.514	222.69
428.736	234.69
428.958	257.69
429.181	298.69
429.403	269.69
429.625	235.69
429.847	202.69
430.069	221.69
430.292	231.69
430.514	229.69
430.736	227.69
430.958	259.69
431.18	266.69
431.402	220.69
431.624	205.69
431.846	199.69
432.068	206.69
432.29	206.69
432.512	237.69
432.734	299.69
432.956	270.69
433.178	227.69
433.4	212.69
433.622	220.69
433.844	227.69
434.066	243.69
434.287	252.69
434.509	247.69
434.731	250.69
434.953	225.69
435.175	235.69
435.397	266.69
435.618	224.69
435.84	213.69
436.062	205.69
436.284	222.69
436.505	203.69
436.727	194.69
436.949	198.69
437.17	197.69
437.392	198.69
437.614	225.69
437.835	226.69
438.057	202.69
438.278	236.69
438.5	326.69
438.721	322.69
438.943	222.69
439.165	210.69
439.386	196.69
439.608	208.69
439.829	197.69
440.05	204.69
440.272	209.69
440.493	244.69
440.715	282.69
440.936	248.69
441.158	210.69
441.379	220.69
441.6	249.69
441.822	262.69
442.043	224.69
442.264	246.69
442.486	225.69
442.707	225.69
442.928	233.69
443.149	225.69
443.371	229.69
443.592	251.69
443.813	239.69
444.034	232.69
444.255	236.69
444.476	258.69
444.698	268.69
444.919	271.69
445.14	357.69
445.361	303.69
445.582	252.69
445.803	227.69
446.024	254.69
446.245	252.69
446.466	222.69
446.687	237.69
446.908	215.69
447.129	221.69
447.35	205.69
447.571	203.69
447.792	209.69
448.013	213.69
448.234	196.69
448.455	201.69
448.675	198.69
448.896	208.69
449.117	208.69
449.338	204.69
449.559	214.69
449.779	232.69
450	215.69
450.221	213.69
450.442	217.69
450.662	199.69
450.883	216.69
451.104	204.69
451.324	223.69
451.545	200.69
451.766	219.69
451.986	215.69
452.207	185.69
452.428	208.69
452.648	206.69
452.869	206.69
453.089	227.69
453.31	215.69
453.53	204.69
453.751	206.69
453.971	215.69
454.192	204.69
454.412	206.69
454.633	195.69
454.853	199.69
455.073	190.69
455.294	184.69
455.514	218.69
455.734	196.69
455.955	204.69
456.175	226.69
456.395	198.69
456.616	186.69
456.836	198.69
457.056	179.69
457.276	175.69
457.497	181.69
457.717	180.69
457.937	192.69
458.157	190.69
458.377	184.69
458.598	199.69
458.818	219.69
459.038	217.69
459.258	208.69
459.478	232.69
459.698	227.69
459.918	234.69
460.138	228.69
460.358	235.69
460.578	215.69
460.798	256.69
461.018	237.69
461.238	229.69
461.458	239.69
461.678	237.69
461.898	255.69
462.118	254.69
462.338	252.69
462.558	245.69
462.777	246.69
462.997	272.69
463.217	284.69
463.437	277.69
463.657	276.69
463.876	256.69
464.096	256.69
464.316	266.69
464.536	252.69
464.755	256.69
464.975	259.69
465.195	251.69
465.414	270.69
465.634	250.69
465.854	250.69
466.073	223.69
466.293	212.69
466.512	231.69
466.732	250.69
466.951	252.69
467.171	225.69
467.391	214.69
467.61	215.69
467.829	242.69
468.049	222.69
468.268	230.69
468.488	224.69
468.707	212.69
468.927	263.69
469.146	278.69
469.365	263.69
469.585	231.69
469.804	241.69
470.023	260.69
470.243	228.69
470.462	237.69
470.681	234.69
470.901	205.69
471.12	248.69
471.339	217.69
471.558	240.69
471.777	234.69
471.997	232.69
472.216	262.69
472.435	263.69
472.654	252.69
472.873	210.69
473.092	254.69
473.311	245.69
473.53	223.69
473.749	236.69
473.968	254.69
474.187	242.69
474.406	234.69
474.625	225.69
474.844	245.69
475.063	235.69
475.282	251.69
475.501	268.69
475.72	284.69
475.939	260.69
476.158	252.69
476.377	299.69
476.596	354.69
476.814	344.69
477.033	296.69
477.252	240.69
477.471	232.69
477.69	226.69
477.908	256.69
478.127	274.69
478.346	269.69
478.564	278.69
478.783	257.69
479.002	261.69
479.22	302.69
479.439	326.69
479.658	302.69
479.876	270.69
480.095	302.69
480.313	295.69
480.532	294.69
480.751	260.69
480.969	271.69
481.188	279.69
481.406	293.69
481.624	283.69
481.843	244.69
482.061	241.69
482.28	282.69
482.498	341.69
482.717	339.69
482.935	270.69
483.153	276.69
483.372	259.69
483.59	251.69
483.808	252.69
484.027	251.69
484.245	227.69
484.463	246.69
484.681	261.69
484.9	255.69
485.118	281.69
485.336	266.69
485.554	244.69
485.772	250.69
485.99	278.69
486.209	272.69
486.427	300.69
486.645	275.69
486.863	285.69
487.081	293.69
487.299	308.69
487.517	308.69
487.735	286.69
487.953	293.69
488.171	279.69
488.389	275.69
488.607	260.69
488.825	270.69
489.043	298.69
489.261	313.69
489.479	347.69
489.696	296.69
489.914	275.69
490.132	255.69
490.35	263.69
490.568	264.69
490.786	269.69
491.003	282.69
491.221	271.69
491.439	255.69
491.657	234.69
491.874	279.69
492.092	320.69
492.31	390.69
492.527	351.69
492.745	323.69
492.963	284.69
493.18	288.69
493.398	281.69
493.615	270.69
493.833	278.69
494.05	292.69
494.268	289.69
494.485	279.69
494.703	275.69
494.92	276.69
495.138	272.69
495.355	290.69
495.573	274.69
495.79	301.69
496.008	362.69
496.225	328.69
496.442	286.69
496.66	292.69
496.877	328.69
497.094	306.69
497.312	272.69
497.529	288.69
497.746	297.69
497.963	306.69
498.181	320.69
498.398	338.69
498.615	353.69
498.832	354.69
499.049	372.69
499.267	370.69
499.484	352.69
499.701	398.69
499.918	438.69
500.135	486.69
500.352	503.69
500.569	532.69
500.786	514.69
501.003	519.69
501.22	478.69
501.437	435.69
501.654	396.69
501.871	367.69
502.088	361.69
502.305	336.69
502.522	342.69
502.739	355.69
502.956	304.69
503.172	305.69
503.389	301.69
503.606	299.69
503.823	278.69
504.04	295.69
504.256	292.69
504.473	310.69
504.69	290.69
504.907	328.69
505.123	306.69
505.34	323.69
505.557	302.69
505.773	312.69
505.99	303.69
506.207	289.69
506.423	268.69
506.64	266.69
506.856	272.69
507.073	316.69
507.289	308.69
507.506	316.69
507.722	291.69
507.939	308.69
508.155	305.69
508.372	282.69
508.588	293.69
508.805	284.69
509.021	293.69
509.238	281.69
509.454	279.69
509.67	286.69
509.887	279.69
510.103	294.69
510.319	301.69
510.536	273.69
510.752	256.69
510.968	235.69
511.184	247.69
511.401	255.69
511.617	261.69
511.833	243.69
512.049	259.69
512.265	269.69
512.481	287.69
512.698	285.69
512.914	303.69
513.13	302.69
513.346	247.69
513.562	269.69
513.778	280.69
513.994	263.69
514.21	275.69
514.426	273.69
514.642	247.69
514.858	268.69
515.074	281.69
515.29	295.69
515.506	319.69
515.721	294.69
515.937	298.69
516.153	264.69
516.369	279.69
516.585	277.69
516.801	310.69
517.016	364.69
517.232	356.69
517.448	347.69
517.664	328.69
517.879	305.69
518.095	322.69
518.311	305.69
518.527	310.69
518.742	311.69
518.958	345.69
519.173	325.69
519.389	317.69
519.605	322.69
519.82	322.69
520.036	371.69
520.251	372.69
520.467	358.69
520.682	589.69
520.898	727.69
521.113	677.69
521.329	421.69
521.544	349.69
521.76	334.69
521.975	301.69
522.19	295.69
522.406	303.69
522.621	339.69
522.836	343.69
523.052	353.69
523.267	302.69
523.482	293.69
523.698	305.69
523.913	282.69
524.128	289.69
524.343	276.69
524.559	268.69
524.774	272.69
524.989	265.69
525.204	272.69
525.419	295.69
525.634	276.69
525.849	302.69
526.064	301.69
526.28	284.69
526.495	339.69
526.71	342.69
526.925	304.69
527.14	314.69
527.355	338.69
527.57	273.69
527.785	287.69
527.999	275.69
528.214	257.69
528.429	265.69
528.644	253.69
528.859	263.69
529.074	241.69
529.289	230.69
529.503	234.69
529.718	255.69
529.933	294.69
530.148	292.69
530.363	270.69
530.577	244.69
530.792	230.69
531.007	265.69
531.221	251.69
531.436	256.69
531.651	239.69
531.865	239.69
532.08	237.69
532.295	256.69
532.509	246.69
532.724	289.69
532.938	313.69
533.153	381.69
533.367	295.69
533.582	286.69
533.796	271.69
534.011	255.69
534.225	253.69
534.44	255.69
534.654	259.69
534.868	326.69
535.083	270.69
535.297	263.69
535.511	264.69
535.726	286.69
535.94	254.69
536.154	255.69
536.369	242.69
536.583	255.69
536.797	253.69
537.011	240.69
537.225	266.69
537.44	277.69
537.654	255.69
537.868	258.69
538.082	260.69
538.296	255.69
538.51	258.69
538.724	270.69
538.938	255.69
539.153	231.69
539.367	222.69
539.581	243.69
539.795	256.69
540.009	283.69
540.222	236.69
540.436	238.69
540.65	262.69
540.864	279.69
541.078	286.69
541.292	330.69
541.506	258.69
541.72	249.69
541.934	242.69
542.147	246.69
542.361	255.69
542.575	251.69
542.789	252.69
543.002	226.69
543.216	251.69
543.43	230.69
543.644	233.69
543.857	240.69
544.071	244.69
544.285	238.69
544.498	210.69
544.712	210.69
544.925	242.69
545.139	236.69
545.352	224.69
545.566	228.69
545.779	255.69
545.993	236.69
546.206	227.69
546.42	225.69
546.633	218.69
546.847	227.69
547.06	224.69
547.274	218.69
547.487	226.69
547.7	218.69
547.914	243.69
548.127	259.69
548.34	271.69
548.554	243.69
548.767	243.69
548.98	268.69
549.193	246.69
549.407	258.69
549.62	278.69
549.833	265.69
550.046	277.69
550.259	285.69
550.473	252.69
550.686	237.69
550.899	252.69
551.112	240.69
551.325	255.69
551.538	278.69
551.751	251.69
551.964	218.69
552.177	236.69
552.39	216.69
552.603	226.69
552.816	248.69
553.029	221.69
553.242	213.69
553.455	245.69
553.667	254.69
553.88	254.69
554.093	238.69
554.306	228.69
554.519	214.69
554.732	198.69
554.944	207.69
555.157	197.69
555.37	205.69
555.583	190.69
555.795	201.69
556.008	222.69
556.221	216.69
556.433	218.69
556.646	211.69
556.859	202.69
557.071	211.69
557.284	198.69
557.496	216.69
557.709	208.69
557.921	204.69
558.134	195.69
558.346	180.69
558.559	203.69
558.771	198.69
558.984	214.69
559.196	210.69
559.409	205.69
559.621	205.69
559.833	189.69
560.046	206.69
560.258	198.69
560.47	198.69
560.683	200.69
560.895	199.69
561.107	175.69
561.32	178.69
561.532	181.69
561.744	196.69
561.956	196.69
562.168	194.69
562.381	194.69
562.593	212.69
562.805	206.69
563.017	202.69
563.229	195.69
563.441	191.69
563.653	183.69
563.865	186.69
564.077	183.69
564.289	197.69
564.501	189.69
564.713	202.69
564.925	225.69
565.137	207.69
565.349	196.69
565.561	210.69
565.773	216.69
565.985	199.69
566.197	233.69
566.408	236.69
566.62	263.69
566.832	264.69
567.044	246.69
567.255	254.69
567.467	274.69
567.679	250.69
567.891	265.69
568.102	293.69
568.314	286.69
568.526	271.69
568.737	231.69
568.949	258.69
569.161	228.69
569.372	205.69
569.584	204.69
569.795	197.69
570.007	199.69
570.218	209.69
570.43	210.69
570.641	185.69
570.853	194.69
571.064	211.69
571.276	219.69
571.487	215.69
571.698	191.69
571.91	200.69
572.121	202.69
572.333	197.69
572.544	170.69
572.755	193.69
572.966	165.69
573.178	180.69
573.389	195.69
573.6	205.69
573.811	205.69
574.023	196.69
574.234	175.69
574.445	189.69
574.656	172.69
574.867	189.69
575.078	186.69
575.289	173.69
575.501	195.69
575.712	171.69
575.923	177.69
576.134	166.69
576.345	160.69
576.556	174.69
576.767	170.69
576.978	163.69
577.188	172.69
577.399	162.69
577.61	172.69
577.821	172.69
578.032	172.69
578.243	179.69
578.454	166.69
578.665	170.69
578.875	160.69
579.086	174.69
579.297	179.69
579.508	178.69
579.718	168.69
579.929	190.69
580.14	174.69
580.35	155.69
580.561	160.69
580.772	173.69
580.982	147.69
581.193	148.69
581.403	172.69
581.614	178.69
581.825	147.69
582.035	144.69
582.246	147.69
582.456	150.69
582.667	168.69
582.877	140.69
583.087	147.69
583.298	147.69
583.508	154.69
583.719	167.69
583.929	145.69
584.139	154.69
584.35	160.69
584.56	158.69
584.77	147.69
584.981	163.69
585.191	160.69
585.401	144.69
585.611	149.69
585.821	166.69
586.032	179.69
586.242	156.69
586.452	157.69
586.662	163.69
586.872	171.69
587.082	162.69
587.292	146.69
587.502	143.69
587.713	149.69
587.923	164.69
588.133	190.69
588.343	163.69
588.553	167.69
588.762	147.69
588.972	159.69
589.182	153.69
589.392	144.69
589.602	154.69
589.812	151.69
590.022	167.69
590.232	174.69
590.441	160.69
590.651	146.69
590.861	157.69
591.071	172.69
591.281	145.69
591.49	161.69
591.7	151.69
591.91	154.69
592.119	164.69
592.329	158.69
592.539	176.69
592.748	165.69
592.958	146.69
593.167	154.69
593.377	176.69
593.587	164.69
593.796	149.69
594.006	159.69
594.215	182.69
594.424	178.69
594.634	173.69
594.843	181.69
595.053	163.69
595.262	155.69
595.472	155.69
595.681	134.69
595.89	154.69
596.1	164.69
596.309	158.69
596.518	159.69
596.727	148.69
596.937	135.69
597.146	153.69
597.355	155.69
597.564	152.69
597.774	145.69
597.983	144.69
598.192	146.69
598.401	139.69
598.61	150.69
598.819	140.69
599.028	138.69
599.237	138.69
599.446	132.69
599.655	142.69
599.864	126.69
600.073	137.69
600.282	135.69
600.491	136.69
600.7	122.69
600.909	133.69
601.118	133.69
601.327	132.69
601.536	127.69
601.745	139.69
601.953	146.69
602.162	138.69
602.371	135.69
602.58	156.69
602.789	126.69
602.997	143.69
603.206	144.69
603.415	144.69
603.623	127.69
603.832	134.69
604.041	131.69
604.249	140.69
604.458	154.69
604.666	137.69
604.875	120.69
605.084	126.69
605.292	126.69
605.501	140.69
605.709	144.69
605.918	131.69
606.126	132.69
606.334	127.69
606.543	132.69
606.751	142.69
606.96	134.69
607.168	135.69
607.376	135.69
607.585	121.69
607.793	138.69
608.001	116.69
608.21	124.69
608.418	142.69
608.626	146.69
608.834	123.69
609.043	120.69
609.251	134.69
609.459	136.69
609.667	134.69
609.875	160.69
610.083	131.69
610.291	134.69
610.499	138.69
610.707	122.69
610.916	130.69
611.124	125.69
611.332	127.69
611.54	143.69
611.748	141.69
611.955	139.69
612.163	132.69
612.371	136.69
612.579	123.69
612.787	130.69
612.995	128.69
613.203	129.69
613.411	131.69
613.618	144.69
613.826	136.69
614.034	122.69
614.242	129.69
614.449	125.69
614.657	122.69
614.865	127.69
615.072	118.69
615.28	120.69
615.488	128.69
615.695	122.69
615.903	128.69
616.111	126.69
616.318	138.69
616.526	128.69
616.733	126.69
616.941	142.69
617.148	138.69
617.356	128.69
617.563	125.69
617.771	136.69
617.978	118.69
618.185	125.69
618.393	119.69
618.6	130.69
618.807	119.69
619.015	127.69
619.222	124.69
619.429	125.69
619.637	125.69
619.844	131.69
620.051	132.69
620.258	133.69
620.466	118.69
620.673	120.69
620.88	120.69
621.087	126.69
621.294	125.69
621.501	125.69
621.708	124.69
621.915	117.69
622.122	102.69
622.329	124.69
622.536	109.69
622.743	128.69
622.95	120.69
623.157	129.69
623.364	128.69
623.571	111.69
623.778	123.69
623.985	124.69
624.192	124.69
624.399	118.69
624.606	115.69
624.812	126.69
625.019	133.69
625.226	134.69
625.433	118.69
625.639	125.69
625.846	112.69
626.053	124.69
626.259	126.69
626.466	120.69
626.673	136.69
626.879	123.69
627.086	112.69
627.293	119.69
627.499	125.69
627.706	117.69
627.912	109.69
628.119	121.69
628.325	124.69
628.532	131.69
628.738	117.69
628.945	116.69
629.151	114.69
629.357	111.69
629.564	110.69
629.77	126.69
629.976	111.69
630.183	114.69
630.389	124.69
630.595	118.69
630.802	121.69
631.008	115.69
631.214	111.69
631.42	126.69
631.627	130.69
631.833	118.69
632.039	114.69
632.245	104.69
632.451	104.69
632.657	104.69
632.863	118.69
633.069	101.69
633.275	116.69
633.481	107.69
633.688	102.69
633.893	118.69
634.099	116.69
634.305	126.69
634.511	110.69
634.717	105.69
634.923	110.69
635.129	117.69
635.335	120.69
635.541	111.69
635.747	124.69
635.952	110.69
636.158	107.69
636.364	111.69
636.57	98.69
636.775	100.69
636.981	108.69
637.187	113.69
637.392	117.69
637.598	112.69
637.804	128.69
638.009	108.69
638.215	117.69
638.421	106.69
638.626	114.69
638.832	112.69
639.037	100.69
639.243	111.69
639.448	104.69
639.654	118.69
639.859	99.69
640.065	113.69
640.27	128.69
640.475	103.69
640.681	124.69
640.886	109.69
641.091	109.69
641.297	112.69
641.502	98.69
641.707	101.69
641.913	111.69
642.118	108.69
642.323	111.69
642.528	115.69
642.733	122.69
642.939	112.69
643.144	106.69
643.349	108.69
643.554	100.69
643.759	97.69
643.964	94.69
644.169	101.69
644.374	92.69
644.579	99.69
644.784	108.69
644.989	118.69
645.194	99.69
645.399	114.69
645.604	98.69
645.809	118.69
646.014	115.69
646.219	112.69
646.423	100.69
646.628	112.69
646.833	101.69
647.038	103.69
647.243	113.69
647.447	92.69
647.652	119.69
647.857	111.69
648.062	107.69
648.266	96.69
648.471	95.69
648.676	98.69
648.88	108.69
649.085	114.69
649.289	117.69
649.494	117.69
649.698	113.69
649.903	102.69
650.107	84.69
650.312	109.69
650.516	102.69
650.721	94.69
650.925	99.69
651.13	108.69
651.334	100.69
651.539	103.69
651.743	106.69
651.947	104.69
652.152	105.69
652.356	98.69
652.56	97.69
652.764	95.69
652.969	106.69
653.173	86.69
653.377	99.69
653.581	108.69
653.785	95.69
653.99	96.69
654.194	95.69
654.398	100.69
654.602	108.69
654.806	118.69
655.01	102.69
655.214	104.69
655.418	107.69
655.622	100.69
655.826	92.69
656.03	86.69
656.234	95.69
656.438	112.69
656.642	95.69
656.846	102.69
657.049	84.69
657.253	95.69
657.457	77.69
657.661	84.69
657.865	95.69
658.068	87.69
658.272	85.69
658.476	85.69
658.68	77.69
658.883	95.69
659.087	95.69
659.291	76.69
659.494	84.69
659.698	92.69
659.901	86.69
660.105	71.69
660.309	80.69
660.512	81.69
660.716	68.69
660.919	87.69
661.123	95.69
661.326	96.69
661.53	93.69
661.733	79.69
661.936	86.69
662.14	90.69
662.343	80.69
662.546	74.69
662.75	68.69
662.953	79.69
663.156	68.69
663.36	80.69
663.563	88.69
663.766	90.69
663.969	73.69
664.173	83.69
664.376	93.69
664.579	76.69
664.782	78.69
664.985	83.69
665.188	78.69
665.391	73.69
665.594	87.69
665.797	69.69
666	73.69
666.203	79.69
666.406	90.69
666.609	72.69
666.812	78.69
667.015	76.69
667.218	76.69
667.421	78.69
667.624	82.69
667.827	83.69
668.03	73.69
668.232	74.69
668.435	97.69
668.638	76.69
668.841	78.69
669.043	80.69
669.246	80.69
669.449	85.69
669.651	85.69
669.854	83.69
670.057	82.69
670.259	73.69
670.462	77.69
670.665	78.69
670.867	72.69
671.07	86.69
671.272	62.69
671.475	79.69
671.677	71.69
671.88	76.69
672.082	78.69
672.284	80.69
672.487	85.69
672.689	78.69
672.892	78.69
