Data from NickelSpatula.Lamp.E10.P2_HRD10591_11-58-24-528.txt Node
Date: Tue Jul 23 11:58:24 EDT 2019
User: cochatt
Spectrometer: HR+D1059
Trigger mode: 1
Integration Time (sec): 1.000000E-1
Scans to average: 1
Electric dark correction enabled: true
Nonlinearity correction enabled: false
Boxcar width: 0
XAxis mode: Wavelengths
Number of Pixels in Spectrum: 2048
>>>>>Begin Spectral Data<<<<<
223.165	-16.12
223.4	-16.12
223.635	-16.12
223.869	-5.12
224.104	-31.12
224.338	-6.12
224.573	-22.12
224.808	-11.12
225.042	0.88
225.277	20.88
225.511	-6.12
225.746	5.88
225.98	0.88
226.215	5.88
226.449	16.88
226.683	3.88
226.918	17.88
227.152	24.88
227.387	23.88
227.621	24.88
227.856	39.88
228.09	51.88
228.324	45.88
228.559	49.88
228.793	79.88
229.027	149.88
229.262	148.88
229.496	154.88
229.73	168.88
229.964	191.88
230.199	205.88
230.433	210.88
230.667	218.88
230.901	211.88
231.136	201.88
231.37	211.88
231.604	215.88
231.838	249.88
232.072	248.88
232.306	244.88
232.541	256.88
232.775	238.88
233.009	264.88
233.243	287.88
233.477	302.88
233.711	345.88
233.945	325.88
234.179	337.88
234.413	358.88
234.647	400.88
234.881	447.88
235.115	422.88
235.349	410.88
235.583	348.88
235.817	350.88
236.051	365.88
236.285	412.88
236.519	452.88
236.753	428.88
236.987	445.88
237.221	402.88
237.455	409.88
237.689	441.88
237.922	463.88
238.156	480.88
238.39	553.88
238.624	674.88
238.858	583.88
239.091	486.88
239.325	500.88
239.559	473.88
239.793	535.88
240.027	668.88
240.26	596.88
240.494	577.88
240.728	591.88
240.961	664.88
241.195	633.88
241.429	644.88
241.662	617.88
241.896	524.88
242.13	466.88
242.363	448.88
242.597	462.88
242.83	555.88
243.064	560.88
243.298	588.88
243.531	608.88
243.765	637.88
243.998	618.88
244.232	607.88
244.465	592.88
244.699	579.88
244.932	661.88
245.166	636.88
245.399	538.88
245.633	542.88
245.866	594.88
246.099	629.88
246.333	679.88
246.566	775.88
246.8	753.88
247.033	716.88
247.266	700.88
247.5	686.88
247.733	670.88
247.966	638.88
248.2	687.88
248.433	784.88
248.666	835.88
248.899	856.88
249.133	857.88
249.366	985.88
249.599	1039.88
249.832	920.88
250.066	814.88
250.299	848.88
250.532	808.88
250.765	793.88
250.998	735.88
251.231	712.88
251.465	794.88
251.698	829.88
251.931	788.88
252.164	837.88
252.397	951.88
252.63	1066.88
252.863	1161.88
253.096	1180.88
253.329	1160.88
253.562	1100.88
253.795	1232.88
254.028	1368.88
254.261	1393.88
254.494	1264.88
254.727	1136.88
254.96	1145.88
255.193	1173.88
255.426	1117.88
255.659	838.88
255.892	792.88
256.124	852.88
256.357	997.88
256.59	1174.88
256.823	1134.88
257.056	948.88
257.289	937.88
257.521	949.88
257.754	1129.88
257.987	1299.88
258.22	1116.88
258.452	1018.88
258.685	1143.88
258.918	1263.88
259.151	1217.88
259.383	1286.88
259.616	1483.88
259.849	1542.88
260.081	1699.88
260.314	1908.88
260.547	1449.88
260.779	1491.88
261.012	1716.88
261.244	1594.88
261.477	1648.88
261.71	1492.88
261.942	1255.88
262.175	1276.88
262.407	1228.88
262.64	1259.88
262.872	1550.88
263.105	1646.88
263.337	1717.88
263.57	1508.88
263.802	1051.88
264.035	898.88
264.267	871.88
264.499	743.88
264.732	710.88
264.964	670.88
265.197	721.88
265.429	769.88
265.661	797.88
265.894	855.88
266.126	918.88
266.358	1038.88
266.591	1228.88
266.823	1457.88
267.055	1406.88
267.287	1242.88
267.52	1238.88
267.752	1327.88
267.984	1423.88
268.216	1378.88
268.448	1105.88
268.681	1102.88
268.913	1184.88
269.145	1251.88
269.377	1302.88
269.609	1297.88
269.841	1211.88
270.073	1298.88
270.306	1366.88
270.538	1376.88
270.77	1390.88
271.002	1398.88
271.234	1482.88
271.466	1509.88
271.698	1396.88
271.93	1405.88
272.162	1419.88
272.394	1401.88
272.626	1375.88
272.858	1436.88
273.09	1497.88
273.322	1332.88
273.553	1263.88
273.785	1536.88
274.017	1986.88
274.249	2423.88
274.481	2514.88
274.713	2715.88
274.945	3103.88
275.176	3256.88
275.408	2890.88
275.64	2621.88
275.872	2620.88
276.104	2229.88
276.335	1924.88
276.567	1902.88
276.799	1920.88
277.031	2105.88
277.262	1618.88
277.494	1279.88
277.726	1204.88
277.957	1325.88
278.189	1498.88
278.421	1440.88
278.652	1427.88
278.884	1360.88
279.115	1280.88
279.347	1150.88
279.579	1181.88
279.81	1210.88
280.042	1220.88
280.273	1275.88
280.505	1164.88
280.736	1028.88
280.968	1002.88
281.199	1071.88
281.431	1211.88
281.662	1200.88
281.894	1156.88
282.125	1224.88
282.356	1342.88
282.588	1352.88
282.819	1249.88
283.051	1367.88
283.282	1678.88
283.513	1940.88
283.745	2181.88
283.976	2153.88
284.207	2010.88
284.439	2148.88
284.67	1996.88
284.901	1775.88
285.132	1919.88
285.364	2017.88
285.595	1858.88
285.826	1997.88
286.057	2032.88
286.288	1962.88
286.52	1999.88
286.751	2068.88
286.982	2101.88
287.213	1808.88
287.444	1758.88
287.675	1819.88
287.906	1836.88
288.138	1550.88
288.369	1386.88
288.6	1296.88
288.831	1346.88
289.062	1550.88
289.293	1678.88
289.524	1588.88
289.755	1630.88
289.986	1636.88
290.217	1447.88
290.448	1124.88
290.679	994.88
290.91	899.88
291.141	944.88
291.371	973.88
291.602	967.88
291.833	960.88
292.064	1080.88
292.295	1196.88
292.526	1396.88
292.757	1460.88
292.987	1539.88
293.218	1547.88
293.449	1570.88
293.68	1639.88
293.91	1611.88
294.141	1618.88
294.372	1509.88
294.603	1410.88
294.833	1591.88
295.064	1842.88
295.295	1716.88
295.525	1313.88
295.756	1145.88
295.987	1008.88
296.217	994.88
296.448	1020.88
296.679	1089.88
296.909	1211.88
297.14	1318.88
297.37	1433.88
297.601	1373.88
297.831	1152.88
298.062	1244.88
298.292	1446.88
298.523	1582.88
298.753	1785.88
298.984	1546.88
299.214	1267.88
299.445	1079.88
299.675	1047.88
299.905	1033.88
300.136	1068.88
300.366	1177.88
300.597	1164.88
300.827	1050.88
301.057	1008.88
301.288	996.88
301.518	1070.88
301.748	1212.88
301.979	1336.88
302.209	1456.88
302.439	1470.88
302.669	1241.88
302.9	1253.88
303.13	1148.88
303.36	1078.88
303.59	1041.88
303.82	1109.88
304.051	1207.88
304.281	1341.88
304.511	1322.88
304.741	1112.88
304.971	1217.88
305.201	1290.88
305.431	1196.88
305.661	1076.88
305.891	1081.88
306.121	1096.88
306.352	950.88
306.582	874.88
306.812	849.88
307.042	884.88
307.272	793.88
307.502	820.88
307.731	897.88
307.961	922.88
308.191	879.88
308.421	826.88
308.651	802.88
308.881	748.88
309.111	752.88
309.341	841.88
309.571	890.88
309.8	912.88
310.03	927.88
310.26	995.88
310.49	976.88
310.72	853.88
310.949	855.88
311.179	846.88
311.409	909.88
311.639	1091.88
311.868	1393.88
312.098	1744.88
312.328	1924.88
312.557	1836.88
312.787	1846.88
313.017	1673.88
313.246	1818.88
313.476	1948.88
313.706	1600.88
313.935	1278.88
314.165	1049.88
314.394	950.88
314.624	962.88
314.853	1024.88
315.083	1028.88
315.312	998.88
315.542	993.88
315.771	945.88
316.001	865.88
316.23	828.88
316.46	816.88
316.689	846.88
316.919	895.88
317.148	907.88
317.377	892.88
317.607	886.88
317.836	950.88
318.065	1094.88
318.295	1235.88
318.524	1136.88
318.753	986.88
318.983	937.88
319.212	924.88
319.441	1012.88
319.67	1141.88
319.9	1215.88
320.129	1112.88
320.358	944.88
320.587	961.88
320.816	1004.88
321.046	1158.88
321.275	1288.88
321.504	1362.88
321.733	1264.88
321.962	1235.88
322.191	1134.88
322.42	1080.88
322.649	1111.88
322.878	1203.88
323.108	1191.88
323.337	1092.88
323.566	1100.88
323.795	1057.88
324.024	1012.88
324.253	978.88
324.482	968.88
324.71	1068.88
324.939	1218.88
325.168	1143.88
325.397	927.88
325.626	884.88
325.855	892.88
326.084	909.88
326.313	871.88
326.542	864.88
326.77	868.88
326.999	912.88
327.228	928.88
327.457	989.88
327.686	997.88
327.914	885.88
328.143	834.88
328.372	824.88
328.6	851.88
328.829	890.88
329.058	906.88
329.287	893.88
329.515	904.88
329.744	869.88
329.972	817.88
330.201	802.88
330.43	834.88
330.658	930.88
330.887	1045.88
331.115	1026.88
331.344	982.88
331.572	964.88
331.801	894.88
332.03	849.88
332.258	854.88
332.486	938.88
332.715	952.88
332.943	883.88
333.172	876.88
333.4	945.88
333.629	1023.88
333.857	1109.88
334.085	1058.88
334.314	1113.88
334.542	1042.88
334.771	976.88
334.999	936.88
335.227	911.88
335.455	955.88
335.684	1008.88
335.912	1168.88
336.14	1321.88
336.369	1246.88
336.597	1278.88
336.825	1380.88
337.053	1521.88
337.281	1249.88
337.51	983.88
337.738	949.88
337.966	1059.88
338.194	1192.88
338.422	1128.88
338.65	969.88
338.878	864.88
339.106	908.88
339.334	1042.88
339.562	1083.88
339.79	998.88
340.018	989.88
340.246	1033.88
340.474	1192.88
340.702	1296.88
340.93	1319.88
341.158	1326.88
341.386	1102.88
341.614	1096.88
341.842	1082.88
342.07	1196.88
342.298	1333.88
342.526	1382.88
342.754	1196.88
342.981	1097.88
343.209	1046.88
343.437	1120.88
343.665	1226.88
343.893	1177.88
344.12	1364.88
344.348	1607.88
344.576	1417.88
344.804	1186.88
345.031	1058.88
345.259	980.88
345.487	1020.88
345.714	1012.88
345.942	1091.88
346.17	1196.88
346.397	1156.88
346.625	1026.88
346.853	984.88
347.08	932.88
347.308	986.88
347.535	1092.88
347.763	1134.88
347.99	997.88
348.218	928.88
348.445	962.88
348.673	973.88
348.9	954.88
349.128	1060.88
349.355	1084.88
349.583	1062.88
349.81	1029.88
350.037	915.88
350.265	841.88
350.492	805.88
350.72	800.88
350.947	818.88
351.174	896.88
351.402	935.88
351.629	949.88
351.856	916.88
352.083	884.88
352.311	995.88
352.538	1064.88
352.765	1206.88
352.992	1071.88
353.22	974.88
353.447	1004.88
353.674	966.88
353.901	974.88
354.128	985.88
354.355	984.88
354.583	993.88
354.81	969.88
355.037	1014.88
355.264	989.88
355.491	1072.88
355.718	1180.88
355.945	1164.88
356.172	1113.88
356.399	1099.88
356.626	1356.88
356.853	1630.88
357.08	1723.88
357.307	1761.88
357.534	1363.88
357.761	1400.88
357.988	1764.88
358.215	2093.88
358.441	1956.88
358.668	1633.88
358.895	1512.88
359.122	1237.88
359.349	1206.88
359.576	1334.88
359.802	1090.88
360.029	941.88
360.256	1044.88
360.483	1262.88
360.709	1622.88
360.936	1668.88
361.163	1456.88
361.39	1147.88
361.616	1067.88
361.843	1262.88
362.07	1518.88
362.296	1357.88
362.523	1062.88
362.749	913.88
362.976	994.88
363.203	1223.88
363.429	1366.88
363.656	1060.88
363.882	988.88
364.109	1045.88
364.335	1013.88
364.562	966.88
364.788	1116.88
365.015	1319.88
365.241	1159.88
365.468	975.88
365.694	820.88
365.92	782.88
366.147	792.88
366.373	776.88
366.599	785.88
366.826	802.88
367.052	812.88
367.278	857.88
367.505	813.88
367.731	885.88
367.957	1014.88
368.184	1040.88
368.41	1035.88
368.636	1022.88
368.862	1079.88
369.089	1014.88
369.315	898.88
369.541	884.88
369.767	893.88
369.993	856.88
370.219	878.88
370.445	904.88
370.672	1030.88
370.898	1106.88
371.124	1096.88
371.35	965.88
371.576	913.88
371.802	966.88
372.028	1165.88
372.254	1338.88
372.48	1127.88
372.706	1039.88
372.932	1087.88
373.158	1161.88
373.384	1361.88
373.61	1810.88
373.835	1868.88
374.061	1359.88
374.287	1160.88
374.513	1404.88
374.739	1655.88
374.965	1719.88
375.191	1681.88
375.416	1163.88
375.642	1027.88
375.868	1205.88
376.094	1347.88
376.319	1162.88
376.545	1280.88
376.771	1385.88
376.997	1199.88
377.222	872.88
377.448	736.88
377.674	744.88
377.899	753.88
378.125	770.88
378.35	759.88
378.576	787.88
378.802	844.88
379.027	937.88
379.253	884.88
379.478	931.88
379.704	1013.88
379.929	1113.88
380.155	1079.88
380.38	959.88
380.606	988.88
380.831	1092.88
381.057	1009.88
381.282	981.88
381.507	1191.88
381.733	1458.88
381.958	1564.88
382.184	1661.88
382.409	1688.88
382.634	1670.88
382.86	1741.88
383.085	1446.88
383.31	1151.88
383.535	1179.88
383.761	1218.88
383.986	1173.88
384.211	1412.88
384.436	1372.88
384.662	1040.88
384.887	1004.88
385.112	1030.88
385.337	1060.88
385.562	1027.88
385.787	1134.88
386.013	1230.88
386.238	1231.88
386.463	1028.88
386.688	970.88
386.913	946.88
387.138	895.88
387.363	952.88
387.588	987.88
387.813	1002.88
388.038	1089.88
388.263	1001.88
388.488	952.88
388.713	1145.88
388.938	1221.88
389.163	1047.88
389.387	898.88
389.612	902.88
389.837	946.88
390.062	976.88
390.287	1018.88
390.512	1030.88
390.736	926.88
390.961	904.88
391.186	855.88
391.411	837.88
391.636	837.88
391.86	931.88
392.085	1011.88
392.31	988.88
392.534	986.88
392.759	917.88
392.984	992.88
393.208	966.88
393.433	876.88
393.658	822.88
393.882	788.88
394.107	789.88
394.331	819.88
394.556	770.88
394.78	818.88
395.005	842.88
395.229	864.88
395.454	874.88
395.678	903.88
395.903	938.88
396.127	852.88
396.352	886.88
396.576	991.88
396.801	1016.88
397.025	1126.88
397.249	1160.88
397.474	958.88
397.698	907.88
397.922	996.88
398.147	905.88
398.371	943.88
398.595	950.88
398.82	976.88
399.044	941.88
399.268	1031.88
399.492	1044.88
399.717	1074.88
399.941	1088.88
400.165	1059.88
400.389	1036.88
400.613	1042.88
400.837	1042.88
401.062	910.88
401.286	920.88
401.51	886.88
401.734	899.88
401.958	897.88
402.182	897.88
402.406	898.88
402.63	890.88
402.854	960.88
403.078	1058.88
403.302	1322.88
403.526	1343.88
403.75	1202.88
403.974	1051.88
404.198	1086.88
404.422	1208.88
404.645	1465.88
404.869	1584.88
405.093	1189.88
405.317	1004.88
405.541	988.88
405.765	1007.88
405.988	1011.88
406.212	1101.88
406.436	1264.88
406.66	1433.88
406.883	1157.88
407.107	1181.88
407.331	1358.88
407.555	1312.88
407.778	1093.88
408.002	1068.88
408.226	1055.88
408.449	1034.88
408.673	1018.88
408.896	942.88
409.12	904.88
409.344	904.88
409.567	889.88
409.791	910.88
410.014	886.88
410.238	890.88
410.461	881.88
410.685	889.88
410.908	893.88
411.132	937.88
411.355	928.88
411.578	957.88
411.802	932.88
412.025	988.88
412.249	955.88
412.472	957.88
412.695	985.88
412.919	963.88
413.142	964.88
413.365	1050.88
413.589	1059.88
413.812	949.88
414.035	902.88
414.258	926.88
414.482	1045.88
414.705	1089.88
414.928	888.88
415.151	866.88
415.374	884.88
415.597	950.88
415.821	902.88
416.044	911.88
416.267	868.88
416.49	878.88
416.713	856.88
416.936	879.88
417.159	878.88
417.382	900.88
417.605	891.88
417.828	918.88
418.051	908.88
418.274	930.88
418.497	933.88
418.72	930.88
418.943	958.88
419.166	990.88
419.389	1039.88
419.611	1012.88
419.834	1028.88
420.057	1120.88
420.28	1127.88
420.503	1049.88
420.726	922.88
420.948	883.88
421.171	893.88
421.394	879.88
421.617	854.88
421.839	897.88
422.062	932.88
422.285	917.88
422.507	922.88
422.73	968.88
422.953	969.88
423.175	963.88
423.398	942.88
423.621	1007.88
423.843	1055.88
424.066	995.88
424.288	960.88
424.511	924.88
424.733	905.88
424.956	986.88
425.178	1070.88
425.401	1224.88
425.623	1385.88
425.846	1142.88
426.068	1013.88
426.291	1117.88
426.513	1048.88
426.735	929.88
426.958	997.88
427.18	1174.88
427.402	1477.88
427.625	1475.88
427.847	1204.88
428.069	885.88
428.292	913.88
428.514	898.88
428.736	868.88
428.958	959.88
429.181	1162.88
429.403	972.88
429.625	919.88
429.847	868.88
430.069	904.88
430.292	904.88
430.514	858.88
430.736	953.88
430.958	1229.88
431.18	1095.88
431.402	852.88
431.624	829.88
431.846	814.88
432.068	819.88
432.29	844.88
432.512	956.88
432.734	1224.88
432.956	1149.88
433.178	879.88
433.4	859.88
433.622	857.88
433.844	889.88
434.066	928.88
434.287	911.88
434.509	880.88
434.731	906.88
434.953	893.88
435.175	919.88
435.397	1042.88
435.618	894.88
435.84	820.88
436.062	836.88
436.284	856.88
436.505	816.88
436.727	796.88
436.949	782.88
437.17	840.88
437.392	846.88
437.614	846.88
437.835	834.88
438.057	849.88
438.278	952.88
438.5	1432.88
438.721	1378.88
438.943	948.88
439.165	831.88
439.386	816.88
439.608	788.88
439.829	767.88
440.05	809.88
440.272	842.88
440.493	1016.88
440.715	1253.88
440.936	990.88
441.158	854.88
441.379	858.88
441.6	976.88
441.822	1041.88
442.043	888.88
442.264	871.88
442.486	846.88
442.707	864.88
442.928	879.88
443.149	892.88
443.371	896.88
443.592	934.88
443.813	920.88
444.034	886.88
444.255	895.88
444.476	937.88
444.698	943.88
444.919	949.88
445.14	1068.88
445.361	1015.88
445.582	959.88
445.803	911.88
446.024	924.88
446.245	940.88
446.466	905.88
446.687	861.88
446.908	868.88
447.129	824.88
447.35	817.88
447.571	782.88
447.792	824.88
448.013	814.88
448.234	804.88
448.455	780.88
448.675	784.88
448.896	799.88
449.117	802.88
449.338	813.88
449.559	829.88
449.779	892.88
450	848.88
450.221	818.88
450.442	828.88
450.662	816.88
450.883	800.88
451.104	805.88
451.324	818.88
451.545	810.88
451.766	832.88
451.986	808.88
452.207	769.88
452.428	792.88
452.648	781.88
452.869	823.88
453.089	839.88
453.31	869.88
453.53	744.88
453.751	737.88
453.971	742.88
454.192	759.88
454.412	796.88
454.633	752.88
454.853	777.88
455.073	718.88
455.294	721.88
455.514	734.88
455.734	760.88
455.955	792.88
456.175	825.88
456.395	756.88
456.616	726.88
456.836	718.88
457.056	709.88
457.276	715.88
457.497	702.88
457.717	706.88
457.937	721.88
458.157	722.88
458.377	732.88
458.598	741.88
458.818	741.88
459.038	822.88
459.258	827.88
459.478	862.88
459.698	892.88
459.918	915.88
460.138	853.88
460.358	892.88
460.578	894.88
460.798	870.88
461.018	877.88
461.238	848.88
461.458	865.88
461.678	876.88
461.898	916.88
462.118	911.88
462.338	931.88
462.558	951.88
462.777	953.88
462.997	1022.88
463.217	1012.88
463.437	1026.88
463.657	1062.88
463.876	969.88
464.096	940.88
464.316	967.88
464.536	967.88
464.755	1015.88
464.975	988.88
465.195	966.88
465.414	990.88
465.634	972.88
465.854	942.88
466.073	872.88
466.293	873.88
466.512	930.88
466.732	1023.88
466.951	1059.88
467.171	931.88
467.391	857.88
467.61	860.88
467.829	912.88
468.049	938.88
468.268	882.88
468.488	897.88
468.707	915.88
468.927	1046.88
469.146	1189.88
469.365	1015.88
469.585	938.88
469.804	1003.88
470.023	1060.88
470.243	938.88
470.462	935.88
470.681	920.88
470.901	933.88
471.12	967.88
471.339	947.88
471.558	893.88
471.777	910.88
471.997	1016.88
472.216	1117.88
472.435	1096.88
472.654	990.88
472.873	960.88
473.092	1000.88
473.311	1050.88
473.53	955.88
473.749	916.88
473.968	988.88
474.187	962.88
474.406	933.88
474.625	926.88
474.844	965.88
475.063	1067.88
475.282	1030.88
475.501	1052.88
475.72	1126.88
475.939	1100.88
476.158	1086.88
476.377	1265.88
476.596	1465.88
476.814	1533.88
477.033	1246.88
477.252	1076.88
477.471	980.88
477.69	1004.88
477.908	1110.88
478.127	1143.88
478.346	1082.88
478.564	1141.88
478.783	1109.88
479.002	1109.88
479.22	1316.88
479.439	1429.88
479.658	1232.88
479.876	1107.88
480.095	1196.88
480.313	1234.88
480.532	1104.88
480.751	1068.88
480.969	1153.88
481.188	1251.88
481.406	1304.88
481.624	1214.88
481.843	1107.88
482.061	1072.88
482.28	1186.88
482.498	1457.88
482.717	1390.88
482.935	1196.88
483.153	1117.88
483.372	1044.88
483.59	1039.88
483.808	1037.88
484.027	1046.88
484.245	975.88
484.463	1000.88
484.681	1034.88
484.9	1097.88
485.118	1166.88
485.336	1124.88
485.554	1032.88
485.772	1093.88
485.99	1147.88
486.209	1226.88
486.427	1255.88
486.645	1219.88
486.863	1252.88
487.081	1221.88
487.299	1374.88
487.517	1335.88
487.735	1184.88
487.953	1225.88
488.171	1262.88
488.389	1170.88
488.607	1114.88
488.825	1175.88
489.043	1246.88
489.261	1486.88
489.479	1570.88
489.696	1296.88
489.914	1157.88
490.132	1132.88
490.35	1125.88
490.568	1146.88
490.786	1138.88
491.003	1158.88
491.221	1180.88
491.439	1100.88
491.657	1146.88
491.874	1218.88
492.092	1529.88
492.31	1820.88
492.527	1765.88
492.745	1513.88
492.963	1306.88
493.18	1289.88
493.398	1318.88
493.615	1292.88
493.833	1255.88
494.05	1268.88
494.268	1276.88
494.485	1216.88
494.703	1198.88
494.92	1242.88
495.138	1201.88
495.355	1228.88
495.573	1258.88
495.79	1397.88
496.008	1879.88
496.225	1588.88
496.442	1359.88
496.66	1370.88
496.877	1426.88
497.094	1445.88
497.312	1320.88
497.529	1295.88
497.746	1331.88
497.963	1437.88
498.181	1486.88
498.398	1605.88
498.615	1669.88
498.832	1725.88
499.049	1703.88
499.267	1520.88
499.484	1530.88
499.701	1629.88
499.918	1707.88
500.135	1873.88
500.352	1895.88
500.569	1984.88
500.786	2055.88
501.003	2047.88
501.22	1768.88
501.437	1718.88
501.654	1673.88
501.871	1632.88
502.088	1645.88
502.305	1511.88
502.522	1523.88
502.739	1502.88
502.956	1372.88
503.172	1356.88
503.389	1310.88
503.606	1312.88
503.823	1288.88
504.04	1343.88
504.256	1343.88
504.473	1351.88
504.69	1373.88
504.907	1365.88
505.123	1365.88
505.34	1459.88
505.557	1438.88
505.773	1336.88
505.99	1282.88
506.207	1348.88
506.423	1253.88
506.64	1185.88
506.856	1245.88
507.073	1371.88
507.289	1350.88
507.506	1354.88
507.722	1421.88
507.939	1434.88
508.155	1439.88
508.372	1275.88
508.588	1280.88
508.805	1228.88
509.021	1191.88
509.238	1171.88
509.454	1193.88
509.67	1174.88
509.887	1197.88
510.103	1311.88
510.319	1298.88
510.536	1174.88
510.752	1098.88
510.968	1052.88
511.184	1031.88
511.401	1026.88
511.617	1024.88
511.833	1042.88
512.049	1032.88
512.265	1085.88
512.481	1123.88
512.698	1233.88
512.914	1354.88
513.13	1243.88
513.346	1123.88
513.562	1201.88
513.778	1183.88
513.994	1151.88
514.21	1228.88
514.426	1209.88
514.642	1142.88
514.858	1125.88
515.074	1183.88
515.29	1276.88
515.506	1432.88
515.721	1300.88
515.937	1226.88
516.153	1191.88
516.369	1159.88
516.585	1233.88
516.801	1381.88
517.016	1608.88
517.232	1537.88
517.448	1544.88
517.664	1403.88
517.879	1278.88
518.095	1242.88
518.311	1264.88
518.527	1328.88
518.742	1376.88
518.958	1446.88
519.173	1434.88
519.389	1405.88
519.605	1408.88
519.82	1492.88
520.036	1743.88
520.251	1708.88
520.467	1601.88
520.682	2419.88
520.898	2990.88
521.113	2800.88
521.329	1733.88
521.544	1502.88
521.76	1530.88
521.975	1356.88
522.19	1254.88
522.406	1339.88
522.621	1439.88
522.836	1580.88
523.052	1571.88
523.267	1280.88
523.482	1299.88
523.698	1402.88
523.913	1381.88
524.128	1228.88
524.343	1221.88
524.559	1190.88
524.774	1119.88
524.989	1145.88
525.204	1172.88
525.419	1311.88
525.634	1204.88
525.849	1237.88
526.064	1261.88
526.28	1249.88
526.495	1470.88
526.71	1534.88
526.925	1396.88
527.14	1424.88
527.355	1382.88
527.57	1151.88
527.785	1186.88
527.999	1145.88
528.214	1094.88
528.429	1067.88
528.644	1075.88
528.859	1032.88
529.074	1004.88
529.289	1002.88
529.503	964.88
529.718	1007.88
529.933	1167.88
530.148	1247.88
530.363	1047.88
530.577	1028.88
530.792	1003.88
531.007	1017.88
531.221	994.88
531.436	952.88
531.651	991.88
531.865	981.88
532.08	1024.88
532.295	998.88
532.509	1026.88
532.724	1193.88
532.938	1341.88
533.153	1531.88
533.367	1210.88
533.582	1161.88
533.796	1101.88
534.011	1061.88
534.225	1067.88
534.44	1084.88
534.654	1097.88
534.868	1274.88
535.083	1114.88
535.297	1000.88
535.511	1025.88
535.726	1140.88
535.94	1081.88
536.154	1042.88
536.369	1012.88
536.583	1018.88
536.797	1033.88
537.011	1058.88
537.225	1100.88
537.44	1181.88
537.654	1026.88
537.868	1020.88
538.082	1046.88
538.296	1034.88
538.51	1094.88
538.724	1119.88
538.938	1057.88
539.153	964.88
539.367	1002.88
539.581	953.88
539.795	1026.88
540.009	1154.88
540.222	1051.88
540.436	1028.88
540.65	1163.88
540.864	1152.88
541.078	1209.88
541.292	1349.88
541.506	1126.88
541.72	1096.88
541.934	1024.88
542.147	1028.88
542.361	1037.88
542.575	1094.88
542.789	1017.88
543.002	942.88
543.216	1086.88
543.43	931.88
543.644	937.88
543.857	910.88
544.071	970.88
544.285	968.88
544.498	905.88
544.712	942.88
544.925	1044.88
545.139	948.88
545.352	902.88
545.566	932.88
545.779	1038.88
545.993	964.88
546.206	869.88
546.42	890.88
546.633	896.88
546.847	863.88
547.06	860.88
547.274	876.88
547.487	887.88
547.7	939.88
547.914	997.88
548.127	1106.88
548.34	1062.88
548.554	960.88
548.767	1004.88
548.98	1044.88
549.193	961.88
549.407	1004.88
549.62	1184.88
549.833	1112.88
550.046	1160.88
550.259	1145.88
550.473	1016.88
550.686	966.88
550.899	1006.88
551.112	982.88
551.325	1051.88
551.538	1066.88
551.751	969.88
551.964	888.88
552.177	896.88
552.39	879.88
552.603	887.88
552.816	949.88
553.029	857.88
553.242	889.88
553.455	968.88
553.667	1035.88
553.88	960.88
554.093	878.88
554.306	824.88
554.519	806.88
554.732	790.88
554.944	781.88
555.157	775.88
555.37	767.88
555.583	752.88
555.795	762.88
556.008	810.88
556.221	791.88
556.433	815.88
556.646	780.88
556.859	784.88
557.071	815.88
557.284	830.88
557.496	853.88
557.709	814.88
557.921	777.88
558.134	715.88
558.346	715.88
558.559	736.88
558.771	790.88
558.984	830.88
559.196	756.88
559.409	735.88
559.621	692.88
559.833	725.88
560.046	737.88
560.258	701.88
560.47	721.88
560.683	702.88
560.895	689.88
561.107	654.88
561.32	658.88
561.532	694.88
561.744	768.88
561.956	814.88
562.168	718.88
562.381	701.88
562.593	712.88
562.805	736.88
563.017	704.88
563.229	681.88
563.441	671.88
563.653	680.88
563.865	692.88
564.077	678.88
564.289	675.88
564.501	701.88
564.713	757.88
564.925	727.88
565.137	686.88
565.349	688.88
565.561	712.88
565.773	707.88
565.985	756.88
566.197	789.88
566.408	856.88
566.62	854.88
566.832	866.88
567.044	841.88
567.255	897.88
567.467	969.88
567.679	891.88
567.891	867.88
568.102	896.88
568.314	925.88
568.526	869.88
568.737	804.88
568.949	856.88
569.161	757.88
569.372	698.88
569.584	672.88
569.795	669.88
570.007	689.88
570.218	772.88
570.43	727.88
570.641	678.88
570.853	689.88
571.064	672.88
571.276	700.88
571.487	718.88
571.698	691.88
571.91	667.88
572.121	681.88
572.333	628.88
572.544	608.88
572.755	634.88
572.966	607.88
573.178	636.88
573.389	640.88
573.6	651.88
573.811	624.88
574.023	569.88
574.234	568.88
574.445	589.88
574.656	583.88
574.867	585.88
575.078	585.88
575.289	569.88
575.501	621.88
575.712	587.88
575.923	549.88
576.134	549.88
576.345	529.88
576.556	560.88
576.767	522.88
576.978	544.88
577.188	535.88
577.399	515.88
577.61	531.88
577.821	530.88
578.032	536.88
578.243	571.88
578.454	577.88
578.665	573.88
578.875	576.88
579.086	559.88
579.297	577.88
579.508	548.88
579.718	542.88
579.929	544.88
580.14	539.88
580.35	501.88
580.561	473.88
580.772	452.88
580.982	511.88
581.193	473.88
581.403	469.88
581.614	461.88
581.825	484.88
582.035	464.88
582.246	455.88
582.456	456.88
582.667	494.88
582.877	460.88
583.087	447.88
583.298	452.88
583.508	440.88
583.719	468.88
583.929	477.88
584.139	461.88
584.35	458.88
584.56	458.88
584.77	470.88
584.981	485.88
585.191	461.88
585.401	478.88
585.611	475.88
585.821	494.88
586.032	500.88
586.242	475.88
586.452	474.88
586.662	457.88
586.872	480.88
587.082	479.88
587.292	485.88
587.502	454.88
587.713	465.88
587.923	457.88
588.133	510.88
588.343	489.88
588.553	449.88
588.762	462.88
588.972	448.88
589.182	455.88
589.392	452.88
589.602	462.88
589.812	487.88
590.022	504.88
590.232	508.88
590.441	469.88
590.651	443.88
590.861	449.88
591.071	471.88
591.281	449.88
591.49	469.88
591.7	443.88
591.91	447.88
592.119	441.88
592.329	448.88
592.539	468.88
592.748	472.88
592.958	453.88
593.167	466.88
593.377	475.88
593.587	498.88
593.796	482.88
594.006	485.88
594.215	493.88
594.424	525.88
594.634	512.88
594.843	468.88
595.053	453.88
595.262	425.88
595.472	453.88
595.681	433.88
595.89	400.88
596.1	450.88
596.309	441.88
596.518	433.88
596.727	400.88
596.937	426.88
597.146	442.88
597.355	451.88
597.564	438.88
597.774	422.88
597.983	432.88
598.192	414.88
598.401	394.88
598.61	385.88
598.819	397.88
599.028	375.88
599.237	379.88
599.446	400.88
599.655	357.88
599.864	374.88
600.073	370.88
600.282	378.88
600.491	392.88
600.7	384.88
600.909	380.88
601.118	387.88
601.327	380.88
601.536	388.88
601.745	408.88
601.953	386.88
602.162	397.88
602.371	412.88
602.58	399.88
602.789	376.88
602.997	384.88
603.206	386.88
603.415	350.88
603.623	356.88
603.832	361.88
604.041	368.88
604.249	366.88
604.458	398.88
604.666	365.88
604.875	345.88
605.084	338.88
605.292	366.88
605.501	389.88
605.709	368.88
605.918	348.88
606.126	359.88
606.334	338.88
606.543	354.88
606.751	332.88
606.96	340.88
607.168	357.88
607.376	328.88
607.585	344.88
607.793	366.88
608.001	346.88
608.21	330.88
608.418	346.88
608.626	376.88
608.834	336.88
609.043	345.88
609.251	329.88
609.459	338.88
609.667	344.88
609.875	330.88
610.083	339.88
610.291	355.88
610.499	355.88
610.707	352.88
610.916	344.88
611.124	337.88
611.332	336.88
611.54	335.88
611.748	327.88
611.955	337.88
612.163	340.88
612.371	330.88
612.579	325.88
612.787	333.88
612.995	324.88
613.203	338.88
613.411	333.88
613.618	337.88
613.826	350.88
614.034	362.88
614.242	352.88
614.449	335.88
614.657	322.88
614.865	329.88
615.072	311.88
615.28	318.88
615.488	330.88
615.695	341.88
615.903	323.88
616.111	316.88
616.318	338.88
616.526	325.88
616.733	328.88
616.941	317.88
617.148	315.88
617.356	327.88
617.563	323.88
617.771	309.88
617.978	300.88
618.185	325.88
618.393	316.88
618.6	306.88
618.807	325.88
619.015	313.88
619.222	312.88
619.429	310.88
619.637	316.88
619.844	301.88
620.051	288.88
620.258	300.88
620.466	312.88
620.673	277.88
620.88	291.88
621.087	274.88
621.294	286.88
621.501	305.88
621.708	295.88
621.915	294.88
622.122	298.88
622.329	301.88
622.536	309.88
622.743	261.88
622.95	273.88
623.157	289.88
623.364	300.88
623.571	290.88
623.778	286.88
623.985	329.88
624.192	330.88
624.399	325.88
624.606	302.88
624.812	292.88
625.019	316.88
625.226	302.88
625.433	302.88
625.639	288.88
625.846	269.88
626.053	278.88
626.259	280.88
626.466	292.88
626.673	306.88
626.879	282.88
627.086	286.88
627.293	279.88
627.499	281.88
627.706	281.88
627.912	275.88
628.119	257.88
628.325	270.88
628.532	244.88
628.738	261.88
628.945	262.88
629.151	266.88
629.357	263.88
629.564	272.88
629.77	245.88
629.976	266.88
630.183	254.88
630.389	261.88
630.595	269.88
630.802	260.88
631.008	248.88
631.214	247.88
631.42	244.88
631.627	260.88
631.833	252.88
632.039	266.88
632.245	256.88
632.451	233.88
632.657	257.88
632.863	243.88
633.069	256.88
633.275	250.88
633.481	248.88
633.688	201.88
633.893	233.88
634.099	238.88
634.305	227.88
634.511	233.88
634.717	227.88
634.923	228.88
635.129	232.88
635.335	230.88
635.541	235.88
635.747	232.88
635.952	226.88
636.158	225.88
636.364	252.88
636.57	239.88
636.775	226.88
636.981	244.88
637.187	225.88
637.392	229.88
637.598	221.88
637.804	210.88
638.009	228.88
638.215	203.88
638.421	218.88
638.626	212.88
638.832	233.88
639.037	216.88
639.243	222.88
639.448	241.88
639.654	241.88
639.859	245.88
640.065	218.88
640.27	243.88
640.475	242.88
640.681	216.88
640.886	211.88
641.091	209.88
641.297	236.88
641.502	225.88
641.707	218.88
641.913	230.88
642.118	216.88
642.323	229.88
642.528	222.88
642.733	227.88
642.939	229.88
643.144	209.88
643.349	218.88
643.554	209.88
643.759	198.88
643.964	219.88
644.169	217.88
644.374	191.88
644.579	211.88
644.784	208.88
644.989	210.88
645.194	197.88
645.399	213.88
645.604	210.88
645.809	222.88
646.014	213.88
646.219	208.88
646.423	216.88
646.628	216.88
646.833	201.88
647.038	196.88
647.243	194.88
647.447	210.88
647.652	210.88
647.857	223.88
648.062	222.88
648.266	218.88
648.471	211.88
648.676	201.88
648.88	221.88
649.085	214.88
649.289	201.88
649.494	214.88
649.698	204.88
649.903	220.88
650.107	194.88
650.312	202.88
650.516	213.88
650.721	194.88
650.925	201.88
651.13	195.88
651.334	188.88
651.539	193.88
651.743	178.88
651.947	194.88
652.152	183.88
652.356	165.88
652.56	171.88
652.764	172.88
652.969	172.88
653.173	177.88
653.377	169.88
653.581	166.88
653.785	154.88
653.99	180.88
654.194	160.88
654.398	167.88
654.602	179.88
654.806	152.88
655.01	161.88
655.214	168.88
655.418	160.88
655.622	161.88
655.826	149.88
656.03	156.88
656.234	157.88
656.438	148.88
656.642	173.88
656.846	164.88
657.049	163.88
657.253	147.88
657.457	130.88
657.661	143.88
657.865	136.88
658.068	130.88
658.272	129.88
658.476	121.88
658.68	130.88
658.883	125.88
659.087	108.88
659.291	101.88
659.494	110.88
659.698	88.88
659.901	105.88
660.105	113.88
660.309	94.88
660.512	94.88
660.716	87.88
660.919	83.88
661.123	91.88
661.326	87.88
661.53	95.88
661.733	93.88
661.936	101.88
662.14	90.88
662.343	88.88
662.546	84.88
662.75	90.88
662.953	84.88
663.156	73.88
663.36	80.88
663.563	80.88
663.766	87.88
663.969	72.88
664.173	80.88
664.376	80.88
664.579	93.88
664.782	68.88
664.985	74.88
665.188	83.88
665.391	61.88
665.594	78.88
665.797	82.88
666	73.88
666.203	75.88
666.406	86.88
666.609	80.88
666.812	77.88
667.015	89.88
667.218	82.88
667.421	89.88
667.624	84.88
667.827	80.88
668.03	76.88
668.232	85.88
668.435	94.88
668.638	75.88
668.841	80.88
669.043	74.88
669.246	92.88
669.449	86.88
669.651	94.88
669.854	75.88
670.057	72.88
670.259	71.88
670.462	75.88
670.665	73.88
670.867	83.88
671.07	85.88
671.272	62.88
671.475	82.88
671.677	82.88
671.88	81.88
672.082	71.88
672.284	80.88
672.487	82.88
672.689	83.88
672.892	102.88
