Data from NickelSpatula_HRD10591_16-34-06-125.txt Node
Date: Mon Jul 22 16:34:06 EDT 2019
User: cochatt
Spectrometer: HR+D1059
Trigger mode: 1
Integration Time (sec): 1.000000E-1
Scans to average: 1
Electric dark correction enabled: true
Nonlinearity correction enabled: false
Boxcar width: 0
XAxis mode: Wavelengths
Number of Pixels in Spectrum: 2048
>>>>>Begin Spectral Data<<<<<
223.165	-11.62
223.4	-11.62
223.635	-11.62
223.869	-4.62
224.104	-17.62
224.338	-6.62
224.573	-17.62
224.808	-31.62
225.042	-11.62
225.277	-13.62
225.511	9.38
225.746	4.38
225.98	5.38
226.215	9.38
226.449	18.38
226.683	16.38
226.918	23.38
227.152	28.38
227.387	37.38
227.621	47.38
227.856	40.38
228.09	60.38
228.324	46.38
228.559	72.38
228.793	51.38
229.027	72.38
229.262	83.38
229.496	82.38
229.73	90.38
229.964	99.38
230.199	93.38
230.433	95.38
230.667	103.38
230.901	90.38
231.136	88.38
231.37	100.38
231.604	96.38
231.838	117.38
232.072	107.38
232.306	92.38
232.541	103.38
232.775	110.38
233.009	102.38
233.243	114.38
233.477	112.38
233.711	117.38
233.945	126.38
234.179	119.38
234.413	120.38
234.647	117.38
234.881	137.38
235.115	141.38
235.349	132.38
235.583	124.38
235.817	128.38
236.051	127.38
236.285	134.38
236.519	129.38
236.753	150.38
236.987	126.38
237.221	134.38
237.455	133.38
237.689	136.38
237.922	141.38
238.156	128.38
238.39	148.38
238.624	189.38
238.858	159.38
239.091	158.38
239.325	143.38
239.559	146.38
239.793	154.38
240.027	179.38
240.26	160.38
240.494	162.38
240.728	148.38
240.961	185.38
241.195	174.38
241.429	177.38
241.662	159.38
241.896	153.38
242.13	138.38
242.363	137.38
242.597	141.38
242.83	159.38
243.064	170.38
243.298	164.38
243.531	169.38
243.765	172.38
243.998	168.38
244.232	175.38
244.465	175.38
244.699	183.38
244.932	172.38
245.166	175.38
245.399	158.38
245.633	159.38
245.866	161.38
246.099	163.38
246.333	208.38
246.566	205.38
246.8	206.38
247.033	202.38
247.266	185.38
247.5	180.38
247.733	182.38
247.966	183.38
248.2	174.38
248.433	190.38
248.666	219.38
248.899	210.38
249.133	210.38
249.366	250.38
249.599	235.38
249.832	245.38
250.066	226.38
250.299	219.38
250.532	214.38
250.765	204.38
250.998	203.38
251.231	190.38
251.465	215.38
251.698	208.38
251.931	206.38
252.164	225.38
252.397	259.38
252.63	270.38
252.863	299.38
253.096	286.38
253.329	290.38
253.562	290.38
253.795	305.38
254.028	318.38
254.261	335.38
254.494	320.38
254.727	294.38
254.96	289.38
255.193	298.38
255.426	284.38
255.659	222.38
255.892	201.38
256.124	244.38
256.357	269.38
256.59	302.38
256.823	289.38
257.056	267.38
257.289	227.38
257.521	250.38
257.754	304.38
257.987	335.38
258.22	306.38
258.452	240.38
258.685	288.38
258.918	300.38
259.151	313.38
259.383	330.38
259.616	377.38
259.849	396.38
260.081	392.38
260.314	413.38
260.547	364.38
260.779	364.38
261.012	421.38
261.244	380.38
261.477	390.38
261.71	380.38
261.942	327.38
262.175	322.38
262.407	312.38
262.64	310.38
262.872	349.38
263.105	376.38
263.337	384.38
263.57	363.38
263.802	256.38
264.035	240.38
264.267	240.38
264.499	210.38
264.732	195.38
264.964	187.38
265.197	202.38
265.429	213.38
265.661	227.38
265.894	227.38
266.126	231.38
266.358	286.38
266.591	316.38
266.823	361.38
267.055	365.38
267.287	330.38
267.52	329.38
267.752	332.38
267.984	363.38
268.216	346.38
268.448	297.38
268.681	284.38
268.913	302.38
269.145	341.38
269.377	354.38
269.609	350.38
269.841	315.38
270.073	342.38
270.306	356.38
270.538	358.38
270.77	374.38
271.002	350.38
271.234	374.38
271.466	387.38
271.698	352.38
271.93	334.38
272.162	358.38
272.394	347.38
272.626	353.38
272.858	367.38
273.09	338.38
273.322	329.38
273.553	306.38
273.785	361.38
274.017	430.38
274.249	515.38
274.481	525.38
274.713	575.38
274.945	638.38
275.176	692.38
275.408	620.38
275.64	582.38
275.872	567.38
276.104	524.38
276.335	458.38
276.567	452.38
276.799	456.38
277.031	474.38
277.262	397.38
277.494	313.38
277.726	308.38
277.957	324.38
278.189	363.38
278.421	356.38
278.652	344.38
278.884	320.38
279.115	334.38
279.347	308.38
279.579	314.38
279.81	335.38
280.042	344.38
280.273	345.38
280.505	311.38
280.736	262.38
280.968	276.38
281.199	275.38
281.431	307.38
281.662	338.38
281.894	332.38
282.125	313.38
282.356	342.38
282.588	356.38
282.819	316.38
283.051	320.38
283.282	397.38
283.513	455.38
283.745	485.38
283.976	504.38
284.207	469.38
284.439	468.38
284.67	461.38
284.901	412.38
285.132	434.38
285.364	480.38
285.595	450.38
285.826	474.38
286.057	482.38
286.288	457.38
286.52	471.38
286.751	502.38
286.982	504.38
287.213	446.38
287.444	442.38
287.675	448.38
287.906	443.38
288.138	381.38
288.369	352.38
288.6	331.38
288.831	329.38
289.062	393.38
289.293	435.38
289.524	412.38
289.755	402.38
289.986	405.38
290.217	380.38
290.448	284.38
290.679	258.38
290.91	233.38
291.141	244.38
291.371	275.38
291.602	258.38
291.833	247.38
292.064	293.38
292.295	294.38
292.526	347.38
292.757	352.38
292.987	387.38
293.218	397.38
293.449	428.38
293.68	455.38
293.91	422.38
294.141	436.38
294.372	413.38
294.603	369.38
294.833	383.38
295.064	465.38
295.295	466.38
295.525	350.38
295.756	306.38
295.987	264.38
296.217	283.38
296.448	249.38
296.679	269.38
296.909	304.38
297.14	329.38
297.37	359.38
297.601	331.38
297.831	297.38
298.062	307.38
298.292	358.38
298.523	375.38
298.753	416.38
298.984	397.38
299.214	331.38
299.445	276.38
299.675	272.38
299.905	264.38
300.136	268.38
300.366	299.38
300.597	272.38
300.827	266.38
301.057	256.38
301.288	262.38
301.518	284.38
301.748	340.38
301.979	355.38
302.209	369.38
302.439	394.38
302.669	327.38
302.9	329.38
303.13	320.38
303.36	300.38
303.59	294.38
303.82	304.38
304.051	330.38
304.281	344.38
304.511	361.38
304.741	323.38
304.971	340.38
305.201	336.38
305.431	330.38
305.661	281.38
305.891	275.38
306.121	272.38
306.352	248.38
306.582	233.38
306.812	227.38
307.042	222.38
307.272	208.38
307.502	219.38
307.731	237.38
307.961	252.38
308.191	213.38
308.421	204.38
308.651	196.38
308.881	197.38
309.111	202.38
309.341	212.38
309.571	227.38
309.8	224.38
310.03	254.38
310.26	249.38
310.49	244.38
310.72	231.38
310.949	228.38
311.179	235.38
311.409	248.38
311.639	272.38
311.868	310.38
312.098	435.38
312.328	487.38
312.557	460.38
312.787	472.38
313.017	404.38
313.246	416.38
313.476	492.38
313.706	382.38
313.935	320.38
314.165	280.38
314.394	246.38
314.624	255.38
314.853	254.38
315.083	262.38
315.312	243.38
315.542	262.38
315.771	254.38
316.001	217.38
316.23	216.38
316.46	212.38
316.689	211.38
316.919	213.38
317.148	216.38
317.377	216.38
317.607	230.38
317.836	230.38
318.065	280.38
318.295	312.38
318.524	283.38
318.753	251.38
318.983	245.38
319.212	219.38
319.441	240.38
319.67	276.38
319.9	290.38
320.129	294.38
320.358	231.38
320.587	232.38
320.816	255.38
321.046	281.38
321.275	325.38
321.504	316.38
321.733	315.38
321.962	307.38
322.191	292.38
322.42	300.38
322.649	278.38
322.878	306.38
323.108	330.38
323.337	281.38
323.566	287.38
323.795	287.38
324.024	271.38
324.253	241.38
324.482	257.38
324.71	261.38
324.939	299.38
325.168	296.38
325.397	244.38
325.626	236.38
325.855	220.38
326.084	239.38
326.313	217.38
326.542	204.38
326.77	238.38
326.999	234.38
327.228	238.38
327.457	233.38
327.686	251.38
327.914	219.38
328.143	214.38
328.372	220.38
328.6	217.38
328.829	228.38
329.058	229.38
329.287	206.38
329.515	225.38
329.744	218.38
329.972	210.38
330.201	209.38
330.43	210.38
330.658	233.38
330.887	270.38
331.115	250.38
331.344	246.38
331.572	257.38
331.801	227.38
332.03	219.38
332.258	220.38
332.486	234.38
332.715	242.38
332.943	231.38
333.172	221.38
333.4	245.38
333.629	260.38
333.857	278.38
334.085	288.38
334.314	270.38
334.542	258.38
334.771	267.38
334.999	239.38
335.227	217.38
335.455	220.38
335.684	224.38
335.912	287.38
336.14	308.38
336.369	297.38
336.597	276.38
336.825	309.38
337.053	355.38
337.281	307.38
337.51	204.38
337.738	223.38
337.966	252.38
338.194	286.38
338.422	277.38
338.65	236.38
338.878	222.38
339.106	212.38
339.334	225.38
339.562	240.38
339.79	229.38
340.018	223.38
340.246	236.38
340.474	299.38
340.702	311.38
340.93	312.38
341.158	321.38
341.386	290.38
341.614	266.38
341.842	265.38
342.07	281.38
342.298	311.38
342.526	347.38
342.754	290.38
342.981	286.38
343.209	265.38
343.437	295.38
343.665	284.38
343.893	306.38
344.12	325.38
344.348	405.38
344.576	390.38
344.804	306.38
345.031	256.38
345.259	248.38
345.487	242.38
345.714	243.38
345.942	276.38
346.17	304.38
346.397	296.38
346.625	252.38
346.853	238.38
347.08	232.38
347.308	255.38
347.535	296.38
347.763	288.38
347.99	272.38
348.218	231.38
348.445	247.38
348.673	246.38
348.9	256.38
349.128	252.38
349.355	273.38
349.583	271.38
349.81	257.38
350.037	231.38
350.265	233.38
350.492	200.38
350.72	210.38
350.947	203.38
351.174	230.38
351.402	226.38
351.629	253.38
351.856	217.38
352.083	204.38
352.311	254.38
352.538	259.38
352.765	308.38
352.992	274.38
353.22	284.38
353.447	307.38
353.674	252.38
353.901	258.38
354.128	266.38
354.355	268.38
354.583	274.38
354.81	303.38
355.037	320.38
355.264	275.38
355.491	295.38
355.718	307.38
355.945	288.38
356.172	281.38
356.399	274.38
356.626	335.38
356.853	405.38
357.08	464.38
357.307	485.38
357.534	380.38
357.761	370.38
357.988	461.38
358.215	497.38
358.441	471.38
358.668	422.38
358.895	404.38
359.122	321.38
359.349	326.38
359.576	370.38
359.802	306.38
360.029	246.38
360.256	254.38
360.483	318.38
360.709	418.38
360.936	428.38
361.163	371.38
361.39	315.38
361.616	250.38
361.843	278.38
362.07	373.38
362.296	354.38
362.523	257.38
362.749	235.38
362.976	233.38
363.203	305.38
363.429	327.38
363.656	256.38
363.882	274.38
364.109	268.38
364.335	276.38
364.562	245.38
364.788	258.38
365.015	304.38
365.241	299.38
365.468	233.38
365.694	222.38
365.92	214.38
366.147	197.38
366.373	205.38
366.599	201.38
366.826	193.38
367.052	215.38
367.278	214.38
367.505	209.38
367.731	225.38
367.957	260.38
368.184	262.38
368.41	238.38
368.636	246.38
368.862	266.38
369.089	268.38
369.315	224.38
369.541	228.38
369.767	222.38
369.993	200.38
370.219	225.38
370.445	226.38
370.672	251.38
370.898	286.38
371.124	269.38
371.35	242.38
371.576	223.38
371.802	247.38
372.028	279.38
372.254	316.38
372.48	281.38
372.706	247.38
372.932	276.38
373.158	272.38
373.384	346.38
373.61	426.38
373.835	445.38
374.061	334.38
374.287	304.38
374.513	356.38
374.739	410.38
374.965	397.38
375.191	386.38
375.416	291.38
375.642	246.38
375.868	298.38
376.094	332.38
376.319	284.38
376.545	299.38
376.771	331.38
376.997	311.38
377.222	217.38
377.448	203.38
377.674	194.38
377.899	187.38
378.125	178.38
378.35	178.38
378.576	186.38
378.802	210.38
379.027	230.38
379.253	252.38
379.478	251.38
379.704	274.38
379.929	273.38
380.155	296.38
380.38	253.38
380.606	263.38
380.831	293.38
381.057	274.38
381.282	259.38
381.507	284.38
381.733	344.38
381.958	352.38
382.184	373.38
382.409	408.38
382.634	422.38
382.86	422.38
383.085	340.38
383.31	318.38
383.535	322.38
383.761	325.38
383.986	298.38
384.211	352.38
384.436	361.38
384.662	272.38
384.887	247.38
385.112	260.38
385.337	278.38
385.562	273.38
385.787	288.38
386.013	310.38
386.238	317.38
386.463	259.38
386.688	257.38
386.913	256.38
387.138	227.38
387.363	264.38
387.588	255.38
387.813	245.38
388.038	276.38
388.263	235.38
388.488	242.38
388.713	304.38
388.938	325.38
389.163	262.38
389.387	228.38
389.612	236.38
389.837	232.38
390.062	247.38
390.287	244.38
390.512	259.38
390.736	239.38
390.961	212.38
391.186	216.38
391.411	190.38
391.636	206.38
391.86	254.38
392.085	258.38
392.31	255.38
392.534	236.38
392.759	238.38
392.984	260.38
393.208	244.38
393.433	232.38
393.658	229.38
393.882	217.38
394.107	199.38
394.331	203.38
394.556	192.38
394.78	188.38
395.005	208.38
395.229	219.38
395.454	197.38
395.678	210.38
395.903	238.38
396.127	228.38
396.352	208.38
396.576	250.38
396.801	258.38
397.025	296.38
397.249	310.38
397.474	246.38
397.698	213.38
397.922	260.38
398.147	235.38
398.371	226.38
398.595	242.38
398.82	233.38
399.044	236.38
399.268	262.38
399.492	274.38
399.717	272.38
399.941	263.38
400.165	270.38
400.389	256.38
400.613	242.38
400.837	262.38
401.062	204.38
401.286	204.38
401.51	223.38
401.734	242.38
401.958	233.38
402.182	237.38
402.406	227.38
402.63	224.38
402.854	242.38
403.078	278.38
403.302	390.38
403.526	423.38
403.75	359.38
403.974	275.38
404.198	285.38
404.422	320.38
404.645	328.38
404.869	385.38
405.093	299.38
405.317	242.38
405.541	240.38
405.765	271.38
405.988	283.38
406.212	286.38
406.436	288.38
406.66	347.38
406.883	270.38
407.107	288.38
407.331	316.38
407.555	310.38
407.778	257.38
408.002	258.38
408.226	272.38
408.449	286.38
408.673	268.38
408.896	221.38
409.12	219.38
409.344	211.38
409.567	222.38
409.791	212.38
410.014	199.38
410.238	222.38
410.461	214.38
410.685	225.38
410.908	232.38
411.132	234.38
411.355	217.38
411.578	234.38
411.802	227.38
412.025	241.38
412.249	233.38
412.472	218.38
412.695	258.38
412.919	236.38
413.142	236.38
413.365	251.38
413.589	258.38
413.812	225.38
414.035	213.38
414.258	236.38
414.482	259.38
414.705	267.38
414.928	202.38
415.151	208.38
415.374	213.38
415.597	225.38
415.821	226.38
416.044	225.38
416.267	205.38
416.49	218.38
416.713	201.38
416.936	217.38
417.159	194.38
417.382	225.38
417.605	217.38
417.828	221.38
418.051	233.38
418.274	229.38
418.497	212.38
418.72	225.38
418.943	227.38
419.166	254.38
419.389	242.38
419.611	260.38
419.834	231.38
420.057	282.38
420.28	279.38
420.503	252.38
420.726	213.38
420.948	218.38
421.171	226.38
421.394	224.38
421.617	223.38
421.839	205.38
422.062	227.38
422.285	217.38
422.507	240.38
422.73	227.38
422.953	236.38
423.175	229.38
423.398	226.38
423.621	271.38
423.843	285.38
424.066	242.38
424.288	230.38
424.511	220.38
424.733	219.38
424.956	243.38
425.178	273.38
425.401	328.38
425.623	357.38
425.846	296.38
426.068	278.38
426.291	292.38
426.513	261.38
426.735	239.38
426.958	237.38
427.18	264.38
427.402	374.38
427.625	391.38
427.847	337.38
428.069	220.38
428.292	239.38
428.514	233.38
428.736	207.38
428.958	245.38
429.181	308.38
429.403	246.38
429.625	238.38
429.847	204.38
430.069	223.38
430.292	235.38
430.514	202.38
430.736	223.38
430.958	291.38
431.18	254.38
431.402	194.38
431.624	187.38
431.846	192.38
432.068	209.38
432.29	204.38
432.512	237.38
432.734	284.38
432.956	292.38
433.178	213.38
433.4	201.38
433.622	197.38
433.844	229.38
434.066	272.38
434.287	252.38
434.509	223.38
434.731	240.38
434.953	226.38
435.175	223.38
435.397	260.38
435.618	227.38
435.84	211.38
436.062	203.38
436.284	218.38
436.505	193.38
436.727	201.38
436.949	208.38
437.17	206.38
437.392	192.38
437.614	206.38
437.835	199.38
438.057	206.38
438.278	242.38
438.5	330.38
438.721	325.38
438.943	229.38
439.165	199.38
439.386	191.38
439.608	195.38
439.829	183.38
440.05	186.38
440.272	195.38
440.493	219.38
440.715	296.38
440.936	241.38
441.158	224.38
441.379	212.38
441.6	239.38
441.822	266.38
442.043	217.38
442.264	204.38
442.486	214.38
442.707	202.38
442.928	212.38
443.149	228.38
443.371	218.38
443.592	227.38
443.813	233.38
444.034	226.38
444.255	208.38
444.476	223.38
444.698	230.38
444.919	228.38
445.14	360.38
445.361	307.38
445.582	252.38
445.803	244.38
446.024	271.38
446.245	275.38
446.466	265.38
446.687	224.38
446.908	211.38
447.129	208.38
447.35	207.38
447.571	191.38
447.792	203.38
448.013	196.38
448.234	203.38
448.455	201.38
448.675	187.38
448.896	210.38
449.117	186.38
449.338	210.38
449.559	211.38
449.779	224.38
450	224.38
450.221	191.38
450.442	208.38
450.662	189.38
450.883	183.38
451.104	197.38
451.324	191.38
451.545	177.38
451.766	182.38
451.986	180.38
452.207	176.38
452.428	198.38
452.648	195.38
452.869	217.38
453.089	226.38
453.31	210.38
453.53	183.38
453.751	192.38
453.971	190.38
454.192	207.38
454.412	208.38
454.633	189.38
454.853	211.38
455.073	171.38
455.294	194.38
455.514	185.38
455.734	188.38
455.955	179.38
456.175	196.38
456.395	188.38
456.616	182.38
456.836	164.38
457.056	168.38
457.276	181.38
457.497	177.38
457.717	179.38
457.937	176.38
458.157	183.38
458.377	186.38
458.598	187.38
458.818	194.38
459.038	185.38
459.258	205.38
459.478	206.38
459.698	207.38
459.918	210.38
460.138	213.38
460.358	228.38
460.578	210.38
460.798	201.38
461.018	208.38
461.238	196.38
461.458	198.38
461.678	225.38
461.898	233.38
462.118	245.38
462.338	229.38
462.558	240.38
462.777	262.38
462.997	250.38
463.217	258.38
463.437	243.38
463.657	243.38
463.876	225.38
464.096	231.38
464.316	223.38
464.536	232.38
464.755	276.38
464.975	278.38
465.195	240.38
465.414	248.38
465.634	227.38
465.854	219.38
466.073	225.38
466.293	208.38
466.512	214.38
466.732	240.38
466.951	251.38
467.171	216.38
467.391	207.38
467.61	196.38
467.829	209.38
468.049	213.38
468.268	198.38
468.488	199.38
468.707	208.38
468.927	222.38
469.146	268.38
469.365	242.38
469.585	222.38
469.804	229.38
470.023	255.38
470.243	231.38
470.462	237.38
470.681	204.38
470.901	219.38
471.12	245.38
471.339	242.38
471.558	193.38
471.777	221.38
471.997	241.38
472.216	255.38
472.435	252.38
472.654	234.38
472.873	223.38
473.092	244.38
473.311	256.38
473.53	216.38
473.749	217.38
473.968	251.38
474.187	218.38
474.406	217.38
474.625	190.38
474.844	219.38
475.063	228.38
475.282	225.38
475.501	281.38
475.72	325.38
475.939	300.38
476.158	276.38
476.377	336.38
476.596	377.38
476.814	366.38
477.033	323.38
477.252	264.38
477.471	219.38
477.69	226.38
477.908	244.38
478.127	252.38
478.346	255.38
478.564	335.38
478.783	297.38
479.002	261.38
479.22	292.38
479.439	306.38
479.658	293.38
479.876	244.38
480.095	278.38
480.313	274.38
480.532	279.38
480.751	246.38
480.969	274.38
481.188	267.38
481.406	277.38
481.624	272.38
481.843	249.38
482.061	244.38
482.28	270.38
482.498	372.38
482.717	406.38
482.935	293.38
483.153	281.38
483.372	249.38
483.59	242.38
483.808	228.38
484.027	240.38
484.245	211.38
484.463	238.38
484.681	238.38
484.9	251.38
485.118	235.38
485.336	232.38
485.554	239.38
485.772	248.38
485.99	256.38
486.209	278.38
486.427	290.38
486.645	249.38
486.863	261.38
487.081	274.38
487.299	347.38
487.517	326.38
487.735	264.38
487.953	271.38
488.171	268.38
488.389	275.38
488.607	245.38
488.825	268.38
489.043	310.38
489.261	321.38
489.479	379.38
489.696	299.38
489.914	264.38
490.132	258.38
490.35	222.38
490.568	262.38
490.786	244.38
491.003	259.38
491.221	240.38
491.439	262.38
491.657	244.38
491.874	266.38
492.092	351.38
492.31	460.38
492.527	422.38
492.745	325.38
492.963	291.38
493.18	292.38
493.398	256.38
493.615	278.38
493.833	276.38
494.05	263.38
494.268	261.38
494.485	280.38
494.703	258.38
494.92	255.38
495.138	259.38
495.355	267.38
495.573	277.38
495.79	313.38
496.008	457.38
496.225	374.38
496.442	296.38
496.66	286.38
496.877	308.38
497.094	314.38
497.312	288.38
497.529	293.38
497.746	286.38
497.963	285.38
498.181	299.38
498.398	323.38
498.615	359.38
498.832	386.38
499.049	350.38
499.267	349.38
499.484	372.38
499.701	338.38
499.918	382.38
500.135	427.38
500.352	425.38
500.569	470.38
500.786	477.38
501.003	480.38
501.22	419.38
501.437	393.38
501.654	377.38
501.871	337.38
502.088	351.38
502.305	315.38
502.522	324.38
502.739	330.38
502.956	310.38
503.172	307.38
503.389	263.38
503.606	283.38
503.823	289.38
504.04	282.38
504.256	306.38
504.473	308.38
504.69	287.38
504.907	291.38
505.123	309.38
505.34	331.38
505.557	304.38
505.773	290.38
505.99	282.38
506.207	304.38
506.423	269.38
506.64	248.38
506.856	279.38
507.073	297.38
507.289	298.38
507.506	298.38
507.722	311.38
507.939	325.38
508.155	319.38
508.372	267.38
508.588	262.38
508.805	289.38
509.021	255.38
509.238	258.38
509.454	245.38
509.67	252.38
509.887	273.38
510.103	291.38
510.319	278.38
510.536	256.38
510.752	258.38
510.968	247.38
511.184	242.38
511.401	238.38
511.617	218.38
511.833	227.38
512.049	249.38
512.265	242.38
512.481	255.38
512.698	267.38
512.914	313.38
513.13	282.38
513.346	244.38
513.562	260.38
513.778	262.38
513.994	258.38
514.21	322.38
514.426	294.38
514.642	274.38
514.858	257.38
515.074	272.38
515.29	299.38
515.506	306.38
515.721	306.38
515.937	259.38
516.153	270.38
516.369	278.38
516.585	260.38
516.801	304.38
517.016	366.38
517.232	348.38
517.448	335.38
517.664	307.38
517.879	276.38
518.095	308.38
518.311	295.38
518.527	300.38
518.742	326.38
518.958	331.38
519.173	334.38
519.389	306.38
519.605	334.38
519.82	351.38
520.036	371.38
520.251	376.38
520.467	393.38
520.682	698.38
520.898	928.38
521.113	852.38
521.329	467.38
521.544	364.38
521.76	352.38
521.975	322.38
522.19	307.38
522.406	331.38
522.621	344.38
522.836	383.38
523.052	394.38
523.267	310.38
523.482	323.38
523.698	308.38
523.913	302.38
524.128	294.38
524.343	258.38
524.559	260.38
524.774	278.38
524.989	278.38
525.204	294.38
525.419	307.38
525.634	294.38
525.849	286.38
526.064	272.38
526.28	281.38
526.495	352.38
526.71	414.38
526.925	374.38
527.14	367.38
527.355	383.38
527.57	294.38
527.785	320.38
527.999	303.38
528.214	272.38
528.429	229.38
528.644	267.38
528.859	235.38
529.074	241.38
529.289	223.38
529.503	243.38
529.718	257.38
529.933	368.38
530.148	398.38
530.363	288.38
530.577	251.38
530.792	235.38
531.007	238.38
531.221	217.38
531.436	236.38
531.651	243.38
531.865	236.38
532.08	252.38
532.295	238.38
532.509	269.38
532.724	326.38
532.938	348.38
533.153	463.38
533.367	315.38
533.582	296.38
533.796	273.38
534.011	246.38
534.225	272.38
534.44	281.38
534.654	300.38
534.868	383.38
535.083	332.38
535.297	268.38
535.511	244.38
535.726	272.38
535.94	247.38
536.154	263.38
536.369	234.38
536.583	238.38
536.797	242.38
537.011	263.38
537.225	289.38
537.44	314.38
537.654	249.38
537.868	235.38
538.082	269.38
538.296	258.38
538.51	268.38
538.724	271.38
538.938	257.38
539.153	223.38
539.367	214.38
539.581	234.38
539.795	257.38
540.009	294.38
540.222	258.38
540.436	278.38
540.65	284.38
540.864	293.38
541.078	332.38
541.292	422.38
541.506	290.38
541.72	273.38
541.934	255.38
542.147	259.38
542.361	255.38
542.575	257.38
542.789	250.38
543.002	235.38
543.216	269.38
543.43	229.38
543.644	228.38
543.857	227.38
544.071	230.38
544.285	248.38
544.498	222.38
544.712	217.38
544.925	274.38
545.139	230.38
545.352	225.38
545.566	217.38
545.779	279.38
545.993	239.38
546.206	200.38
546.42	222.38
546.633	225.38
546.847	213.38
547.06	196.38
547.274	201.38
547.487	207.38
547.7	217.38
547.914	254.38
548.127	256.38
548.34	262.38
548.554	238.38
548.767	247.38
548.98	246.38
549.193	244.38
549.407	242.38
549.62	270.38
549.833	244.38
550.046	264.38
550.259	271.38
550.473	235.38
550.686	219.38
550.899	230.38
551.112	242.38
551.325	245.38
551.538	255.38
551.751	218.38
551.964	215.38
552.177	235.38
552.39	225.38
552.603	216.38
552.816	232.38
553.029	238.38
553.242	209.38
553.455	230.38
553.667	255.38
553.88	238.38
554.093	234.38
554.306	204.38
554.519	193.38
554.732	204.38
554.944	206.38
555.157	195.38
555.37	197.38
555.583	201.38
555.795	188.38
556.008	186.38
556.221	193.38
556.433	204.38
556.646	196.38
556.859	194.38
557.071	220.38
557.284	224.38
557.496	203.38
557.709	211.38
557.921	204.38
558.134	192.38
558.346	170.38
558.559	187.38
558.771	198.38
558.984	208.38
559.196	206.38
559.409	183.38
559.621	192.38
559.833	183.38
560.046	198.38
560.258	196.38
560.47	198.38
560.683	183.38
560.895	184.38
561.107	190.38
561.32	187.38
561.532	192.38
561.744	206.38
561.956	202.38
562.168	176.38
562.381	189.38
562.593	191.38
562.805	196.38
563.017	199.38
563.229	179.38
563.441	167.38
563.653	179.38
563.865	178.38
564.077	179.38
564.289	170.38
564.501	178.38
564.713	207.38
564.925	188.38
565.137	190.38
565.349	195.38
565.561	194.38
565.773	178.38
565.985	193.38
566.197	204.38
566.408	218.38
566.62	224.38
566.832	220.38
567.044	216.38
567.255	225.38
567.467	238.38
567.679	224.38
567.891	231.38
568.102	233.38
568.314	249.38
568.526	227.38
568.737	210.38
568.949	223.38
569.161	206.38
569.372	199.38
569.584	190.38
569.795	191.38
570.007	180.38
570.218	195.38
570.43	201.38
570.641	188.38
570.853	175.38
571.064	167.38
571.276	197.38
571.487	206.38
571.698	176.38
571.91	171.38
572.121	174.38
572.333	175.38
572.544	163.38
572.755	163.38
572.966	165.38
573.178	166.38
573.389	176.38
573.6	185.38
573.811	174.38
574.023	164.38
574.234	169.38
574.445	182.38
574.656	160.38
574.867	158.38
575.078	171.38
575.289	158.38
575.501	170.38
575.712	173.38
575.923	146.38
576.134	177.38
576.345	161.38
576.556	174.38
576.767	152.38
576.978	146.38
577.188	153.38
577.399	145.38
577.61	160.38
577.821	155.38
578.032	151.38
578.243	164.38
578.454	187.38
578.665	189.38
578.875	179.38
579.086	184.38
579.297	178.38
579.508	163.38
579.718	174.38
579.929	157.38
580.14	172.38
580.35	148.38
580.561	147.38
580.772	150.38
580.982	132.38
581.193	126.38
581.403	133.38
581.614	139.38
581.825	147.38
582.035	138.38
582.246	138.38
582.456	137.38
582.667	146.38
582.877	131.38
583.087	142.38
583.298	140.38
583.508	140.38
583.719	149.38
583.929	137.38
584.139	150.38
584.35	130.38
584.56	154.38
584.77	144.38
584.981	149.38
585.191	142.38
585.401	151.38
585.611	149.38
585.821	136.38
586.032	147.38
586.242	153.38
586.452	154.38
586.662	154.38
586.872	148.38
587.082	153.38
587.292	142.38
587.502	136.38
587.713	141.38
587.923	154.38
588.133	155.38
588.343	156.38
588.553	146.38
588.762	140.38
588.972	132.38
589.182	149.38
589.392	158.38
589.602	156.38
589.812	156.38
590.022	167.38
590.232	151.38
590.441	154.38
590.651	144.38
590.861	149.38
591.071	136.38
591.281	141.38
591.49	147.38
591.7	146.38
591.91	146.38
592.119	142.38
592.329	142.38
592.539	133.38
592.748	162.38
592.958	144.38
593.167	150.38
593.377	152.38
593.587	162.38
593.796	152.38
594.006	150.38
594.215	160.38
594.424	151.38
594.634	148.38
594.843	145.38
595.053	153.38
595.262	133.38
595.472	139.38
595.681	137.38
595.89	136.38
596.1	129.38
596.309	140.38
596.518	147.38
596.727	139.38
596.937	140.38
597.146	136.38
597.355	146.38
597.564	119.38
597.774	121.38
597.983	141.38
598.192	141.38
598.401	137.38
598.61	138.38
598.819	132.38
599.028	122.38
599.237	136.38
599.446	126.38
599.655	115.38
599.864	128.38
600.073	134.38
600.282	138.38
600.491	140.38
600.7	126.38
600.909	140.38
601.118	152.38
601.327	123.38
601.536	146.38
601.745	127.38
601.953	163.38
602.162	151.38
602.371	151.38
602.58	159.38
602.789	133.38
602.997	123.38
603.206	133.38
603.415	123.38
603.623	144.38
603.832	126.38
604.041	117.38
604.249	121.38
604.458	133.38
604.666	132.38
604.875	131.38
605.084	126.38
605.292	136.38
605.501	130.38
605.709	135.38
605.918	122.38
606.126	134.38
606.334	130.38
606.543	125.38
606.751	124.38
606.96	128.38
607.168	114.38
607.376	116.38
607.585	117.38
607.793	122.38
608.001	122.38
608.21	145.38
608.418	118.38
608.626	134.38
608.834	118.38
609.043	114.38
609.251	120.38
609.459	116.38
609.667	137.38
609.875	107.38
610.083	133.38
610.291	123.38
610.499	124.38
610.707	124.38
610.916	123.38
611.124	118.38
611.332	108.38
611.54	127.38
611.748	121.38
611.955	117.38
612.163	115.38
612.371	116.38
612.579	121.38
612.787	117.38
612.995	119.38
613.203	115.38
613.411	118.38
613.618	129.38
613.826	126.38
614.034	138.38
614.242	119.38
614.449	113.38
614.657	122.38
614.865	118.38
615.072	120.38
615.28	120.38
615.488	139.38
615.695	128.38
615.903	110.38
616.111	122.38
616.318	129.38
616.526	123.38
616.733	129.38
616.941	121.38
617.148	123.38
617.356	113.38
617.563	121.38
617.771	108.38
617.978	122.38
618.185	102.38
618.393	115.38
618.6	111.38
618.807	114.38
619.015	113.38
619.222	111.38
619.429	130.38
619.637	130.38
619.844	123.38
620.051	107.38
620.258	109.38
620.466	106.38
620.673	120.38
620.88	119.38
621.087	115.38
621.294	113.38
621.501	106.38
621.708	115.38
621.915	130.38
622.122	105.38
622.329	100.38
622.536	112.38
622.743	122.38
622.95	113.38
623.157	130.38
623.364	132.38
623.571	111.38
623.778	117.38
623.985	122.38
624.192	118.38
624.399	120.38
624.606	122.38
624.812	120.38
625.019	118.38
625.226	120.38
625.433	121.38
625.639	103.38
625.846	114.38
626.053	115.38
626.259	107.38
626.466	109.38
626.673	122.38
626.879	106.38
627.086	106.38
627.293	103.38
627.499	98.38
627.706	105.38
627.912	108.38
628.119	104.38
628.325	112.38
628.532	108.38
628.738	108.38
628.945	107.38
629.151	103.38
629.357	113.38
629.564	95.38
629.77	117.38
629.976	105.38
630.183	96.38
630.389	112.38
630.595	117.38
630.802	108.38
631.008	112.38
631.214	122.38
631.42	101.38
631.627	110.38
631.833	108.38
632.039	115.38
632.245	99.38
632.451	106.38
632.657	94.38
632.863	119.38
633.069	110.38
633.275	109.38
633.481	93.38
633.688	104.38
633.893	114.38
634.099	106.38
634.305	101.38
634.511	104.38
634.717	107.38
634.923	91.38
635.129	98.38
635.335	92.38
635.541	107.38
635.747	114.38
635.952	96.38
636.158	102.38
636.364	104.38
636.57	98.38
636.775	119.38
636.981	103.38
637.187	94.38
637.392	99.38
637.598	112.38
637.804	104.38
638.009	105.38
638.215	117.38
638.421	120.38
638.626	88.38
638.832	92.38
639.037	105.38
639.243	119.38
639.448	108.38
639.654	114.38
639.859	107.38
640.065	92.38
640.27	113.38
640.475	99.38
640.681	87.38
640.886	103.38
641.091	111.38
641.297	87.38
641.502	94.38
641.707	88.38
641.913	112.38
642.118	97.38
642.323	93.38
642.528	98.38
642.733	112.38
642.939	104.38
643.144	105.38
643.349	113.38
643.554	115.38
643.759	102.38
643.964	90.38
644.169	106.38
644.374	112.38
644.579	90.38
644.784	112.38
644.989	100.38
645.194	92.38
645.399	95.38
645.604	97.38
645.809	91.38
646.014	99.38
646.219	115.38
646.423	98.38
646.628	99.38
646.833	103.38
647.038	114.38
647.243	111.38
647.447	86.38
647.652	81.38
647.857	102.38
648.062	85.38
648.266	91.38
648.471	104.38
648.676	101.38
648.88	91.38
649.085	83.38
649.289	103.38
649.494	97.38
649.698	104.38
649.903	96.38
650.107	113.38
650.312	115.38
650.516	85.38
650.721	102.38
650.925	95.38
651.13	90.38
651.334	84.38
651.539	97.38
651.743	84.38
651.947	95.38
652.152	103.38
652.356	107.38
652.56	114.38
652.764	104.38
652.969	96.38
653.173	95.38
653.377	89.38
653.581	99.38
653.785	96.38
653.99	88.38
654.194	95.38
654.398	97.38
654.602	86.38
654.806	108.38
655.01	81.38
655.214	83.38
655.418	83.38
655.622	93.38
655.826	100.38
656.03	89.38
656.234	84.38
656.438	90.38
656.642	99.38
656.846	98.38
657.049	86.38
657.253	87.38
657.457	91.38
657.661	78.38
657.865	90.38
658.068	99.38
658.272	81.38
658.476	86.38
658.68	84.38
658.883	74.38
659.087	74.38
659.291	91.38
659.494	78.38
659.698	86.38
659.901	75.38
660.105	68.38
660.309	86.38
660.512	75.38
660.716	87.38
660.919	83.38
661.123	90.38
661.326	83.38
661.53	74.38
661.733	88.38
661.936	70.38
662.14	82.38
662.343	75.38
662.546	76.38
662.75	81.38
662.953	82.38
663.156	76.38
663.36	68.38
663.563	64.38
663.766	77.38
663.969	87.38
664.173	88.38
664.376	88.38
664.579	84.38
664.782	80.38
664.985	75.38
665.188	73.38
665.391	87.38
665.594	67.38
665.797	80.38
666	76.38
666.203	93.38
666.406	75.38
666.609	86.38
666.812	84.38
667.015	80.38
667.218	68.38
667.421	90.38
667.624	70.38
667.827	76.38
668.03	94.38
668.232	86.38
668.435	80.38
668.638	81.38
668.841	82.38
669.043	73.38
669.246	76.38
669.449	82.38
669.651	83.38
669.854	78.38
670.057	79.38
670.259	73.38
670.462	76.38
670.665	68.38
670.867	72.38
671.07	71.38
671.272	96.38
671.475	83.38
671.677	85.38
671.88	90.38
672.082	84.38
672.284	75.38
672.487	89.38
672.689	73.38
672.892	88.38
