Data from NickelSpatula.Lamp.E10.P2_HRD10591_11-58-30-527.txt Node
Date: Tue Jul 23 11:58:30 EDT 2019
User: cochatt
Spectrometer: HR+D1059
Trigger mode: 1
Integration Time (sec): 1.000000E-1
Scans to average: 1
Electric dark correction enabled: true
Nonlinearity correction enabled: false
Boxcar width: 0
XAxis mode: Wavelengths
Number of Pixels in Spectrum: 2048
>>>>>Begin Spectral Data<<<<<
223.165	5.38
223.4	5.38
223.635	5.38
223.869	-15.62
224.104	-20.62
224.338	-24.62
224.573	-1.62
224.808	-14.62
225.042	-5.62
225.277	-2.62
225.511	14.38
225.746	-0.62
225.98	12.38
226.215	2.38
226.449	16.38
226.683	1.38
226.918	18.38
227.152	15.38
227.387	19.38
227.621	35.38
227.856	38.38
228.09	45.38
228.324	41.38
228.559	55.38
228.793	79.38
229.027	130.38
229.262	157.38
229.496	160.38
229.73	147.38
229.964	191.38
230.199	207.38
230.433	199.38
230.667	212.38
230.901	197.38
231.136	194.38
231.37	214.38
231.604	221.38
231.838	247.38
232.072	243.38
232.306	237.38
232.541	250.38
232.775	232.38
233.009	235.38
233.243	285.38
233.477	289.38
233.711	331.38
233.945	316.38
234.179	314.38
234.413	347.38
234.647	380.38
234.881	443.38
235.115	410.38
235.349	385.38
235.583	332.38
235.817	363.38
236.051	374.38
236.285	407.38
236.519	477.38
236.753	445.38
236.987	432.38
237.221	399.38
237.455	413.38
237.689	431.38
237.922	427.38
238.156	448.38
238.39	529.38
238.624	643.38
238.858	578.38
239.091	485.38
239.325	508.38
239.559	475.38
239.793	540.38
240.027	649.38
240.26	611.38
240.494	547.38
240.728	592.38
240.961	675.38
241.195	621.38
241.429	625.38
241.662	601.38
241.896	523.38
242.13	481.38
242.363	431.38
242.597	443.38
242.83	533.38
243.064	514.38
243.298	586.38
243.531	626.38
243.765	624.38
243.998	615.38
244.232	600.38
244.465	575.38
244.699	569.38
244.932	625.38
245.166	608.38
245.399	528.38
245.633	532.38
245.866	598.38
246.099	592.38
246.333	714.38
246.566	792.38
246.8	759.38
247.033	728.38
247.266	677.38
247.5	678.38
247.733	656.38
247.966	634.38
248.2	682.38
248.433	774.38
248.666	816.38
248.899	835.38
249.133	887.38
249.366	965.38
249.599	1053.38
249.832	943.38
250.066	808.38
250.299	810.38
250.532	787.38
250.765	769.38
250.998	739.38
251.231	710.38
251.465	757.38
251.698	793.38
251.931	784.38
252.164	825.38
252.397	922.38
252.63	1011.38
252.863	1155.38
253.096	1159.38
253.329	1099.38
253.562	1083.38
253.795	1213.38
254.028	1325.38
254.261	1338.38
254.494	1239.38
254.727	1097.38
254.96	1073.38
255.193	1166.38
255.426	1098.38
255.659	846.38
255.892	773.38
256.124	837.38
256.357	991.38
256.59	1216.38
256.823	1136.38
257.056	974.38
257.289	882.38
257.521	955.38
257.754	1111.38
257.987	1271.38
258.22	1080.38
258.452	996.38
258.685	1091.38
258.918	1249.38
259.151	1214.38
259.383	1275.38
259.616	1457.38
259.849	1541.38
260.081	1699.38
260.314	1880.38
260.547	1443.38
260.779	1483.38
261.012	1654.38
261.244	1579.38
261.477	1628.38
261.71	1501.38
261.942	1288.38
262.175	1259.38
262.407	1199.38
262.64	1260.38
262.872	1465.38
263.105	1601.38
263.337	1654.38
263.57	1510.38
263.802	1011.38
264.035	889.38
264.267	857.38
264.499	756.38
264.732	704.38
264.964	676.38
265.197	708.38
265.429	761.38
265.661	799.38
265.894	830.38
266.126	903.38
266.358	1016.38
266.591	1225.38
266.823	1469.38
267.055	1386.38
267.287	1233.38
267.52	1226.38
267.752	1308.38
267.984	1406.38
268.216	1343.38
268.448	1090.38
268.681	1084.38
268.913	1197.38
269.145	1218.38
269.377	1270.38
269.609	1263.38
269.841	1179.38
270.073	1268.38
270.306	1335.38
270.538	1357.38
270.77	1357.38
271.002	1367.38
271.234	1437.38
271.466	1471.38
271.698	1447.38
271.93	1379.38
272.162	1391.38
272.394	1396.38
272.626	1372.38
272.858	1421.38
273.09	1448.38
273.322	1251.38
273.553	1224.38
273.785	1495.38
274.017	1937.38
274.249	2360.38
274.481	2452.38
274.713	2709.38
274.945	3142.38
275.176	3217.38
275.408	2835.38
275.64	2598.38
275.872	2565.38
276.104	2175.38
276.335	1915.38
276.567	1871.38
276.799	1888.38
277.031	2016.38
277.262	1548.38
277.494	1219.38
277.726	1157.38
277.957	1309.38
278.189	1429.38
278.421	1452.38
278.652	1394.38
278.884	1354.38
279.115	1222.38
279.347	1182.38
279.579	1177.38
279.81	1153.38
280.042	1166.38
280.273	1228.38
280.505	1096.38
280.736	996.38
280.968	979.38
281.199	1072.38
281.431	1208.38
281.662	1167.38
281.894	1152.38
282.125	1221.38
282.356	1329.38
282.588	1355.38
282.819	1234.38
283.051	1341.38
283.282	1640.38
283.513	1906.38
283.745	2125.38
283.976	2136.38
284.207	1974.38
284.439	2036.38
284.67	1971.38
284.901	1730.38
285.132	1884.38
285.364	1952.38
285.595	1848.38
285.826	1906.38
286.057	1992.38
286.288	1918.38
286.52	1950.38
286.751	2054.38
286.982	2006.38
287.213	1768.38
287.444	1676.38
287.675	1791.38
287.906	1756.38
288.138	1487.38
288.369	1342.38
288.6	1264.38
288.831	1313.38
289.062	1548.38
289.293	1647.38
289.524	1598.38
289.755	1572.38
289.986	1580.38
290.217	1409.38
290.448	1054.38
290.679	911.38
290.91	900.38
291.141	906.38
291.371	971.38
291.602	941.38
291.833	944.38
292.064	1016.38
292.295	1180.38
292.526	1341.38
292.757	1438.38
292.987	1505.38
293.218	1515.38
293.449	1544.38
293.68	1629.38
293.91	1537.38
294.141	1555.38
294.372	1518.38
294.603	1393.38
294.833	1527.38
295.064	1785.38
295.295	1649.38
295.525	1271.38
295.756	1111.38
295.987	964.38
296.217	974.38
296.448	998.38
296.679	1053.38
296.909	1197.38
297.14	1259.38
297.37	1414.38
297.601	1306.38
297.831	1125.38
298.062	1224.38
298.292	1376.38
298.523	1475.38
298.753	1699.38
298.984	1510.38
299.214	1218.38
299.445	1035.38
299.675	994.38
299.905	1000.38
300.136	1007.38
300.366	1137.38
300.597	1099.38
300.827	989.38
301.057	917.38
301.288	972.38
301.518	1028.38
301.748	1142.38
301.979	1242.38
302.209	1367.38
302.439	1346.38
302.669	1170.38
302.9	1179.38
303.13	1116.38
303.36	1060.38
303.59	1012.38
303.82	1078.38
304.051	1182.38
304.281	1290.38
304.511	1259.38
304.741	1106.38
304.971	1146.38
305.201	1223.38
305.431	1163.38
305.661	1029.38
305.891	1012.38
306.121	1023.38
306.352	953.38
306.582	854.38
306.812	870.38
307.042	792.38
307.272	761.38
307.502	791.38
307.731	855.38
307.961	898.38
308.191	853.38
308.421	763.38
308.651	777.38
308.881	758.38
309.111	786.38
309.341	775.38
309.571	868.38
309.8	889.38
310.03	865.38
310.26	921.38
310.49	907.38
310.72	877.38
310.949	830.38
311.179	839.38
311.409	894.38
311.639	1061.38
311.868	1362.38
312.098	1724.38
312.328	1866.38
312.557	1806.38
312.787	1799.38
313.017	1627.38
313.246	1752.38
313.476	1907.38
313.706	1547.38
313.935	1248.38
314.165	1033.38
314.394	913.38
314.624	915.38
314.853	995.38
315.083	1000.38
315.312	973.38
315.542	988.38
315.771	912.38
316.001	837.38
316.23	803.38
316.46	811.38
316.689	845.38
316.919	824.38
317.148	899.38
317.377	859.38
317.607	854.38
317.836	932.38
318.065	1084.38
318.295	1181.38
318.524	1114.38
318.753	960.38
318.983	922.38
319.212	904.38
319.441	984.38
319.67	1075.38
319.9	1130.38
320.129	1080.38
320.358	925.38
320.587	907.38
320.816	979.38
321.046	1147.38
321.275	1236.38
321.504	1271.38
321.733	1209.38
321.962	1146.38
322.191	1119.38
322.42	1035.38
322.649	1055.38
322.878	1145.38
323.108	1165.38
323.337	1064.38
323.566	1042.38
323.795	1015.38
324.024	939.38
324.253	927.38
324.482	942.38
324.71	1014.38
324.939	1150.38
325.168	1056.38
325.397	863.38
325.626	884.38
325.855	901.38
326.084	894.38
326.313	865.38
326.542	799.38
326.77	835.38
326.999	879.38
327.228	933.38
327.457	967.38
327.686	951.38
327.914	859.38
328.143	801.38
328.372	817.38
328.6	793.38
328.829	839.38
329.058	836.38
329.287	868.38
329.515	872.38
329.744	870.38
329.972	805.38
330.201	787.38
330.43	807.38
330.658	908.38
330.887	1045.38
331.115	1014.38
331.344	951.38
331.572	929.38
331.801	878.38
332.03	831.38
332.258	856.38
332.486	930.38
332.715	959.38
332.943	891.38
333.172	878.38
333.4	921.38
333.629	998.38
333.857	1096.38
334.085	1055.38
334.314	1048.38
334.542	1008.38
334.771	947.38
334.999	908.38
335.227	897.38
335.455	932.38
335.684	1005.38
335.912	1140.38
336.14	1273.38
336.369	1225.38
336.597	1168.38
336.825	1325.38
337.053	1456.38
337.281	1188.38
337.51	945.38
337.738	939.38
337.966	1033.38
338.194	1165.38
338.422	1065.38
338.65	909.38
338.878	861.38
339.106	911.38
339.334	995.38
339.562	1067.38
339.79	958.38
340.018	935.38
340.246	989.38
340.474	1141.38
340.702	1215.38
340.93	1291.38
341.158	1263.38
341.386	1049.38
341.614	1075.38
341.842	1082.38
342.07	1151.38
342.298	1259.38
342.526	1337.38
342.754	1159.38
342.981	1047.38
343.209	999.38
343.437	1074.38
343.665	1143.38
343.893	1143.38
344.12	1301.38
344.348	1526.38
344.576	1345.38
344.804	1137.38
345.031	978.38
345.259	913.38
345.487	947.38
345.714	971.38
345.942	1038.38
346.17	1156.38
346.397	1096.38
346.625	933.38
346.853	955.38
347.08	897.38
347.308	982.38
347.535	1069.38
347.763	1095.38
347.99	958.38
348.218	896.38
348.445	930.38
348.673	933.38
348.9	934.38
349.128	1018.38
349.355	1045.38
349.583	1008.38
349.81	970.38
350.037	932.38
350.265	835.38
350.492	763.38
350.72	778.38
350.947	806.38
351.174	830.38
351.402	906.38
351.629	955.38
351.856	907.38
352.083	879.38
352.311	943.38
352.538	1054.38
352.765	1094.38
352.992	989.38
353.22	930.38
353.447	950.38
353.674	902.38
353.901	889.38
354.128	945.38
354.355	965.38
354.583	929.38
354.81	897.38
355.037	968.38
355.264	956.38
355.491	995.38
355.718	1114.38
355.945	1067.38
356.172	1063.38
356.399	1032.38
356.626	1283.38
356.853	1516.38
357.08	1606.38
357.307	1665.38
357.534	1317.38
357.761	1346.38
357.988	1621.38
358.215	1925.38
358.441	1819.38
358.668	1523.38
358.895	1416.38
359.122	1135.38
359.349	1128.38
359.576	1259.38
359.802	1045.38
360.029	901.38
360.256	987.38
360.483	1238.38
360.709	1513.38
360.936	1584.38
361.163	1338.38
361.39	1055.38
361.616	1030.38
361.843	1157.38
362.07	1370.38
362.296	1301.38
362.523	1049.38
362.749	903.38
362.976	937.38
363.203	1150.38
363.429	1259.38
363.656	1042.38
363.882	950.38
364.109	948.38
364.335	950.38
364.562	956.38
364.788	1077.38
365.015	1225.38
365.241	1115.38
365.468	911.38
365.694	838.38
365.92	781.38
366.147	758.38
366.373	768.38
366.599	738.38
366.826	767.38
367.052	797.38
367.278	817.38
367.505	799.38
367.731	867.38
367.957	976.38
368.184	987.38
368.41	978.38
368.636	1013.38
368.862	1005.38
369.089	980.38
369.315	864.38
369.541	869.38
369.767	860.38
369.993	807.38
370.219	822.38
370.445	885.38
370.672	951.38
370.898	1050.38
371.124	1055.38
371.35	917.38
371.576	863.38
371.802	934.38
372.028	1083.38
372.254	1268.38
372.48	1054.38
372.706	990.38
372.932	1047.38
373.158	1081.38
373.384	1309.38
373.61	1726.38
373.835	1752.38
374.061	1283.38
374.287	1116.38
374.513	1321.38
374.739	1545.38
374.965	1612.38
375.191	1598.38
375.416	1135.38
375.642	960.38
375.868	1134.38
376.094	1278.38
376.319	1091.38
376.545	1200.38
376.771	1299.38
376.997	1075.38
377.222	813.38
377.448	739.38
377.674	732.38
377.899	731.38
378.125	698.38
378.35	727.38
378.576	759.38
378.802	829.38
379.027	861.38
379.253	845.38
379.478	885.38
379.704	985.38
379.929	1045.38
380.155	1015.38
380.38	903.38
380.606	977.38
380.831	1049.38
381.057	956.38
381.282	945.38
381.507	1122.38
381.733	1361.38
381.958	1446.38
382.184	1533.38
382.409	1655.38
382.634	1565.38
382.86	1651.38
383.085	1333.38
383.31	1081.38
383.535	1168.38
383.761	1195.38
383.986	1101.38
384.211	1326.38
384.436	1273.38
384.662	993.38
384.887	951.38
385.112	1029.38
385.337	997.38
385.562	939.38
385.787	1039.38
386.013	1154.38
386.238	1176.38
386.463	944.38
386.688	963.38
386.913	928.38
387.138	881.38
387.363	920.38
387.588	955.38
387.813	929.38
388.038	1068.38
388.263	948.38
388.488	936.38
388.713	1060.38
388.938	1121.38
389.163	990.38
389.387	893.38
389.612	885.38
389.837	936.38
390.062	917.38
390.287	924.38
390.512	992.38
390.736	915.38
390.961	872.38
391.186	833.38
391.411	822.38
391.636	828.38
391.86	916.38
392.085	949.38
392.31	953.38
392.534	897.38
392.759	884.38
392.984	960.38
393.208	932.38
393.433	819.38
393.658	790.38
393.882	772.38
394.107	777.38
394.331	777.38
394.556	779.38
394.78	789.38
395.005	801.38
395.229	855.38
395.454	840.38
395.678	879.38
395.903	873.38
396.127	859.38
396.352	858.38
396.576	942.38
396.801	961.38
397.025	1040.38
397.249	1070.38
397.474	911.38
397.698	908.38
397.922	912.38
398.147	875.38
398.371	880.38
398.595	940.38
398.82	937.38
399.044	911.38
399.268	980.38
399.492	1012.38
399.717	1035.38
399.941	1059.38
400.165	1012.38
400.389	1007.38
400.613	1001.38
400.837	1009.38
401.062	915.38
401.286	876.38
401.51	875.38
401.734	885.38
401.958	918.38
402.182	894.38
402.406	865.38
402.63	876.38
402.854	909.38
403.078	1013.38
403.302	1246.38
403.526	1292.38
403.75	1155.38
403.974	1028.38
404.198	1098.38
404.422	1175.38
404.645	1371.38
404.869	1483.38
405.093	1115.38
405.317	996.38
405.541	963.38
405.765	989.38
405.988	973.38
406.212	1081.38
406.436	1254.38
406.66	1348.38
406.883	1105.38
407.107	1125.38
407.331	1288.38
407.555	1233.38
407.778	1059.38
408.002	1035.38
408.226	1025.38
408.449	1008.38
408.673	977.38
408.896	907.38
409.12	870.38
409.344	901.38
409.567	877.38
409.791	880.38
410.014	862.38
410.238	880.38
410.461	867.38
410.685	861.38
410.908	872.38
411.132	914.38
411.355	915.38
411.578	941.38
411.802	897.38
412.025	963.38
412.249	952.38
412.472	921.38
412.695	911.38
412.919	918.38
413.142	925.38
413.365	1037.38
413.589	1013.38
413.812	924.38
414.035	895.38
414.258	912.38
414.482	975.38
414.705	1048.38
414.928	903.38
415.151	861.38
415.374	842.38
415.597	879.38
415.821	864.38
416.044	869.38
416.267	871.38
416.49	856.38
416.713	839.38
416.936	836.38
417.159	846.38
417.382	857.38
417.605	863.38
417.828	871.38
418.051	912.38
418.274	879.38
418.497	890.38
418.72	916.38
418.943	932.38
419.166	975.38
419.389	984.38
419.611	982.38
419.834	973.38
420.057	1059.38
420.28	1086.38
420.503	980.38
420.726	885.38
420.948	857.38
421.171	867.38
421.394	877.38
421.617	836.38
421.839	853.38
422.062	921.38
422.285	915.38
422.507	922.38
422.73	937.38
422.953	949.38
423.175	913.38
423.398	924.38
423.621	963.38
423.843	1019.38
424.066	943.38
424.288	909.38
424.511	864.38
424.733	894.38
424.956	935.38
425.178	1015.38
425.401	1180.38
425.623	1317.38
425.846	1091.38
426.068	970.38
426.291	1065.38
426.513	998.38
426.735	939.38
426.958	937.38
427.18	1111.38
427.402	1429.38
427.625	1392.38
427.847	1143.38
428.069	883.38
428.292	882.38
428.514	869.38
428.736	851.38
428.958	928.38
429.181	1083.38
429.403	937.38
429.625	883.38
429.847	836.38
430.069	876.38
430.292	880.38
430.514	824.38
430.736	945.38
430.958	1138.38
431.18	1060.38
431.402	831.38
431.624	799.38
431.846	772.38
432.068	772.38
432.29	809.38
432.512	903.38
432.734	1127.38
432.956	1067.38
433.178	855.38
433.4	816.38
433.622	832.38
433.844	864.38
434.066	916.38
434.287	880.38
434.509	858.38
434.731	881.38
434.953	844.38
435.175	879.38
435.397	973.38
435.618	856.38
435.84	807.38
436.062	806.38
436.284	808.38
436.505	776.38
436.727	772.38
436.949	789.38
437.17	825.38
437.392	831.38
437.614	819.38
437.835	789.38
438.057	819.38
438.278	957.38
438.5	1305.38
438.721	1347.38
438.943	918.38
439.165	776.38
439.386	783.38
439.608	771.38
439.829	776.38
440.05	755.38
440.272	827.38
440.493	960.38
440.715	1206.38
440.936	916.38
441.158	843.38
441.379	851.38
441.6	967.38
441.822	989.38
442.043	892.38
442.264	856.38
442.486	847.38
442.707	837.38
442.928	851.38
443.149	847.38
443.371	899.38
443.592	895.38
443.813	884.38
444.034	875.38
444.255	881.38
444.476	948.38
444.698	910.38
444.919	941.38
445.14	1041.38
445.361	964.38
445.582	913.38
445.803	883.38
446.024	915.38
446.245	889.38
446.466	870.38
446.687	850.38
446.908	851.38
447.129	826.38
447.35	792.38
447.571	797.38
447.792	763.38
448.013	783.38
448.234	766.38
448.455	764.38
448.675	778.38
448.896	796.38
449.117	795.38
449.338	781.38
449.559	799.38
449.779	839.38
450	858.38
450.221	808.38
450.442	796.38
450.662	781.38
450.883	777.38
451.104	803.38
451.324	792.38
451.545	811.38
451.766	771.38
451.986	760.38
452.207	768.38
452.428	742.38
452.648	765.38
452.869	795.38
453.089	811.38
453.31	779.38
453.53	731.38
453.751	737.38
453.971	732.38
454.192	751.38
454.412	774.38
454.633	741.38
454.853	723.38
455.073	730.38
455.294	711.38
455.514	698.38
455.734	737.38
455.955	781.38
456.175	811.38
456.395	749.38
456.616	706.38
456.836	680.38
457.056	707.38
457.276	657.38
457.497	701.38
457.717	704.38
457.937	699.38
458.157	689.38
458.377	704.38
458.598	742.38
458.818	771.38
459.038	807.38
459.258	801.38
459.478	816.38
459.698	899.38
459.918	884.38
460.138	881.38
460.358	857.38
460.578	861.38
460.798	870.38
461.018	902.38
461.238	843.38
461.458	831.38
461.678	843.38
461.898	912.38
462.118	885.38
462.338	920.38
462.558	929.38
462.777	951.38
462.997	1008.38
463.217	1001.38
463.437	1012.38
463.657	1003.38
463.876	946.38
464.096	968.38
464.316	963.38
464.536	969.38
464.755	949.38
464.975	996.38
465.195	928.38
465.414	966.38
465.634	943.38
465.854	928.38
466.073	839.38
466.293	858.38
466.512	905.38
466.732	1012.38
466.951	995.38
467.171	920.38
467.391	879.38
467.61	828.38
467.829	930.38
468.049	919.38
468.268	861.38
468.488	849.38
468.707	891.38
468.927	1059.38
469.146	1120.38
469.365	1009.38
469.585	916.38
469.804	1000.38
470.023	1064.38
470.243	928.38
470.462	885.38
470.681	895.38
470.901	891.38
471.12	956.38
471.339	926.38
471.558	894.38
471.777	915.38
471.997	982.38
472.216	1121.38
472.435	1079.38
472.654	966.38
472.873	920.38
473.092	1025.38
473.311	1029.38
473.53	949.38
473.749	923.38
473.968	947.38
474.187	975.38
474.406	915.38
474.625	924.38
474.844	939.38
475.063	977.38
475.282	997.38
475.501	1045.38
475.72	1086.38
475.939	1072.38
476.158	1080.38
476.377	1208.38
476.596	1390.38
476.814	1456.38
477.033	1208.38
477.252	1063.38
477.471	977.38
477.69	998.38
477.908	1063.38
478.127	1144.38
478.346	1061.38
478.564	1131.38
478.783	1065.38
479.002	1121.38
479.22	1257.38
479.439	1386.38
479.658	1187.38
479.876	1096.38
480.095	1165.38
480.313	1217.38
480.532	1096.38
480.751	1073.38
480.969	1104.38
481.188	1265.38
481.406	1299.38
481.624	1237.38
481.843	1100.38
482.061	1067.38
482.28	1183.38
482.498	1403.38
482.717	1344.38
482.935	1160.38
483.153	1129.38
483.372	1047.38
483.59	1023.38
483.808	1049.38
484.027	993.38
484.245	983.38
484.463	968.38
484.681	1035.38
484.9	1075.38
485.118	1161.38
485.336	1090.38
485.554	1019.38
485.772	1040.38
485.99	1136.38
486.209	1219.38
486.427	1170.38
486.645	1155.38
486.863	1222.38
487.081	1220.38
487.299	1325.38
487.517	1303.38
487.735	1201.38
487.953	1217.38
488.171	1217.38
488.389	1144.38
488.607	1123.38
488.825	1121.38
489.043	1199.38
489.261	1383.38
489.479	1467.38
489.696	1231.38
489.914	1153.38
490.132	1101.38
490.35	1080.38
490.568	1109.38
490.786	1098.38
491.003	1124.38
491.221	1149.38
491.439	1131.38
491.657	1108.38
491.874	1192.38
492.092	1440.38
492.31	1750.38
492.527	1702.38
492.745	1468.38
492.963	1277.38
493.18	1267.38
493.398	1277.38
493.615	1241.38
493.833	1239.38
494.05	1196.38
494.268	1233.38
494.485	1214.38
494.703	1185.38
494.92	1206.38
495.138	1187.38
495.355	1153.38
495.573	1225.38
495.79	1322.38
496.008	1682.38
496.225	1468.38
496.442	1308.38
496.66	1289.38
496.877	1391.38
497.094	1351.38
497.312	1308.38
497.529	1267.38
497.746	1312.38
497.963	1364.38
498.181	1420.38
498.398	1595.38
498.615	1624.38
498.832	1696.38
499.049	1679.38
499.267	1493.38
499.484	1539.38
499.701	1551.38
499.918	1692.38
500.135	1855.38
500.352	1870.38
500.569	1917.38
500.786	1986.38
501.003	2017.38
501.22	1788.38
501.437	1697.38
501.654	1623.38
501.871	1593.38
502.088	1617.38
502.305	1476.38
502.522	1472.38
502.739	1467.38
502.956	1356.38
503.172	1334.38
503.389	1255.38
503.606	1202.38
503.823	1262.38
504.04	1263.38
504.256	1305.38
504.473	1320.38
504.69	1365.38
504.907	1361.38
505.123	1328.38
505.34	1431.38
505.557	1387.38
505.773	1304.38
505.99	1263.38
506.207	1327.38
506.423	1251.38
506.64	1162.38
506.856	1212.38
507.073	1338.38
507.289	1323.38
507.506	1323.38
507.722	1382.38
507.939	1418.38
508.155	1393.38
508.372	1270.38
508.588	1240.38
508.805	1196.38
509.021	1198.38
509.238	1157.38
509.454	1153.38
509.67	1155.38
509.887	1188.38
510.103	1311.38
510.319	1267.38
510.536	1176.38
510.752	1075.38
510.968	1023.38
511.184	1013.38
511.401	1014.38
511.617	1023.38
511.833	999.38
512.049	1041.38
512.265	1079.38
512.481	1097.38
512.698	1233.38
512.914	1339.38
513.13	1200.38
513.346	1090.38
513.562	1127.38
513.778	1131.38
513.994	1103.38
514.21	1175.38
514.426	1165.38
514.642	1128.38
514.858	1103.38
515.074	1145.38
515.29	1263.38
515.506	1395.38
515.721	1307.38
515.937	1223.38
516.153	1137.38
516.369	1165.38
516.585	1175.38
516.801	1289.38
517.016	1592.38
517.232	1485.38
517.448	1468.38
517.664	1348.38
517.879	1281.38
518.095	1249.38
518.311	1234.38
518.527	1331.38
518.742	1364.38
518.958	1428.38
519.173	1377.38
519.389	1307.38
519.605	1369.38
519.82	1473.38
520.036	1693.38
520.251	1649.38
520.467	1541.38
520.682	2218.38
520.898	2655.38
521.113	2577.38
521.329	1685.38
521.544	1509.38
521.76	1456.38
521.975	1331.38
522.19	1253.38
522.406	1298.38
522.621	1438.38
522.836	1469.38
523.052	1499.38
523.267	1247.38
523.482	1266.38
523.698	1327.38
523.913	1297.38
524.128	1188.38
524.343	1155.38
524.559	1175.38
524.774	1114.38
524.989	1130.38
525.204	1169.38
525.419	1259.38
525.634	1209.38
525.849	1206.38
526.064	1227.38
526.28	1259.38
526.495	1430.38
526.71	1418.38
526.925	1265.38
527.14	1340.38
527.355	1336.38
527.57	1106.38
527.785	1145.38
527.999	1093.38
528.214	1042.38
528.429	1049.38
528.644	1069.38
528.859	1041.38
529.074	963.38
529.289	968.38
529.503	962.38
529.718	972.38
529.933	1153.38
530.148	1088.38
530.363	1015.38
530.577	966.38
530.792	975.38
531.007	955.38
531.221	935.38
531.436	959.38
531.651	978.38
531.865	976.38
532.08	997.38
532.295	958.38
532.509	1038.38
532.724	1127.38
532.938	1222.38
533.153	1438.38
533.367	1179.38
533.582	1137.38
533.796	1057.38
534.011	1021.38
534.225	1016.38
534.44	1012.38
534.654	1040.38
534.868	1229.38
535.083	1088.38
535.297	999.38
535.511	1011.38
535.726	1140.38
535.94	1060.38
536.154	1017.38
536.369	953.38
536.583	980.38
536.797	973.38
537.011	995.38
537.225	1108.38
537.44	1124.38
537.654	1015.38
537.868	994.38
538.082	967.38
538.296	975.38
538.51	1037.38
538.724	1053.38
538.938	1045.38
539.153	959.38
539.367	929.38
539.581	961.38
539.795	996.38
540.009	1088.38
540.222	1023.38
540.436	1053.38
540.65	1114.38
540.864	1123.38
541.078	1178.38
541.292	1255.38
541.506	1055.38
541.72	1043.38
541.934	1000.38
542.147	1007.38
542.361	994.38
542.575	1035.38
542.789	974.38
543.002	919.38
543.216	1039.38
543.43	927.38
543.644	905.38
543.857	882.38
544.071	905.38
544.285	895.38
544.498	898.38
544.712	931.38
544.925	983.38
545.139	925.38
545.352	881.38
545.566	894.38
545.779	1004.38
545.993	921.38
546.206	875.38
546.42	867.38
546.633	864.38
546.847	841.38
547.06	853.38
547.274	849.38
547.487	874.38
547.7	939.38
547.914	966.38
548.127	1112.38
548.34	1088.38
548.554	935.38
548.767	978.38
548.98	1065.38
549.193	982.38
549.407	1017.38
549.62	1159.38
549.833	1079.38
550.046	1131.38
550.259	1154.38
550.473	999.38
550.686	963.38
550.899	993.38
551.112	950.38
551.325	1058.38
551.538	1094.38
551.751	948.38
551.964	875.38
552.177	885.38
552.39	839.38
552.603	878.38
552.816	941.38
553.029	866.38
553.242	835.38
553.455	903.38
553.667	1007.38
553.88	943.38
554.093	867.38
554.306	805.38
554.519	787.38
554.732	776.38
554.944	750.38
555.157	774.38
555.37	762.38
555.583	727.38
555.795	744.38
556.008	783.38
556.221	789.38
556.433	760.38
556.646	771.38
556.859	735.38
557.071	785.38
557.284	793.38
557.496	822.38
557.709	793.38
557.921	798.38
558.134	740.38
558.346	709.38
558.559	708.38
558.771	733.38
558.984	774.38
559.196	763.38
559.409	724.38
559.621	707.38
559.833	690.38
560.046	714.38
560.258	715.38
560.47	725.38
560.683	694.38
560.895	655.38
561.107	665.38
561.32	661.38
561.532	676.38
561.744	714.38
561.956	782.38
562.168	697.38
562.381	687.38
562.593	688.38
562.805	726.38
563.017	695.38
563.229	668.38
563.441	670.38
563.653	681.38
563.865	661.38
564.077	688.38
564.289	667.38
564.501	699.38
564.713	719.38
564.925	712.38
565.137	677.38
565.349	689.38
565.561	720.38
565.773	712.38
565.985	726.38
566.197	744.38
566.408	841.38
566.62	816.38
566.832	821.38
567.044	816.38
567.255	896.38
567.467	939.38
567.679	865.38
567.891	870.38
568.102	859.38
568.314	891.38
568.526	823.38
568.737	805.38
568.949	834.38
569.161	758.38
569.372	681.38
569.584	667.38
569.795	647.38
570.007	665.38
570.218	723.38
570.43	719.38
570.641	677.38
570.853	669.38
571.064	655.38
571.276	669.38
571.487	678.38
571.698	638.38
571.91	673.38
572.121	645.38
572.333	605.38
572.544	605.38
572.755	612.38
572.966	601.38
573.178	588.38
573.389	629.38
573.6	625.38
573.811	605.38
574.023	567.38
574.234	591.38
574.445	585.38
574.656	573.38
574.867	563.38
575.078	597.38
575.289	593.38
575.501	589.38
575.712	570.38
575.923	556.38
576.134	528.38
576.345	542.38
576.556	539.38
576.767	523.38
576.978	524.38
577.188	524.38
577.399	504.38
577.61	516.38
577.821	503.38
578.032	513.38
578.243	571.38
578.454	561.38
578.665	577.38
578.875	543.38
579.086	541.38
579.297	512.38
579.508	540.38
579.718	545.38
579.929	539.38
580.14	517.38
580.35	497.38
580.561	483.38
580.772	483.38
580.982	461.38
581.193	452.38
581.403	468.38
581.614	454.38
581.825	453.38
582.035	458.38
582.246	469.38
582.456	463.38
582.667	458.38
582.877	448.38
583.087	464.38
583.298	453.38
583.508	476.38
583.719	438.38
583.929	451.38
584.139	447.38
584.35	453.38
584.56	475.38
584.77	467.38
584.981	450.38
585.191	470.38
585.401	456.38
585.611	468.38
585.821	497.38
586.032	488.38
586.242	481.38
586.452	463.38
586.662	460.38
586.872	459.38
587.082	496.38
587.292	479.38
587.502	461.38
587.713	430.38
587.923	457.38
588.133	489.38
588.343	475.38
588.553	448.38
588.762	429.38
588.972	434.38
589.182	456.38
589.392	443.38
589.602	444.38
589.812	486.38
590.022	485.38
590.232	494.38
590.441	459.38
590.651	435.38
590.861	452.38
591.071	465.38
591.281	455.38
591.49	452.38
591.7	439.38
591.91	438.38
592.119	445.38
592.329	460.38
592.539	454.38
592.748	478.38
592.958	480.38
593.167	451.38
593.377	473.38
593.587	486.38
593.796	490.38
594.006	471.38
594.215	476.38
594.424	458.38
594.634	477.38
594.843	454.38
595.053	480.38
595.262	429.38
595.472	429.38
595.681	439.38
595.89	433.38
596.1	424.38
596.309	431.38
596.518	407.38
596.727	411.38
596.937	405.38
597.146	444.38
597.355	473.38
597.564	422.38
597.774	409.38
597.983	393.38
598.192	391.38
598.401	370.38
598.61	382.38
598.819	379.38
599.028	383.38
599.237	375.38
599.446	372.38
599.655	378.38
599.864	353.38
600.073	361.38
600.282	386.38
600.491	377.38
600.7	383.38
600.909	373.38
601.118	374.38
601.327	359.38
601.536	371.38
601.745	376.38
601.953	394.38
602.162	365.38
602.371	397.38
602.58	386.38
602.789	375.38
602.997	352.38
603.206	376.38
603.415	363.38
603.623	360.38
603.832	354.38
604.041	364.38
604.249	353.38
604.458	379.38
604.666	367.38
604.875	354.38
605.084	349.38
605.292	351.38
605.501	368.38
605.709	376.38
605.918	349.38
606.126	352.38
606.334	354.38
606.543	338.38
606.751	358.38
606.96	347.38
607.168	336.38
607.376	335.38
607.585	344.38
607.793	353.38
608.001	353.38
608.21	344.38
608.418	356.38
608.626	360.38
608.834	334.38
609.043	351.38
609.251	335.38
609.459	341.38
609.667	334.38
609.875	349.38
610.083	319.38
610.291	358.38
610.499	335.38
610.707	347.38
610.916	332.38
611.124	319.38
611.332	305.38
611.54	315.38
611.748	337.38
611.955	326.38
612.163	323.38
612.371	330.38
612.579	321.38
612.787	324.38
612.995	331.38
613.203	323.38
613.411	328.38
613.618	327.38
613.826	359.38
614.034	362.38
614.242	332.38
614.449	328.38
614.657	322.38
614.865	321.38
615.072	307.38
615.28	313.38
615.488	304.38
615.695	317.38
615.903	304.38
616.111	308.38
616.318	322.38
616.526	321.38
616.733	321.38
616.941	321.38
617.148	292.38
617.356	311.38
617.563	291.38
617.771	303.38
617.978	318.38
618.185	319.38
618.393	293.38
618.6	318.38
618.807	313.38
619.015	324.38
619.222	321.38
619.429	314.38
619.637	323.38
619.844	303.38
620.051	288.38
620.258	291.38
620.466	302.38
620.673	296.38
620.88	284.38
621.087	282.38
621.294	281.38
621.501	288.38
621.708	301.38
621.915	303.38
622.122	309.38
622.329	298.38
622.536	303.38
622.743	284.38
622.95	279.38
623.157	281.38
623.364	315.38
623.571	291.38
623.778	294.38
623.985	293.38
624.192	275.38
624.399	295.38
624.606	308.38
624.812	275.38
625.019	298.38
625.226	294.38
625.433	313.38
625.639	271.38
625.846	271.38
626.053	281.38
626.259	263.38
626.466	277.38
626.673	300.38
626.879	264.38
627.086	257.38
627.293	258.38
627.499	265.38
627.706	273.38
627.912	285.38
628.119	256.38
628.325	274.38
628.532	240.38
628.738	254.38
628.945	271.38
629.151	268.38
629.357	239.38
629.564	275.38
629.77	285.38
629.976	263.38
630.183	245.38
630.389	262.38
630.595	238.38
630.802	250.38
631.008	267.38
631.214	257.38
631.42	247.38
631.627	245.38
631.833	243.38
632.039	255.38
632.245	254.38
632.451	237.38
632.657	248.38
632.863	228.38
633.069	231.38
633.275	242.38
633.481	241.38
633.688	231.38
633.893	247.38
634.099	237.38
634.305	232.38
634.511	223.38
634.717	243.38
634.923	209.38
635.129	231.38
635.335	243.38
635.541	234.38
635.747	233.38
635.952	225.38
636.158	230.38
636.364	235.38
636.57	240.38
636.775	255.38
636.981	240.38
637.187	218.38
637.392	238.38
637.598	228.38
637.804	225.38
638.009	238.38
638.215	224.38
638.421	215.38
638.626	209.38
638.832	223.38
639.037	218.38
639.243	207.38
639.448	233.38
639.654	225.38
639.859	226.38
640.065	225.38
640.27	225.38
640.475	229.38
640.681	216.38
640.886	221.38
641.091	235.38
641.297	228.38
641.502	200.38
641.707	209.38
641.913	229.38
642.118	227.38
642.323	214.38
642.528	230.38
642.733	228.38
642.939	215.38
643.144	211.38
643.349	220.38
643.554	214.38
643.759	219.38
643.964	209.38
644.169	199.38
644.374	196.38
644.579	204.38
644.784	200.38
644.989	212.38
645.194	209.38
645.399	213.38
645.604	198.38
645.809	212.38
646.014	201.38
646.219	202.38
646.423	211.38
646.628	204.38
646.833	218.38
647.038	208.38
647.243	205.38
647.447	179.38
647.652	208.38
647.857	201.38
648.062	230.38
648.266	222.38
648.471	210.38
648.676	202.38
648.88	188.38
649.085	218.38
649.289	207.38
649.494	199.38
649.698	207.38
649.903	217.38
650.107	225.38
650.312	195.38
650.516	195.38
650.721	189.38
650.925	182.38
651.13	195.38
651.334	181.38
651.539	191.38
651.743	179.38
651.947	179.38
652.152	183.38
652.356	182.38
652.56	180.38
652.764	177.38
652.969	163.38
653.173	160.38
653.377	165.38
653.581	171.38
653.785	175.38
653.99	166.38
654.194	168.38
654.398	159.38
654.602	160.38
654.806	153.38
655.01	160.38
655.214	159.38
655.418	147.38
655.622	145.38
655.826	155.38
656.03	164.38
656.234	164.38
656.438	174.38
656.642	171.38
656.846	153.38
657.049	142.38
657.253	149.38
657.457	139.38
657.661	140.38
657.865	128.38
658.068	119.38
658.272	121.38
658.476	116.38
658.68	114.38
658.883	112.38
659.087	120.38
659.291	112.38
659.494	120.38
659.698	113.38
659.901	109.38
660.105	99.38
660.309	101.38
660.512	108.38
660.716	101.38
660.919	103.38
661.123	104.38
661.326	97.38
661.53	110.38
661.733	91.38
661.936	92.38
662.14	79.38
662.343	89.38
662.546	83.38
662.75	90.38
662.953	70.38
663.156	84.38
663.36	92.38
663.563	86.38
663.766	72.38
663.969	87.38
664.173	77.38
664.376	78.38
664.579	73.38
664.782	84.38
664.985	83.38
665.188	71.38
665.391	86.38
665.594	76.38
665.797	73.38
666	76.38
666.203	79.38
666.406	69.38
666.609	80.38
666.812	75.38
667.015	85.38
667.218	90.38
667.421	72.38
667.624	93.38
667.827	70.38
668.03	73.38
668.232	69.38
668.435	85.38
668.638	74.38
668.841	77.38
669.043	95.38
669.246	76.38
669.449	86.38
669.651	80.38
669.854	84.38
670.057	77.38
670.259	79.38
670.462	80.38
670.665	78.38
670.867	78.38
671.07	71.38
671.272	89.38
671.475	93.38
671.677	84.38
671.88	78.38
672.082	70.38
672.284	81.38
672.487	77.38
672.689	73.38
672.892	84.38
