Data from NickelSpatula.Lamp.E10.P2_HRD10591_11-58-52-527.txt Node
Date: Tue Jul 23 11:58:52 EDT 2019
User: cochatt
Spectrometer: HR+D1059
Trigger mode: 1
Integration Time (sec): 1.000000E-1
Scans to average: 1
Electric dark correction enabled: true
Nonlinearity correction enabled: false
Boxcar width: 0
XAxis mode: Wavelengths
Number of Pixels in Spectrum: 2048
>>>>>Begin Spectral Data<<<<<
223.165	-18.38
223.4	-18.38
223.635	-18.38
223.869	-8.38
224.104	-7.38
224.338	-3.38
224.573	-21.38
224.808	-26.38
225.042	-9.38
225.277	0.62
225.511	-7.38
225.746	9.62
225.98	6.62
226.215	29.62
226.449	-9.38
226.683	25.62
226.918	10.62
227.152	28.62
227.387	22.62
227.621	25.62
227.856	54.62
228.09	41.62
228.324	48.62
228.559	56.62
228.793	72.62
229.027	141.62
229.262	162.62
229.496	167.62
229.73	161.62
229.964	192.62
230.199	219.62
230.433	221.62
230.667	226.62
230.901	203.62
231.136	183.62
231.37	200.62
231.604	230.62
231.838	232.62
232.072	264.62
232.306	248.62
232.541	243.62
232.775	241.62
233.009	269.62
233.243	299.62
233.477	322.62
233.711	348.62
233.945	314.62
234.179	334.62
234.413	359.62
234.647	359.62
234.881	468.62
235.115	438.62
235.349	402.62
235.583	357.62
235.817	359.62
236.051	376.62
236.285	430.62
236.519	460.62
236.753	442.62
236.987	452.62
237.221	409.62
237.455	425.62
237.689	430.62
237.922	466.62
238.156	478.62
238.39	566.62
238.624	668.62
238.858	604.62
239.091	482.62
239.325	508.62
239.559	498.62
239.793	583.62
240.027	665.62
240.26	630.62
240.494	590.62
240.728	596.62
240.961	691.62
241.195	646.62
241.429	667.62
241.662	624.62
241.896	526.62
242.13	480.62
242.363	440.62
242.597	492.62
242.83	524.62
243.064	561.62
243.298	558.62
243.531	616.62
243.765	654.62
243.998	632.62
244.232	592.62
244.465	602.62
244.699	584.62
244.932	670.62
245.166	637.62
245.399	562.62
245.633	564.62
245.866	608.62
246.099	606.62
246.333	723.62
246.566	785.62
246.8	770.62
247.033	752.62
247.266	685.62
247.5	715.62
247.733	693.62
247.966	674.62
248.2	701.62
248.433	769.62
248.666	854.62
248.899	877.62
249.133	850.62
249.366	970.62
249.599	1091.62
249.832	940.62
250.066	846.62
250.299	854.62
250.532	834.62
250.765	846.62
250.998	759.62
251.231	724.62
251.465	824.62
251.698	839.62
251.931	833.62
252.164	866.62
252.397	954.62
252.63	1055.62
252.863	1188.62
253.096	1194.62
253.329	1164.62
253.562	1150.62
253.795	1267.62
254.028	1378.62
254.261	1430.62
254.494	1292.62
254.727	1201.62
254.96	1137.62
255.193	1207.62
255.426	1143.62
255.659	898.62
255.892	824.62
256.124	864.62
256.357	1078.62
256.59	1238.62
256.823	1210.62
257.056	981.62
257.289	913.62
257.521	993.62
257.754	1137.62
257.987	1280.62
258.22	1118.62
258.452	991.62
258.685	1154.62
258.918	1308.62
259.151	1282.62
259.383	1313.62
259.616	1482.62
259.849	1564.62
260.081	1738.62
260.314	1925.62
260.547	1498.62
260.779	1517.62
261.012	1720.62
261.244	1630.62
261.477	1642.62
261.71	1561.62
261.942	1335.62
262.175	1322.62
262.407	1235.62
262.64	1276.62
262.872	1511.62
263.105	1656.62
263.337	1744.62
263.57	1549.62
263.802	1065.62
264.035	924.62
264.267	879.62
264.499	768.62
264.732	679.62
264.964	697.62
265.197	745.62
265.429	751.62
265.661	817.62
265.894	863.62
266.126	937.62
266.358	1033.62
266.591	1249.62
266.823	1526.62
267.055	1413.62
267.287	1261.62
267.52	1302.62
267.752	1342.62
267.984	1497.62
268.216	1403.62
268.448	1144.62
268.681	1115.62
268.913	1239.62
269.145	1288.62
269.377	1304.62
269.609	1316.62
269.841	1236.62
270.073	1369.62
270.306	1438.62
270.538	1394.62
270.77	1430.62
271.002	1401.62
271.234	1489.62
271.466	1536.62
271.698	1479.62
271.93	1452.62
272.162	1449.62
272.394	1448.62
272.626	1440.62
272.858	1495.62
273.09	1494.62
273.322	1353.62
273.553	1301.62
273.785	1541.62
274.017	2015.62
274.249	2471.62
274.481	2579.62
274.713	2904.62
274.945	3184.62
275.176	3325.62
275.408	2910.62
275.64	2692.62
275.872	2629.62
276.104	2270.62
276.335	1964.62
276.567	1928.62
276.799	2004.62
277.031	2094.62
277.262	1647.62
277.494	1254.62
277.726	1258.62
277.957	1357.62
278.189	1528.62
278.421	1495.62
278.652	1480.62
278.884	1405.62
279.115	1283.62
279.347	1202.62
279.579	1200.62
279.81	1236.62
280.042	1220.62
280.273	1264.62
280.505	1169.62
280.736	1044.62
280.968	1044.62
281.199	1095.62
281.431	1235.62
281.662	1259.62
281.894	1175.62
282.125	1287.62
282.356	1377.62
282.588	1385.62
282.819	1261.62
283.051	1427.62
283.282	1718.62
283.513	1976.62
283.745	2236.62
283.976	2204.62
284.207	2064.62
284.439	2123.62
284.67	2053.62
284.901	1829.62
285.132	1936.62
285.364	2054.62
285.595	1831.62
285.826	2033.62
286.057	2094.62
286.288	2009.62
286.52	2037.62
286.751	2138.62
286.982	2122.62
287.213	1839.62
287.444	1788.62
287.675	1889.62
287.906	1833.62
288.138	1560.62
288.369	1373.62
288.6	1318.62
288.831	1336.62
289.062	1586.62
289.293	1710.62
289.524	1609.62
289.755	1641.62
289.986	1681.62
290.217	1488.62
290.448	1142.62
290.679	982.62
290.91	918.62
291.141	965.62
291.371	972.62
291.602	985.62
291.833	967.62
292.064	1070.62
292.295	1256.62
292.526	1437.62
292.757	1466.62
292.987	1568.62
293.218	1597.62
293.449	1631.62
293.68	1682.62
293.91	1618.62
294.141	1654.62
294.372	1580.62
294.603	1467.62
294.833	1617.62
295.064	1891.62
295.295	1760.62
295.525	1343.62
295.756	1131.62
295.987	981.62
296.217	1012.62
296.448	1082.62
296.679	1145.62
296.909	1261.62
297.14	1327.62
297.37	1434.62
297.601	1388.62
297.831	1172.62
298.062	1290.62
298.292	1477.62
298.523	1635.62
298.753	1831.62
298.984	1603.62
299.214	1277.62
299.445	1089.62
299.675	1072.62
299.905	1045.62
300.136	1098.62
300.366	1208.62
300.597	1172.62
300.827	1048.62
301.057	1024.62
301.288	1005.62
301.518	1110.62
301.748	1240.62
301.979	1305.62
302.209	1464.62
302.439	1470.62
302.669	1260.62
302.9	1260.62
303.13	1157.62
303.36	1082.62
303.59	1038.62
303.82	1104.62
304.051	1272.62
304.281	1357.62
304.511	1285.62
304.741	1178.62
304.971	1211.62
305.201	1310.62
305.431	1229.62
305.661	1084.62
305.891	1070.62
306.121	1083.62
306.352	970.62
306.582	886.62
306.812	868.62
307.042	878.62
307.272	806.62
307.502	815.62
307.731	892.62
307.961	936.62
308.191	838.62
308.421	821.62
308.651	789.62
308.881	775.62
309.111	778.62
309.341	812.62
309.571	911.62
309.8	920.62
310.03	986.62
310.26	1041.62
310.49	1005.62
310.72	868.62
310.949	855.62
311.179	880.62
311.409	928.62
311.639	1122.62
311.868	1413.62
312.098	1834.62
312.328	1957.62
312.557	1895.62
312.787	1909.62
313.017	1701.62
313.246	1825.62
313.476	1997.62
313.706	1656.62
313.935	1280.62
314.165	1056.62
314.394	967.62
314.624	968.62
314.853	1022.62
315.083	1004.62
315.312	1010.62
315.542	1027.62
315.771	933.62
316.001	888.62
316.23	852.62
316.46	861.62
316.689	888.62
316.919	878.62
317.148	906.62
317.377	896.62
317.607	896.62
317.836	940.62
318.065	1145.62
318.295	1240.62
318.524	1196.62
318.753	1007.62
318.983	946.62
319.212	924.62
319.441	1022.62
319.67	1152.62
319.9	1223.62
320.129	1127.62
320.358	1008.62
320.587	990.62
320.816	1026.62
321.046	1181.62
321.275	1378.62
321.504	1391.62
321.733	1254.62
321.962	1257.62
322.191	1189.62
322.42	1130.62
322.649	1158.62
322.878	1215.62
323.108	1216.62
323.337	1125.62
323.566	1081.62
323.795	1060.62
324.024	1052.62
324.253	979.62
324.482	973.62
324.71	1112.62
324.939	1212.62
325.168	1134.62
325.397	935.62
325.626	922.62
325.855	914.62
326.084	942.62
326.313	893.62
326.542	840.62
326.77	884.62
326.999	908.62
327.228	946.62
327.457	1029.62
327.686	1022.62
327.914	905.62
328.143	848.62
328.372	834.62
328.6	839.62
328.829	868.62
329.058	925.62
329.287	925.62
329.515	901.62
329.744	900.62
329.972	839.62
330.201	823.62
330.43	849.62
330.658	933.62
330.887	1090.62
331.115	1054.62
331.344	1006.62
331.572	944.62
331.801	896.62
332.03	853.62
332.258	892.62
332.486	933.62
332.715	1008.62
332.943	932.62
333.172	897.62
333.4	970.62
333.629	1040.62
333.857	1118.62
334.085	1100.62
334.314	1114.62
334.542	1052.62
334.771	957.62
334.999	929.62
335.227	922.62
335.455	938.62
335.684	1056.62
335.912	1216.62
336.14	1346.62
336.369	1270.62
336.597	1235.62
336.825	1368.62
337.053	1526.62
337.281	1251.62
337.51	978.62
337.738	996.62
337.966	1086.62
338.194	1213.62
338.422	1098.62
338.65	979.62
338.878	887.62
339.106	938.62
339.334	1049.62
339.562	1103.62
339.79	1020.62
340.018	984.62
340.246	1073.62
340.474	1226.62
340.702	1282.62
340.93	1340.62
341.158	1345.62
341.386	1141.62
341.614	1096.62
341.842	1136.62
342.07	1164.62
342.298	1358.62
342.526	1393.62
342.754	1222.62
342.981	1114.62
343.209	1071.62
343.437	1148.62
343.665	1237.62
343.893	1184.62
344.12	1390.62
344.348	1634.62
344.576	1400.62
344.804	1186.62
345.031	1056.62
345.259	1010.62
345.487	1020.62
345.714	1039.62
345.942	1106.62
346.17	1232.62
346.397	1144.62
346.625	1015.62
346.853	981.62
347.08	967.62
347.308	1033.62
347.535	1138.62
347.763	1171.62
347.99	1010.62
348.218	917.62
348.445	975.62
348.673	1016.62
348.9	1000.62
349.128	1071.62
349.355	1062.62
349.583	1082.62
349.81	1018.62
350.037	955.62
350.265	831.62
350.492	793.62
350.72	772.62
350.947	850.62
351.174	910.62
351.402	933.62
351.629	994.62
351.856	950.62
352.083	909.62
352.311	989.62
352.538	1089.62
352.765	1168.62
352.992	1036.62
353.22	975.62
353.447	1008.62
353.674	989.62
353.901	990.62
354.128	1003.62
354.355	1029.62
354.583	964.62
354.81	1019.62
355.037	1030.62
355.264	1024.62
355.491	1076.62
355.718	1201.62
355.945	1162.62
356.172	1130.62
356.399	1118.62
356.626	1352.62
356.853	1622.62
357.08	1778.62
357.307	1818.62
357.534	1417.62
357.761	1422.62
357.988	1792.62
358.215	2116.62
358.441	1984.62
358.668	1701.62
358.895	1535.62
359.122	1244.62
359.349	1218.62
359.576	1336.62
359.802	1141.62
360.029	978.62
360.256	1032.62
360.483	1309.62
360.709	1650.62
360.936	1692.62
361.163	1459.62
361.39	1161.62
361.616	1065.62
361.843	1257.62
362.07	1539.62
362.296	1392.62
362.523	1100.62
362.749	946.62
362.976	1002.62
363.203	1221.62
363.429	1394.62
363.656	1082.62
363.882	1004.62
364.109	1004.62
364.335	1008.62
364.562	972.62
364.788	1147.62
365.015	1337.62
365.241	1196.62
365.468	986.62
365.694	842.62
365.92	803.62
366.147	784.62
366.373	778.62
366.599	793.62
366.826	808.62
367.052	838.62
367.278	832.62
367.505	806.62
367.731	892.62
367.957	992.62
368.184	1054.62
368.41	1034.62
368.636	1049.62
368.862	1083.62
369.089	1037.62
369.315	925.62
369.541	906.62
369.767	882.62
369.993	878.62
370.219	871.62
370.445	919.62
370.672	1023.62
370.898	1108.62
371.124	1089.62
371.35	972.62
371.576	908.62
371.802	995.62
372.028	1197.62
372.254	1369.62
372.48	1142.62
372.706	1039.62
372.932	1093.62
373.158	1142.62
373.384	1396.62
373.61	1896.62
373.835	1931.62
374.061	1400.62
374.287	1201.62
374.513	1388.62
374.739	1695.62
374.965	1758.62
375.191	1703.62
375.416	1184.62
375.642	997.62
375.868	1230.62
376.094	1392.62
376.319	1209.62
376.545	1336.62
376.771	1381.62
376.997	1202.62
377.222	894.62
377.448	768.62
377.674	758.62
377.899	731.62
378.125	748.62
378.35	753.62
378.576	796.62
378.802	883.62
379.027	966.62
379.253	927.62
379.478	933.62
379.704	1087.62
379.929	1154.62
380.155	1118.62
380.38	971.62
380.606	997.62
380.831	1131.62
381.057	1041.62
381.282	971.62
381.507	1188.62
381.733	1506.62
381.958	1588.62
382.184	1684.62
382.409	1749.62
382.634	1696.62
382.86	1760.62
383.085	1474.62
383.31	1143.62
383.535	1241.62
383.761	1258.62
383.986	1202.62
384.211	1456.62
384.436	1394.62
384.662	1068.62
384.887	1004.62
385.112	1030.62
385.337	1057.62
385.562	1031.62
385.787	1112.62
386.013	1248.62
386.238	1263.62
386.463	1040.62
386.688	985.62
386.913	991.62
387.138	918.62
387.363	956.62
387.588	1001.62
387.813	1015.62
388.038	1149.62
388.263	980.62
388.488	971.62
388.713	1125.62
388.938	1252.62
389.163	1057.62
389.387	918.62
389.612	919.62
389.837	931.62
390.062	978.62
390.287	1015.62
390.512	1004.62
390.736	969.62
390.961	899.62
391.186	862.62
391.411	857.62
391.636	858.62
391.86	931.62
392.085	1025.62
392.31	1020.62
392.534	945.62
392.759	952.62
392.984	1008.62
393.208	979.62
393.433	857.62
393.658	800.62
393.882	814.62
394.107	788.62
394.331	815.62
394.556	797.62
394.78	798.62
395.005	861.62
395.229	890.62
395.454	872.62
395.678	905.62
395.903	936.62
396.127	892.62
396.352	882.62
396.576	979.62
396.801	1004.62
397.025	1160.62
397.249	1150.62
397.474	961.62
397.698	922.62
397.922	953.62
398.147	898.62
398.371	941.62
398.595	986.62
398.82	971.62
399.044	928.62
399.268	1042.62
399.492	1010.62
399.717	1027.62
399.941	1112.62
400.165	1058.62
400.389	1018.62
400.613	1082.62
400.837	1057.62
401.062	920.62
401.286	912.62
401.51	932.62
401.734	938.62
401.958	919.62
402.182	922.62
402.406	913.62
402.63	925.62
402.854	951.62
403.078	1092.62
403.302	1335.62
403.526	1362.62
403.75	1241.62
403.974	1061.62
404.198	1104.62
404.422	1262.62
404.645	1449.62
404.869	1608.62
405.093	1188.62
405.317	978.62
405.541	983.62
405.765	1023.62
405.988	1027.62
406.212	1134.62
406.436	1339.62
406.66	1452.62
406.883	1160.62
407.107	1174.62
407.331	1406.62
407.555	1330.62
407.778	1108.62
408.002	1043.62
408.226	1076.62
408.449	1023.62
408.673	1038.62
408.896	944.62
409.12	929.62
409.344	918.62
409.567	896.62
409.791	911.62
410.014	892.62
410.238	890.62
410.461	873.62
410.685	894.62
410.908	952.62
411.132	930.62
411.355	929.62
411.578	937.62
411.802	949.62
412.025	1023.62
412.249	994.62
412.472	941.62
412.695	978.62
412.919	961.62
413.142	997.62
413.365	1065.62
413.589	1050.62
413.812	982.62
414.035	932.62
414.258	940.62
414.482	1045.62
414.705	1086.62
414.928	910.62
415.151	869.62
415.374	892.62
415.597	912.62
415.821	935.62
416.044	918.62
416.267	898.62
416.49	860.62
416.713	854.62
416.936	876.62
417.159	884.62
417.382	903.62
417.605	878.62
417.828	915.62
418.051	918.62
418.274	932.62
418.497	933.62
418.72	930.62
418.943	985.62
419.166	1008.62
419.389	1038.62
419.611	1039.62
419.834	1047.62
420.057	1148.62
420.28	1122.62
420.503	1068.62
420.726	909.62
420.948	887.62
421.171	900.62
421.394	897.62
421.617	869.62
421.839	868.62
422.062	952.62
422.285	924.62
422.507	937.62
422.73	956.62
422.953	994.62
423.175	931.62
423.398	967.62
423.621	1031.62
423.843	1076.62
424.066	1003.62
424.288	970.62
424.511	932.62
424.733	926.62
424.956	949.62
425.178	1087.62
425.401	1260.62
425.623	1420.62
425.846	1197.62
426.068	1020.62
426.291	1161.62
426.513	1038.62
426.735	943.62
426.958	994.62
427.18	1219.62
427.402	1556.62
427.625	1547.62
427.847	1209.62
428.069	922.62
428.292	916.62
428.514	906.62
428.736	892.62
428.958	980.62
429.181	1136.62
429.403	988.62
429.625	904.62
429.847	857.62
430.069	906.62
430.292	907.62
430.514	860.62
430.736	930.62
430.958	1216.62
431.18	1132.62
431.402	841.62
431.624	818.62
431.846	822.62
432.068	802.62
432.29	841.62
432.512	964.62
432.734	1232.62
432.956	1158.62
433.178	870.62
433.4	850.62
433.622	872.62
433.844	879.62
434.066	969.62
434.287	922.62
434.509	926.62
434.731	940.62
434.953	879.62
435.175	923.62
435.397	1056.62
435.618	918.62
435.84	820.62
436.062	816.62
436.284	853.62
436.505	812.62
436.727	796.62
436.949	798.62
437.17	843.62
437.392	848.62
437.614	839.62
437.835	851.62
438.057	866.62
438.278	1001.62
438.5	1440.62
438.721	1398.62
438.943	971.62
439.165	836.62
439.386	778.62
439.608	784.62
439.829	804.62
440.05	759.62
440.272	861.62
440.493	1042.62
440.715	1246.62
440.936	1000.62
441.158	857.62
441.379	841.62
441.6	1008.62
441.822	1040.62
442.043	889.62
442.264	890.62
442.486	878.62
442.707	905.62
442.928	880.62
443.149	880.62
443.371	881.62
443.592	945.62
443.813	910.62
444.034	909.62
444.255	897.62
444.476	926.62
444.698	928.62
444.919	961.62
445.14	1105.62
445.361	1049.62
445.582	990.62
445.803	932.62
446.024	950.62
446.245	926.62
446.466	893.62
446.687	862.62
446.908	887.62
447.129	850.62
447.35	852.62
447.571	818.62
447.792	782.62
448.013	804.62
448.234	775.62
448.455	803.62
448.675	801.62
448.896	819.62
449.117	790.62
449.338	821.62
449.559	834.62
449.779	926.62
450	871.62
450.221	858.62
450.442	828.62
450.662	799.62
450.883	805.62
451.104	803.62
451.324	787.62
451.545	778.62
451.766	808.62
451.986	773.62
452.207	773.62
452.428	766.62
452.648	782.62
452.869	801.62
453.089	856.62
453.31	844.62
453.53	752.62
453.751	748.62
453.971	740.62
454.192	778.62
454.412	832.62
454.633	774.62
454.853	763.62
455.073	752.62
455.294	724.62
455.514	742.62
455.734	777.62
455.955	818.62
456.175	842.62
456.395	740.62
456.616	722.62
456.836	702.62
457.056	685.62
457.276	718.62
457.497	728.62
457.717	713.62
457.937	717.62
458.157	717.62
458.377	724.62
458.598	750.62
458.818	790.62
459.038	793.62
459.258	829.62
459.478	829.62
459.698	879.62
459.918	894.62
460.138	899.62
460.358	908.62
460.578	886.62
460.798	889.62
461.018	916.62
461.238	839.62
461.458	854.62
461.678	906.62
461.898	953.62
462.118	913.62
462.338	926.62
462.558	979.62
462.777	1019.62
462.997	1033.62
463.217	1020.62
463.437	1031.62
463.657	1012.62
463.876	978.62
464.096	969.62
464.316	944.62
464.536	973.62
464.755	1043.62
464.975	1029.62
465.195	979.62
465.414	1010.62
465.634	958.62
465.854	956.62
466.073	878.62
466.293	871.62
466.512	940.62
466.732	1034.62
466.951	1074.62
467.171	948.62
467.391	863.62
467.61	892.62
467.829	961.62
468.049	949.62
468.268	914.62
468.488	891.62
468.707	924.62
468.927	1063.62
469.146	1156.62
469.365	1035.62
469.585	989.62
469.804	1004.62
470.023	1110.62
470.243	990.62
470.462	966.62
470.681	923.62
470.901	937.62
471.12	989.62
471.339	993.62
471.558	935.62
471.777	938.62
471.997	1029.62
472.216	1141.62
472.435	1079.62
472.654	982.62
472.873	944.62
473.092	1010.62
473.311	1058.62
473.53	967.62
473.749	927.62
473.968	996.62
474.187	1006.62
474.406	951.62
474.625	937.62
474.844	961.62
475.063	1030.62
475.282	1046.62
475.501	1093.62
475.72	1136.62
475.939	1101.62
476.158	1115.62
476.377	1288.62
476.596	1462.62
476.814	1497.62
477.033	1276.62
477.252	1094.62
477.471	1006.62
477.69	1029.62
477.908	1121.62
478.127	1142.62
478.346	1102.62
478.564	1158.62
478.783	1104.62
479.002	1168.62
479.22	1329.62
479.439	1450.62
479.658	1230.62
479.876	1140.62
480.095	1224.62
480.313	1257.62
480.532	1134.62
480.751	1117.62
480.969	1144.62
481.188	1269.62
481.406	1315.62
481.624	1237.62
481.843	1122.62
482.061	1065.62
482.28	1214.62
482.498	1476.62
482.717	1441.62
482.935	1176.62
483.153	1145.62
483.372	1106.62
483.59	1075.62
483.808	1055.62
484.027	1065.62
484.245	985.62
484.463	987.62
484.681	1003.62
484.9	1117.62
485.118	1206.62
485.336	1122.62
485.554	1054.62
485.772	1078.62
485.99	1215.62
486.209	1278.62
486.427	1219.62
486.645	1247.62
486.863	1254.62
487.081	1226.62
487.299	1425.62
487.517	1402.62
487.735	1239.62
487.953	1263.62
488.171	1284.62
488.389	1178.62
488.607	1154.62
488.825	1177.62
489.043	1294.62
489.261	1485.62
489.479	1590.62
489.696	1312.62
489.914	1202.62
490.132	1132.62
490.35	1150.62
490.568	1140.62
490.786	1116.62
491.003	1161.62
491.221	1160.62
491.439	1142.62
491.657	1158.62
491.874	1255.62
492.092	1540.62
492.31	1822.62
492.527	1800.62
492.745	1540.62
492.963	1329.62
493.18	1318.62
493.398	1338.62
493.615	1292.62
493.833	1292.62
494.05	1242.62
494.268	1278.62
494.485	1252.62
494.703	1204.62
494.92	1281.62
495.138	1236.62
495.355	1224.62
495.573	1265.62
495.79	1394.62
496.008	1864.62
496.225	1582.62
496.442	1394.62
496.66	1352.62
496.877	1424.62
497.094	1415.62
497.312	1319.62
497.529	1318.62
497.746	1312.62
497.963	1371.62
498.181	1500.62
498.398	1637.62
498.615	1679.62
498.832	1705.62
499.049	1723.62
499.267	1549.62
499.484	1564.62
499.701	1640.62
499.918	1768.62
500.135	1904.62
500.352	1909.62
500.569	1988.62
500.786	2110.62
501.003	2089.62
501.22	1853.62
501.437	1732.62
501.654	1680.62
501.871	1643.62
502.088	1656.62
502.305	1541.62
502.522	1553.62
502.739	1498.62
502.956	1399.62
503.172	1379.62
503.389	1314.62
503.606	1264.62
503.823	1311.62
504.04	1338.62
504.256	1337.62
504.473	1382.62
504.69	1378.62
504.907	1402.62
505.123	1372.62
505.34	1476.62
505.557	1438.62
505.773	1366.62
505.99	1284.62
506.207	1389.62
506.423	1258.62
506.64	1202.62
506.856	1257.62
507.073	1400.62
507.289	1383.62
507.506	1348.62
507.722	1432.62
507.939	1432.62
508.155	1469.62
508.372	1342.62
508.588	1310.62
508.805	1272.62
509.021	1239.62
509.238	1202.62
509.454	1160.62
509.67	1203.62
509.887	1221.62
510.103	1345.62
510.319	1300.62
510.536	1206.62
510.752	1129.62
510.968	1077.62
511.184	1050.62
511.401	1038.62
511.617	1042.62
511.833	1077.62
512.049	1078.62
512.265	1126.62
512.481	1168.62
512.698	1266.62
512.914	1407.62
513.13	1235.62
513.346	1150.62
513.562	1189.62
513.778	1205.62
513.994	1185.62
514.21	1253.62
514.426	1212.62
514.642	1155.62
514.858	1134.62
515.074	1185.62
515.29	1284.62
515.506	1404.62
515.721	1367.62
515.937	1284.62
516.153	1189.62
516.369	1179.62
516.585	1224.62
516.801	1402.62
517.016	1651.62
517.232	1598.62
517.448	1554.62
517.664	1394.62
517.879	1304.62
518.095	1294.62
518.311	1276.62
518.527	1280.62
518.742	1392.62
518.958	1480.62
519.173	1396.62
519.389	1398.62
519.605	1423.62
519.82	1529.62
520.036	1751.62
520.251	1684.62
520.467	1607.62
520.682	2476.62
520.898	3044.62
521.113	2912.62
521.329	1739.62
521.544	1572.62
521.76	1513.62
521.975	1369.62
522.19	1302.62
522.406	1330.62
522.621	1491.62
522.836	1574.62
523.052	1640.62
523.267	1291.62
523.482	1336.62
523.698	1437.62
523.913	1373.62
524.128	1224.62
524.343	1173.62
524.559	1209.62
524.774	1166.62
524.989	1186.62
525.204	1178.62
525.419	1306.62
525.634	1244.62
525.849	1310.62
526.064	1274.62
526.28	1314.62
526.495	1540.62
526.71	1528.62
526.925	1381.62
527.14	1417.62
527.355	1371.62
527.57	1152.62
527.785	1214.62
527.999	1165.62
528.214	1130.62
528.429	1080.62
528.644	1084.62
528.859	1068.62
529.074	992.62
529.289	993.62
529.503	1016.62
529.718	1052.62
529.933	1214.62
530.148	1232.62
530.363	1054.62
530.577	1042.62
530.792	1022.62
531.007	1049.62
531.221	1000.62
531.436	1004.62
531.651	1018.62
531.865	1021.62
532.08	1017.62
532.295	980.62
532.509	1057.62
532.724	1215.62
532.938	1330.62
533.153	1545.62
533.367	1250.62
533.582	1168.62
533.796	1111.62
534.011	1097.62
534.225	1097.62
534.44	1083.62
534.654	1134.62
534.868	1278.62
535.083	1164.62
535.297	1023.62
535.511	1047.62
535.726	1166.62
535.94	1058.62
536.154	1040.62
536.369	982.62
536.583	1001.62
536.797	1044.62
537.011	1046.62
537.225	1136.62
537.44	1207.62
537.654	1037.62
537.868	1028.62
538.082	1042.62
538.296	1042.62
538.51	1082.62
538.724	1127.62
538.938	1093.62
539.153	995.62
539.367	975.62
539.581	1007.62
539.795	1074.62
540.009	1172.62
540.222	1091.62
540.436	1076.62
540.65	1207.62
540.864	1163.62
541.078	1212.62
541.292	1408.62
541.506	1137.62
541.72	1080.62
541.934	1025.62
542.147	1044.62
542.361	1056.62
542.575	1079.62
542.789	1048.62
543.002	988.62
543.216	1113.62
543.43	983.62
543.644	960.62
543.857	940.62
544.071	940.62
544.285	961.62
544.498	914.62
544.712	924.62
544.925	1009.62
545.139	962.62
545.352	926.62
545.566	922.62
545.779	1079.62
545.993	968.62
546.206	909.62
546.42	893.62
546.633	897.62
546.847	878.62
547.06	870.62
547.274	842.62
547.487	910.62
547.7	990.62
547.914	1005.62
548.127	1143.62
548.34	1091.62
548.554	989.62
548.767	1001.62
548.98	1051.62
549.193	997.62
549.407	1024.62
549.62	1203.62
549.833	1109.62
550.046	1154.62
550.259	1173.62
550.473	1066.62
550.686	979.62
550.899	1015.62
551.112	1003.62
551.325	1070.62
551.538	1075.62
551.751	955.62
551.964	920.62
552.177	890.62
552.39	878.62
552.603	886.62
552.816	950.62
553.029	877.62
553.242	891.62
553.455	944.62
553.667	1033.62
553.88	976.62
554.093	914.62
554.306	876.62
554.519	811.62
554.732	820.62
554.944	784.62
555.157	762.62
555.37	763.62
555.583	770.62
555.795	777.62
556.008	792.62
556.221	828.62
556.433	784.62
556.646	804.62
556.859	810.62
557.071	810.62
557.284	814.62
557.496	849.62
557.709	806.62
557.921	808.62
558.134	761.62
558.346	751.62
558.559	729.62
558.771	762.62
558.984	838.62
559.196	774.62
559.409	749.62
559.621	745.62
559.833	710.62
560.046	753.62
560.258	728.62
560.47	786.62
560.683	704.62
560.895	708.62
561.107	680.62
561.32	691.62
561.532	701.62
561.744	778.62
561.956	792.62
562.168	700.62
562.381	701.62
562.593	739.62
562.805	722.62
563.017	694.62
563.229	688.62
563.441	672.62
563.653	698.62
563.865	710.62
564.077	713.62
564.289	669.62
564.501	707.62
564.713	741.62
564.925	728.62
565.137	676.62
565.349	721.62
565.561	722.62
565.773	727.62
565.985	733.62
566.197	798.62
566.408	837.62
566.62	852.62
566.832	851.62
567.044	856.62
567.255	896.62
567.467	968.62
567.679	869.62
567.891	870.62
568.102	884.62
568.314	906.62
568.526	848.62
568.737	849.62
568.949	851.62
569.161	782.62
569.372	696.62
569.584	702.62
569.795	665.62
570.007	718.62
570.218	772.62
570.43	710.62
570.641	694.62
570.853	682.62
571.064	666.62
571.276	696.62
571.487	704.62
571.698	686.62
571.91	672.62
572.121	692.62
572.333	617.62
572.544	612.62
572.755	628.62
572.966	612.62
573.178	630.62
573.389	665.62
573.6	655.62
573.811	636.62
574.023	593.62
574.234	570.62
574.445	581.62
574.656	587.62
574.867	584.62
575.078	595.62
575.289	584.62
575.501	641.62
575.712	599.62
575.923	564.62
576.134	549.62
576.345	530.62
576.556	562.62
576.767	550.62
576.978	510.62
577.188	517.62
577.399	513.62
577.61	537.62
577.821	556.62
578.032	538.62
578.243	563.62
578.454	581.62
578.665	572.62
578.875	553.62
579.086	566.62
579.297	570.62
579.508	569.62
579.718	550.62
579.929	567.62
580.14	548.62
580.35	510.62
580.561	487.62
580.772	496.62
580.982	477.62
581.193	482.62
581.403	474.62
581.614	451.62
581.825	456.62
582.035	463.62
582.246	473.62
582.456	478.62
582.667	476.62
582.877	463.62
583.087	449.62
583.298	447.62
583.508	464.62
583.719	463.62
583.929	462.62
584.139	458.62
584.35	467.62
584.56	482.62
584.77	471.62
584.981	501.62
585.191	460.62
585.401	461.62
585.611	481.62
585.821	488.62
586.032	492.62
586.242	467.62
586.452	474.62
586.662	487.62
586.872	503.62
587.082	496.62
587.292	477.62
587.502	454.62
587.713	452.62
587.923	471.62
588.133	529.62
588.343	484.62
588.553	447.62
588.762	459.62
588.972	454.62
589.182	458.62
589.392	447.62
589.602	461.62
589.812	484.62
590.022	520.62
590.232	512.62
590.441	473.62
590.651	462.62
590.861	430.62
591.071	450.62
591.281	448.62
591.49	447.62
591.7	435.62
591.91	441.62
592.119	464.62
592.329	461.62
592.539	465.62
592.748	472.62
592.958	477.62
593.167	478.62
593.377	495.62
593.587	483.62
593.796	472.62
594.006	484.62
594.215	475.62
594.424	487.62
594.634	513.62
594.843	480.62
595.053	468.62
595.262	454.62
595.472	444.62
595.681	421.62
595.89	436.62
596.1	446.62
596.309	451.62
596.518	433.62
596.727	400.62
596.937	417.62
597.146	421.62
597.355	478.62
597.564	444.62
597.774	415.62
597.983	404.62
598.192	408.62
598.401	396.62
598.61	400.62
598.819	403.62
599.028	403.62
599.237	402.62
599.446	384.62
599.655	392.62
599.864	366.62
600.073	382.62
600.282	398.62
600.491	384.62
600.7	391.62
600.909	402.62
601.118	387.62
601.327	380.62
601.536	382.62
601.745	377.62
601.953	418.62
602.162	407.62
602.371	405.62
602.58	414.62
602.789	377.62
602.997	382.62
603.206	385.62
603.415	378.62
603.623	365.62
603.832	385.62
604.041	378.62
604.249	374.62
604.458	406.62
604.666	368.62
604.875	362.62
605.084	359.62
605.292	340.62
605.501	385.62
605.709	384.62
605.918	368.62
606.126	341.62
606.334	359.62
606.543	353.62
606.751	371.62
606.96	369.62
607.168	348.62
607.376	320.62
607.585	355.62
607.793	369.62
608.001	364.62
608.21	349.62
608.418	362.62
608.626	381.62
608.834	354.62
609.043	344.62
609.251	336.62
609.459	328.62
609.667	343.62
609.875	345.62
610.083	343.62
610.291	353.62
610.499	356.62
610.707	335.62
610.916	336.62
611.124	338.62
611.332	334.62
611.54	336.62
611.748	356.62
611.955	343.62
612.163	325.62
612.371	332.62
612.579	336.62
612.787	329.62
612.995	345.62
613.203	312.62
613.411	336.62
613.618	321.62
613.826	352.62
614.034	370.62
614.242	326.62
614.449	319.62
614.657	334.62
614.865	328.62
615.072	312.62
615.28	311.62
615.488	335.62
615.695	341.62
615.903	340.62
616.111	322.62
616.318	330.62
616.526	326.62
616.733	320.62
616.941	325.62
617.148	328.62
617.356	307.62
617.563	314.62
617.771	311.62
617.978	326.62
618.185	325.62
618.393	314.62
618.6	317.62
618.807	318.62
619.015	309.62
619.222	323.62
619.429	321.62
619.637	297.62
619.844	307.62
620.051	297.62
620.258	321.62
620.466	292.62
620.673	288.62
620.88	288.62
621.087	292.62
621.294	305.62
621.501	291.62
621.708	290.62
621.915	308.62
622.122	296.62
622.329	300.62
622.536	269.62
622.743	273.62
622.95	287.62
623.157	303.62
623.364	308.62
623.571	314.62
623.778	295.62
623.985	305.62
624.192	303.62
624.399	305.62
624.606	299.62
624.812	291.62
625.019	316.62
625.226	325.62
625.433	298.62
625.639	288.62
625.846	276.62
626.053	283.62
626.259	271.62
626.466	293.62
626.673	312.62
626.879	284.62
627.086	277.62
627.293	277.62
627.499	271.62
627.706	266.62
627.912	259.62
628.119	272.62
628.325	273.62
628.532	277.62
628.738	244.62
628.945	256.62
629.151	268.62
629.357	260.62
629.564	264.62
629.77	258.62
629.976	258.62
630.183	266.62
630.389	269.62
630.595	272.62
630.802	248.62
631.008	266.62
631.214	256.62
631.42	261.62
631.627	253.62
631.833	259.62
632.039	247.62
632.245	251.62
632.451	242.62
632.657	236.62
632.863	258.62
633.069	237.62
633.275	260.62
633.481	239.62
633.688	230.62
633.893	238.62
634.099	261.62
634.305	230.62
634.511	229.62
634.717	228.62
634.923	233.62
635.129	238.62
635.335	240.62
635.541	224.62
635.747	220.62
635.952	230.62
636.158	229.62
636.364	244.62
636.57	245.62
636.775	229.62
636.981	247.62
637.187	231.62
637.392	212.62
637.598	241.62
637.804	255.62
638.009	236.62
638.215	224.62
638.421	229.62
638.626	226.62
638.832	229.62
639.037	218.62
639.243	198.62
639.448	217.62
639.654	236.62
639.859	223.62
640.065	233.62
640.27	255.62
640.475	223.62
640.681	215.62
640.886	215.62
641.091	209.62
641.297	229.62
641.502	231.62
641.707	211.62
641.913	234.62
642.118	232.62
642.323	202.62
642.528	226.62
642.733	208.62
642.939	221.62
643.144	214.62
643.349	236.62
643.554	221.62
643.759	206.62
643.964	202.62
644.169	202.62
644.374	217.62
644.579	195.62
644.784	214.62
644.989	223.62
645.194	215.62
645.399	214.62
645.604	206.62
645.809	212.62
646.014	221.62
646.219	198.62
646.423	228.62
646.628	206.62
646.833	208.62
647.038	212.62
647.243	211.62
647.447	213.62
647.652	201.62
647.857	202.62
648.062	209.62
648.266	208.62
648.471	211.62
648.676	209.62
648.88	214.62
649.085	215.62
649.289	221.62
649.494	209.62
649.698	214.62
649.903	213.62
650.107	190.62
650.312	212.62
650.516	194.62
650.721	202.62
650.925	182.62
651.13	205.62
651.334	187.62
651.539	188.62
651.743	180.62
651.947	174.62
652.152	179.62
652.356	172.62
652.56	176.62
652.764	179.62
652.969	164.62
653.173	186.62
653.377	170.62
653.581	182.62
653.785	176.62
653.99	165.62
654.194	156.62
654.398	162.62
654.602	153.62
654.806	176.62
655.01	156.62
655.214	155.62
655.418	160.62
655.622	158.62
655.826	159.62
656.03	149.62
656.234	161.62
656.438	176.62
656.642	168.62
656.846	158.62
657.049	146.62
657.253	157.62
657.457	136.62
657.661	129.62
657.865	136.62
658.068	133.62
658.272	127.62
658.476	109.62
658.68	120.62
658.883	103.62
659.087	121.62
659.291	116.62
659.494	100.62
659.698	113.62
659.901	118.62
660.105	92.62
660.309	100.62
660.512	104.62
660.716	92.62
660.919	92.62
661.123	112.62
661.326	106.62
661.53	110.62
661.733	92.62
661.936	101.62
662.14	92.62
662.343	86.62
662.546	81.62
662.75	90.62
662.953	89.62
663.156	80.62
663.36	98.62
663.563	73.62
663.766	95.62
663.969	73.62
664.173	92.62
664.376	90.62
664.579	95.62
664.782	101.62
664.985	85.62
665.188	70.62
665.391	75.62
665.594	89.62
665.797	70.62
666	82.62
666.203	74.62
666.406	80.62
666.609	89.62
666.812	77.62
667.015	86.62
667.218	92.62
667.421	90.62
667.624	76.62
667.827	76.62
668.03	85.62
668.232	69.62
668.435	76.62
668.638	76.62
668.841	76.62
669.043	83.62
669.246	82.62
669.449	63.62
669.651	92.62
669.854	87.62
670.057	86.62
670.259	92.62
670.462	91.62
670.665	74.62
670.867	86.62
671.07	87.62
671.272	74.62
671.475	94.62
671.677	94.62
671.88	90.62
672.082	71.62
672.284	80.62
672.487	91.62
672.689	82.62
672.892	90.62
