Data from NickelSpatula.Lamp.E10.P2_HRD10591_11-57-25-533.txt Node
Date: Tue Jul 23 11:57:25 EDT 2019
User: cochatt
Spectrometer: HR+D1059
Trigger mode: 1
Integration Time (sec): 1.000000E-1
Scans to average: 1
Electric dark correction enabled: true
Nonlinearity correction enabled: false
Boxcar width: 0
XAxis mode: Wavelengths
Number of Pixels in Spectrum: 2048
>>>>>Begin Spectral Data<<<<<
223.165	-9.44
223.4	-9.44
223.635	-9.44
223.869	-28.44
224.104	-12.44
224.338	-19.44
224.573	-28.44
224.808	-18.44
225.042	-8.44
225.277	-3.44
225.511	6.56
225.746	8.56
225.98	12.56
226.215	6.56
226.449	15.56
226.683	28.56
226.918	33.56
227.152	16.56
227.387	31.56
227.621	34.56
227.856	51.56
228.09	54.56
228.324	48.56
228.559	53.56
228.793	70.56
229.027	142.56
229.262	159.56
229.496	157.56
229.73	161.56
229.964	178.56
230.199	204.56
230.433	220.56
230.667	210.56
230.901	203.56
231.136	208.56
231.37	216.56
231.604	226.56
231.838	248.56
232.072	249.56
232.306	254.56
232.541	239.56
232.775	265.56
233.009	246.56
233.243	293.56
233.477	306.56
233.711	358.56
233.945	332.56
234.179	325.56
234.413	339.56
234.647	383.56
234.881	470.56
235.115	415.56
235.349	403.56
235.583	361.56
235.817	357.56
236.051	378.56
236.285	416.56
236.519	458.56
236.753	426.56
236.987	413.56
237.221	407.56
237.455	414.56
237.689	432.56
237.922	452.56
238.156	466.56
238.39	545.56
238.624	668.56
238.858	595.56
239.091	480.56
239.325	514.56
239.559	474.56
239.793	530.56
240.027	637.56
240.26	591.56
240.494	569.56
240.728	592.56
240.961	696.56
241.195	640.56
241.429	632.56
241.662	594.56
241.896	530.56
242.13	478.56
242.363	476.56
242.597	482.56
242.83	525.56
243.064	503.56
243.298	596.56
243.531	628.56
243.765	651.56
243.998	629.56
244.232	599.56
244.465	626.56
244.699	564.56
244.932	650.56
245.166	644.56
245.399	562.56
245.633	530.56
245.866	562.56
246.099	623.56
246.333	694.56
246.566	762.56
246.8	766.56
247.033	737.56
247.266	693.56
247.5	690.56
247.733	696.56
247.966	645.56
248.2	688.56
248.433	769.56
248.666	831.56
248.899	809.56
249.133	860.56
249.366	991.56
249.599	1064.56
249.832	933.56
250.066	820.56
250.299	869.56
250.532	823.56
250.765	837.56
250.998	742.56
251.231	697.56
251.465	798.56
251.698	818.56
251.931	764.56
252.164	849.56
252.397	936.56
252.63	1042.56
252.863	1143.56
253.096	1198.56
253.329	1133.56
253.562	1108.56
253.795	1202.56
254.028	1350.56
254.261	1392.56
254.494	1256.56
254.727	1118.56
254.96	1102.56
255.193	1157.56
255.426	1120.56
255.659	856.56
255.892	808.56
256.124	850.56
256.357	1050.56
256.59	1220.56
256.823	1166.56
257.056	964.56
257.289	903.56
257.521	962.56
257.754	1167.56
257.987	1289.56
258.22	1084.56
258.452	989.56
258.685	1158.56
258.918	1299.56
259.151	1249.56
259.383	1294.56
259.616	1554.56
259.849	1592.56
260.081	1690.56
260.314	1906.56
260.547	1479.56
260.779	1477.56
261.012	1687.56
261.244	1642.56
261.477	1641.56
261.71	1545.56
261.942	1284.56
262.175	1272.56
262.407	1245.56
262.64	1251.56
262.872	1550.56
263.105	1641.56
263.337	1724.56
263.57	1529.56
263.802	1031.56
264.035	879.56
264.267	861.56
264.499	782.56
264.732	704.56
264.964	714.56
265.197	695.56
265.429	767.56
265.661	812.56
265.894	872.56
266.126	904.56
266.358	1030.56
266.591	1235.56
266.823	1492.56
267.055	1390.56
267.287	1248.56
267.52	1250.56
267.752	1358.56
267.984	1451.56
268.216	1375.56
268.448	1101.56
268.681	1111.56
268.913	1218.56
269.145	1278.56
269.377	1284.56
269.609	1293.56
269.841	1216.56
270.073	1304.56
270.306	1375.56
270.538	1359.56
270.77	1431.56
271.002	1398.56
271.234	1500.56
271.466	1539.56
271.698	1408.56
271.93	1383.56
272.162	1403.56
272.394	1406.56
272.626	1393.56
272.858	1436.56
273.09	1475.56
273.322	1316.56
273.553	1268.56
273.785	1480.56
274.017	1970.56
274.249	2398.56
274.481	2516.56
274.713	2750.56
274.945	3140.56
275.176	3186.56
275.408	2791.56
275.64	2633.56
275.872	2633.56
276.104	2244.56
276.335	1905.56
276.567	1926.56
276.799	1951.56
277.031	2092.56
277.262	1592.56
277.494	1248.56
277.726	1177.56
277.957	1312.56
278.189	1510.56
278.421	1464.56
278.652	1415.56
278.884	1370.56
279.115	1278.56
279.347	1171.56
279.579	1184.56
279.81	1189.56
280.042	1191.56
280.273	1227.56
280.505	1141.56
280.736	987.56
280.968	1022.56
281.199	1125.56
281.431	1255.56
281.662	1222.56
281.894	1192.56
282.125	1261.56
282.356	1346.56
282.588	1369.56
282.819	1231.56
283.051	1393.56
283.282	1656.56
283.513	1943.56
283.745	2177.56
283.976	2150.56
284.207	1993.56
284.439	2114.56
284.67	2001.56
284.901	1785.56
285.132	1941.56
285.364	2022.56
285.595	1895.56
285.826	1980.56
286.057	2014.56
286.288	1969.56
286.52	2054.56
286.751	2100.56
286.982	2128.56
287.213	1813.56
287.444	1802.56
287.675	1833.56
287.906	1834.56
288.138	1545.56
288.369	1337.56
288.6	1300.56
288.831	1364.56
289.062	1569.56
289.293	1689.56
289.524	1598.56
289.755	1606.56
289.986	1617.56
290.217	1444.56
290.448	1125.56
290.679	973.56
290.91	910.56
291.141	909.56
291.371	957.56
291.602	981.56
291.833	982.56
292.064	1036.56
292.295	1190.56
292.526	1382.56
292.757	1430.56
292.987	1537.56
293.218	1594.56
293.449	1578.56
293.68	1681.56
293.91	1601.56
294.141	1625.56
294.372	1518.56
294.603	1399.56
294.833	1556.56
295.064	1810.56
295.295	1710.56
295.525	1299.56
295.756	1157.56
295.987	946.56
296.217	1000.56
296.448	1026.56
296.679	1081.56
296.909	1178.56
297.14	1252.56
297.37	1417.56
297.601	1332.56
297.831	1114.56
298.062	1263.56
298.292	1396.56
298.523	1518.56
298.753	1699.56
298.984	1580.56
299.214	1232.56
299.445	1042.56
299.675	1008.56
299.905	1003.56
300.136	999.56
300.366	1121.56
300.597	1111.56
300.827	981.56
301.057	936.56
301.288	953.56
301.518	1030.56
301.748	1162.56
301.979	1263.56
302.209	1392.56
302.439	1363.56
302.669	1187.56
302.9	1192.56
303.13	1151.56
303.36	1071.56
303.59	1023.56
303.82	1095.56
304.051	1232.56
304.281	1330.56
304.511	1256.56
304.741	1109.56
304.971	1176.56
305.201	1262.56
305.431	1186.56
305.661	1012.56
305.891	1020.56
306.121	1018.56
306.352	926.56
306.582	861.56
306.812	833.56
307.042	818.56
307.272	791.56
307.502	812.56
307.731	866.56
307.961	872.56
308.191	855.56
308.421	785.56
308.651	798.56
308.881	749.56
309.111	770.56
309.341	812.56
309.571	898.56
309.8	880.56
310.03	913.56
310.26	962.56
310.49	957.56
310.72	846.56
310.949	844.56
311.179	849.56
311.409	911.56
311.639	1097.56
311.868	1385.56
312.098	1751.56
312.328	1920.56
312.557	1840.56
312.787	1877.56
313.017	1662.56
313.246	1799.56
313.476	1944.56
313.706	1599.56
313.935	1272.56
314.165	1046.56
314.394	947.56
314.624	955.56
314.853	1005.56
315.083	1010.56
315.312	993.56
315.542	993.56
315.771	919.56
316.001	842.56
316.23	814.56
316.46	838.56
316.689	838.56
316.919	842.56
317.148	900.56
317.377	858.56
317.607	878.56
317.836	925.56
318.065	1068.56
318.295	1212.56
318.524	1125.56
318.753	976.56
318.983	928.56
319.212	879.56
319.441	960.56
319.67	1096.56
319.9	1160.56
320.129	1082.56
320.358	943.56
320.587	892.56
320.816	1001.56
321.046	1113.56
321.275	1240.56
321.504	1280.56
321.733	1236.56
321.962	1186.56
322.191	1122.56
322.42	1041.56
322.649	1077.56
322.878	1129.56
323.108	1156.56
323.337	1068.56
323.566	1045.56
323.795	1016.56
324.024	1008.56
324.253	937.56
324.482	929.56
324.71	1001.56
324.939	1164.56
325.168	1072.56
325.397	893.56
325.626	892.56
325.855	890.56
326.084	903.56
326.313	852.56
326.542	828.56
326.77	853.56
326.999	881.56
327.228	956.56
327.457	984.56
327.686	982.56
327.914	861.56
328.143	827.56
328.372	792.56
328.6	841.56
328.829	835.56
329.058	851.56
329.287	873.56
329.515	886.56
329.744	844.56
329.972	830.56
330.201	797.56
330.43	830.56
330.658	929.56
330.887	1041.56
331.115	1011.56
331.344	1005.56
331.572	953.56
331.801	859.56
332.03	826.56
332.258	887.56
332.486	934.56
332.715	958.56
332.943	899.56
333.172	909.56
333.4	918.56
333.629	1009.56
333.857	1088.56
334.085	1114.56
334.314	1088.56
334.542	1018.56
334.771	959.56
334.999	918.56
335.227	914.56
335.455	948.56
335.684	1010.56
335.912	1187.56
336.14	1290.56
336.369	1240.56
336.597	1208.56
336.825	1344.56
337.053	1448.56
337.281	1185.56
337.51	980.56
337.738	960.56
337.966	1040.56
338.194	1164.56
338.422	1092.56
338.65	966.56
338.878	865.56
339.106	890.56
339.334	978.56
339.562	1063.56
339.79	998.56
340.018	950.56
340.246	1043.56
340.474	1144.56
340.702	1230.56
340.93	1260.56
341.158	1263.56
341.386	1081.56
341.614	1056.56
341.842	1088.56
342.07	1114.56
342.298	1286.56
342.526	1328.56
342.754	1151.56
342.981	1062.56
343.209	1010.56
343.437	1104.56
343.665	1166.56
343.893	1148.56
344.12	1334.56
344.348	1509.56
344.576	1380.56
344.804	1166.56
345.031	970.56
345.259	934.56
345.487	967.56
345.714	1001.56
345.942	1064.56
346.17	1156.56
346.397	1091.56
346.625	960.56
346.853	948.56
347.08	925.56
347.308	959.56
347.535	1063.56
347.763	1093.56
347.99	963.56
348.218	914.56
348.445	972.56
348.673	940.56
348.9	980.56
349.128	1029.56
349.355	1044.56
349.583	998.56
349.81	986.56
350.037	920.56
350.265	822.56
350.492	764.56
350.72	775.56
350.947	802.56
351.174	849.56
351.402	867.56
351.629	949.56
351.856	903.56
352.083	866.56
352.311	934.56
352.538	1028.56
352.765	1064.56
352.992	974.56
353.22	906.56
353.447	973.56
353.674	914.56
353.901	900.56
354.128	954.56
354.355	970.56
354.583	958.56
354.81	947.56
355.037	978.56
355.264	955.56
355.491	1022.56
355.718	1073.56
355.945	1087.56
356.172	1012.56
356.399	1009.56
356.626	1228.56
356.853	1482.56
357.08	1587.56
357.307	1608.56
357.534	1246.56
357.761	1317.56
357.988	1631.56
358.215	1850.56
358.441	1794.56
358.668	1477.56
358.895	1372.56
359.122	1138.56
359.349	1127.56
359.576	1234.56
359.802	1019.56
360.029	916.56
360.256	983.56
360.483	1180.56
360.709	1470.56
360.936	1509.56
361.163	1343.56
361.39	1061.56
361.616	969.56
361.843	1158.56
362.07	1412.56
362.296	1276.56
362.523	1007.56
362.749	896.56
362.976	961.56
363.203	1137.56
363.429	1257.56
363.656	1013.56
363.882	944.56
364.109	933.56
364.335	943.56
364.562	947.56
364.788	1090.56
365.015	1212.56
365.241	1079.56
365.468	911.56
365.694	828.56
365.92	779.56
366.147	750.56
366.373	781.56
366.599	748.56
366.826	778.56
367.052	808.56
367.278	792.56
367.505	799.56
367.731	871.56
367.957	961.56
368.184	968.56
368.41	927.56
368.636	938.56
368.862	996.56
369.089	969.56
369.315	870.56
369.541	872.56
369.767	845.56
369.993	825.56
370.219	842.56
370.445	869.56
370.672	951.56
370.898	1038.56
371.124	986.56
371.35	918.56
371.576	890.56
371.802	945.56
372.028	1087.56
372.254	1205.56
372.48	1070.56
372.706	995.56
372.932	1040.56
373.158	1058.56
373.384	1261.56
373.61	1702.56
373.835	1679.56
374.061	1276.56
374.287	1089.56
374.513	1254.56
374.739	1496.56
374.965	1577.56
375.191	1528.56
375.416	1085.56
375.642	996.56
375.868	1107.56
376.094	1267.56
376.319	1081.56
376.545	1218.56
376.771	1253.56
376.997	1114.56
377.222	844.56
377.448	720.56
377.674	730.56
377.899	744.56
378.125	728.56
378.35	722.56
378.576	761.56
378.802	824.56
379.027	865.56
379.253	862.56
379.478	907.56
379.704	983.56
379.929	1041.56
380.155	1015.56
380.38	897.56
380.606	943.56
380.831	1022.56
381.057	975.56
381.282	946.56
381.507	1090.56
381.733	1365.56
381.958	1392.56
382.184	1511.56
382.409	1582.56
382.634	1569.56
382.86	1607.56
383.085	1311.56
383.31	1071.56
383.535	1130.56
383.761	1148.56
383.986	1097.56
384.211	1271.56
384.436	1279.56
384.662	990.56
384.887	983.56
385.112	989.56
385.337	1004.56
385.562	942.56
385.787	1016.56
386.013	1144.56
386.238	1145.56
386.463	961.56
386.688	931.56
386.913	910.56
387.138	897.56
387.363	920.56
387.588	932.56
387.813	963.56
388.038	1028.56
388.263	947.56
388.488	937.56
388.713	1044.56
388.938	1134.56
389.163	962.56
389.387	878.56
389.612	891.56
389.837	899.56
390.062	894.56
390.287	949.56
390.512	962.56
390.736	903.56
390.961	853.56
391.186	839.56
391.411	821.56
391.636	846.56
391.86	876.56
392.085	952.56
392.31	969.56
392.534	909.56
392.759	892.56
392.984	948.56
393.208	942.56
393.433	861.56
393.658	809.56
393.882	775.56
394.107	798.56
394.331	807.56
394.556	773.56
394.78	818.56
395.005	819.56
395.229	846.56
395.454	854.56
395.678	853.56
395.903	881.56
396.127	872.56
396.352	871.56
396.576	930.56
396.801	970.56
397.025	1032.56
397.249	1081.56
397.474	899.56
397.698	903.56
397.922	928.56
398.147	919.56
398.371	903.56
398.595	949.56
398.82	942.56
399.044	953.56
399.268	997.56
399.492	1027.56
399.717	1031.56
399.941	1083.56
400.165	1049.56
400.389	1033.56
400.613	1052.56
400.837	1006.56
401.062	932.56
401.286	886.56
401.51	895.56
401.734	881.56
401.958	903.56
402.182	884.56
402.406	864.56
402.63	901.56
402.854	911.56
403.078	1034.56
403.302	1225.56
403.526	1300.56
403.75	1168.56
403.974	1052.56
404.198	1068.56
404.422	1203.56
404.645	1384.56
404.869	1518.56
405.093	1135.56
405.317	979.56
405.541	973.56
405.765	959.56
405.988	1032.56
406.212	1063.56
406.436	1257.56
406.66	1337.56
406.883	1111.56
407.107	1131.56
407.331	1312.56
407.555	1232.56
407.778	1101.56
408.002	1030.56
408.226	1019.56
408.449	1040.56
408.673	1001.56
408.896	918.56
409.12	920.56
409.344	889.56
409.567	904.56
409.791	913.56
410.014	898.56
410.238	870.56
410.461	885.56
410.685	874.56
410.908	904.56
411.132	901.56
411.355	916.56
411.578	929.56
411.802	960.56
412.025	985.56
412.249	992.56
412.472	942.56
412.695	953.56
412.919	962.56
413.142	988.56
413.365	1056.56
413.589	1009.56
413.812	948.56
414.035	914.56
414.258	915.56
414.482	1022.56
414.705	1033.56
414.928	885.56
415.151	867.56
415.374	882.56
415.597	908.56
415.821	917.56
416.044	891.56
416.267	866.56
416.49	872.56
416.713	871.56
416.936	829.56
417.159	839.56
417.382	880.56
417.605	880.56
417.828	894.56
418.051	899.56
418.274	918.56
418.497	908.56
418.72	914.56
418.943	920.56
419.166	971.56
419.389	989.56
419.611	1013.56
419.834	992.56
420.057	1060.56
420.28	1044.56
420.503	963.56
420.726	901.56
420.948	889.56
421.171	882.56
421.394	860.56
421.617	862.56
421.839	866.56
422.062	907.56
422.285	900.56
422.507	938.56
422.73	953.56
422.953	954.56
423.175	950.56
423.398	953.56
423.621	983.56
423.843	1027.56
424.066	966.56
424.288	926.56
424.511	914.56
424.733	912.56
424.956	937.56
425.178	1038.56
425.401	1161.56
425.623	1340.56
425.846	1120.56
426.068	979.56
426.291	1040.56
426.513	1026.56
426.735	926.56
426.958	976.56
427.18	1115.56
427.402	1392.56
427.625	1424.56
427.847	1152.56
428.069	927.56
428.292	907.56
428.514	884.56
428.736	853.56
428.958	916.56
429.181	1060.56
429.403	950.56
429.625	890.56
429.847	861.56
430.069	873.56
430.292	895.56
430.514	865.56
430.736	921.56
430.958	1132.56
431.18	1023.56
431.402	860.56
431.624	806.56
431.846	805.56
432.068	774.56
432.29	816.56
432.512	889.56
432.734	1173.56
432.956	1082.56
433.178	878.56
433.4	881.56
433.622	855.56
433.844	860.56
434.066	923.56
434.287	897.56
434.509	888.56
434.731	899.56
434.953	868.56
435.175	904.56
435.397	1007.56
435.618	876.56
435.84	824.56
436.062	818.56
436.284	839.56
436.505	820.56
436.727	782.56
436.949	822.56
437.17	837.56
437.392	864.56
437.614	823.56
437.835	825.56
438.057	855.56
438.278	943.56
438.5	1300.56
438.721	1294.56
438.943	928.56
439.165	835.56
439.386	773.56
439.608	777.56
439.829	782.56
440.05	784.56
440.272	852.56
440.493	961.56
440.715	1162.56
440.936	945.56
441.158	846.56
441.379	866.56
441.6	954.56
441.822	1018.56
442.043	899.56
442.264	871.56
442.486	866.56
442.707	868.56
442.928	864.56
443.149	917.56
443.371	916.56
443.592	949.56
443.813	904.56
444.034	898.56
444.255	910.56
444.476	936.56
444.698	913.56
444.919	960.56
445.14	1060.56
445.361	1025.56
445.582	964.56
445.803	915.56
446.024	912.56
446.245	920.56
446.466	934.56
446.687	876.56
446.908	876.56
447.129	852.56
447.35	815.56
447.571	818.56
447.792	790.56
448.013	800.56
448.234	785.56
448.455	792.56
448.675	824.56
448.896	825.56
449.117	797.56
449.338	795.56
449.559	834.56
449.779	860.56
450	855.56
450.221	849.56
450.442	812.56
450.662	778.56
450.883	789.56
451.104	841.56
451.324	802.56
451.545	793.56
451.766	817.56
451.986	777.56
452.207	749.56
452.428	768.56
452.648	782.56
452.869	806.56
453.089	828.56
453.31	835.56
453.53	763.56
453.751	774.56
453.971	745.56
454.192	761.56
454.412	766.56
454.633	736.56
454.853	738.56
455.073	726.56
455.294	725.56
455.514	750.56
455.734	780.56
455.955	814.56
456.175	843.56
456.395	754.56
456.616	718.56
456.836	711.56
457.056	691.56
457.276	709.56
457.497	711.56
457.717	724.56
457.937	713.56
458.157	720.56
458.377	713.56
458.598	731.56
458.818	753.56
459.038	815.56
459.258	817.56
459.478	832.56
459.698	882.56
459.918	901.56
460.138	870.56
460.358	904.56
460.578	876.56
460.798	910.56
461.018	893.56
461.238	860.56
461.458	864.56
461.678	900.56
461.898	956.56
462.118	916.56
462.338	896.56
462.558	924.56
462.777	1003.56
462.997	1019.56
463.217	986.56
463.437	1038.56
463.657	1026.56
463.876	961.56
464.096	985.56
464.316	944.56
464.536	975.56
464.755	994.56
464.975	993.56
465.195	942.56
465.414	1005.56
465.634	955.56
465.854	964.56
466.073	878.56
466.293	858.56
466.512	908.56
466.732	999.56
466.951	1036.56
467.171	949.56
467.391	868.56
467.61	868.56
467.829	915.56
468.049	916.56
468.268	873.56
468.488	869.56
468.707	895.56
468.927	1045.56
469.146	1117.56
469.365	1005.56
469.585	934.56
469.804	994.56
470.023	1084.56
470.243	965.56
470.462	918.56
470.681	921.56
470.901	924.56
471.12	968.56
471.339	967.56
471.558	921.56
471.777	925.56
471.997	977.56
472.216	1092.56
472.435	1085.56
472.654	983.56
472.873	948.56
473.092	1004.56
473.311	1046.56
473.53	939.56
473.749	905.56
473.968	968.56
474.187	980.56
474.406	955.56
474.625	906.56
474.844	962.56
475.063	1040.56
475.282	1024.56
475.501	1065.56
475.72	1125.56
475.939	1080.56
476.158	1077.56
476.377	1239.56
476.596	1417.56
476.814	1523.56
477.033	1241.56
477.252	1045.56
477.471	1005.56
477.69	1023.56
477.908	1094.56
478.127	1154.56
478.346	1048.56
478.564	1110.56
478.783	1071.56
479.002	1123.56
479.22	1286.56
479.439	1407.56
479.658	1201.56
479.876	1140.56
480.095	1223.56
480.313	1203.56
480.532	1156.56
480.751	1082.56
480.969	1121.56
481.188	1239.56
481.406	1294.56
481.624	1250.56
481.843	1111.56
482.061	1062.56
482.28	1214.56
482.498	1430.56
482.717	1360.56
482.935	1185.56
483.153	1116.56
483.372	1060.56
483.59	1077.56
483.808	1065.56
484.027	1054.56
484.245	987.56
484.463	1009.56
484.681	1021.56
484.9	1077.56
485.118	1185.56
485.336	1156.56
485.554	1045.56
485.772	1079.56
485.99	1135.56
486.209	1204.56
486.427	1223.56
486.645	1178.56
486.863	1220.56
487.081	1232.56
487.299	1358.56
487.517	1322.56
487.735	1181.56
487.953	1222.56
488.171	1250.56
488.389	1193.56
488.607	1098.56
488.825	1148.56
489.043	1224.56
489.261	1430.56
489.479	1509.56
489.696	1285.56
489.914	1185.56
490.132	1111.56
490.35	1110.56
490.568	1117.56
490.786	1110.56
491.003	1131.56
491.221	1148.56
491.439	1109.56
491.657	1152.56
491.874	1219.56
492.092	1441.56
492.31	1654.56
492.527	1693.56
492.745	1500.56
492.963	1343.56
493.18	1260.56
493.398	1304.56
493.615	1302.56
493.833	1237.56
494.05	1254.56
494.268	1244.56
494.485	1238.56
494.703	1199.56
494.92	1223.56
495.138	1176.56
495.355	1209.56
495.573	1212.56
495.79	1349.56
496.008	1709.56
496.225	1530.56
496.442	1345.56
496.66	1308.56
496.877	1408.56
497.094	1356.56
497.312	1329.56
497.529	1286.56
497.746	1275.56
497.963	1365.56
498.181	1462.56
498.398	1561.56
498.615	1643.56
498.832	1646.56
499.049	1714.56
499.267	1543.56
499.484	1538.56
499.701	1618.56
499.918	1755.56
500.135	1887.56
500.352	1897.56
500.569	1979.56
500.786	2024.56
501.003	2000.56
501.22	1858.56
501.437	1718.56
501.654	1628.56
501.871	1620.56
502.088	1622.56
502.305	1502.56
502.522	1468.56
502.739	1461.56
502.956	1358.56
503.172	1356.56
503.389	1333.56
503.606	1251.56
503.823	1278.56
504.04	1304.56
504.256	1321.56
504.473	1333.56
504.69	1403.56
504.907	1384.56
505.123	1376.56
505.34	1426.56
505.557	1405.56
505.773	1334.56
505.99	1308.56
506.207	1404.56
506.423	1244.56
506.64	1183.56
506.856	1233.56
507.073	1394.56
507.289	1336.56
507.506	1296.56
507.722	1417.56
507.939	1443.56
508.155	1456.56
508.372	1300.56
508.588	1256.56
508.805	1233.56
509.021	1212.56
509.238	1178.56
509.454	1170.56
509.67	1172.56
509.887	1202.56
510.103	1350.56
510.319	1309.56
510.536	1172.56
510.752	1074.56
510.968	1086.56
511.184	1034.56
511.401	1061.56
511.617	1001.56
511.833	1044.56
512.049	1038.56
512.265	1114.56
512.481	1160.56
512.698	1241.56
512.914	1374.56
513.13	1241.56
513.346	1117.56
513.562	1187.56
513.778	1174.56
513.994	1157.56
514.21	1207.56
514.426	1172.56
514.642	1153.56
514.858	1145.56
515.074	1172.56
515.29	1298.56
515.506	1410.56
515.721	1354.56
515.937	1237.56
516.153	1159.56
516.369	1140.56
516.585	1183.56
516.801	1374.56
517.016	1572.56
517.232	1553.56
517.448	1496.56
517.664	1379.56
517.879	1317.56
518.095	1281.56
518.311	1261.56
518.527	1333.56
518.742	1376.56
518.958	1424.56
519.173	1383.56
519.389	1328.56
519.605	1377.56
519.82	1477.56
520.036	1761.56
520.251	1675.56
520.467	1552.56
520.682	2260.56
520.898	2669.56
521.113	2522.56
521.329	1676.56
521.544	1513.56
521.76	1522.56
521.975	1322.56
522.19	1278.56
522.406	1317.56
522.621	1452.56
522.836	1504.56
523.052	1502.56
523.267	1247.56
523.482	1257.56
523.698	1374.56
523.913	1343.56
524.128	1200.56
524.343	1173.56
524.559	1188.56
524.774	1148.56
524.989	1175.56
525.204	1185.56
525.419	1274.56
525.634	1210.56
525.849	1252.56
526.064	1198.56
526.28	1255.56
526.495	1464.56
526.71	1472.56
526.925	1300.56
527.14	1320.56
527.355	1308.56
527.57	1125.56
527.785	1180.56
527.999	1132.56
528.214	1086.56
528.429	1077.56
528.644	1087.56
528.859	997.56
529.074	999.56
529.289	989.56
529.503	973.56
529.718	992.56
529.933	1139.56
530.148	1160.56
530.363	1032.56
530.577	1023.56
530.792	1027.56
531.007	979.56
531.221	985.56
531.436	984.56
531.651	996.56
531.865	983.56
532.08	1025.56
532.295	1001.56
532.509	1044.56
532.724	1137.56
532.938	1265.56
533.153	1429.56
533.367	1230.56
533.582	1160.56
533.796	1088.56
534.011	1037.56
534.225	1060.56
534.44	1072.56
534.654	1094.56
534.868	1223.56
535.083	1093.56
535.297	1011.56
535.511	1029.56
535.726	1140.56
535.94	1111.56
536.154	1050.56
536.369	967.56
536.583	1007.56
536.797	994.56
537.011	1038.56
537.225	1094.56
537.44	1144.56
537.654	1010.56
537.868	982.56
538.082	1027.56
538.296	1016.56
538.51	1060.56
538.724	1079.56
538.938	1056.56
539.153	980.56
539.367	969.56
539.581	978.56
539.795	1014.56
540.009	1125.56
540.222	1057.56
540.436	1024.56
540.65	1093.56
540.864	1117.56
541.078	1165.56
541.292	1286.56
541.506	1110.56
541.72	1069.56
541.934	1030.56
542.147	1036.56
542.361	1019.56
542.575	1045.56
542.789	1025.56
543.002	958.56
543.216	1028.56
543.43	918.56
543.644	932.56
543.857	910.56
544.071	937.56
544.285	927.56
544.498	896.56
544.712	908.56
544.925	974.56
545.139	946.56
545.352	913.56
545.566	893.56
545.779	1043.56
545.993	963.56
546.206	873.56
546.42	907.56
546.633	881.56
546.847	825.56
547.06	848.56
547.274	877.56
547.487	887.56
547.7	979.56
547.914	997.56
548.127	1081.56
548.34	1092.56
548.554	974.56
548.767	994.56
548.98	1057.56
549.193	983.56
549.407	997.56
549.62	1202.56
549.833	1078.56
550.046	1178.56
550.259	1174.56
550.473	996.56
550.686	984.56
550.899	995.56
551.112	973.56
551.325	1045.56
551.538	1109.56
551.751	949.56
551.964	880.56
552.177	900.56
552.39	880.56
552.603	885.56
552.816	965.56
553.029	912.56
553.242	874.56
553.455	952.56
553.667	1020.56
553.88	965.56
554.093	893.56
554.306	844.56
554.519	801.56
554.732	793.56
554.944	778.56
555.157	785.56
555.37	745.56
555.583	788.56
555.795	774.56
556.008	824.56
556.221	813.56
556.433	826.56
556.646	781.56
556.859	781.56
557.071	831.56
557.284	796.56
557.496	840.56
557.709	776.56
557.921	792.56
558.134	774.56
558.346	743.56
558.559	730.56
558.771	745.56
558.984	790.56
559.196	777.56
559.409	723.56
559.621	696.56
559.833	714.56
560.046	743.56
560.258	696.56
560.47	762.56
560.683	706.56
560.895	689.56
561.107	675.56
561.32	692.56
561.532	704.56
561.744	735.56
561.956	758.56
562.168	703.56
562.381	684.56
562.593	700.56
562.805	723.56
563.017	690.56
563.229	673.56
563.441	662.56
563.653	684.56
563.865	718.56
564.077	677.56
564.289	697.56
564.501	729.56
564.713	771.56
564.925	741.56
565.137	704.56
565.349	691.56
565.561	706.56
565.773	701.56
565.985	730.56
566.197	784.56
566.408	871.56
566.62	844.56
566.832	820.56
567.044	844.56
567.255	922.56
567.467	970.56
567.679	899.56
567.891	910.56
568.102	908.56
568.314	913.56
568.526	855.56
568.737	824.56
568.949	868.56
569.161	777.56
569.372	688.56
569.584	707.56
569.795	705.56
570.007	711.56
570.218	757.56
570.43	727.56
570.641	708.56
570.853	651.56
571.064	640.56
571.276	697.56
571.487	704.56
571.698	665.56
571.91	693.56
572.121	671.56
572.333	614.56
572.544	614.56
572.755	635.56
572.966	628.56
573.178	625.56
573.389	648.56
573.6	661.56
573.811	645.56
574.023	599.56
574.234	587.56
574.445	576.56
574.656	546.56
574.867	582.56
575.078	583.56
575.289	600.56
575.501	640.56
575.712	568.56
575.923	541.56
576.134	560.56
576.345	558.56
576.556	572.56
576.767	563.56
576.978	535.56
577.188	523.56
577.399	521.56
577.61	518.56
577.821	553.56
578.032	536.56
578.243	581.56
578.454	563.56
578.665	563.56
578.875	548.56
579.086	547.56
579.297	565.56
579.508	553.56
579.718	566.56
579.929	539.56
580.14	528.56
580.35	510.56
580.561	512.56
580.772	487.56
580.982	497.56
581.193	478.56
581.403	470.56
581.614	473.56
581.825	479.56
582.035	464.56
582.246	473.56
582.456	468.56
582.667	484.56
582.877	461.56
583.087	466.56
583.298	468.56
583.508	464.56
583.719	463.56
583.929	441.56
584.139	454.56
584.35	456.56
584.56	468.56
584.77	478.56
584.981	472.56
585.191	460.56
585.401	451.56
585.611	489.56
585.821	484.56
586.032	476.56
586.242	470.56
586.452	492.56
586.662	476.56
586.872	504.56
587.082	481.56
587.292	473.56
587.502	478.56
587.713	461.56
587.923	468.56
588.133	497.56
588.343	473.56
588.553	448.56
588.762	447.56
588.972	460.56
589.182	468.56
589.392	453.56
589.602	461.56
589.812	467.56
590.022	486.56
590.232	504.56
590.441	471.56
590.651	453.56
590.861	472.56
591.071	465.56
591.281	458.56
591.49	466.56
591.7	456.56
591.91	451.56
592.119	466.56
592.329	448.56
592.539	458.56
592.748	458.56
592.958	457.56
593.167	471.56
593.377	483.56
593.587	520.56
593.796	469.56
594.006	481.56
594.215	495.56
594.424	475.56
594.634	507.56
594.843	477.56
595.053	456.56
595.262	438.56
595.472	428.56
595.681	440.56
595.89	441.56
596.1	446.56
596.309	446.56
596.518	439.56
596.727	432.56
596.937	422.56
597.146	419.56
597.355	443.56
597.564	426.56
597.774	408.56
597.983	421.56
598.192	416.56
598.401	400.56
598.61	404.56
598.819	391.56
599.028	386.56
599.237	388.56
599.446	385.56
599.655	387.56
599.864	376.56
600.073	371.56
600.282	408.56
600.491	402.56
600.7	397.56
600.909	397.56
601.118	360.56
601.327	372.56
601.536	372.56
601.745	382.56
601.953	405.56
602.162	392.56
602.371	390.56
602.58	392.56
602.789	412.56
602.997	365.56
603.206	371.56
603.415	379.56
603.623	352.56
603.832	357.56
604.041	360.56
604.249	360.56
604.458	382.56
604.666	362.56
604.875	343.56
605.084	353.56
605.292	339.56
605.501	372.56
605.709	382.56
605.918	376.56
606.126	359.56
606.334	363.56
606.543	360.56
606.751	341.56
606.96	339.56
607.168	343.56
607.376	346.56
607.585	340.56
607.793	332.56
608.001	354.56
608.21	353.56
608.418	356.56
608.626	361.56
608.834	355.56
609.043	336.56
609.251	344.56
609.459	346.56
609.667	348.56
609.875	364.56
610.083	349.56
610.291	372.56
610.499	367.56
610.707	343.56
610.916	325.56
611.124	320.56
611.332	316.56
611.54	322.56
611.748	328.56
611.955	349.56
612.163	342.56
612.371	352.56
612.579	328.56
612.787	342.56
612.995	345.56
613.203	332.56
613.411	333.56
613.618	334.56
613.826	347.56
614.034	336.56
614.242	325.56
614.449	324.56
614.657	324.56
614.865	317.56
615.072	323.56
615.28	328.56
615.488	324.56
615.695	336.56
615.903	348.56
616.111	333.56
616.318	324.56
616.526	320.56
616.733	320.56
616.941	326.56
617.148	325.56
617.356	325.56
617.563	307.56
617.771	329.56
617.978	309.56
618.185	311.56
618.393	333.56
618.6	336.56
618.807	331.56
619.015	311.56
619.222	319.56
619.429	325.56
619.637	308.56
619.844	303.56
620.051	306.56
620.258	315.56
620.466	316.56
620.673	311.56
620.88	295.56
621.087	290.56
621.294	296.56
621.501	286.56
621.708	296.56
621.915	296.56
622.122	296.56
622.329	280.56
622.536	275.56
622.743	292.56
622.95	279.56
623.157	285.56
623.364	300.56
623.571	305.56
623.778	290.56
623.985	326.56
624.192	309.56
624.399	308.56
624.606	293.56
624.812	297.56
625.019	283.56
625.226	307.56
625.433	314.56
625.639	273.56
625.846	298.56
626.053	285.56
626.259	277.56
626.466	284.56
626.673	290.56
626.879	276.56
627.086	266.56
627.293	272.56
627.499	277.56
627.706	284.56
627.912	266.56
628.119	237.56
628.325	270.56
628.532	264.56
628.738	277.56
628.945	263.56
629.151	263.56
629.357	259.56
629.564	273.56
629.77	270.56
629.976	265.56
630.183	256.56
630.389	261.56
630.595	261.56
630.802	275.56
631.008	264.56
631.214	268.56
631.42	252.56
631.627	254.56
631.833	263.56
632.039	248.56
632.245	242.56
632.451	250.56
632.657	250.56
632.863	244.56
633.069	237.56
633.275	253.56
633.481	238.56
633.688	238.56
633.893	233.56
634.099	231.56
634.305	232.56
634.511	257.56
634.717	248.56
634.923	242.56
635.129	221.56
635.335	229.56
635.541	226.56
635.747	228.56
635.952	251.56
636.158	228.56
636.364	241.56
636.57	247.56
636.775	230.56
636.981	254.56
637.187	222.56
637.392	225.56
637.598	223.56
637.804	241.56
638.009	248.56
638.215	238.56
638.421	229.56
638.626	254.56
638.832	229.56
639.037	225.56
639.243	224.56
639.448	242.56
639.654	255.56
639.859	233.56
640.065	210.56
640.27	243.56
640.475	221.56
640.681	221.56
640.886	216.56
641.091	223.56
641.297	219.56
641.502	227.56
641.707	230.56
641.913	224.56
642.118	223.56
642.323	205.56
642.528	215.56
642.733	205.56
642.939	224.56
643.144	229.56
643.349	233.56
643.554	222.56
643.759	224.56
643.964	219.56
644.169	210.56
644.374	211.56
644.579	199.56
644.784	214.56
644.989	218.56
645.194	210.56
645.399	211.56
645.604	215.56
645.809	217.56
646.014	220.56
646.219	212.56
646.423	220.56
646.628	215.56
646.833	198.56
647.038	206.56
647.243	208.56
647.447	206.56
647.652	224.56
647.857	213.56
648.062	209.56
648.266	198.56
648.471	202.56
648.676	225.56
648.88	217.56
649.085	224.56
649.289	226.56
649.494	213.56
649.698	214.56
649.903	200.56
650.107	211.56
650.312	206.56
650.516	207.56
650.721	215.56
650.925	198.56
651.13	160.56
651.334	210.56
651.539	180.56
651.743	195.56
651.947	182.56
652.152	188.56
652.356	156.56
652.56	169.56
652.764	167.56
652.969	176.56
653.173	175.56
653.377	177.56
653.581	171.56
653.785	161.56
653.99	163.56
654.194	162.56
654.398	164.56
654.602	151.56
654.806	143.56
655.01	159.56
655.214	158.56
655.418	155.56
655.622	154.56
655.826	158.56
656.03	158.56
656.234	160.56
656.438	160.56
656.642	162.56
656.846	150.56
657.049	142.56
657.253	146.56
657.457	152.56
657.661	152.56
657.865	144.56
658.068	125.56
658.272	136.56
658.476	123.56
658.68	123.56
658.883	124.56
659.087	110.56
659.291	121.56
659.494	116.56
659.698	111.56
659.901	109.56
660.105	98.56
660.309	108.56
660.512	102.56
660.716	119.56
660.919	108.56
661.123	100.56
661.326	96.56
661.53	104.56
661.733	88.56
661.936	103.56
662.14	73.56
662.343	90.56
662.546	99.56
662.75	80.56
662.953	93.56
663.156	89.56
663.36	91.56
663.563	86.56
663.766	74.56
663.969	97.56
664.173	98.56
664.376	94.56
664.579	101.56
664.782	90.56
664.985	89.56
665.188	76.56
665.391	76.56
665.594	85.56
665.797	81.56
666	74.56
666.203	82.56
666.406	92.56
666.609	96.56
666.812	87.56
667.015	70.56
667.218	93.56
667.421	75.56
667.624	86.56
667.827	82.56
668.03	84.56
668.232	94.56
668.435	87.56
668.638	88.56
668.841	68.56
669.043	80.56
669.246	92.56
669.449	94.56
669.651	98.56
669.854	90.56
670.057	90.56
670.259	73.56
670.462	89.56
670.665	85.56
670.867	82.56
671.07	84.56
671.272	78.56
671.475	89.56
671.677	93.56
671.88	78.56
672.082	100.56
672.284	94.56
672.487	86.56
672.689	72.56
672.892	89.56
