Data from NickelSpatula.Lamp.E10.P2_HRD10591_11-58-00-530.txt Node
Date: Tue Jul 23 11:58:00 EDT 2019
User: cochatt
Spectrometer: HR+D1059
Trigger mode: 1
Integration Time (sec): 1.000000E-1
Scans to average: 1
Electric dark correction enabled: true
Nonlinearity correction enabled: false
Boxcar width: 0
XAxis mode: Wavelengths
Number of Pixels in Spectrum: 2048
>>>>>Begin Spectral Data<<<<<
223.165	-1.75
223.4	-1.75
223.635	-1.75
223.869	-12.75
224.104	-26.75
224.338	-12.75
224.573	-4.75
224.808	-3.75
225.042	-13.75
225.277	-4.75
225.511	-13.75
225.746	2.25
225.98	16.25
226.215	5.25
226.449	14.25
226.683	14.25
226.918	15.25
227.152	27.25
227.387	17.25
227.621	33.25
227.856	47.25
228.09	46.25
228.324	48.25
228.559	58.25
228.793	74.25
229.027	159.25
229.262	157.25
229.496	149.25
229.73	166.25
229.964	177.25
230.199	222.25
230.433	223.25
230.667	210.25
230.901	199.25
231.136	201.25
231.37	208.25
231.604	222.25
231.838	241.25
232.072	244.25
232.306	247.25
232.541	234.25
232.775	246.25
233.009	266.25
233.243	306.25
233.477	305.25
233.711	326.25
233.945	322.25
234.179	331.25
234.413	349.25
234.647	378.25
234.881	452.25
235.115	419.25
235.349	388.25
235.583	352.25
235.817	358.25
236.051	375.25
236.285	382.25
236.519	450.25
236.753	434.25
236.987	420.25
237.221	422.25
237.455	422.25
237.689	418.25
237.922	450.25
238.156	448.25
238.39	544.25
238.624	666.25
238.858	580.25
239.091	492.25
239.325	498.25
239.559	471.25
239.793	537.25
240.027	645.25
240.26	592.25
240.494	576.25
240.728	603.25
240.961	693.25
241.195	640.25
241.429	622.25
241.662	610.25
241.896	531.25
242.13	473.25
242.363	442.25
242.597	450.25
242.83	559.25
243.064	546.25
243.298	582.25
243.531	614.25
243.765	623.25
243.998	636.25
244.232	610.25
244.465	606.25
244.699	595.25
244.932	658.25
245.166	620.25
245.399	550.25
245.633	536.25
245.866	572.25
246.099	611.25
246.333	709.25
246.566	767.25
246.8	774.25
247.033	723.25
247.266	710.25
247.5	673.25
247.733	677.25
247.966	675.25
248.2	678.25
248.433	735.25
248.666	825.25
248.899	852.25
249.133	861.25
249.366	966.25
249.599	1041.25
249.832	922.25
250.066	830.25
250.299	826.25
250.532	772.25
250.765	793.25
250.998	719.25
251.231	679.25
251.465	760.25
251.698	813.25
251.931	798.25
252.164	844.25
252.397	918.25
252.63	1057.25
252.863	1153.25
253.096	1205.25
253.329	1137.25
253.562	1088.25
253.795	1226.25
254.028	1306.25
254.261	1333.25
254.494	1262.25
254.727	1134.25
254.96	1101.25
255.193	1161.25
255.426	1109.25
255.659	858.25
255.892	772.25
256.124	836.25
256.357	981.25
256.59	1194.25
256.823	1139.25
257.056	952.25
257.289	905.25
257.521	953.25
257.754	1115.25
257.987	1267.25
258.22	1087.25
258.452	985.25
258.685	1105.25
258.918	1243.25
259.151	1197.25
259.383	1309.25
259.616	1466.25
259.849	1544.25
260.081	1699.25
260.314	1891.25
260.547	1443.25
260.779	1476.25
261.012	1751.25
261.244	1596.25
261.477	1652.25
261.71	1532.25
261.942	1314.25
262.175	1282.25
262.407	1239.25
262.64	1282.25
262.872	1536.25
263.105	1650.25
263.337	1697.25
263.57	1503.25
263.802	1030.25
264.035	888.25
264.267	883.25
264.499	760.25
264.732	667.25
264.964	702.25
265.197	723.25
265.429	740.25
265.661	813.25
265.894	842.25
266.126	880.25
266.358	1032.25
266.591	1254.25
266.823	1492.25
267.055	1370.25
267.287	1209.25
267.52	1226.25
267.752	1267.25
267.984	1403.25
268.216	1367.25
268.448	1106.25
268.681	1102.25
268.913	1152.25
269.145	1263.25
269.377	1298.25
269.609	1299.25
269.841	1225.25
270.073	1295.25
270.306	1346.25
270.538	1366.25
270.77	1390.25
271.002	1387.25
271.234	1440.25
271.466	1492.25
271.698	1430.25
271.93	1416.25
272.162	1409.25
272.394	1384.25
272.626	1399.25
272.858	1436.25
273.09	1479.25
273.322	1283.25
273.553	1248.25
273.785	1450.25
274.017	1976.25
274.249	2398.25
274.481	2474.25
274.713	2689.25
274.945	3098.25
275.176	3204.25
275.408	2828.25
275.64	2587.25
275.872	2606.25
276.104	2243.25
276.335	1893.25
276.567	1862.25
276.799	1935.25
277.031	2055.25
277.262	1585.25
277.494	1258.25
277.726	1195.25
277.957	1283.25
278.189	1468.25
278.421	1420.25
278.652	1431.25
278.884	1351.25
279.115	1209.25
279.347	1161.25
279.579	1197.25
279.81	1176.25
280.042	1229.25
280.273	1212.25
280.505	1146.25
280.736	987.25
280.968	990.25
281.199	1072.25
281.431	1218.25
281.662	1231.25
281.894	1130.25
282.125	1264.25
282.356	1335.25
282.588	1357.25
282.819	1211.25
283.051	1355.25
283.282	1673.25
283.513	1926.25
283.745	2165.25
283.976	2146.25
284.207	1943.25
284.439	2078.25
284.67	1978.25
284.901	1761.25
285.132	1901.25
285.364	1976.25
285.595	1854.25
285.826	1917.25
286.057	2038.25
286.288	1936.25
286.52	1957.25
286.751	2059.25
286.982	2044.25
287.213	1750.25
287.444	1711.25
287.675	1839.25
287.906	1789.25
288.138	1536.25
288.369	1346.25
288.6	1241.25
288.831	1324.25
289.062	1533.25
289.293	1662.25
289.524	1565.25
289.755	1578.25
289.986	1613.25
290.217	1409.25
290.448	1120.25
290.679	942.25
290.91	902.25
291.141	906.25
291.371	926.25
291.602	967.25
291.833	997.25
292.064	1022.25
292.295	1164.25
292.526	1366.25
292.757	1408.25
292.987	1509.25
293.218	1539.25
293.449	1567.25
293.68	1669.25
293.91	1572.25
294.141	1602.25
294.372	1519.25
294.603	1392.25
294.833	1550.25
295.064	1800.25
295.295	1665.25
295.525	1281.25
295.756	1135.25
295.987	991.25
296.217	998.25
296.448	994.25
296.679	1078.25
296.909	1193.25
297.14	1274.25
297.37	1370.25
297.601	1333.25
297.831	1175.25
298.062	1262.25
298.292	1390.25
298.523	1519.25
298.753	1746.25
298.984	1530.25
299.214	1236.25
299.445	1054.25
299.675	1014.25
299.905	1009.25
300.136	1040.25
300.366	1157.25
300.597	1118.25
300.827	1006.25
301.057	965.25
301.288	970.25
301.518	1021.25
301.748	1212.25
301.979	1282.25
302.209	1436.25
302.439	1396.25
302.669	1172.25
302.9	1217.25
303.13	1140.25
303.36	1080.25
303.59	1046.25
303.82	1051.25
304.051	1176.25
304.281	1318.25
304.511	1247.25
304.741	1111.25
304.971	1185.25
305.201	1247.25
305.431	1174.25
305.661	1032.25
305.891	1033.25
306.121	1054.25
306.352	953.25
306.582	852.25
306.812	848.25
307.042	839.25
307.272	802.25
307.502	789.25
307.731	867.25
307.961	912.25
308.191	840.25
308.421	804.25
308.651	790.25
308.881	738.25
309.111	770.25
309.341	794.25
309.571	856.25
309.8	905.25
310.03	903.25
310.26	970.25
310.49	934.25
310.72	863.25
310.949	856.25
311.179	845.25
311.409	913.25
311.639	1084.25
311.868	1366.25
312.098	1772.25
312.328	1910.25
312.557	1816.25
312.787	1813.25
313.017	1654.25
313.246	1770.25
313.476	1964.25
313.706	1579.25
313.935	1301.25
314.165	1031.25
314.394	938.25
314.624	935.25
314.853	982.25
315.083	1022.25
315.312	994.25
315.542	977.25
315.771	909.25
316.001	855.25
316.23	824.25
316.46	841.25
316.689	828.25
316.919	870.25
317.148	901.25
317.377	865.25
317.607	863.25
317.836	952.25
318.065	1068.25
318.295	1200.25
318.524	1111.25
318.753	979.25
318.983	914.25
319.212	902.25
319.441	989.25
319.67	1092.25
319.9	1201.25
320.129	1127.25
320.358	913.25
320.587	925.25
320.816	974.25
321.046	1127.25
321.275	1275.25
321.504	1231.25
321.733	1258.25
321.962	1160.25
322.191	1123.25
322.42	1058.25
322.649	1091.25
322.878	1188.25
323.108	1194.25
323.337	1054.25
323.566	1074.25
323.795	1040.25
324.024	974.25
324.253	987.25
324.482	942.25
324.71	1034.25
324.939	1196.25
325.168	1099.25
325.397	905.25
325.626	902.25
325.855	883.25
326.084	923.25
326.313	859.25
326.542	808.25
326.77	852.25
326.999	909.25
327.228	932.25
327.457	966.25
327.686	1013.25
327.914	860.25
328.143	854.25
328.372	797.25
328.6	837.25
328.829	861.25
329.058	886.25
329.287	882.25
329.515	872.25
329.744	886.25
329.972	820.25
330.201	774.25
330.43	842.25
330.658	925.25
330.887	1066.25
331.115	1013.25
331.344	970.25
331.572	936.25
331.801	867.25
332.03	864.25
332.258	846.25
332.486	945.25
332.715	940.25
332.943	865.25
333.172	863.25
333.4	920.25
333.629	997.25
333.857	1116.25
334.085	1095.25
334.314	1072.25
334.542	1027.25
334.771	978.25
334.999	946.25
335.227	920.25
335.455	930.25
335.684	1003.25
335.912	1197.25
336.14	1255.25
336.369	1225.25
336.597	1182.25
336.825	1342.25
337.053	1491.25
337.281	1196.25
337.51	967.25
337.738	960.25
337.966	1025.25
338.194	1150.25
338.422	1070.25
338.65	962.25
338.878	887.25
339.106	887.25
339.334	1007.25
339.562	1043.25
339.79	981.25
340.018	945.25
340.246	1011.25
340.474	1159.25
340.702	1221.25
340.93	1279.25
341.158	1273.25
341.386	1063.25
341.614	1078.25
341.842	1078.25
342.07	1145.25
342.298	1303.25
342.526	1334.25
342.754	1150.25
342.981	1069.25
343.209	1043.25
343.437	1106.25
343.665	1156.25
343.893	1165.25
344.12	1360.25
344.348	1530.25
344.576	1390.25
344.804	1161.25
345.031	1005.25
345.259	945.25
345.487	990.25
345.714	995.25
345.942	1051.25
346.17	1173.25
346.397	1104.25
346.625	967.25
346.853	948.25
347.08	917.25
347.308	963.25
347.535	1083.25
347.763	1103.25
347.99	953.25
348.218	918.25
348.445	944.25
348.673	959.25
348.9	983.25
349.128	1040.25
349.355	1095.25
349.583	1021.25
349.81	998.25
350.037	909.25
350.265	794.25
350.492	771.25
350.72	794.25
350.947	808.25
351.174	882.25
351.402	914.25
351.629	934.25
351.856	931.25
352.083	855.25
352.311	909.25
352.538	1057.25
352.765	1122.25
352.992	1028.25
353.22	964.25
353.447	952.25
353.674	961.25
353.901	950.25
354.128	945.25
354.355	971.25
354.583	950.25
354.81	938.25
355.037	963.25
355.264	985.25
355.491	1064.25
355.718	1152.25
355.945	1088.25
356.172	1071.25
356.399	1082.25
356.626	1279.25
356.853	1545.25
357.08	1642.25
357.307	1675.25
357.534	1301.25
357.761	1365.25
357.988	1694.25
358.215	1946.25
358.441	1835.25
358.668	1600.25
358.895	1461.25
359.122	1164.25
359.349	1189.25
359.576	1275.25
359.802	1036.25
360.029	919.25
360.256	1015.25
360.483	1228.25
360.709	1534.25
360.936	1600.25
361.163	1383.25
361.39	1079.25
361.616	1020.25
361.843	1187.25
362.07	1450.25
362.296	1340.25
362.523	1028.25
362.749	920.25
362.976	976.25
363.203	1169.25
363.429	1283.25
363.656	1025.25
363.882	969.25
364.109	962.25
364.335	961.25
364.562	957.25
364.788	1098.25
365.015	1284.25
365.241	1134.25
365.468	930.25
365.694	818.25
365.92	808.25
366.147	782.25
366.373	783.25
366.599	777.25
366.826	800.25
367.052	803.25
367.278	797.25
367.505	809.25
367.731	904.25
367.957	970.25
368.184	1003.25
368.41	971.25
368.636	1002.25
368.862	1025.25
369.089	984.25
369.315	886.25
369.541	880.25
369.767	864.25
369.993	823.25
370.219	848.25
370.445	875.25
370.672	983.25
370.898	1066.25
371.124	1067.25
371.35	940.25
371.576	882.25
371.802	955.25
372.028	1105.25
372.254	1294.25
372.48	1106.25
372.706	1002.25
372.932	1070.25
373.158	1127.25
373.384	1337.25
373.61	1767.25
373.835	1779.25
374.061	1329.25
374.287	1130.25
374.513	1352.25
374.739	1567.25
374.965	1638.25
375.191	1614.25
375.416	1139.25
375.642	1010.25
375.868	1139.25
376.094	1317.25
376.319	1132.25
376.545	1249.25
376.771	1330.25
376.997	1144.25
377.222	853.25
377.448	734.25
377.674	736.25
377.899	721.25
378.125	747.25
378.35	724.25
378.576	762.25
378.802	843.25
379.027	912.25
379.253	848.25
379.478	890.25
379.704	993.25
379.929	1063.25
380.155	1049.25
380.38	916.25
380.606	982.25
380.831	1079.25
381.057	962.25
381.282	986.25
381.507	1148.25
381.733	1402.25
381.958	1485.25
382.184	1606.25
382.409	1638.25
382.634	1576.25
382.86	1678.25
383.085	1375.25
383.31	1098.25
383.535	1176.25
383.761	1182.25
383.986	1141.25
384.211	1363.25
384.436	1326.25
384.662	1026.25
384.887	1002.25
385.112	1011.25
385.337	1029.25
385.562	980.25
385.787	1092.25
386.013	1191.25
386.238	1219.25
386.463	992.25
386.688	935.25
386.913	931.25
387.138	882.25
387.363	930.25
387.588	958.25
387.813	964.25
388.038	1072.25
388.263	971.25
388.488	943.25
388.713	1092.25
388.938	1160.25
389.163	974.25
389.387	894.25
389.612	885.25
389.837	922.25
390.062	961.25
390.287	965.25
390.512	1013.25
390.736	926.25
390.961	886.25
391.186	839.25
391.411	820.25
391.636	859.25
391.86	916.25
392.085	1006.25
392.31	983.25
392.534	930.25
392.759	904.25
392.984	982.25
393.208	943.25
393.433	885.25
393.658	806.25
393.882	783.25
394.107	768.25
394.331	796.25
394.556	763.25
394.78	808.25
395.005	862.25
395.229	854.25
395.454	829.25
395.678	847.25
395.903	864.25
396.127	851.25
396.352	878.25
396.576	952.25
396.801	959.25
397.025	1067.25
397.249	1106.25
397.474	903.25
397.698	919.25
397.922	960.25
398.147	880.25
398.371	901.25
398.595	928.25
398.82	938.25
399.044	933.25
399.268	998.25
399.492	1041.25
399.717	1058.25
399.941	1093.25
400.165	1050.25
400.389	1014.25
400.613	1037.25
400.837	1022.25
401.062	911.25
401.286	882.25
401.51	896.25
401.734	900.25
401.958	918.25
402.182	896.25
402.406	894.25
402.63	906.25
402.854	932.25
403.078	1065.25
403.302	1269.25
403.526	1324.25
403.75	1190.25
403.974	1007.25
404.198	1081.25
404.422	1179.25
404.645	1421.25
404.869	1536.25
405.093	1158.25
405.317	989.25
405.541	980.25
405.765	1020.25
405.988	1003.25
406.212	1079.25
406.436	1298.25
406.66	1388.25
406.883	1131.25
407.107	1132.25
407.331	1345.25
407.555	1234.25
407.778	1088.25
408.002	1070.25
408.226	1035.25
408.449	1036.25
408.673	994.25
408.896	941.25
409.12	882.25
409.344	921.25
409.567	854.25
409.791	884.25
410.014	903.25
410.238	877.25
410.461	883.25
410.685	877.25
410.908	911.25
411.132	928.25
411.355	924.25
411.578	916.25
411.802	932.25
412.025	978.25
412.249	962.25
412.472	920.25
412.695	929.25
412.919	933.25
413.142	982.25
413.365	1023.25
413.589	999.25
413.812	925.25
414.035	910.25
414.258	918.25
414.482	1036.25
414.705	1041.25
414.928	894.25
415.151	844.25
415.374	884.25
415.597	928.25
415.821	890.25
416.044	892.25
416.267	898.25
416.49	870.25
416.713	849.25
416.936	841.25
417.159	853.25
417.382	880.25
417.605	884.25
417.828	889.25
418.051	926.25
418.274	966.25
418.497	928.25
418.72	952.25
418.943	944.25
419.166	955.25
419.389	1011.25
419.611	997.25
419.834	1002.25
420.057	1100.25
420.28	1103.25
420.503	991.25
420.726	922.25
420.948	886.25
421.171	890.25
421.394	879.25
421.617	853.25
421.839	839.25
422.062	898.25
422.285	922.25
422.507	942.25
422.73	935.25
422.953	973.25
423.175	939.25
423.398	916.25
423.621	1006.25
423.843	1032.25
424.066	979.25
424.288	922.25
424.511	900.25
424.733	898.25
424.956	943.25
425.178	1068.25
425.401	1183.25
425.623	1340.25
425.846	1118.25
426.068	993.25
426.291	1092.25
426.513	1031.25
426.735	926.25
426.958	993.25
427.18	1153.25
427.402	1469.25
427.625	1415.25
427.847	1174.25
428.069	893.25
428.292	901.25
428.514	877.25
428.736	875.25
428.958	951.25
429.181	1117.25
429.403	954.25
429.625	887.25
429.847	840.25
430.069	861.25
430.292	863.25
430.514	867.25
430.736	916.25
430.958	1179.25
431.18	1082.25
431.402	851.25
431.624	774.25
431.846	833.25
432.068	792.25
432.29	826.25
432.512	918.25
432.734	1187.25
432.956	1122.25
433.178	878.25
433.4	822.25
433.622	821.25
433.844	901.25
434.066	909.25
434.287	890.25
434.509	888.25
434.731	904.25
434.953	847.25
435.175	874.25
435.397	1018.25
435.618	898.25
435.84	807.25
436.062	825.25
436.284	826.25
436.505	784.25
436.727	802.25
436.949	803.25
437.17	835.25
437.392	858.25
437.614	826.25
437.835	814.25
438.057	860.25
438.278	1013.25
438.5	1350.25
438.721	1364.25
438.943	922.25
439.165	806.25
439.386	777.25
439.608	790.25
439.829	771.25
440.05	810.25
440.272	857.25
440.493	1003.25
440.715	1238.25
440.936	981.25
441.158	844.25
441.379	862.25
441.6	949.25
441.822	997.25
442.043	899.25
442.264	867.25
442.486	894.25
442.707	853.25
442.928	868.25
443.149	898.25
443.371	882.25
443.592	909.25
443.813	926.25
444.034	879.25
444.255	895.25
444.476	922.25
444.698	918.25
444.919	934.25
445.14	1054.25
445.361	1016.25
445.582	957.25
445.803	892.25
446.024	928.25
446.245	944.25
446.466	901.25
446.687	871.25
446.908	892.25
447.129	810.25
447.35	789.25
447.571	775.25
447.792	773.25
448.013	786.25
448.234	764.25
448.455	791.25
448.675	785.25
448.896	796.25
449.117	785.25
449.338	770.25
449.559	827.25
449.779	879.25
450	863.25
450.221	822.25
450.442	796.25
450.662	784.25
450.883	795.25
451.104	814.25
451.324	764.25
451.545	787.25
451.766	777.25
451.986	755.25
452.207	772.25
452.428	776.25
452.648	773.25
452.869	796.25
453.089	816.25
453.31	837.25
453.53	744.25
453.751	739.25
453.971	726.25
454.192	751.25
454.412	778.25
454.633	752.25
454.853	746.25
455.073	735.25
455.294	716.25
455.514	732.25
455.734	781.25
455.955	796.25
456.175	838.25
456.395	759.25
456.616	713.25
456.836	706.25
457.056	701.25
457.276	701.25
457.497	691.25
457.717	704.25
457.937	706.25
458.157	699.25
458.377	737.25
458.598	738.25
458.818	781.25
459.038	785.25
459.258	815.25
459.478	833.25
459.698	883.25
459.918	931.25
460.138	868.25
460.358	899.25
460.578	832.25
460.798	863.25
461.018	892.25
461.238	849.25
461.458	859.25
461.678	887.25
461.898	938.25
462.118	948.25
462.338	945.25
462.558	964.25
462.777	1003.25
462.997	1004.25
463.217	971.25
463.437	1052.25
463.657	1015.25
463.876	955.25
464.096	933.25
464.316	942.25
464.536	962.25
464.755	1030.25
464.975	1004.25
465.195	949.25
465.414	972.25
465.634	947.25
465.854	899.25
466.073	880.25
466.293	877.25
466.512	930.25
466.732	983.25
466.951	1013.25
467.171	918.25
467.391	890.25
467.61	876.25
467.829	913.25
468.049	955.25
468.268	874.25
468.488	857.25
468.707	921.25
468.927	1075.25
469.146	1130.25
469.365	1010.25
469.585	949.25
469.804	995.25
470.023	1073.25
470.243	948.25
470.462	879.25
470.681	887.25
470.901	930.25
471.12	984.25
471.339	973.25
471.558	909.25
471.777	930.25
471.997	986.25
472.216	1104.25
472.435	1073.25
472.654	974.25
472.873	939.25
473.092	979.25
473.311	1015.25
473.53	953.25
473.749	930.25
473.968	986.25
474.187	945.25
474.406	932.25
474.625	915.25
474.844	948.25
475.063	1022.25
475.282	1021.25
475.501	1038.25
475.72	1104.25
475.939	1077.25
476.158	1091.25
476.377	1222.25
476.596	1433.25
476.814	1486.25
477.033	1245.25
477.252	1059.25
477.471	971.25
477.69	972.25
477.908	1090.25
478.127	1138.25
478.346	1060.25
478.564	1117.25
478.783	1099.25
479.002	1116.25
479.22	1275.25
479.439	1419.25
479.658	1227.25
479.876	1115.25
480.095	1213.25
480.313	1217.25
480.532	1125.25
480.751	1078.25
480.969	1120.25
481.188	1282.25
481.406	1281.25
481.624	1221.25
481.843	1140.25
482.061	1037.25
482.28	1162.25
482.498	1481.25
482.717	1381.25
482.935	1178.25
483.153	1099.25
483.372	1054.25
483.59	1051.25
483.808	1044.25
484.027	1049.25
484.245	972.25
484.463	982.25
484.681	1022.25
484.9	1100.25
485.118	1158.25
485.336	1121.25
485.554	1018.25
485.772	1068.25
485.99	1130.25
486.209	1222.25
486.427	1213.25
486.645	1184.25
486.863	1236.25
487.081	1234.25
487.299	1350.25
487.517	1330.25
487.735	1170.25
487.953	1242.25
488.171	1243.25
488.389	1165.25
488.607	1074.25
488.825	1127.25
489.043	1260.25
489.261	1429.25
489.479	1521.25
489.696	1304.25
489.914	1176.25
490.132	1105.25
490.35	1106.25
490.568	1083.25
490.786	1067.25
491.003	1122.25
491.221	1124.25
491.439	1119.25
491.657	1125.25
491.874	1217.25
492.092	1454.25
492.31	1735.25
492.527	1719.25
492.745	1485.25
492.963	1310.25
493.18	1290.25
493.398	1304.25
493.615	1300.25
493.833	1226.25
494.05	1211.25
494.268	1252.25
494.485	1219.25
494.703	1203.25
494.92	1218.25
495.138	1201.25
495.355	1203.25
495.573	1230.25
495.79	1342.25
496.008	1764.25
496.225	1512.25
496.442	1349.25
496.66	1330.25
496.877	1407.25
497.094	1376.25
497.312	1281.25
497.529	1267.25
497.746	1297.25
497.963	1343.25
498.181	1462.25
498.398	1588.25
498.615	1616.25
498.832	1720.25
499.049	1693.25
499.267	1534.25
499.484	1577.25
499.701	1593.25
499.918	1736.25
500.135	1867.25
500.352	1884.25
500.569	1962.25
500.786	1966.25
501.003	1975.25
501.22	1811.25
501.437	1713.25
501.654	1654.25
501.871	1608.25
502.088	1638.25
502.305	1502.25
502.522	1501.25
502.739	1464.25
502.956	1361.25
503.172	1390.25
503.389	1309.25
503.606	1258.25
503.823	1294.25
504.04	1303.25
504.256	1309.25
504.473	1326.25
504.69	1357.25
504.907	1384.25
505.123	1361.25
505.34	1413.25
505.557	1388.25
505.773	1335.25
505.99	1302.25
506.207	1362.25
506.423	1253.25
506.64	1181.25
506.856	1228.25
507.073	1370.25
507.289	1308.25
507.506	1345.25
507.722	1395.25
507.939	1402.25
508.155	1430.25
508.372	1310.25
508.588	1295.25
508.805	1228.25
509.021	1189.25
509.238	1154.25
509.454	1157.25
509.67	1161.25
509.887	1182.25
510.103	1322.25
510.319	1262.25
510.536	1179.25
510.752	1082.25
510.968	1062.25
511.184	1003.25
511.401	1023.25
511.617	1026.25
511.833	1032.25
512.049	1058.25
512.265	1107.25
512.481	1125.25
512.698	1234.25
512.914	1409.25
513.13	1218.25
513.346	1122.25
513.562	1187.25
513.778	1150.25
513.994	1117.25
514.21	1223.25
514.426	1198.25
514.642	1132.25
514.858	1125.25
515.074	1183.25
515.29	1252.25
515.506	1431.25
515.721	1356.25
515.937	1228.25
516.153	1188.25
516.369	1140.25
516.585	1187.25
516.801	1349.25
517.016	1560.25
517.232	1532.25
517.448	1508.25
517.664	1352.25
517.879	1318.25
518.095	1260.25
518.311	1278.25
518.527	1293.25
518.742	1372.25
518.958	1471.25
519.173	1407.25
519.389	1352.25
519.605	1382.25
519.82	1520.25
520.036	1716.25
520.251	1696.25
520.467	1542.25
520.682	2316.25
520.898	2774.25
521.113	2626.25
521.329	1688.25
521.544	1524.25
521.76	1488.25
521.975	1338.25
522.19	1246.25
522.406	1315.25
522.621	1443.25
522.836	1482.25
523.052	1526.25
523.267	1283.25
523.482	1279.25
523.698	1379.25
523.913	1315.25
524.128	1211.25
524.343	1180.25
524.559	1180.25
524.774	1126.25
524.989	1108.25
525.204	1163.25
525.419	1280.25
525.634	1178.25
525.849	1212.25
526.064	1245.25
526.28	1220.25
526.495	1466.25
526.71	1516.25
526.925	1306.25
527.14	1398.25
527.355	1344.25
527.57	1124.25
527.785	1202.25
527.999	1098.25
528.214	1059.25
528.429	1073.25
528.644	1056.25
528.859	996.25
529.074	994.25
529.289	983.25
529.503	982.25
529.718	1018.25
529.933	1195.25
530.148	1181.25
530.363	1054.25
530.577	996.25
530.792	993.25
531.007	971.25
531.221	966.25
531.436	965.25
531.651	976.25
531.865	1020.25
532.08	1031.25
532.295	980.25
532.509	1012.25
532.724	1135.25
532.938	1309.25
533.153	1477.25
533.367	1204.25
533.582	1179.25
533.796	1078.25
534.011	1044.25
534.225	1038.25
534.44	1063.25
534.654	1090.25
534.868	1221.25
535.083	1095.25
535.297	984.25
535.511	1022.25
535.726	1131.25
535.94	1056.25
536.154	1000.25
536.369	989.25
536.583	979.25
536.797	1003.25
537.011	1029.25
537.225	1117.25
537.44	1161.25
537.654	1032.25
537.868	971.25
538.082	981.25
538.296	995.25
538.51	1063.25
538.724	1047.25
538.938	1032.25
539.153	967.25
539.367	976.25
539.581	994.25
539.795	1042.25
540.009	1126.25
540.222	1064.25
540.436	1061.25
540.65	1127.25
540.864	1134.25
541.078	1186.25
541.292	1320.25
541.506	1102.25
541.72	1053.25
541.934	1040.25
542.147	1012.25
542.361	1029.25
542.575	1056.25
542.789	995.25
543.002	963.25
543.216	1019.25
543.43	948.25
543.644	925.25
543.857	915.25
544.071	947.25
544.285	917.25
544.498	893.25
544.712	906.25
544.925	986.25
545.139	988.25
545.352	911.25
545.566	917.25
545.779	1010.25
545.993	939.25
546.206	873.25
546.42	876.25
546.633	887.25
546.847	854.25
547.06	855.25
547.274	860.25
547.487	894.25
547.7	934.25
547.914	1009.25
548.127	1104.25
548.34	1062.25
548.554	969.25
548.767	966.25
548.98	1053.25
549.193	971.25
549.407	1003.25
549.62	1158.25
549.833	1115.25
550.046	1150.25
550.259	1190.25
550.473	1018.25
550.686	960.25
550.899	996.25
551.112	976.25
551.325	1036.25
551.538	1062.25
551.751	938.25
551.964	894.25
552.177	880.25
552.39	863.25
552.603	895.25
552.816	920.25
553.029	879.25
553.242	862.25
553.455	940.25
553.667	1028.25
553.88	962.25
554.093	897.25
554.306	819.25
554.519	802.25
554.732	800.25
554.944	774.25
555.157	739.25
555.37	794.25
555.583	795.25
555.795	759.25
556.008	788.25
556.221	784.25
556.433	802.25
556.646	787.25
556.859	780.25
557.071	803.25
557.284	817.25
557.496	818.25
557.709	816.25
557.921	795.25
558.134	736.25
558.346	726.25
558.559	713.25
558.771	746.25
558.984	800.25
559.196	805.25
559.409	756.25
559.621	709.25
559.833	708.25
560.046	704.25
560.258	705.25
560.47	736.25
560.683	720.25
560.895	677.25
561.107	658.25
561.32	672.25
561.532	684.25
561.744	755.25
561.956	776.25
562.168	703.25
562.381	695.25
562.593	708.25
562.805	743.25
563.017	702.25
563.229	668.25
563.441	647.25
563.653	674.25
563.865	676.25
564.077	709.25
564.289	686.25
564.501	701.25
564.713	727.25
564.925	730.25
565.137	679.25
565.349	693.25
565.561	712.25
565.773	707.25
565.985	733.25
566.197	777.25
566.408	859.25
566.62	842.25
566.832	832.25
567.044	830.25
567.255	895.25
567.467	966.25
567.679	880.25
567.891	878.25
568.102	882.25
568.314	910.25
568.526	858.25
568.737	836.25
568.949	879.25
569.161	781.25
569.372	704.25
569.584	669.25
569.795	674.25
570.007	678.25
570.218	729.25
570.43	725.25
570.641	684.25
570.853	652.25
571.064	656.25
571.276	691.25
571.487	700.25
571.698	664.25
571.91	672.25
572.121	675.25
572.333	642.25
572.544	634.25
572.755	623.25
572.966	592.25
573.178	591.25
573.389	644.25
573.6	644.25
573.811	623.25
574.023	581.25
574.234	562.25
574.445	576.25
574.656	571.25
574.867	583.25
575.078	600.25
575.289	572.25
575.501	639.25
575.712	581.25
575.923	531.25
576.134	538.25
576.345	558.25
576.556	551.25
576.767	543.25
576.978	520.25
577.188	508.25
577.399	492.25
577.61	526.25
577.821	523.25
578.032	530.25
578.243	567.25
578.454	577.25
578.665	567.25
578.875	545.25
579.086	524.25
579.297	578.25
579.508	583.25
579.718	546.25
579.929	544.25
580.14	535.25
580.35	507.25
580.561	477.25
580.772	486.25
580.982	475.25
581.193	472.25
581.403	462.25
581.614	479.25
581.825	446.25
582.035	478.25
582.246	467.25
582.456	474.25
582.667	492.25
582.877	456.25
583.087	455.25
583.298	456.25
583.508	431.25
583.719	443.25
583.929	469.25
584.139	463.25
584.35	445.25
584.56	467.25
584.77	472.25
584.981	458.25
585.191	464.25
585.401	461.25
585.611	461.25
585.821	471.25
586.032	493.25
586.242	477.25
586.452	467.25
586.662	458.25
586.872	504.25
587.082	500.25
587.292	451.25
587.502	455.25
587.713	453.25
587.923	456.25
588.133	477.25
588.343	479.25
588.553	485.25
588.762	454.25
588.972	449.25
589.182	450.25
589.392	454.25
589.602	453.25
589.812	477.25
590.022	497.25
590.232	508.25
590.441	461.25
590.651	474.25
590.861	460.25
591.071	470.25
591.281	464.25
591.49	435.25
591.7	460.25
591.91	438.25
592.119	447.25
592.329	448.25
592.539	467.25
592.748	486.25
592.958	469.25
593.167	482.25
593.377	467.25
593.587	488.25
593.796	461.25
594.006	485.25
594.215	474.25
594.424	476.25
594.634	487.25
594.843	483.25
595.053	451.25
595.262	439.25
595.472	448.25
595.681	416.25
595.89	435.25
596.1	450.25
596.309	435.25
596.518	417.25
596.727	412.25
596.937	438.25
597.146	405.25
597.355	478.25
597.564	441.25
597.774	416.25
597.983	410.25
598.192	388.25
598.401	384.25
598.61	392.25
598.819	388.25
599.028	395.25
599.237	393.25
599.446	369.25
599.655	382.25
599.864	382.25
600.073	394.25
600.282	386.25
600.491	381.25
600.7	381.25
600.909	396.25
601.118	388.25
601.327	387.25
601.536	378.25
601.745	388.25
601.953	404.25
602.162	385.25
602.371	375.25
602.58	400.25
602.789	391.25
602.997	369.25
603.206	368.25
603.415	359.25
603.623	355.25
603.832	337.25
604.041	359.25
604.249	356.25
604.458	381.25
604.666	354.25
604.875	327.25
605.084	350.25
605.292	362.25
605.501	364.25
605.709	375.25
605.918	369.25
606.126	344.25
606.334	366.25
606.543	372.25
606.751	367.25
606.96	345.25
607.168	341.25
607.376	341.25
607.585	347.25
607.793	362.25
608.001	356.25
608.21	362.25
608.418	346.25
608.626	370.25
608.834	340.25
609.043	328.25
609.251	342.25
609.459	340.25
609.667	356.25
609.875	349.25
610.083	350.25
610.291	363.25
610.499	355.25
610.707	336.25
610.916	327.25
611.124	314.25
611.332	337.25
611.54	338.25
611.748	338.25
611.955	338.25
612.163	335.25
612.371	325.25
612.579	342.25
612.787	328.25
612.995	319.25
613.203	328.25
613.411	336.25
613.618	335.25
613.826	346.25
614.034	356.25
614.242	331.25
614.449	314.25
614.657	309.25
614.865	320.25
615.072	344.25
615.28	339.25
615.488	315.25
615.695	320.25
615.903	323.25
616.111	326.25
616.318	316.25
616.526	301.25
616.733	328.25
616.941	327.25
617.148	312.25
617.356	327.25
617.563	330.25
617.771	318.25
617.978	299.25
618.185	314.25
618.393	314.25
618.6	315.25
618.807	310.25
619.015	311.25
619.222	317.25
619.429	306.25
619.637	317.25
619.844	300.25
620.051	294.25
620.258	298.25
620.466	288.25
620.673	298.25
620.88	281.25
621.087	301.25
621.294	288.25
621.501	286.25
621.708	287.25
621.915	288.25
622.122	290.25
622.329	288.25
622.536	277.25
622.743	288.25
622.95	296.25
623.157	295.25
623.364	319.25
623.571	304.25
623.778	306.25
623.985	298.25
624.192	314.25
624.399	314.25
624.606	291.25
624.812	300.25
625.019	299.25
625.226	318.25
625.433	306.25
625.639	268.25
625.846	283.25
626.053	265.25
626.259	261.25
626.466	272.25
626.673	299.25
626.879	279.25
627.086	275.25
627.293	277.25
627.499	288.25
627.706	274.25
627.912	286.25
628.119	258.25
628.325	283.25
628.532	255.25
628.738	263.25
628.945	260.25
629.151	276.25
629.357	251.25
629.564	266.25
629.77	268.25
629.976	274.25
630.183	252.25
630.389	262.25
630.595	276.25
630.802	245.25
631.008	236.25
631.214	243.25
631.42	252.25
631.627	274.25
631.833	246.25
632.039	254.25
632.245	226.25
632.451	225.25
632.657	247.25
632.863	247.25
633.069	248.25
633.275	252.25
633.481	230.25
633.688	228.25
633.893	228.25
634.099	235.25
634.305	218.25
634.511	227.25
634.717	223.25
634.923	228.25
635.129	228.25
635.335	227.25
635.541	244.25
635.747	212.25
635.952	233.25
636.158	224.25
636.364	239.25
636.57	246.25
636.775	234.25
636.981	227.25
637.187	218.25
637.392	225.25
637.598	216.25
637.804	234.25
638.009	226.25
638.215	221.25
638.421	213.25
638.626	223.25
638.832	214.25
639.037	215.25
639.243	216.25
639.448	237.25
639.654	228.25
639.859	224.25
640.065	230.25
640.27	237.25
640.475	229.25
640.681	228.25
640.886	214.25
641.091	220.25
641.297	246.25
641.502	229.25
641.707	228.25
641.913	225.25
642.118	206.25
642.323	239.25
642.528	213.25
642.733	218.25
642.939	225.25
643.144	217.25
643.349	215.25
643.554	223.25
643.759	199.25
643.964	211.25
644.169	212.25
644.374	210.25
644.579	197.25
644.784	210.25
644.989	223.25
645.194	206.25
645.399	208.25
645.604	218.25
645.809	192.25
646.014	206.25
646.219	218.25
646.423	200.25
646.628	210.25
646.833	206.25
647.038	204.25
647.243	215.25
647.447	195.25
647.652	199.25
647.857	220.25
648.062	209.25
648.266	217.25
648.471	205.25
648.676	210.25
648.88	222.25
649.085	192.25
649.289	218.25
649.494	210.25
649.698	213.25
649.903	202.25
650.107	203.25
650.312	202.25
650.516	187.25
650.721	195.25
650.925	175.25
651.13	192.25
651.334	182.25
651.539	182.25
651.743	175.25
651.947	163.25
652.152	184.25
652.356	183.25
652.56	172.25
652.764	175.25
652.969	156.25
653.173	171.25
653.377	158.25
653.581	154.25
653.785	163.25
653.99	170.25
654.194	151.25
654.398	167.25
654.602	176.25
654.806	162.25
655.01	146.25
655.214	167.25
655.418	148.25
655.622	150.25
655.826	153.25
656.03	172.25
656.234	164.25
656.438	158.25
656.642	168.25
656.846	149.25
657.049	156.25
657.253	149.25
657.457	143.25
657.661	140.25
657.865	134.25
658.068	122.25
658.272	106.25
658.476	127.25
658.68	118.25
658.883	113.25
659.087	119.25
659.291	123.25
659.494	102.25
659.698	104.25
659.901	109.25
660.105	103.25
660.309	94.25
660.512	98.25
660.716	96.25
660.919	98.25
661.123	97.25
661.326	95.25
661.53	91.25
661.733	87.25
661.936	99.25
662.14	82.25
662.343	83.25
662.546	93.25
662.75	106.25
662.953	83.25
663.156	94.25
663.36	84.25
663.563	78.25
663.766	84.25
663.969	95.25
664.173	76.25
664.376	92.25
664.579	80.25
664.782	85.25
664.985	83.25
665.188	84.25
665.391	85.25
665.594	89.25
665.797	87.25
666	78.25
666.203	72.25
666.406	83.25
666.609	85.25
666.812	87.25
667.015	83.25
667.218	84.25
667.421	80.25
667.624	76.25
667.827	82.25
668.03	81.25
668.232	85.25
668.435	80.25
668.638	72.25
668.841	94.25
669.043	87.25
669.246	70.25
669.449	80.25
669.651	77.25
669.854	88.25
670.057	70.25
670.259	91.25
670.462	70.25
670.665	88.25
670.867	91.25
671.07	76.25
671.272	104.25
671.475	79.25
671.677	71.25
671.88	89.25
672.082	77.25
672.284	96.25
672.487	78.25
672.689	70.25
672.892	70.25
