Data from NickelSpatula.Lamp.E10.P2_HRD10591_11-57-11-534.txt Node
Date: Tue Jul 23 11:57:11 EDT 2019
User: cochatt
Spectrometer: HR+D1059
Trigger mode: 1
Integration Time (sec): 1.000000E-1
Scans to average: 1
Electric dark correction enabled: true
Nonlinearity correction enabled: false
Boxcar width: 0
XAxis mode: Wavelengths
Number of Pixels in Spectrum: 2048
>>>>>Begin Spectral Data<<<<<
223.165	-17.44
223.4	-17.44
223.635	-17.44
223.869	-29.44
224.104	-27.44
224.338	-19.44
224.573	-16.44
224.808	-17.44
225.042	-2.44
225.277	9.56
225.511	10.56
225.746	-1.44
225.98	-0.44
226.215	19.56
226.449	13.56
226.683	20.56
226.918	27.56
227.152	30.56
227.387	32.56
227.621	38.56
227.856	42.56
228.09	41.56
228.324	53.56
228.559	56.56
228.793	87.56
229.027	140.56
229.262	159.56
229.496	161.56
229.73	158.56
229.964	205.56
230.199	223.56
230.433	214.56
230.667	209.56
230.901	203.56
231.136	201.56
231.37	194.56
231.604	214.56
231.838	241.56
232.072	235.56
232.306	257.56
232.541	236.56
232.775	250.56
233.009	272.56
233.243	311.56
233.477	317.56
233.711	342.56
233.945	340.56
234.179	333.56
234.413	336.56
234.647	382.56
234.881	442.56
235.115	403.56
235.349	390.56
235.583	351.56
235.817	343.56
236.051	383.56
236.285	420.56
236.519	455.56
236.753	421.56
236.987	400.56
237.221	404.56
237.455	418.56
237.689	422.56
237.922	466.56
238.156	484.56
238.39	530.56
238.624	643.56
238.858	582.56
239.091	482.56
239.325	502.56
239.559	498.56
239.793	542.56
240.027	618.56
240.26	596.56
240.494	600.56
240.728	587.56
240.961	691.56
241.195	635.56
241.429	615.56
241.662	630.56
241.896	518.56
242.13	480.56
242.363	464.56
242.597	467.56
242.83	536.56
243.064	537.56
243.298	607.56
243.531	633.56
243.765	628.56
243.998	620.56
244.232	594.56
244.465	581.56
244.699	593.56
244.932	654.56
245.166	597.56
245.399	551.56
245.633	544.56
245.866	592.56
246.099	619.56
246.333	696.56
246.566	795.56
246.8	751.56
247.033	739.56
247.266	656.56
247.5	666.56
247.733	675.56
247.966	664.56
248.2	684.56
248.433	779.56
248.666	798.56
248.899	823.56
249.133	844.56
249.366	970.56
249.599	1058.56
249.832	939.56
250.066	793.56
250.299	841.56
250.532	816.56
250.765	797.56
250.998	734.56
251.231	720.56
251.465	747.56
251.698	817.56
251.931	787.56
252.164	820.56
252.397	913.56
252.63	1012.56
252.863	1170.56
253.096	1198.56
253.329	1127.56
253.562	1106.56
253.795	1247.56
254.028	1364.56
254.261	1360.56
254.494	1221.56
254.727	1107.56
254.96	1087.56
255.193	1153.56
255.426	1118.56
255.659	820.56
255.892	773.56
256.124	866.56
256.357	1010.56
256.59	1168.56
256.823	1141.56
257.056	959.56
257.289	919.56
257.521	976.56
257.754	1148.56
257.987	1276.56
258.22	1113.56
258.452	1008.56
258.685	1121.56
258.918	1265.56
259.151	1240.56
259.383	1332.56
259.616	1503.56
259.849	1553.56
260.081	1692.56
260.314	1866.56
260.547	1452.56
260.779	1461.56
261.012	1730.56
261.244	1589.56
261.477	1597.56
261.71	1500.56
261.942	1261.56
262.175	1272.56
262.407	1204.56
262.64	1254.56
262.872	1502.56
263.105	1648.56
263.337	1692.56
263.57	1515.56
263.802	1032.56
264.035	903.56
264.267	864.56
264.499	758.56
264.732	723.56
264.964	690.56
265.197	747.56
265.429	789.56
265.661	802.56
265.894	818.56
266.126	891.56
266.358	1011.56
266.591	1211.56
266.823	1455.56
267.055	1444.56
267.287	1265.56
267.52	1236.56
267.752	1328.56
267.984	1455.56
268.216	1370.56
268.448	1126.56
268.681	1102.56
268.913	1208.56
269.145	1275.56
269.377	1319.56
269.609	1286.56
269.841	1203.56
270.073	1286.56
270.306	1376.56
270.538	1434.56
270.77	1402.56
271.002	1433.56
271.234	1463.56
271.466	1512.56
271.698	1410.56
271.93	1408.56
272.162	1429.56
272.394	1381.56
272.626	1339.56
272.858	1443.56
273.09	1448.56
273.322	1287.56
273.553	1275.56
273.785	1474.56
274.017	1889.56
274.249	2364.56
274.481	2436.56
274.713	2646.56
274.945	3040.56
275.176	3236.56
275.408	2839.56
275.64	2613.56
275.872	2530.56
276.104	2131.56
276.335	1908.56
276.567	1882.56
276.799	1901.56
277.031	2027.56
277.262	1599.56
277.494	1213.56
277.726	1197.56
277.957	1317.56
278.189	1474.56
278.421	1456.56
278.652	1420.56
278.884	1392.56
279.115	1259.56
279.347	1188.56
279.579	1187.56
279.81	1203.56
280.042	1162.56
280.273	1232.56
280.505	1134.56
280.736	979.56
280.968	972.56
281.199	1080.56
281.431	1229.56
281.662	1226.56
281.894	1211.56
282.125	1255.56
282.356	1304.56
282.588	1379.56
282.819	1250.56
283.051	1360.56
283.282	1683.56
283.513	1910.56
283.745	2167.56
283.976	2140.56
284.207	1981.56
284.439	2068.56
284.67	2001.56
284.901	1795.56
285.132	1930.56
285.364	1977.56
285.595	1820.56
285.826	1945.56
286.057	2007.56
286.288	1921.56
286.52	2016.56
286.751	2079.56
286.982	2100.56
287.213	1815.56
287.444	1771.56
287.675	1842.56
287.906	1840.56
288.138	1561.56
288.369	1363.56
288.6	1267.56
288.831	1377.56
289.062	1555.56
289.293	1702.56
289.524	1600.56
289.755	1598.56
289.986	1634.56
290.217	1424.56
290.448	1107.56
290.679	987.56
290.91	901.56
291.141	924.56
291.371	958.56
291.602	998.56
291.833	976.56
292.064	1044.56
292.295	1211.56
292.526	1386.56
292.757	1457.56
292.987	1541.56
293.218	1538.56
293.449	1611.56
293.68	1680.56
293.91	1627.56
294.141	1664.56
294.372	1544.56
294.603	1424.56
294.833	1572.56
295.064	1816.56
295.295	1727.56
295.525	1314.56
295.756	1136.56
295.987	987.56
296.217	1006.56
296.448	1046.56
296.679	1071.56
296.909	1202.56
297.14	1276.56
297.37	1427.56
297.601	1330.56
297.831	1130.56
298.062	1243.56
298.292	1414.56
298.523	1534.56
298.753	1729.56
298.984	1528.56
299.214	1218.56
299.445	1046.56
299.675	1003.56
299.905	1002.56
300.136	1040.56
300.366	1153.56
300.597	1103.56
300.827	1019.56
301.057	956.56
301.288	980.56
301.518	1078.56
301.748	1189.56
301.979	1285.56
302.209	1386.56
302.439	1375.56
302.669	1226.56
302.9	1234.56
303.13	1131.56
303.36	1075.56
303.59	1034.56
303.82	1078.56
304.051	1204.56
304.281	1324.56
304.511	1286.56
304.741	1143.56
304.971	1178.56
305.201	1283.56
305.431	1175.56
305.661	1026.56
305.891	1040.56
306.121	1050.56
306.352	950.56
306.582	884.56
306.812	854.56
307.042	840.56
307.272	795.56
307.502	792.56
307.731	863.56
307.961	896.56
308.191	859.56
308.421	776.56
308.651	813.56
308.881	774.56
309.111	766.56
309.341	795.56
309.571	874.56
309.8	906.56
310.03	913.56
310.26	971.56
310.49	927.56
310.72	854.56
310.949	850.56
311.179	871.56
311.409	929.56
311.639	1070.56
311.868	1355.56
312.098	1799.56
312.328	1910.56
312.557	1874.56
312.787	1893.56
313.017	1658.56
313.246	1800.56
313.476	1946.56
313.706	1600.56
313.935	1273.56
314.165	1056.56
314.394	964.56
314.624	982.56
314.853	1002.56
315.083	1009.56
315.312	997.56
315.542	982.56
315.771	935.56
316.001	862.56
316.23	838.56
316.46	833.56
316.689	844.56
316.919	867.56
317.148	899.56
317.377	855.56
317.607	877.56
317.836	948.56
318.065	1074.56
318.295	1221.56
318.524	1093.56
318.753	978.56
318.983	909.56
319.212	919.56
319.441	976.56
319.67	1095.56
319.9	1175.56
320.129	1064.56
320.358	963.56
320.587	934.56
320.816	1008.56
321.046	1138.56
321.275	1283.56
321.504	1280.56
321.733	1229.56
321.962	1174.56
322.191	1153.56
322.42	1054.56
322.649	1095.56
322.878	1152.56
323.108	1154.56
323.337	1060.56
323.566	1074.56
323.795	1022.56
324.024	984.56
324.253	969.56
324.482	982.56
324.71	1035.56
324.939	1171.56
325.168	1081.56
325.397	915.56
325.626	916.56
325.855	902.56
326.084	908.56
326.313	892.56
326.542	842.56
326.77	867.56
326.999	885.56
327.228	954.56
327.457	984.56
327.686	974.56
327.914	888.56
328.143	825.56
328.372	809.56
328.6	807.56
328.829	883.56
329.058	878.56
329.287	881.56
329.515	903.56
329.744	888.56
329.972	844.56
330.201	834.56
330.43	841.56
330.658	933.56
330.887	1022.56
331.115	1017.56
331.344	999.56
331.572	942.56
331.801	884.56
332.03	821.56
332.258	883.56
332.486	967.56
332.715	959.56
332.943	894.56
333.172	891.56
333.4	924.56
333.629	1024.56
333.857	1084.56
334.085	1118.56
334.314	1127.56
334.542	1015.56
334.771	984.56
334.999	967.56
335.227	922.56
335.455	958.56
335.684	1020.56
335.912	1168.56
336.14	1330.56
336.369	1249.56
336.597	1245.56
336.825	1360.56
337.053	1501.56
337.281	1190.56
337.51	1001.56
337.738	968.56
337.966	1057.56
338.194	1154.56
338.422	1086.56
338.65	961.56
338.878	874.56
339.106	904.56
339.334	982.56
339.562	1064.56
339.79	970.56
340.018	958.56
340.246	1008.56
340.474	1159.56
340.702	1242.56
340.93	1290.56
341.158	1265.56
341.386	1115.56
341.614	1080.56
341.842	1067.56
342.07	1136.56
342.298	1334.56
342.526	1372.56
342.754	1162.56
342.981	1081.56
343.209	1034.56
343.437	1118.56
343.665	1152.56
343.893	1137.56
344.12	1336.56
344.348	1568.56
344.576	1410.56
344.804	1165.56
345.031	987.56
345.259	954.56
345.487	978.56
345.714	1019.56
345.942	1112.56
346.17	1162.56
346.397	1136.56
346.625	980.56
346.853	946.56
347.08	899.56
347.308	992.56
347.535	1085.56
347.763	1120.56
347.99	969.56
348.218	882.56
348.445	981.56
348.673	980.56
348.9	974.56
349.128	1026.56
349.355	1061.56
349.583	1016.56
349.81	1006.56
350.037	939.56
350.265	810.56
350.492	806.56
350.72	806.56
350.947	819.56
351.174	884.56
351.402	939.56
351.629	1003.56
351.856	905.56
352.083	872.56
352.311	922.56
352.538	1048.56
352.765	1101.56
352.992	1014.56
353.22	943.56
353.447	978.56
353.674	920.56
353.901	940.56
354.128	933.56
354.355	964.56
354.583	955.56
354.81	968.56
355.037	1010.56
355.264	979.56
355.491	1029.56
355.718	1117.56
355.945	1089.56
356.172	1071.56
356.399	1051.56
356.626	1268.56
356.853	1519.56
357.08	1618.56
357.307	1703.56
357.534	1308.56
357.761	1340.56
357.988	1656.56
358.215	1958.56
358.441	1794.56
358.668	1540.56
358.895	1438.56
359.122	1154.56
359.349	1128.56
359.576	1271.56
359.802	1048.56
360.029	902.56
360.256	1001.56
360.483	1205.56
360.709	1545.56
360.936	1580.56
361.163	1372.56
361.39	1059.56
361.616	1025.56
361.843	1166.56
362.07	1428.56
362.296	1301.56
362.523	1011.56
362.749	904.56
362.976	939.56
363.203	1155.56
363.429	1292.56
363.656	1050.56
363.882	960.56
364.109	964.56
364.335	983.56
364.562	965.56
364.788	1061.56
365.015	1243.56
365.241	1104.56
365.468	914.56
365.694	855.56
365.92	824.56
366.147	777.56
366.373	750.56
366.599	766.56
366.826	803.56
367.052	818.56
367.278	829.56
367.505	790.56
367.731	913.56
367.957	994.56
368.184	1009.56
368.41	975.56
368.636	1007.56
368.862	1028.56
369.089	999.56
369.315	885.56
369.541	855.56
369.767	877.56
369.993	830.56
370.219	867.56
370.445	898.56
370.672	977.56
370.898	1051.56
371.124	1054.56
371.35	934.56
371.576	889.56
371.802	940.56
372.028	1141.56
372.254	1255.56
372.48	1064.56
372.706	1001.56
372.932	1063.56
373.158	1087.56
373.384	1243.56
373.61	1703.56
373.835	1710.56
374.061	1290.56
374.287	1127.56
374.513	1317.56
374.739	1554.56
374.965	1584.56
375.191	1555.56
375.416	1128.56
375.642	972.56
375.868	1132.56
376.094	1289.56
376.319	1093.56
376.545	1192.56
376.771	1296.56
376.997	1119.56
377.222	834.56
377.448	737.56
377.674	776.56
377.899	758.56
378.125	765.56
378.35	743.56
378.576	764.56
378.802	863.56
379.027	903.56
379.253	874.56
379.478	884.56
379.704	999.56
379.929	1024.56
380.155	1027.56
380.38	937.56
380.606	968.56
380.831	1045.56
381.057	1006.56
381.282	948.56
381.507	1110.56
381.733	1360.56
381.958	1438.56
382.184	1542.56
382.409	1588.56
382.634	1582.56
382.86	1648.56
383.085	1361.56
383.31	1118.56
383.535	1180.56
383.761	1171.56
383.986	1111.56
384.211	1341.56
384.436	1320.56
384.662	1024.56
384.887	983.56
385.112	992.56
385.337	1023.56
385.562	971.56
385.787	1051.56
386.013	1159.56
386.238	1211.56
386.463	998.56
386.688	959.56
386.913	929.56
387.138	867.56
387.363	938.56
387.588	983.56
387.813	969.56
388.038	1090.56
388.263	946.56
388.488	925.56
388.713	1053.56
388.938	1148.56
389.163	991.56
389.387	910.56
389.612	897.56
389.837	920.56
390.062	930.56
390.287	958.56
390.512	970.56
390.736	919.56
390.961	889.56
391.186	863.56
391.411	836.56
391.636	863.56
391.86	881.56
392.085	990.56
392.31	1001.56
392.534	926.56
392.759	926.56
392.984	974.56
393.208	954.56
393.433	847.56
393.658	792.56
393.882	800.56
394.107	824.56
394.331	808.56
394.556	799.56
394.78	802.56
395.005	830.56
395.229	859.56
395.454	861.56
395.678	895.56
395.903	898.56
396.127	863.56
396.352	878.56
396.576	962.56
396.801	947.56
397.025	1081.56
397.249	1086.56
397.474	937.56
397.698	932.56
397.922	994.56
398.147	927.56
398.371	932.56
398.595	954.56
398.82	950.56
399.044	945.56
399.268	1014.56
399.492	1035.56
399.717	1062.56
399.941	1103.56
400.165	1075.56
400.389	1044.56
400.613	1021.56
400.837	1076.56
401.062	935.56
401.286	897.56
401.51	902.56
401.734	902.56
401.958	927.56
402.182	928.56
402.406	883.56
402.63	922.56
402.854	933.56
403.078	1069.56
403.302	1255.56
403.526	1308.56
403.75	1184.56
403.974	1070.56
404.198	1080.56
404.422	1234.56
404.645	1390.56
404.869	1518.56
405.093	1147.56
405.317	1016.56
405.541	992.56
405.765	1014.56
405.988	1008.56
406.212	1112.56
406.436	1254.56
406.66	1402.56
406.883	1118.56
407.107	1163.56
407.331	1342.56
407.555	1251.56
407.778	1095.56
408.002	1034.56
408.226	1040.56
408.449	1082.56
408.673	1033.56
408.896	943.56
409.12	914.56
409.344	905.56
409.567	889.56
409.791	905.56
410.014	897.56
410.238	892.56
410.461	897.56
410.685	899.56
410.908	923.56
411.132	943.56
411.355	922.56
411.578	955.56
411.802	950.56
412.025	993.56
412.249	979.56
412.472	948.56
412.695	976.56
412.919	951.56
413.142	979.56
413.365	1052.56
413.589	1031.56
413.812	949.56
414.035	934.56
414.258	956.56
414.482	1016.56
414.705	1063.56
414.928	939.56
415.151	883.56
415.374	870.56
415.597	925.56
415.821	922.56
416.044	890.56
416.267	883.56
416.49	878.56
416.713	869.56
416.936	836.56
417.159	856.56
417.382	894.56
417.605	900.56
417.828	923.56
418.051	904.56
418.274	957.56
418.497	921.56
418.72	926.56
418.943	982.56
419.166	987.56
419.389	1033.56
419.611	994.56
419.834	1029.56
420.057	1093.56
420.28	1066.56
420.503	1020.56
420.726	912.56
420.948	890.56
421.171	888.56
421.394	905.56
421.617	880.56
421.839	885.56
422.062	932.56
422.285	928.56
422.507	947.56
422.73	970.56
422.953	1008.56
423.175	935.56
423.398	939.56
423.621	1026.56
423.843	1034.56
424.066	977.56
424.288	922.56
424.511	909.56
424.733	922.56
424.956	952.56
425.178	1040.56
425.401	1197.56
425.623	1350.56
425.846	1138.56
426.068	994.56
426.291	1080.56
426.513	1013.56
426.735	958.56
426.958	986.56
427.18	1147.56
427.402	1451.56
427.625	1444.56
427.847	1175.56
428.069	921.56
428.292	887.56
428.514	918.56
428.736	872.56
428.958	972.56
429.181	1057.56
429.403	952.56
429.625	874.56
429.847	866.56
430.069	893.56
430.292	918.56
430.514	866.56
430.736	963.56
430.958	1117.56
431.18	1076.56
431.402	829.56
431.624	798.56
431.846	802.56
432.068	789.56
432.29	825.56
432.512	912.56
432.734	1158.56
432.956	1094.56
433.178	884.56
433.4	831.56
433.622	842.56
433.844	891.56
434.066	886.56
434.287	931.56
434.509	883.56
434.731	908.56
434.953	864.56
435.175	916.56
435.397	995.56
435.618	880.56
435.84	822.56
436.062	830.56
436.284	849.56
436.505	814.56
436.727	782.56
436.949	796.56
437.17	831.56
437.392	838.56
437.614	837.56
437.835	815.56
438.057	841.56
438.278	948.56
438.5	1318.56
438.721	1334.56
438.943	961.56
439.165	824.56
439.386	771.56
439.608	791.56
439.829	801.56
440.05	825.56
440.272	814.56
440.493	991.56
440.715	1172.56
440.936	959.56
441.158	841.56
441.379	853.56
441.6	980.56
441.822	1025.56
442.043	893.56
442.264	890.56
442.486	879.56
442.707	861.56
442.928	854.56
443.149	899.56
443.371	885.56
443.592	934.56
443.813	928.56
444.034	903.56
444.255	944.56
444.476	946.56
444.698	947.56
444.919	962.56
445.14	1062.56
445.361	1009.56
445.582	971.56
445.803	954.56
446.024	949.56
446.245	958.56
446.466	900.56
446.687	869.56
446.908	883.56
447.129	851.56
447.35	832.56
447.571	832.56
447.792	801.56
448.013	814.56
448.234	780.56
448.455	771.56
448.675	803.56
448.896	820.56
449.117	800.56
449.338	788.56
449.559	821.56
449.779	861.56
450	866.56
450.221	850.56
450.442	808.56
450.662	807.56
450.883	795.56
451.104	808.56
451.324	807.56
451.545	790.56
451.766	799.56
451.986	809.56
452.207	763.56
452.428	788.56
452.648	780.56
452.869	836.56
453.089	829.56
453.31	834.56
453.53	746.56
453.751	746.56
453.971	742.56
454.192	779.56
454.412	786.56
454.633	779.56
454.853	763.56
455.073	744.56
455.294	745.56
455.514	768.56
455.734	792.56
455.955	807.56
456.175	831.56
456.395	748.56
456.616	720.56
456.836	715.56
457.056	706.56
457.276	686.56
457.497	711.56
457.717	705.56
457.937	714.56
458.157	729.56
458.377	727.56
458.598	740.56
458.818	762.56
459.038	799.56
459.258	818.56
459.478	864.56
459.698	915.56
459.918	907.56
460.138	877.56
460.358	909.56
460.578	890.56
460.798	866.56
461.018	908.56
461.238	873.56
461.458	878.56
461.678	903.56
461.898	943.56
462.118	925.56
462.338	923.56
462.558	955.56
462.777	988.56
462.997	1012.56
463.217	1034.56
463.437	1074.56
463.657	1009.56
463.876	975.56
464.096	992.56
464.316	984.56
464.536	981.56
464.755	1060.56
464.975	1010.56
465.195	963.56
465.414	989.56
465.634	960.56
465.854	935.56
466.073	872.56
466.293	857.56
466.512	917.56
466.732	1028.56
466.951	1062.56
467.171	918.56
467.391	870.56
467.61	886.56
467.829	920.56
468.049	948.56
468.268	871.56
468.488	869.56
468.707	916.56
468.927	1048.56
469.146	1119.56
469.365	1045.56
469.585	958.56
469.804	1007.56
470.023	1081.56
470.243	982.56
470.462	912.56
470.681	917.56
470.901	931.56
471.12	984.56
471.339	967.56
471.558	926.56
471.777	932.56
471.997	1001.56
472.216	1122.56
472.435	1068.56
472.654	980.56
472.873	967.56
473.092	989.56
473.311	1033.56
473.53	934.56
473.749	939.56
473.968	980.56
474.187	972.56
474.406	946.56
474.625	936.56
474.844	951.56
475.063	1039.56
475.282	1042.56
475.501	1063.56
475.72	1164.56
475.939	1064.56
476.158	1116.56
476.377	1191.56
476.596	1445.56
476.814	1487.56
477.033	1225.56
477.252	1070.56
477.471	1010.56
477.69	1012.56
477.908	1099.56
478.127	1148.56
478.346	1020.56
478.564	1143.56
478.783	1098.56
479.002	1132.56
479.22	1302.56
479.439	1427.56
479.658	1242.56
479.876	1122.56
480.095	1218.56
480.313	1263.56
480.532	1148.56
480.751	1104.56
480.969	1096.56
481.188	1265.56
481.406	1316.56
481.624	1208.56
481.843	1127.56
482.061	1076.56
482.28	1202.56
482.498	1432.56
482.717	1371.56
482.935	1232.56
483.153	1136.56
483.372	1073.56
483.59	1053.56
483.808	1048.56
484.027	1028.56
484.245	1028.56
484.463	1003.56
484.681	1030.56
484.9	1098.56
485.118	1174.56
485.336	1123.56
485.554	1052.56
485.772	1094.56
485.99	1147.56
486.209	1247.56
486.427	1224.56
486.645	1186.56
486.863	1245.56
487.081	1193.56
487.299	1348.56
487.517	1322.56
487.735	1218.56
487.953	1255.56
488.171	1265.56
488.389	1190.56
488.607	1108.56
488.825	1161.56
489.043	1247.56
489.261	1427.56
489.479	1504.56
489.696	1267.56
489.914	1161.56
490.132	1092.56
490.35	1142.56
490.568	1104.56
490.786	1126.56
491.003	1142.56
491.221	1137.56
491.439	1147.56
491.657	1136.56
491.874	1222.56
492.092	1441.56
492.31	1692.56
492.527	1723.56
492.745	1524.56
492.963	1299.56
493.18	1279.56
493.398	1298.56
493.615	1278.56
493.833	1243.56
494.05	1243.56
494.268	1270.56
494.485	1251.56
494.703	1206.56
494.92	1252.56
495.138	1204.56
495.355	1210.56
495.573	1256.56
495.79	1392.56
496.008	1720.56
496.225	1510.56
496.442	1356.56
496.66	1346.56
496.877	1435.56
497.094	1390.56
497.312	1315.56
497.529	1306.56
497.746	1322.56
497.963	1415.56
498.181	1462.56
498.398	1575.56
498.615	1655.56
498.832	1672.56
499.049	1678.56
499.267	1542.56
499.484	1534.56
499.701	1644.56
499.918	1759.56
500.135	1918.56
500.352	1905.56
500.569	2012.56
500.786	2036.56
501.003	2003.56
501.22	1820.56
501.437	1745.56
501.654	1655.56
501.871	1582.56
502.088	1656.56
502.305	1486.56
502.522	1513.56
502.739	1507.56
502.956	1429.56
503.172	1378.56
503.389	1305.56
503.606	1280.56
503.823	1308.56
504.04	1334.56
504.256	1316.56
504.473	1351.56
504.69	1349.56
504.907	1372.56
505.123	1382.56
505.34	1438.56
505.557	1440.56
505.773	1329.56
505.99	1320.56
506.207	1372.56
506.423	1230.56
506.64	1202.56
506.856	1267.56
507.073	1394.56
507.289	1317.56
507.506	1328.56
507.722	1395.56
507.939	1440.56
508.155	1457.56
508.372	1282.56
508.588	1259.56
508.805	1225.56
509.021	1225.56
509.238	1200.56
509.454	1198.56
509.67	1220.56
509.887	1230.56
510.103	1347.56
510.319	1309.56
510.536	1184.56
510.752	1104.56
510.968	1044.56
511.184	1010.56
511.401	1040.56
511.617	1048.56
511.833	1027.56
512.049	1042.56
512.265	1055.56
512.481	1146.56
512.698	1219.56
512.914	1375.56
513.13	1227.56
513.346	1123.56
513.562	1203.56
513.778	1164.56
513.994	1112.56
514.21	1204.56
514.426	1184.56
514.642	1166.56
514.858	1156.56
515.074	1198.56
515.29	1278.56
515.506	1409.56
515.721	1326.56
515.937	1239.56
516.153	1139.56
516.369	1191.56
516.585	1240.56
516.801	1379.56
517.016	1568.56
517.232	1540.56
517.448	1525.56
517.664	1352.56
517.879	1293.56
518.095	1287.56
518.311	1292.56
518.527	1339.56
518.742	1400.56
518.958	1482.56
519.173	1400.56
519.389	1362.56
519.605	1370.56
519.82	1474.56
520.036	1746.56
520.251	1686.56
520.467	1579.56
520.682	2263.56
520.898	2790.56
521.113	2576.56
521.329	1705.56
521.544	1545.56
521.76	1479.56
521.975	1344.56
522.19	1275.56
522.406	1292.56
522.621	1429.56
522.836	1496.56
523.052	1504.56
523.267	1267.56
523.482	1279.56
523.698	1343.56
523.913	1358.56
524.128	1202.56
524.343	1153.56
524.559	1170.56
524.774	1124.56
524.989	1176.56
525.204	1207.56
525.419	1320.56
525.634	1235.56
525.849	1259.56
526.064	1245.56
526.28	1215.56
526.495	1457.56
526.71	1518.56
526.925	1331.56
527.14	1345.56
527.355	1345.56
527.57	1138.56
527.785	1193.56
527.999	1096.56
528.214	1088.56
528.429	1060.56
528.644	1093.56
528.859	1030.56
529.074	1006.56
529.289	976.56
529.503	970.56
529.718	1018.56
529.933	1157.56
530.148	1167.56
530.363	1028.56
530.577	1043.56
530.792	1003.56
531.007	988.56
531.221	988.56
531.436	1003.56
531.651	991.56
531.865	1015.56
532.08	1032.56
532.295	983.56
532.509	1033.56
532.724	1152.56
532.938	1323.56
533.153	1472.56
533.367	1202.56
533.582	1164.56
533.796	1108.56
534.011	1040.56
534.225	1044.56
534.44	1079.56
534.654	1115.56
534.868	1245.56
535.083	1130.56
535.297	1021.56
535.511	992.56
535.726	1159.56
535.94	1098.56
536.154	1019.56
536.369	985.56
536.583	980.56
536.797	1028.56
537.011	1034.56
537.225	1115.56
537.44	1155.56
537.654	1008.56
537.868	1022.56
538.082	1011.56
538.296	1010.56
538.51	1082.56
538.724	1068.56
538.938	1037.56
539.153	972.56
539.367	968.56
539.581	968.56
539.795	1067.56
540.009	1117.56
540.222	1053.56
540.436	1071.56
540.65	1149.56
540.864	1152.56
541.078	1185.56
541.292	1328.56
541.506	1090.56
541.72	1060.56
541.934	1030.56
542.147	1042.56
542.361	1040.56
542.575	1088.56
542.789	1038.56
543.002	943.56
543.216	1068.56
543.43	933.56
543.644	922.56
543.857	921.56
544.071	967.56
544.285	936.56
544.498	918.56
544.712	918.56
544.925	982.56
545.139	968.56
545.352	884.56
545.566	915.56
545.779	1050.56
545.993	941.56
546.206	888.56
546.42	856.56
546.633	896.56
546.847	855.56
547.06	840.56
547.274	879.56
547.487	888.56
547.7	962.56
547.914	997.56
548.127	1127.56
548.34	1085.56
548.554	963.56
548.767	1001.56
548.98	1020.56
549.193	972.56
549.407	1012.56
549.62	1176.56
549.833	1103.56
550.046	1155.56
550.259	1154.56
550.473	1028.56
550.686	951.56
550.899	988.56
551.112	972.56
551.325	1025.56
551.538	1124.56
551.751	960.56
551.964	891.56
552.177	903.56
552.39	865.56
552.603	890.56
552.816	912.56
553.029	886.56
553.242	885.56
553.455	957.56
553.667	1005.56
553.88	1002.56
554.093	891.56
554.306	876.56
554.519	826.56
554.732	816.56
554.944	826.56
555.157	814.56
555.37	778.56
555.583	784.56
555.795	809.56
556.008	808.56
556.221	817.56
556.433	802.56
556.646	798.56
556.859	784.56
557.071	808.56
557.284	835.56
557.496	864.56
557.709	827.56
557.921	786.56
558.134	767.56
558.346	712.56
558.559	751.56
558.771	772.56
558.984	799.56
559.196	758.56
559.409	736.56
559.621	733.56
559.833	720.56
560.046	715.56
560.258	714.56
560.47	751.56
560.683	720.56
560.895	680.56
561.107	675.56
561.32	676.56
561.532	699.56
561.744	763.56
561.956	769.56
562.168	700.56
562.381	699.56
562.593	737.56
562.805	726.56
563.017	709.56
563.229	677.56
563.441	687.56
563.653	684.56
563.865	719.56
564.077	695.56
564.289	677.56
564.501	681.56
564.713	750.56
564.925	709.56
565.137	710.56
565.349	687.56
565.561	691.56
565.773	728.56
565.985	748.56
566.197	802.56
566.408	847.56
566.62	872.56
566.832	860.56
567.044	841.56
567.255	916.56
567.467	994.56
567.679	918.56
567.891	876.56
568.102	912.56
568.314	911.56
568.526	847.56
568.737	836.56
568.949	889.56
569.161	765.56
569.372	715.56
569.584	695.56
569.795	675.56
570.007	743.56
570.218	756.56
570.43	746.56
570.641	700.56
570.853	673.56
571.064	664.56
571.276	690.56
571.487	717.56
571.698	683.56
571.91	657.56
572.121	654.56
572.333	614.56
572.544	628.56
572.755	632.56
572.966	595.56
573.178	612.56
573.389	657.56
573.6	630.56
573.811	611.56
574.023	604.56
574.234	600.56
574.445	592.56
574.656	587.56
574.867	582.56
575.078	598.56
575.289	598.56
575.501	664.56
575.712	597.56
575.923	579.56
576.134	564.56
576.345	547.56
576.556	562.56
576.767	563.56
576.978	548.56
577.188	521.56
577.399	525.56
577.61	537.56
577.821	544.56
578.032	560.56
578.243	574.56
578.454	591.56
578.665	569.56
578.875	548.56
579.086	552.56
579.297	567.56
579.508	579.56
579.718	549.56
579.929	566.56
580.14	542.56
580.35	496.56
580.561	502.56
580.772	495.56
580.982	482.56
581.193	490.56
581.403	474.56
581.614	478.56
581.825	487.56
582.035	461.56
582.246	463.56
582.456	467.56
582.667	489.56
582.877	471.56
583.087	453.56
583.298	454.56
583.508	458.56
583.719	491.56
583.929	486.56
584.139	474.56
584.35	467.56
584.56	476.56
584.77	488.56
584.981	466.56
585.191	472.56
585.401	486.56
585.611	487.56
585.821	506.56
586.032	523.56
586.242	477.56
586.452	460.56
586.662	471.56
586.872	519.56
587.082	499.56
587.292	479.56
587.502	469.56
587.713	471.56
587.923	477.56
588.133	506.56
588.343	494.56
588.553	463.56
588.762	457.56
588.972	456.56
589.182	456.56
589.392	448.56
589.602	474.56
589.812	484.56
590.022	506.56
590.232	510.56
590.441	474.56
590.651	458.56
590.861	455.56
591.071	455.56
591.281	443.56
591.49	447.56
591.7	454.56
591.91	456.56
592.119	467.56
592.329	474.56
592.539	472.56
592.748	460.56
592.958	463.56
593.167	485.56
593.377	476.56
593.587	506.56
593.796	499.56
594.006	474.56
594.215	473.56
594.424	498.56
594.634	513.56
594.843	479.56
595.053	466.56
595.262	465.56
595.472	455.56
595.681	435.56
595.89	451.56
596.1	439.56
596.309	443.56
596.518	408.56
596.727	404.56
596.937	454.56
597.146	460.56
597.355	452.56
597.564	431.56
597.774	409.56
597.983	411.56
598.192	411.56
598.401	397.56
598.61	401.56
598.819	400.56
599.028	407.56
599.237	390.56
599.446	380.56
599.655	372.56
599.864	365.56
600.073	384.56
600.282	392.56
600.491	407.56
600.7	402.56
600.909	403.56
601.118	390.56
601.327	359.56
601.536	366.56
601.745	386.56
601.953	427.56
602.162	401.56
602.371	391.56
602.58	404.56
602.789	386.56
602.997	377.56
603.206	392.56
603.415	384.56
603.623	357.56
603.832	356.56
604.041	362.56
604.249	376.56
604.458	379.56
604.666	367.56
604.875	350.56
605.084	346.56
605.292	352.56
605.501	361.56
605.709	363.56
605.918	347.56
606.126	359.56
606.334	336.56
606.543	355.56
606.751	368.56
606.96	363.56
607.168	341.56
607.376	352.56
607.585	344.56
607.793	368.56
608.001	368.56
608.21	351.56
608.418	363.56
608.626	366.56
608.834	340.56
609.043	335.56
609.251	349.56
609.459	338.56
609.667	354.56
609.875	356.56
610.083	354.56
610.291	376.56
610.499	370.56
610.707	348.56
610.916	345.56
611.124	326.56
611.332	327.56
611.54	329.56
611.748	339.56
611.955	345.56
612.163	322.56
612.371	335.56
612.579	333.56
612.787	323.56
612.995	343.56
613.203	335.56
613.411	337.56
613.618	326.56
613.826	350.56
614.034	343.56
614.242	325.56
614.449	340.56
614.657	335.56
614.865	339.56
615.072	351.56
615.28	323.56
615.488	347.56
615.695	319.56
615.903	307.56
616.111	320.56
616.318	352.56
616.526	328.56
616.733	327.56
616.941	316.56
617.148	310.56
617.356	318.56
617.563	328.56
617.771	335.56
617.978	340.56
618.185	332.56
618.393	317.56
618.6	310.56
618.807	338.56
619.015	334.56
619.222	302.56
619.429	328.56
619.637	334.56
619.844	326.56
620.051	300.56
620.258	301.56
620.466	298.56
620.673	300.56
620.88	286.56
621.087	294.56
621.294	306.56
621.501	288.56
621.708	291.56
621.915	307.56
622.122	302.56
622.329	304.56
622.536	308.56
622.743	293.56
622.95	292.56
623.157	285.56
623.364	306.56
623.571	281.56
623.778	288.56
623.985	316.56
624.192	327.56
624.399	315.56
624.606	290.56
624.812	296.56
625.019	302.56
625.226	296.56
625.433	306.56
625.639	305.56
625.846	304.56
626.053	285.56
626.259	288.56
626.466	279.56
626.673	303.56
626.879	281.56
627.086	281.56
627.293	284.56
627.499	278.56
627.706	274.56
627.912	292.56
628.119	289.56
628.325	273.56
628.532	275.56
628.738	268.56
628.945	262.56
629.151	281.56
629.357	257.56
629.564	262.56
629.77	276.56
629.976	258.56
630.183	271.56
630.389	264.56
630.595	269.56
630.802	274.56
631.008	263.56
631.214	261.56
631.42	264.56
631.627	249.56
631.833	265.56
632.039	239.56
632.245	250.56
632.451	241.56
632.657	241.56
632.863	254.56
633.069	256.56
633.275	252.56
633.481	261.56
633.688	248.56
633.893	239.56
634.099	244.56
634.305	225.56
634.511	252.56
634.717	233.56
634.923	229.56
635.129	248.56
635.335	238.56
635.541	240.56
635.747	252.56
635.952	253.56
636.158	230.56
636.364	229.56
636.57	250.56
636.775	225.56
636.981	234.56
637.187	210.56
637.392	233.56
637.598	213.56
637.804	238.56
638.009	230.56
638.215	222.56
638.421	222.56
638.626	238.56
638.832	225.56
639.037	232.56
639.243	237.56
639.448	234.56
639.654	237.56
639.859	222.56
640.065	228.56
640.27	228.56
640.475	224.56
640.681	233.56
640.886	219.56
641.091	229.56
641.297	225.56
641.502	238.56
641.707	212.56
641.913	213.56
642.118	228.56
642.323	221.56
642.528	222.56
642.733	209.56
642.939	215.56
643.144	208.56
643.349	232.56
643.554	234.56
643.759	227.56
643.964	216.56
644.169	214.56
644.374	193.56
644.579	206.56
644.784	203.56
644.989	220.56
645.194	209.56
645.399	206.56
645.604	199.56
645.809	215.56
646.014	196.56
646.219	210.56
646.423	194.56
646.628	208.56
646.833	226.56
647.038	220.56
647.243	202.56
647.447	210.56
647.652	219.56
647.857	200.56
648.062	204.56
648.266	223.56
648.471	215.56
648.676	203.56
648.88	209.56
649.085	217.56
649.289	202.56
649.494	202.56
649.698	210.56
649.903	212.56
650.107	190.56
650.312	199.56
650.516	195.56
650.721	203.56
650.925	194.56
651.13	200.56
651.334	194.56
651.539	201.56
651.743	191.56
651.947	203.56
652.152	193.56
652.356	170.56
652.56	182.56
652.764	179.56
652.969	181.56
653.173	182.56
653.377	177.56
653.581	177.56
653.785	163.56
653.99	172.56
654.194	187.56
654.398	174.56
654.602	162.56
654.806	174.56
655.01	172.56
655.214	171.56
655.418	160.56
655.622	155.56
655.826	158.56
656.03	155.56
656.234	168.56
656.438	160.56
656.642	150.56
656.846	160.56
657.049	156.56
657.253	152.56
657.457	155.56
657.661	143.56
657.865	140.56
658.068	135.56
658.272	139.56
658.476	122.56
658.68	124.56
658.883	121.56
659.087	126.56
659.291	111.56
659.494	108.56
659.698	106.56
659.901	86.56
660.105	110.56
660.309	106.56
660.512	114.56
660.716	97.56
660.919	106.56
661.123	105.56
661.326	97.56
661.53	99.56
661.733	102.56
661.936	92.56
662.14	98.56
662.343	85.56
662.546	88.56
662.75	89.56
662.953	80.56
663.156	83.56
663.36	88.56
663.563	79.56
663.766	83.56
663.969	73.56
664.173	92.56
664.376	86.56
664.579	77.56
664.782	96.56
664.985	84.56
665.188	102.56
665.391	91.56
665.594	83.56
665.797	69.56
666	86.56
666.203	94.56
666.406	100.56
666.609	91.56
666.812	89.56
667.015	92.56
667.218	75.56
667.421	76.56
667.624	83.56
667.827	90.56
668.03	91.56
668.232	85.56
668.435	89.56
668.638	95.56
668.841	92.56
669.043	84.56
669.246	87.56
669.449	82.56
669.651	79.56
669.854	85.56
670.057	80.56
670.259	80.56
670.462	81.56
670.665	73.56
670.867	85.56
671.07	73.56
671.272	93.56
671.475	94.56
671.677	87.56
671.88	91.56
672.082	85.56
672.284	79.56
672.487	79.56
672.689	81.56
672.892	88.56
