Data from NickelSpatula.Lamp.E10.P2_HRD10591_11-58-13-529.txt Node
Date: Tue Jul 23 11:58:13 EDT 2019
User: cochatt
Spectrometer: HR+D1059
Trigger mode: 1
Integration Time (sec): 1.000000E-1
Scans to average: 1
Electric dark correction enabled: true
Nonlinearity correction enabled: false
Boxcar width: 0
XAxis mode: Wavelengths
Number of Pixels in Spectrum: 2048
>>>>>Begin Spectral Data<<<<<
223.165	-8.94
223.4	-8.94
223.635	-8.94
223.869	-20.94
224.104	-18.94
224.338	-10.94
224.573	-8.94
224.808	-29.94
225.042	-6.94
225.277	-5.94
225.511	13.06
225.746	3.06
225.98	10.06
226.215	3.06
226.449	12.06
226.683	17.06
226.918	22.06
227.152	31.06
227.387	21.06
227.621	21.06
227.856	47.06
228.09	53.06
228.324	43.06
228.559	51.06
228.793	83.06
229.027	132.06
229.262	155.06
229.496	154.06
229.73	158.06
229.964	199.06
230.199	204.06
230.433	208.06
230.667	223.06
230.901	211.06
231.136	193.06
231.37	203.06
231.604	198.06
231.838	240.06
232.072	239.06
232.306	238.06
232.541	254.06
232.775	253.06
233.009	263.06
233.243	287.06
233.477	315.06
233.711	319.06
233.945	321.06
234.179	330.06
234.413	334.06
234.647	405.06
234.881	458.06
235.115	414.06
235.349	407.06
235.583	349.06
235.817	371.06
236.051	373.06
236.285	446.06
236.519	463.06
236.753	437.06
236.987	429.06
237.221	397.06
237.455	403.06
237.689	444.06
237.922	442.06
238.156	491.06
238.39	536.06
238.624	657.06
238.858	614.06
239.091	499.06
239.325	513.06
239.559	477.06
239.793	543.06
240.027	628.06
240.26	596.06
240.494	572.06
240.728	583.06
240.961	676.06
241.195	629.06
241.429	617.06
241.662	608.06
241.896	529.06
242.13	475.06
242.363	450.06
242.597	486.06
242.83	526.06
243.064	548.06
243.298	588.06
243.531	621.06
243.765	648.06
243.998	629.06
244.232	620.06
244.465	583.06
244.699	617.06
244.932	643.06
245.166	633.06
245.399	541.06
245.633	519.06
245.866	561.06
246.099	596.06
246.333	725.06
246.566	775.06
246.8	741.06
247.033	745.06
247.266	692.06
247.5	687.06
247.733	674.06
247.966	671.06
248.2	697.06
248.433	775.06
248.666	819.06
248.899	836.06
249.133	834.06
249.366	950.06
249.599	1018.06
249.832	928.06
250.066	797.06
250.299	819.06
250.532	828.06
250.765	814.06
250.998	709.06
251.231	695.06
251.465	774.06
251.698	843.06
251.931	789.06
252.164	843.06
252.397	922.06
252.63	1041.06
252.863	1170.06
253.096	1188.06
253.329	1149.06
253.562	1097.06
253.795	1222.06
254.028	1317.06
254.261	1399.06
254.494	1252.06
254.727	1134.06
254.96	1120.06
255.193	1167.06
255.426	1096.06
255.659	823.06
255.892	799.06
256.124	879.06
256.357	1010.06
256.59	1195.06
256.823	1132.06
257.056	983.06
257.289	937.06
257.521	978.06
257.754	1140.06
257.987	1304.06
258.22	1103.06
258.452	1002.06
258.685	1156.06
258.918	1281.06
259.151	1277.06
259.383	1343.06
259.616	1499.06
259.849	1585.06
260.081	1707.06
260.314	1882.06
260.547	1465.06
260.779	1475.06
261.012	1724.06
261.244	1597.06
261.477	1646.06
261.71	1541.06
261.942	1319.06
262.175	1285.06
262.407	1232.06
262.64	1289.06
262.872	1529.06
263.105	1626.06
263.337	1693.06
263.57	1513.06
263.802	1040.06
264.035	899.06
264.267	862.06
264.499	755.06
264.732	705.06
264.964	699.06
265.197	726.06
265.429	782.06
265.661	829.06
265.894	846.06
266.126	904.06
266.358	1018.06
266.591	1221.06
266.823	1474.06
267.055	1419.06
267.287	1249.06
267.52	1220.06
267.752	1327.06
267.984	1468.06
268.216	1366.06
268.448	1133.06
268.681	1103.06
268.913	1188.06
269.145	1277.06
269.377	1277.06
269.609	1313.06
269.841	1194.06
270.073	1299.06
270.306	1361.06
270.538	1390.06
270.77	1401.06
271.002	1425.06
271.234	1479.06
271.466	1519.06
271.698	1429.06
271.93	1436.06
272.162	1426.06
272.394	1438.06
272.626	1399.06
272.858	1471.06
273.09	1504.06
273.322	1295.06
273.553	1281.06
273.785	1513.06
274.017	1970.06
274.249	2448.06
274.481	2538.06
274.713	2713.06
274.945	3135.06
275.176	3238.06
275.408	2847.06
275.64	2644.06
275.872	2634.06
276.104	2225.06
276.335	1895.06
276.567	1897.06
276.799	1950.06
277.031	2085.06
277.262	1640.06
277.494	1274.06
277.726	1207.06
277.957	1349.06
278.189	1451.06
278.421	1479.06
278.652	1424.06
278.884	1355.06
279.115	1242.06
279.347	1173.06
279.579	1186.06
279.81	1212.06
280.042	1219.06
280.273	1227.06
280.505	1138.06
280.736	1004.06
280.968	1010.06
281.199	1089.06
281.431	1255.06
281.662	1202.06
281.894	1163.06
282.125	1230.06
282.356	1342.06
282.588	1391.06
282.819	1282.06
283.051	1364.06
283.282	1675.06
283.513	1950.06
283.745	2179.06
283.976	2175.06
284.207	2048.06
284.439	2082.06
284.67	2044.06
284.901	1788.06
285.132	1935.06
285.364	2029.06
285.595	1860.06
285.826	1954.06
286.057	2037.06
286.288	1948.06
286.52	1996.06
286.751	2119.06
286.982	2071.06
287.213	1793.06
287.444	1766.06
287.675	1850.06
287.906	1763.06
288.138	1534.06
288.369	1339.06
288.6	1297.06
288.831	1341.06
289.062	1553.06
289.293	1713.06
289.524	1587.06
289.755	1563.06
289.986	1627.06
290.217	1443.06
290.448	1090.06
290.679	967.06
290.91	944.06
291.141	934.06
291.371	998.06
291.602	965.06
291.833	970.06
292.064	1043.06
292.295	1204.06
292.526	1385.06
292.757	1445.06
292.987	1509.06
293.218	1579.06
293.449	1584.06
293.68	1654.06
293.91	1603.06
294.141	1631.06
294.372	1518.06
294.603	1425.06
294.833	1585.06
295.064	1829.06
295.295	1744.06
295.525	1309.06
295.756	1131.06
295.987	990.06
296.217	1029.06
296.448	1047.06
296.679	1136.06
296.909	1203.06
297.14	1297.06
297.37	1442.06
297.601	1347.06
297.831	1165.06
298.062	1262.06
298.292	1430.06
298.523	1563.06
298.753	1808.06
298.984	1551.06
299.214	1215.06
299.445	1046.06
299.675	1045.06
299.905	1040.06
300.136	1067.06
300.366	1131.06
300.597	1135.06
300.827	991.06
301.057	998.06
301.288	991.06
301.518	1093.06
301.748	1244.06
301.979	1307.06
302.209	1413.06
302.439	1461.06
302.669	1246.06
302.9	1233.06
303.13	1136.06
303.36	1086.06
303.59	1045.06
303.82	1073.06
304.051	1220.06
304.281	1305.06
304.511	1271.06
304.741	1147.06
304.971	1183.06
305.201	1281.06
305.431	1183.06
305.661	1065.06
305.891	1053.06
306.121	1065.06
306.352	971.06
306.582	903.06
306.812	846.06
307.042	843.06
307.272	801.06
307.502	804.06
307.731	866.06
307.961	893.06
308.191	819.06
308.421	800.06
308.651	808.06
308.881	755.06
309.111	752.06
309.341	839.06
309.571	914.06
309.8	915.06
310.03	924.06
310.26	973.06
310.49	957.06
310.72	861.06
310.949	864.06
311.179	867.06
311.409	919.06
311.639	1085.06
311.868	1392.06
312.098	1819.06
312.328	1970.06
312.557	1839.06
312.787	1923.06
313.017	1661.06
313.246	1830.06
313.476	1961.06
313.706	1618.06
313.935	1290.06
314.165	1035.06
314.394	952.06
314.624	956.06
314.853	1005.06
315.083	1030.06
315.312	1008.06
315.542	998.06
315.771	934.06
316.001	843.06
316.23	821.06
316.46	829.06
316.689	862.06
316.919	883.06
317.148	886.06
317.377	861.06
317.607	847.06
317.836	965.06
318.065	1086.06
318.295	1217.06
318.524	1127.06
318.753	965.06
318.983	929.06
319.212	944.06
319.441	1002.06
319.67	1124.06
319.9	1175.06
320.129	1107.06
320.358	991.06
320.587	907.06
320.816	993.06
321.046	1198.06
321.275	1318.06
321.504	1303.06
321.733	1257.06
321.962	1205.06
322.191	1138.06
322.42	1048.06
322.649	1094.06
322.878	1204.06
323.108	1198.06
323.337	1077.06
323.566	1117.06
323.795	1032.06
324.024	1003.06
324.253	967.06
324.482	982.06
324.71	1078.06
324.939	1190.06
325.168	1134.06
325.397	909.06
325.626	909.06
325.855	924.06
326.084	905.06
326.313	862.06
326.542	825.06
326.77	891.06
326.999	876.06
327.228	939.06
327.457	1035.06
327.686	982.06
327.914	845.06
328.143	818.06
328.372	807.06
328.6	826.06
328.829	874.06
329.058	889.06
329.287	879.06
329.515	903.06
329.744	881.06
329.972	834.06
330.201	791.06
330.43	838.06
330.658	939.06
330.887	1077.06
331.115	1041.06
331.344	990.06
331.572	975.06
331.801	879.06
332.03	869.06
332.258	879.06
332.486	945.06
332.715	968.06
332.943	925.06
333.172	894.06
333.4	948.06
333.629	1032.06
333.857	1117.06
334.085	1098.06
334.314	1101.06
334.542	1007.06
334.771	950.06
334.999	927.06
335.227	916.06
335.455	949.06
335.684	1014.06
335.912	1185.06
336.14	1331.06
336.369	1279.06
336.597	1199.06
336.825	1356.06
337.053	1537.06
337.281	1242.06
337.51	968.06
337.738	956.06
337.966	1050.06
338.194	1202.06
338.422	1116.06
338.65	923.06
338.878	876.06
339.106	911.06
339.334	1037.06
339.562	1066.06
339.79	1017.06
340.018	943.06
340.246	1023.06
340.474	1167.06
340.702	1242.06
340.93	1322.06
341.158	1282.06
341.386	1121.06
341.614	1118.06
341.842	1073.06
342.07	1139.06
342.298	1343.06
342.526	1379.06
342.754	1192.06
342.981	1087.06
343.209	1029.06
343.437	1108.06
343.665	1181.06
343.893	1178.06
344.12	1365.06
344.348	1606.06
344.576	1387.06
344.804	1167.06
345.031	1026.06
345.259	971.06
345.487	982.06
345.714	980.06
345.942	1072.06
346.17	1171.06
346.397	1110.06
346.625	990.06
346.853	983.06
347.08	928.06
347.308	988.06
347.535	1103.06
347.763	1118.06
347.99	978.06
348.218	930.06
348.445	982.06
348.673	981.06
348.9	961.06
349.128	1054.06
349.355	1101.06
349.583	1040.06
349.81	978.06
350.037	908.06
350.265	835.06
350.492	785.06
350.72	786.06
350.947	831.06
351.174	885.06
351.402	905.06
351.629	964.06
351.856	904.06
352.083	899.06
352.311	941.06
352.538	1077.06
352.765	1105.06
352.992	1021.06
353.22	963.06
353.447	992.06
353.674	932.06
353.901	927.06
354.128	985.06
354.355	974.06
354.583	966.06
354.81	965.06
355.037	1016.06
355.264	976.06
355.491	1057.06
355.718	1126.06
355.945	1109.06
356.172	1090.06
356.399	1088.06
356.626	1324.06
356.853	1612.06
357.08	1697.06
357.307	1758.06
357.534	1343.06
357.761	1383.06
357.988	1684.06
358.215	1985.06
358.441	1901.06
358.668	1596.06
358.895	1471.06
359.122	1205.06
359.349	1188.06
359.576	1293.06
359.802	1081.06
360.029	953.06
360.256	1009.06
360.483	1276.06
360.709	1589.06
360.936	1614.06
361.163	1387.06
361.39	1109.06
361.616	1035.06
361.843	1209.06
362.07	1469.06
362.296	1348.06
362.523	1062.06
362.749	900.06
362.976	967.06
363.203	1180.06
363.429	1323.06
363.656	1051.06
363.882	1014.06
364.109	979.06
364.335	962.06
364.562	986.06
364.788	1087.06
365.015	1262.06
365.241	1135.06
365.468	934.06
365.694	829.06
365.92	805.06
366.147	773.06
366.373	779.06
366.599	795.06
366.826	796.06
367.052	806.06
367.278	821.06
367.505	806.06
367.731	929.06
367.957	990.06
368.184	1015.06
368.41	1005.06
368.636	1012.06
368.862	1057.06
369.089	978.06
369.315	893.06
369.541	853.06
369.767	875.06
369.993	849.06
370.219	850.06
370.445	886.06
370.672	984.06
370.898	1073.06
371.124	1042.06
371.35	952.06
371.576	869.06
371.802	941.06
372.028	1155.06
372.254	1321.06
372.48	1108.06
372.706	1002.06
372.932	1041.06
373.158	1103.06
373.384	1345.06
373.61	1781.06
373.835	1850.06
374.061	1337.06
374.287	1112.06
374.513	1370.06
374.739	1597.06
374.965	1630.06
375.191	1622.06
375.416	1167.06
375.642	1024.06
375.868	1186.06
376.094	1349.06
376.319	1148.06
376.545	1264.06
376.771	1365.06
376.997	1145.06
377.222	858.06
377.448	753.06
377.674	742.06
377.899	733.06
378.125	759.06
378.35	729.06
378.576	771.06
378.802	843.06
379.027	910.06
379.253	876.06
379.478	913.06
379.704	1027.06
379.929	1029.06
380.155	1045.06
380.38	938.06
380.606	1009.06
380.831	1104.06
381.057	1004.06
381.282	970.06
381.507	1155.06
381.733	1425.06
381.958	1506.06
382.184	1630.06
382.409	1681.06
382.634	1642.06
382.86	1760.06
383.085	1429.06
383.31	1122.06
383.535	1197.06
383.761	1195.06
383.986	1151.06
384.211	1372.06
384.436	1310.06
384.662	1034.06
384.887	997.06
385.112	1001.06
385.337	1042.06
385.562	957.06
385.787	1082.06
386.013	1177.06
386.238	1220.06
386.463	986.06
386.688	944.06
386.913	961.06
387.138	895.06
387.363	962.06
387.588	996.06
387.813	976.06
388.038	1074.06
388.263	961.06
388.488	973.06
388.713	1097.06
388.938	1191.06
389.163	1009.06
389.387	921.06
389.612	930.06
389.837	938.06
390.062	951.06
390.287	991.06
390.512	981.06
390.736	950.06
390.961	881.06
391.186	849.06
391.411	848.06
391.636	892.06
391.86	899.06
392.085	1006.06
392.31	988.06
392.534	958.06
392.759	918.06
392.984	1000.06
393.208	962.06
393.433	860.06
393.658	791.06
393.882	811.06
394.107	782.06
394.331	796.06
394.556	778.06
394.78	791.06
395.005	850.06
395.229	849.06
395.454	873.06
395.678	889.06
395.903	909.06
396.127	894.06
396.352	886.06
396.576	992.06
396.801	998.06
397.025	1085.06
397.249	1133.06
397.474	921.06
397.698	937.06
397.922	971.06
398.147	898.06
398.371	885.06
398.595	967.06
398.82	941.06
399.044	935.06
399.268	1019.06
399.492	1051.06
399.717	1059.06
399.941	1126.06
400.165	1045.06
400.389	996.06
400.613	1053.06
400.837	1046.06
401.062	934.06
401.286	907.06
401.51	903.06
401.734	900.06
401.958	900.06
402.182	887.06
402.406	907.06
402.63	907.06
402.854	926.06
403.078	1053.06
403.302	1273.06
403.526	1342.06
403.75	1206.06
403.974	1044.06
404.198	1105.06
404.422	1223.06
404.645	1435.06
404.869	1569.06
405.093	1173.06
405.317	977.06
405.541	971.06
405.765	1025.06
405.988	1017.06
406.212	1107.06
406.436	1299.06
406.66	1402.06
406.883	1132.06
407.107	1166.06
407.331	1355.06
407.555	1285.06
407.778	1086.06
408.002	1053.06
408.226	1026.06
408.449	1065.06
408.673	1020.06
408.896	949.06
409.12	914.06
409.344	895.06
409.567	875.06
409.791	890.06
410.014	884.06
410.238	898.06
410.461	879.06
410.685	924.06
410.908	914.06
411.132	918.06
411.355	949.06
411.578	970.06
411.802	934.06
412.025	983.06
412.249	975.06
412.472	950.06
412.695	957.06
412.919	915.06
413.142	963.06
413.365	1058.06
413.589	1045.06
413.812	922.06
414.035	929.06
414.258	940.06
414.482	1046.06
414.705	1075.06
414.928	906.06
415.151	867.06
415.374	889.06
415.597	911.06
415.821	867.06
416.044	894.06
416.267	871.06
416.49	873.06
416.713	852.06
416.936	846.06
417.159	853.06
417.382	882.06
417.605	905.06
417.828	923.06
418.051	895.06
418.274	929.06
418.497	947.06
418.72	942.06
418.943	957.06
419.166	985.06
419.389	1014.06
419.611	998.06
419.834	1015.06
420.057	1111.06
420.28	1092.06
420.503	1032.06
420.726	871.06
420.948	870.06
421.171	883.06
421.394	856.06
421.617	854.06
421.839	860.06
422.062	935.06
422.285	925.06
422.507	950.06
422.73	956.06
422.953	979.06
423.175	943.06
423.398	944.06
423.621	1027.06
423.843	1022.06
424.066	945.06
424.288	937.06
424.511	934.06
424.733	908.06
424.956	943.06
425.178	1039.06
425.401	1220.06
425.623	1403.06
425.846	1131.06
426.068	1005.06
426.291	1095.06
426.513	1019.06
426.735	922.06
426.958	989.06
427.18	1158.06
427.402	1466.06
427.625	1461.06
427.847	1191.06
428.069	890.06
428.292	892.06
428.514	883.06
428.736	884.06
428.958	963.06
429.181	1134.06
429.403	958.06
429.625	913.06
429.847	863.06
430.069	899.06
430.292	891.06
430.514	859.06
430.736	957.06
430.958	1190.06
431.18	1098.06
431.402	847.06
431.624	796.06
431.846	794.06
432.068	765.06
432.29	831.06
432.512	892.06
432.734	1234.06
432.956	1121.06
433.178	873.06
433.4	853.06
433.622	865.06
433.844	875.06
434.066	927.06
434.287	909.06
434.509	899.06
434.731	883.06
434.953	882.06
435.175	886.06
435.397	1004.06
435.618	883.06
435.84	813.06
436.062	838.06
436.284	836.06
436.505	806.06
436.727	786.06
436.949	823.06
437.17	840.06
437.392	857.06
437.614	875.06
437.835	817.06
438.057	869.06
438.278	990.06
438.5	1376.06
438.721	1371.06
438.943	965.06
439.165	818.06
439.386	785.06
439.608	787.06
439.829	771.06
440.05	815.06
440.272	853.06
440.493	1027.06
440.715	1235.06
440.936	993.06
441.158	856.06
441.379	849.06
441.6	994.06
441.822	1013.06
442.043	906.06
442.264	876.06
442.486	886.06
442.707	860.06
442.928	889.06
443.149	880.06
443.371	870.06
443.592	922.06
443.813	921.06
444.034	911.06
444.255	919.06
444.476	968.06
444.698	920.06
444.919	959.06
445.14	1053.06
445.361	1020.06
445.582	934.06
445.803	896.06
446.024	937.06
446.245	932.06
446.466	926.06
446.687	884.06
446.908	868.06
447.129	838.06
447.35	793.06
447.571	801.06
447.792	787.06
448.013	771.06
448.234	801.06
448.455	781.06
448.675	783.06
448.896	809.06
449.117	793.06
449.338	787.06
449.559	832.06
449.779	892.06
450	889.06
450.221	829.06
450.442	812.06
450.662	779.06
450.883	795.06
451.104	800.06
451.324	792.06
451.545	815.06
451.766	792.06
451.986	754.06
452.207	771.06
452.428	774.06
452.648	776.06
452.869	810.06
453.089	831.06
453.31	838.06
453.53	736.06
453.751	745.06
453.971	750.06
454.192	762.06
454.412	821.06
454.633	737.06
454.853	749.06
455.073	727.06
455.294	720.06
455.514	729.06
455.734	764.06
455.955	817.06
456.175	832.06
456.395	755.06
456.616	718.06
456.836	710.06
457.056	684.06
457.276	700.06
457.497	711.06
457.717	720.06
457.937	723.06
458.157	708.06
458.377	751.06
458.598	745.06
458.818	771.06
459.038	802.06
459.258	819.06
459.478	839.06
459.698	908.06
459.918	903.06
460.138	870.06
460.358	885.06
460.578	868.06
460.798	903.06
461.018	881.06
461.238	889.06
461.458	856.06
461.678	890.06
461.898	944.06
462.118	921.06
462.338	925.06
462.558	939.06
462.777	1000.06
462.997	1030.06
463.217	1018.06
463.437	1035.06
463.657	997.06
463.876	955.06
464.096	987.06
464.316	945.06
464.536	971.06
464.755	994.06
464.975	1017.06
465.195	979.06
465.414	989.06
465.634	954.06
465.854	923.06
466.073	868.06
466.293	868.06
466.512	903.06
466.732	1016.06
466.951	1023.06
467.171	952.06
467.391	901.06
467.61	861.06
467.829	903.06
468.049	930.06
468.268	881.06
468.488	897.06
468.707	909.06
468.927	1046.06
469.146	1133.06
469.365	1038.06
469.585	957.06
469.804	1021.06
470.023	1113.06
470.243	954.06
470.462	909.06
470.681	907.06
470.901	939.06
471.12	980.06
471.339	963.06
471.558	914.06
471.777	941.06
471.997	1013.06
472.216	1109.06
472.435	1080.06
472.654	977.06
472.873	971.06
473.092	966.06
473.311	1059.06
473.53	954.06
473.749	938.06
473.968	1005.06
474.187	977.06
474.406	933.06
474.625	951.06
474.844	986.06
475.063	1010.06
475.282	1029.06
475.501	1106.06
475.72	1141.06
475.939	1103.06
476.158	1112.06
476.377	1253.06
476.596	1409.06
476.814	1503.06
477.033	1244.06
477.252	1054.06
477.471	995.06
477.69	1018.06
477.908	1113.06
478.127	1140.06
478.346	1051.06
478.564	1141.06
478.783	1052.06
479.002	1068.06
479.22	1285.06
479.439	1407.06
479.658	1211.06
479.876	1119.06
480.095	1215.06
480.313	1229.06
480.532	1098.06
480.751	1097.06
480.969	1129.06
481.188	1257.06
481.406	1292.06
481.624	1233.06
481.843	1138.06
482.061	1050.06
482.28	1224.06
482.498	1457.06
482.717	1358.06
482.935	1181.06
483.153	1147.06
483.372	1087.06
483.59	1049.06
483.808	1055.06
484.027	1040.06
484.245	998.06
484.463	985.06
484.681	1013.06
484.9	1124.06
485.118	1165.06
485.336	1112.06
485.554	1057.06
485.772	1088.06
485.99	1209.06
486.209	1229.06
486.427	1222.06
486.645	1179.06
486.863	1233.06
487.081	1263.06
487.299	1358.06
487.517	1332.06
487.735	1215.06
487.953	1231.06
488.171	1235.06
488.389	1176.06
488.607	1107.06
488.825	1187.06
489.043	1258.06
489.261	1437.06
489.479	1553.06
489.696	1293.06
489.914	1157.06
490.132	1142.06
490.35	1150.06
490.568	1133.06
490.786	1132.06
491.003	1166.06
491.221	1168.06
491.439	1135.06
491.657	1140.06
491.874	1205.06
492.092	1458.06
492.31	1758.06
492.527	1719.06
492.745	1524.06
492.963	1304.06
493.18	1322.06
493.398	1261.06
493.615	1283.06
493.833	1243.06
494.05	1234.06
494.268	1220.06
494.485	1231.06
494.703	1190.06
494.92	1257.06
495.138	1183.06
495.355	1208.06
495.573	1259.06
495.79	1352.06
496.008	1738.06
496.225	1526.06
496.442	1337.06
496.66	1355.06
496.877	1437.06
497.094	1394.06
497.312	1323.06
497.529	1311.06
497.746	1329.06
497.963	1358.06
498.181	1458.06
498.398	1581.06
498.615	1643.06
498.832	1699.06
499.049	1718.06
499.267	1553.06
499.484	1555.06
499.701	1604.06
499.918	1745.06
500.135	1894.06
500.352	1915.06
500.569	1991.06
500.786	2056.06
501.003	2022.06
501.22	1817.06
501.437	1707.06
501.654	1674.06
501.871	1650.06
502.088	1652.06
502.305	1518.06
502.522	1477.06
502.739	1513.06
502.956	1388.06
503.172	1360.06
503.389	1339.06
503.606	1279.06
503.823	1300.06
504.04	1325.06
504.256	1307.06
504.473	1350.06
504.69	1354.06
504.907	1378.06
505.123	1388.06
505.34	1483.06
505.557	1439.06
505.773	1336.06
505.99	1323.06
506.207	1337.06
506.423	1250.06
506.64	1182.06
506.856	1259.06
507.073	1354.06
507.289	1335.06
507.506	1337.06
507.722	1397.06
507.939	1427.06
508.155	1435.06
508.372	1303.06
508.588	1281.06
508.805	1249.06
509.021	1222.06
509.238	1182.06
509.454	1193.06
509.67	1167.06
509.887	1201.06
510.103	1326.06
510.319	1327.06
510.536	1171.06
510.752	1094.06
510.968	1058.06
511.184	1015.06
511.401	1019.06
511.617	1050.06
511.833	1057.06
512.049	1056.06
512.265	1100.06
512.481	1120.06
512.698	1257.06
512.914	1354.06
513.13	1247.06
513.346	1119.06
513.562	1184.06
513.778	1159.06
513.994	1150.06
514.21	1217.06
514.426	1175.06
514.642	1149.06
514.858	1156.06
515.074	1218.06
515.29	1278.06
515.506	1431.06
515.721	1351.06
515.937	1220.06
516.153	1154.06
516.369	1149.06
516.585	1233.06
516.801	1401.06
517.016	1604.06
517.232	1565.06
517.448	1515.06
517.664	1389.06
517.879	1282.06
518.095	1252.06
518.311	1262.06
518.527	1289.06
518.742	1390.06
518.958	1476.06
519.173	1394.06
519.389	1346.06
519.605	1369.06
519.82	1493.06
520.036	1758.06
520.251	1721.06
520.467	1559.06
520.682	2356.06
520.898	2769.06
521.113	2681.06
521.329	1698.06
521.544	1538.06
521.76	1509.06
521.975	1314.06
522.19	1291.06
522.406	1314.06
522.621	1455.06
522.836	1521.06
523.052	1535.06
523.267	1302.06
523.482	1305.06
523.698	1392.06
523.913	1311.06
524.128	1214.06
524.343	1182.06
524.559	1184.06
524.774	1130.06
524.989	1146.06
525.204	1195.06
525.419	1309.06
525.634	1213.06
525.849	1224.06
526.064	1261.06
526.28	1276.06
526.495	1466.06
526.71	1515.06
526.925	1345.06
527.14	1390.06
527.355	1314.06
527.57	1135.06
527.785	1184.06
527.999	1129.06
528.214	1074.06
528.429	1051.06
528.644	1071.06
528.859	1013.06
529.074	996.06
529.289	983.06
529.503	958.06
529.718	1017.06
529.933	1181.06
530.148	1178.06
530.363	1030.06
530.577	980.06
530.792	996.06
531.007	985.06
531.221	969.06
531.436	972.06
531.651	1002.06
531.865	1019.06
532.08	1039.06
532.295	973.06
532.509	1022.06
532.724	1149.06
532.938	1309.06
533.153	1473.06
533.367	1199.06
533.582	1149.06
533.796	1093.06
534.011	1025.06
534.225	1054.06
534.44	1053.06
534.654	1061.06
534.868	1218.06
535.083	1111.06
535.297	991.06
535.511	1023.06
535.726	1121.06
535.94	1113.06
536.154	975.06
536.369	995.06
536.583	991.06
536.797	1050.06
537.011	1009.06
537.225	1090.06
537.44	1173.06
537.654	1015.06
537.868	1020.06
538.082	1010.06
538.296	988.06
538.51	1062.06
538.724	1061.06
538.938	1054.06
539.153	972.06
539.367	992.06
539.581	978.06
539.795	1086.06
540.009	1119.06
540.222	1029.06
540.436	1069.06
540.65	1148.06
540.864	1195.06
541.078	1179.06
541.292	1307.06
541.506	1080.06
541.72	1075.06
541.934	1007.06
542.147	1034.06
542.361	1055.06
542.575	1055.06
542.789	1027.06
543.002	958.06
543.216	1067.06
543.43	940.06
543.644	903.06
543.857	928.06
544.071	925.06
544.285	935.06
544.498	895.06
544.712	883.06
544.925	995.06
545.139	940.06
545.352	891.06
545.566	926.06
545.779	1043.06
545.993	962.06
546.206	866.06
546.42	887.06
546.633	886.06
546.847	854.06
547.06	828.06
547.274	845.06
547.487	893.06
547.7	997.06
547.914	994.06
548.127	1122.06
548.34	1059.06
548.554	982.06
548.767	1008.06
548.98	1089.06
549.193	965.06
549.407	1006.06
549.62	1164.06
549.833	1099.06
550.046	1145.06
550.259	1181.06
550.473	1031.06
550.686	985.06
550.899	1051.06
551.112	978.06
551.325	1090.06
551.538	1096.06
551.751	956.06
551.964	886.06
552.177	889.06
552.39	883.06
552.603	875.06
552.816	902.06
553.029	879.06
553.242	873.06
553.455	929.06
553.667	1019.06
553.88	996.06
554.093	927.06
554.306	862.06
554.519	788.06
554.732	792.06
554.944	798.06
555.157	779.06
555.37	781.06
555.583	756.06
555.795	783.06
556.008	819.06
556.221	807.06
556.433	827.06
556.646	789.06
556.859	801.06
557.071	812.06
557.284	823.06
557.496	825.06
557.709	826.06
557.921	773.06
558.134	753.06
558.346	715.06
558.559	715.06
558.771	750.06
558.984	833.06
559.196	782.06
559.409	757.06
559.621	702.06
559.833	693.06
560.046	730.06
560.258	721.06
560.47	729.06
560.683	702.06
560.895	677.06
561.107	659.06
561.32	678.06
561.532	687.06
561.744	792.06
561.956	750.06
562.168	703.06
562.381	714.06
562.593	730.06
562.805	740.06
563.017	708.06
563.229	673.06
563.441	684.06
563.653	701.06
563.865	706.06
564.077	705.06
564.289	666.06
564.501	695.06
564.713	781.06
564.925	753.06
565.137	674.06
565.349	685.06
565.561	698.06
565.773	727.06
565.985	738.06
566.197	801.06
566.408	837.06
566.62	863.06
566.832	830.06
567.044	860.06
567.255	917.06
567.467	974.06
567.679	900.06
567.891	878.06
568.102	903.06
568.314	909.06
568.526	854.06
568.737	824.06
568.949	876.06
569.161	757.06
569.372	684.06
569.584	672.06
569.795	689.06
570.007	714.06
570.218	746.06
570.43	734.06
570.641	687.06
570.853	652.06
571.064	663.06
571.276	715.06
571.487	717.06
571.698	696.06
571.91	702.06
572.121	660.06
572.333	635.06
572.544	623.06
572.755	606.06
572.966	597.06
573.178	621.06
573.389	639.06
573.6	622.06
573.811	628.06
574.023	601.06
574.234	576.06
574.445	592.06
574.656	557.06
574.867	570.06
575.078	589.06
575.289	600.06
575.501	636.06
575.712	576.06
575.923	566.06
576.134	553.06
576.345	569.06
576.556	561.06
576.767	551.06
576.978	511.06
577.188	529.06
577.399	497.06
577.61	522.06
577.821	526.06
578.032	524.06
578.243	565.06
578.454	574.06
578.665	575.06
578.875	553.06
579.086	551.06
579.297	548.06
579.508	555.06
579.718	557.06
579.929	554.06
580.14	550.06
580.35	497.06
580.561	488.06
580.772	472.06
580.982	477.06
581.193	470.06
581.403	465.06
581.614	450.06
581.825	474.06
582.035	459.06
582.246	454.06
582.456	468.06
582.667	484.06
582.877	470.06
583.087	476.06
583.298	464.06
583.508	461.06
583.719	454.06
583.929	455.06
584.139	459.06
584.35	463.06
584.56	473.06
584.77	477.06
584.981	461.06
585.191	476.06
585.401	454.06
585.611	492.06
585.821	514.06
586.032	478.06
586.242	481.06
586.452	469.06
586.662	455.06
586.872	504.06
587.082	489.06
587.292	471.06
587.502	467.06
587.713	466.06
587.923	481.06
588.133	503.06
588.343	479.06
588.553	452.06
588.762	451.06
588.972	430.06
589.182	451.06
589.392	458.06
589.602	475.06
589.812	482.06
590.022	527.06
590.232	509.06
590.441	475.06
590.651	455.06
590.861	442.06
591.071	466.06
591.281	442.06
591.49	460.06
591.7	469.06
591.91	449.06
592.119	449.06
592.329	470.06
592.539	459.06
592.748	479.06
592.958	467.06
593.167	470.06
593.377	480.06
593.587	509.06
593.796	485.06
594.006	455.06
594.215	478.06
594.424	498.06
594.634	497.06
594.843	469.06
595.053	460.06
595.262	436.06
595.472	433.06
595.681	431.06
595.89	422.06
596.1	431.06
596.309	441.06
596.518	443.06
596.727	438.06
596.937	429.06
597.146	446.06
597.355	449.06
597.564	442.06
597.774	417.06
597.983	395.06
598.192	421.06
598.401	407.06
598.61	379.06
598.819	380.06
599.028	394.06
599.237	401.06
599.446	397.06
599.655	382.06
599.864	358.06
600.073	379.06
600.282	377.06
600.491	362.06
600.7	389.06
600.909	387.06
601.118	394.06
601.327	383.06
601.536	376.06
601.745	402.06
601.953	400.06
602.162	382.06
602.371	411.06
602.58	416.06
602.789	385.06
602.997	379.06
603.206	368.06
603.415	371.06
603.623	364.06
603.832	359.06
604.041	353.06
604.249	377.06
604.458	376.06
604.666	364.06
604.875	353.06
605.084	345.06
605.292	340.06
605.501	353.06
605.709	361.06
605.918	356.06
606.126	354.06
606.334	355.06
606.543	363.06
606.751	354.06
606.96	353.06
607.168	345.06
607.376	350.06
607.585	347.06
607.793	344.06
608.001	349.06
608.21	344.06
608.418	361.06
608.626	363.06
608.834	344.06
609.043	326.06
609.251	347.06
609.459	343.06
609.667	350.06
609.875	349.06
610.083	353.06
610.291	349.06
610.499	357.06
610.707	343.06
610.916	338.06
611.124	347.06
611.332	331.06
611.54	341.06
611.748	330.06
611.955	339.06
612.163	330.06
612.371	324.06
612.579	335.06
612.787	324.06
612.995	350.06
613.203	325.06
613.411	321.06
613.618	331.06
613.826	345.06
614.034	370.06
614.242	320.06
614.449	325.06
614.657	323.06
614.865	309.06
615.072	326.06
615.28	295.06
615.488	320.06
615.695	348.06
615.903	335.06
616.111	331.06
616.318	325.06
616.526	318.06
616.733	321.06
616.941	322.06
617.148	326.06
617.356	317.06
617.563	313.06
617.771	306.06
617.978	317.06
618.185	304.06
618.393	310.06
618.6	310.06
618.807	330.06
619.015	316.06
619.222	315.06
619.429	325.06
619.637	311.06
619.844	301.06
620.051	309.06
620.258	308.06
620.466	290.06
620.673	301.06
620.88	287.06
621.087	301.06
621.294	290.06
621.501	288.06
621.708	275.06
621.915	310.06
622.122	300.06
622.329	313.06
622.536	293.06
622.743	286.06
622.95	275.06
623.157	301.06
623.364	300.06
623.571	298.06
623.778	298.06
623.985	319.06
624.192	309.06
624.399	305.06
624.606	287.06
624.812	318.06
625.019	317.06
625.226	335.06
625.433	317.06
625.639	279.06
625.846	267.06
626.053	255.06
626.259	275.06
626.466	263.06
626.673	286.06
626.879	274.06
627.086	293.06
627.293	281.06
627.499	286.06
627.706	270.06
627.912	252.06
628.119	280.06
628.325	262.06
628.532	267.06
628.738	241.06
628.945	240.06
629.151	263.06
629.357	235.06
629.564	245.06
629.77	281.06
629.976	265.06
630.183	250.06
630.389	256.06
630.595	260.06
630.802	257.06
631.008	238.06
631.214	258.06
631.42	248.06
631.627	253.06
631.833	262.06
632.039	223.06
632.245	253.06
632.451	236.06
632.657	227.06
632.863	227.06
633.069	212.06
633.275	252.06
633.481	233.06
633.688	236.06
633.893	222.06
634.099	230.06
634.305	243.06
634.511	254.06
634.717	241.06
634.923	220.06
635.129	249.06
635.335	236.06
635.541	244.06
635.747	239.06
635.952	247.06
636.158	236.06
636.364	233.06
636.57	241.06
636.775	244.06
636.981	227.06
637.187	224.06
637.392	233.06
637.598	214.06
637.804	209.06
638.009	224.06
638.215	244.06
638.421	235.06
638.626	226.06
638.832	233.06
639.037	225.06
639.243	225.06
639.448	224.06
639.654	239.06
639.859	224.06
640.065	247.06
640.27	219.06
640.475	238.06
640.681	213.06
640.886	211.06
641.091	206.06
641.297	237.06
641.502	235.06
641.707	221.06
641.913	204.06
642.118	224.06
642.323	217.06
642.528	219.06
642.733	214.06
642.939	210.06
643.144	229.06
643.349	202.06
643.554	213.06
643.759	227.06
643.964	198.06
644.169	199.06
644.374	219.06
644.579	219.06
644.784	204.06
644.989	205.06
645.194	197.06
645.399	215.06
645.604	189.06
645.809	202.06
646.014	215.06
646.219	206.06
646.423	204.06
646.628	209.06
646.833	211.06
647.038	206.06
647.243	203.06
647.447	220.06
647.652	215.06
647.857	195.06
648.062	215.06
648.266	191.06
648.471	206.06
648.676	210.06
648.88	196.06
649.085	210.06
649.289	190.06
649.494	208.06
649.698	218.06
649.903	209.06
650.107	203.06
650.312	193.06
650.516	198.06
650.721	205.06
650.925	191.06
651.13	183.06
651.334	195.06
651.539	191.06
651.743	189.06
651.947	189.06
652.152	192.06
652.356	177.06
652.56	173.06
652.764	181.06
652.969	163.06
653.173	169.06
653.377	155.06
653.581	170.06
653.785	157.06
653.99	158.06
654.194	150.06
654.398	152.06
654.602	156.06
654.806	165.06
655.01	174.06
655.214	158.06
655.418	177.06
655.622	153.06
655.826	171.06
656.03	157.06
656.234	157.06
656.438	163.06
656.642	176.06
656.846	143.06
657.049	159.06
657.253	152.06
657.457	147.06
657.661	134.06
657.865	129.06
658.068	126.06
658.272	123.06
658.476	121.06
658.68	115.06
658.883	111.06
659.087	120.06
659.291	99.06
659.494	109.06
659.698	100.06
659.901	110.06
660.105	94.06
660.309	116.06
660.512	106.06
660.716	101.06
660.919	100.06
661.123	103.06
661.326	94.06
661.53	98.06
661.733	98.06
661.936	92.06
662.14	82.06
662.343	77.06
662.546	79.06
662.75	86.06
662.953	79.06
663.156	83.06
663.36	84.06
663.563	94.06
663.766	84.06
663.969	78.06
664.173	77.06
664.376	70.06
664.579	90.06
664.782	78.06
664.985	77.06
665.188	76.06
665.391	77.06
665.594	75.06
665.797	82.06
666	77.06
666.203	79.06
666.406	72.06
666.609	76.06
666.812	67.06
667.015	74.06
667.218	96.06
667.421	81.06
667.624	74.06
667.827	79.06
668.03	69.06
668.232	79.06
668.435	77.06
668.638	82.06
668.841	78.06
669.043	78.06
669.246	67.06
669.449	93.06
669.651	72.06
669.854	82.06
670.057	73.06
670.259	85.06
670.462	85.06
670.665	73.06
670.867	79.06
671.07	75.06
671.272	79.06
671.475	77.06
671.677	97.06
671.88	81.06
672.082	78.06
672.284	69.06
672.487	88.06
672.689	76.06
672.892	78.06
