Data from NickelSpatula.Lamp.E10.P2_HRD10591_11-58-40-527.txt Node
Date: Tue Jul 23 11:58:40 EDT 2019
User: cochatt
Spectrometer: HR+D1059
Trigger mode: 1
Integration Time (sec): 1.000000E-1
Scans to average: 1
Electric dark correction enabled: true
Nonlinearity correction enabled: false
Boxcar width: 0
XAxis mode: Wavelengths
Number of Pixels in Spectrum: 2048
>>>>>Begin Spectral Data<<<<<
223.165	-11.19
223.4	-11.19
223.635	-11.19
223.869	-14.19
224.104	-25.19
224.338	-20.19
224.573	-23.19
224.808	-17.19
225.042	-9.19
225.277	-2.19
225.511	6.81
225.746	7.81
225.98	11.81
226.215	28.81
226.449	12.81
226.683	8.81
226.918	17.81
227.152	27.81
227.387	22.81
227.621	36.81
227.856	36.81
228.09	47.81
228.324	31.81
228.559	42.81
228.793	76.81
229.027	155.81
229.262	159.81
229.496	150.81
229.73	160.81
229.964	188.81
230.199	206.81
230.433	221.81
230.667	207.81
230.901	206.81
231.136	184.81
231.37	191.81
231.604	226.81
231.838	239.81
232.072	255.81
232.306	234.81
232.541	235.81
232.775	228.81
233.009	255.81
233.243	300.81
233.477	311.81
233.711	347.81
233.945	328.81
234.179	312.81
234.413	333.81
234.647	391.81
234.881	472.81
235.115	414.81
235.349	410.81
235.583	343.81
235.817	352.81
236.051	370.81
236.285	400.81
236.519	449.81
236.753	468.81
236.987	428.81
237.221	402.81
237.455	421.81
237.689	429.81
237.922	484.81
238.156	479.81
238.39	555.81
238.624	659.81
238.858	603.81
239.091	478.81
239.325	498.81
239.559	481.81
239.793	566.81
240.027	664.81
240.26	599.81
240.494	564.81
240.728	604.81
240.961	691.81
241.195	626.81
241.429	639.81
241.662	622.81
241.896	504.81
242.13	467.81
242.363	438.81
242.597	467.81
242.83	535.81
243.064	541.81
243.298	607.81
243.531	621.81
243.765	634.81
243.998	634.81
244.232	608.81
244.465	590.81
244.699	570.81
244.932	671.81
245.166	622.81
245.399	535.81
245.633	531.81
245.866	568.81
246.099	607.81
246.333	696.81
246.566	759.81
246.8	774.81
247.033	733.81
247.266	690.81
247.5	690.81
247.733	673.81
247.966	654.81
248.2	673.81
248.433	766.81
248.666	859.81
248.899	822.81
249.133	862.81
249.366	997.81
249.599	1056.81
249.832	942.81
250.066	816.81
250.299	832.81
250.532	802.81
250.765	805.81
250.998	757.81
251.231	727.81
251.465	791.81
251.698	819.81
251.931	798.81
252.164	848.81
252.397	931.81
252.63	1058.81
252.863	1160.81
253.096	1200.81
253.329	1141.81
253.562	1110.81
253.795	1232.81
254.028	1379.81
254.261	1367.81
254.494	1248.81
254.727	1119.81
254.96	1120.81
255.193	1158.81
255.426	1122.81
255.659	859.81
255.892	810.81
256.124	846.81
256.357	1042.81
256.59	1223.81
256.823	1177.81
257.056	989.81
257.289	922.81
257.521	963.81
257.754	1125.81
257.987	1288.81
258.22	1129.81
258.452	997.81
258.685	1163.81
258.918	1277.81
259.151	1256.81
259.383	1282.81
259.616	1485.81
259.849	1544.81
260.081	1712.81
260.314	1919.81
260.547	1488.81
260.779	1479.81
261.012	1706.81
261.244	1576.81
261.477	1653.81
261.71	1496.81
261.942	1276.81
262.175	1283.81
262.407	1220.81
262.64	1304.81
262.872	1495.81
263.105	1648.81
263.337	1716.81
263.57	1532.81
263.802	1042.81
264.035	886.81
264.267	882.81
264.499	772.81
264.732	708.81
264.964	726.81
265.197	705.81
265.429	785.81
265.661	808.81
265.894	833.81
266.126	914.81
266.358	1035.81
266.591	1253.81
266.823	1510.81
267.055	1378.81
267.287	1235.81
267.52	1232.81
267.752	1349.81
267.984	1454.81
268.216	1386.81
268.448	1120.81
268.681	1074.81
268.913	1210.81
269.145	1267.81
269.377	1328.81
269.609	1294.81
269.841	1245.81
270.073	1320.81
270.306	1368.81
270.538	1399.81
270.77	1360.81
271.002	1412.81
271.234	1483.81
271.466	1497.81
271.698	1480.81
271.93	1429.81
272.162	1411.81
272.394	1445.81
272.626	1401.81
272.858	1458.81
273.09	1509.81
273.322	1322.81
273.553	1292.81
273.785	1495.81
274.017	2004.81
274.249	2392.81
274.481	2532.81
274.713	2758.81
274.945	3124.81
275.176	3235.81
275.408	2860.81
275.64	2590.81
275.872	2645.81
276.104	2239.81
276.335	1890.81
276.567	1912.81
276.799	1963.81
277.031	2037.81
277.262	1601.81
277.494	1238.81
277.726	1192.81
277.957	1329.81
278.189	1498.81
278.421	1479.81
278.652	1464.81
278.884	1379.81
279.115	1266.81
279.347	1204.81
279.579	1181.81
279.81	1203.81
280.042	1190.81
280.273	1256.81
280.505	1116.81
280.736	1026.81
280.968	1043.81
281.199	1088.81
281.431	1232.81
281.662	1228.81
281.894	1173.81
282.125	1240.81
282.356	1354.81
282.588	1374.81
282.819	1274.81
283.051	1353.81
283.282	1675.81
283.513	1936.81
283.745	2194.81
283.976	2125.81
284.207	2036.81
284.439	2149.81
284.67	1997.81
284.901	1779.81
285.132	1938.81
285.364	2003.81
285.595	1873.81
285.826	1995.81
286.057	2046.81
286.288	1974.81
286.52	2010.81
286.751	2085.81
286.982	2098.81
287.213	1813.81
287.444	1715.81
287.675	1848.81
287.906	1795.81
288.138	1547.81
288.369	1338.81
288.6	1293.81
288.831	1344.81
289.062	1502.81
289.293	1706.81
289.524	1586.81
289.755	1581.81
289.986	1613.81
290.217	1404.81
290.448	1114.81
290.679	1007.81
290.91	889.81
291.141	924.81
291.371	977.81
291.602	972.81
291.833	982.81
292.064	1052.81
292.295	1221.81
292.526	1410.81
292.757	1440.81
292.987	1570.81
293.218	1558.81
293.449	1599.81
293.68	1651.81
293.91	1582.81
294.141	1634.81
294.372	1496.81
294.603	1422.81
294.833	1566.81
295.064	1792.81
295.295	1737.81
295.525	1328.81
295.756	1154.81
295.987	965.81
296.217	1006.81
296.448	1045.81
296.679	1115.81
296.909	1240.81
297.14	1311.81
297.37	1432.81
297.601	1360.81
297.831	1158.81
298.062	1234.81
298.292	1457.81
298.523	1568.81
298.753	1814.81
298.984	1598.81
299.214	1289.81
299.445	1092.81
299.675	1041.81
299.905	1018.81
300.136	1072.81
300.366	1170.81
300.597	1180.81
300.827	1008.81
301.057	974.81
301.288	999.81
301.518	1046.81
301.748	1255.81
301.979	1371.81
302.209	1459.81
302.439	1492.81
302.669	1249.81
302.9	1278.81
303.13	1150.81
303.36	1126.81
303.59	1066.81
303.82	1106.81
304.051	1241.81
304.281	1339.81
304.511	1327.81
304.741	1136.81
304.971	1195.81
305.201	1273.81
305.431	1168.81
305.661	1072.81
305.891	1085.81
306.121	1085.81
306.352	950.81
306.582	854.81
306.812	861.81
307.042	859.81
307.272	819.81
307.502	810.81
307.731	902.81
307.961	906.81
308.191	848.81
308.421	808.81
308.651	781.81
308.881	753.81
309.111	768.81
309.341	810.81
309.571	887.81
309.8	924.81
310.03	959.81
310.26	986.81
310.49	999.81
310.72	853.81
310.949	868.81
311.179	880.81
311.409	924.81
311.639	1087.81
311.868	1384.81
312.098	1748.81
312.328	1970.81
312.557	1869.81
312.787	1918.81
313.017	1642.81
313.246	1819.81
313.476	1943.81
313.706	1622.81
313.935	1238.81
314.165	1078.81
314.394	949.81
314.624	981.81
314.853	1007.81
315.083	1028.81
315.312	1011.81
315.542	1018.81
315.771	941.81
316.001	861.81
316.23	814.81
316.46	866.81
316.689	860.81
316.919	884.81
317.148	932.81
317.377	888.81
317.607	878.81
317.836	959.81
318.065	1100.81
318.295	1209.81
318.524	1139.81
318.753	1008.81
318.983	927.81
319.212	939.81
319.441	1034.81
319.67	1119.81
319.9	1217.81
320.129	1132.81
320.358	965.81
320.587	944.81
320.816	1066.81
321.046	1190.81
321.275	1328.81
321.504	1334.81
321.733	1293.81
321.962	1235.81
322.191	1201.81
322.42	1129.81
322.649	1132.81
322.878	1252.81
323.108	1206.81
323.337	1096.81
323.566	1112.81
323.795	1071.81
324.024	1031.81
324.253	978.81
324.482	987.81
324.71	1105.81
324.939	1232.81
325.168	1126.81
325.397	938.81
325.626	907.81
325.855	932.81
326.084	928.81
326.313	884.81
326.542	836.81
326.77	865.81
326.999	896.81
327.228	962.81
327.457	1033.81
327.686	1006.81
327.914	904.81
328.143	847.81
328.372	828.81
328.6	863.81
328.829	885.81
329.058	898.81
329.287	897.81
329.515	913.81
329.744	884.81
329.972	819.81
330.201	794.81
330.43	815.81
330.658	951.81
330.887	1067.81
331.115	1027.81
331.344	1008.81
331.572	974.81
331.801	887.81
332.03	841.81
332.258	876.81
332.486	940.81
332.715	985.81
332.943	892.81
333.172	879.81
333.4	920.81
333.629	1039.81
333.857	1114.81
334.085	1103.81
334.314	1103.81
334.542	1051.81
334.771	951.81
334.999	943.81
335.227	940.81
335.455	942.81
335.684	997.81
335.912	1203.81
336.14	1306.81
336.369	1266.81
336.597	1224.81
336.825	1350.81
337.053	1528.81
337.281	1254.81
337.51	1004.81
337.738	990.81
337.966	1069.81
338.194	1159.81
338.422	1121.81
338.65	934.81
338.878	871.81
339.106	928.81
339.334	1032.81
339.562	1106.81
339.79	1010.81
340.018	943.81
340.246	1043.81
340.474	1183.81
340.702	1281.81
340.93	1326.81
341.158	1338.81
341.386	1130.81
341.614	1136.81
341.842	1101.81
342.07	1142.81
342.298	1330.81
342.526	1392.81
342.754	1218.81
342.981	1101.81
343.209	1068.81
343.437	1134.81
343.665	1210.81
343.893	1203.81
344.12	1407.81
344.348	1598.81
344.576	1454.81
344.804	1225.81
345.031	1029.81
345.259	992.81
345.487	997.81
345.714	1054.81
345.942	1099.81
346.17	1186.81
346.397	1135.81
346.625	991.81
346.853	968.81
347.08	956.81
347.308	995.81
347.535	1142.81
347.763	1179.81
347.99	1025.81
348.218	930.81
348.445	992.81
348.673	987.81
348.9	965.81
349.128	1076.81
349.355	1120.81
349.583	1053.81
349.81	1007.81
350.037	922.81
350.265	834.81
350.492	825.81
350.72	777.81
350.947	822.81
351.174	898.81
351.402	957.81
351.629	994.81
351.856	956.81
352.083	888.81
352.311	993.81
352.538	1101.81
352.765	1143.81
352.992	1039.81
353.22	966.81
353.447	1014.81
353.674	973.81
353.901	962.81
354.128	964.81
354.355	1020.81
354.583	1019.81
354.81	987.81
355.037	1006.81
355.264	1006.81
355.491	1108.81
355.718	1181.81
355.945	1136.81
356.172	1110.81
356.399	1099.81
356.626	1308.81
356.853	1634.81
357.08	1747.81
357.307	1749.81
357.534	1365.81
357.761	1418.81
357.988	1802.81
358.215	2112.81
358.441	1971.81
358.668	1662.81
358.895	1530.81
359.122	1232.81
359.349	1212.81
359.576	1361.81
359.802	1125.81
360.029	948.81
360.256	1028.81
360.483	1298.81
360.709	1631.81
360.936	1712.81
361.163	1468.81
361.39	1156.81
361.616	1089.81
361.843	1253.81
362.07	1533.81
362.296	1394.81
362.523	1096.81
362.749	975.81
362.976	1004.81
363.203	1244.81
363.429	1389.81
363.656	1100.81
363.882	991.81
364.109	1036.81
364.335	984.81
364.562	982.81
364.788	1141.81
365.015	1313.81
365.241	1180.81
365.468	947.81
365.694	854.81
365.92	826.81
366.147	806.81
366.373	789.81
366.599	804.81
366.826	820.81
367.052	820.81
367.278	838.81
367.505	829.81
367.731	917.81
367.957	1026.81
368.184	1051.81
368.41	1042.81
368.636	1051.81
368.862	1066.81
369.089	1016.81
369.315	926.81
369.541	901.81
369.767	895.81
369.993	827.81
370.219	845.81
370.445	918.81
370.672	1023.81
370.898	1095.81
371.124	1076.81
371.35	983.81
371.576	908.81
371.802	975.81
372.028	1224.81
372.254	1334.81
372.48	1154.81
372.706	1048.81
372.932	1126.81
373.158	1124.81
373.384	1392.81
373.61	1871.81
373.835	1895.81
374.061	1400.81
374.287	1181.81
374.513	1391.81
374.739	1690.81
374.965	1714.81
375.191	1675.81
375.416	1171.81
375.642	1023.81
375.868	1194.81
376.094	1352.81
376.319	1194.81
376.545	1315.81
376.771	1378.81
376.997	1178.81
377.222	869.81
377.448	768.81
377.674	762.81
377.899	747.81
378.125	766.81
378.35	727.81
378.576	772.81
378.802	878.81
379.027	972.81
379.253	894.81
379.478	914.81
379.704	1049.81
379.929	1120.81
380.155	1093.81
380.38	939.81
380.606	1024.81
380.831	1132.81
381.057	1039.81
381.282	983.81
381.507	1198.81
381.733	1490.81
381.958	1599.81
382.184	1636.81
382.409	1756.81
382.634	1699.81
382.86	1801.81
383.085	1457.81
383.31	1127.81
383.535	1224.81
383.761	1251.81
383.986	1198.81
384.211	1459.81
384.436	1427.81
384.662	1093.81
384.887	1018.81
385.112	1050.81
385.337	1083.81
385.562	1005.81
385.787	1116.81
386.013	1212.81
386.238	1276.81
386.463	1005.81
386.688	975.81
386.913	964.81
387.138	896.81
387.363	968.81
387.588	1004.81
387.813	1002.81
388.038	1116.81
388.263	988.81
388.488	961.81
388.713	1138.81
388.938	1263.81
389.163	1042.81
389.387	900.81
389.612	915.81
389.837	954.81
390.062	954.81
390.287	1013.81
390.512	1024.81
390.736	963.81
390.961	885.81
391.186	865.81
391.411	832.81
391.636	855.81
391.86	943.81
392.085	1047.81
392.31	1055.81
392.534	968.81
392.759	939.81
392.984	990.81
393.208	976.81
393.433	909.81
393.658	813.81
393.882	797.81
394.107	793.81
394.331	783.81
394.556	829.81
394.78	808.81
395.005	859.81
395.229	861.81
395.454	874.81
395.678	901.81
395.903	927.81
396.127	879.81
396.352	895.81
396.576	991.81
396.801	1020.81
397.025	1142.81
397.249	1174.81
397.474	945.81
397.698	914.81
397.922	988.81
398.147	906.81
398.371	895.81
398.595	974.81
398.82	964.81
399.044	933.81
399.268	1006.81
399.492	1041.81
399.717	1081.81
399.941	1110.81
400.165	1070.81
400.389	1050.81
400.613	1052.81
400.837	1027.81
401.062	943.81
401.286	896.81
401.51	907.81
401.734	902.81
401.958	900.81
402.182	901.81
402.406	895.81
402.63	897.81
402.854	965.81
403.078	1066.81
403.302	1326.81
403.526	1316.81
403.75	1226.81
403.974	1069.81
404.198	1114.81
404.422	1260.81
404.645	1443.81
404.869	1554.81
405.093	1198.81
405.317	1024.81
405.541	1009.81
405.765	1043.81
405.988	1033.81
406.212	1109.81
406.436	1310.81
406.66	1441.81
406.883	1154.81
407.107	1214.81
407.331	1398.81
407.555	1328.81
407.778	1113.81
408.002	1080.81
408.226	1046.81
408.449	1044.81
408.673	1026.81
408.896	971.81
409.12	931.81
409.344	920.81
409.567	883.81
409.791	917.81
410.014	889.81
410.238	886.81
410.461	903.81
410.685	908.81
410.908	932.81
411.132	923.81
411.355	921.81
411.578	957.81
411.802	944.81
412.025	985.81
412.249	1000.81
412.472	972.81
412.695	920.81
412.919	938.81
413.142	958.81
413.365	1060.81
413.589	1081.81
413.812	995.81
414.035	901.81
414.258	910.81
414.482	1068.81
414.705	1055.81
414.928	920.81
415.151	888.81
415.374	894.81
415.597	914.81
415.821	929.81
416.044	904.81
416.267	893.81
416.49	882.81
416.713	843.81
416.936	842.81
417.159	854.81
417.382	860.81
417.605	901.81
417.828	914.81
418.051	909.81
418.274	929.81
418.497	938.81
418.72	926.81
418.943	959.81
419.166	1005.81
419.389	1008.81
419.611	1004.81
419.834	1014.81
420.057	1174.81
420.28	1127.81
420.503	1043.81
420.726	905.81
420.948	874.81
421.171	901.81
421.394	899.81
421.617	863.81
421.839	896.81
422.062	935.81
422.285	930.81
422.507	917.81
422.73	955.81
422.953	963.81
423.175	944.81
423.398	918.81
423.621	1013.81
423.843	1082.81
424.066	979.81
424.288	930.81
424.511	914.81
424.733	925.81
424.956	975.81
425.178	1094.81
425.401	1231.81
425.623	1416.81
425.846	1181.81
426.068	1029.81
426.291	1123.81
426.513	1030.81
426.735	961.81
426.958	1011.81
427.18	1194.81
427.402	1536.81
427.625	1489.81
427.847	1169.81
428.069	914.81
428.292	900.81
428.514	901.81
428.736	838.81
428.958	968.81
429.181	1149.81
429.403	976.81
429.625	900.81
429.847	901.81
430.069	926.81
430.292	924.81
430.514	864.81
430.736	968.81
430.958	1208.81
431.18	1117.81
431.402	848.81
431.624	817.81
431.846	809.81
432.068	804.81
432.29	855.81
432.512	932.81
432.734	1232.81
432.956	1136.81
433.178	864.81
433.4	836.81
433.622	850.81
433.844	891.81
434.066	940.81
434.287	906.81
434.509	901.81
434.731	929.81
434.953	875.81
435.175	925.81
435.397	1057.81
435.618	881.81
435.84	840.81
436.062	844.81
436.284	825.81
436.505	788.81
436.727	779.81
436.949	816.81
437.17	819.81
437.392	887.81
437.614	863.81
437.835	829.81
438.057	844.81
438.278	992.81
438.5	1398.81
438.721	1403.81
438.943	938.81
439.165	818.81
439.386	780.81
439.608	794.81
439.829	790.81
440.05	805.81
440.272	864.81
440.493	976.81
440.715	1236.81
440.936	1002.81
441.158	891.81
441.379	876.81
441.6	989.81
441.822	1045.81
442.043	882.81
442.264	858.81
442.486	887.81
442.707	892.81
442.928	862.81
443.149	887.81
443.371	893.81
443.592	910.81
443.813	940.81
444.034	903.81
444.255	902.81
444.476	945.81
444.698	940.81
444.919	949.81
445.14	1111.81
445.361	1023.81
445.582	958.81
445.803	935.81
446.024	968.81
446.245	939.81
446.466	921.81
446.687	871.81
446.908	910.81
447.129	830.81
447.35	800.81
447.571	821.81
447.792	792.81
448.013	798.81
448.234	755.81
448.455	784.81
448.675	805.81
448.896	805.81
449.117	827.81
449.338	797.81
449.559	794.81
449.779	853.81
450	872.81
450.221	839.81
450.442	799.81
450.662	799.81
450.883	791.81
451.104	830.81
451.324	808.81
451.545	798.81
451.766	784.81
451.986	795.81
452.207	744.81
452.428	767.81
452.648	766.81
452.869	844.81
453.089	852.81
453.31	840.81
453.53	766.81
453.751	738.81
453.971	736.81
454.192	775.81
454.412	771.81
454.633	741.81
454.853	772.81
455.073	714.81
455.294	746.81
455.514	739.81
455.734	782.81
455.955	790.81
456.175	846.81
456.395	733.81
456.616	725.81
456.836	709.81
457.056	699.81
457.276	702.81
457.497	712.81
457.717	737.81
457.937	693.81
458.157	732.81
458.377	718.81
458.598	766.81
458.818	755.81
459.038	795.81
459.258	815.81
459.478	848.81
459.698	909.81
459.918	892.81
460.138	876.81
460.358	908.81
460.578	883.81
460.798	856.81
461.018	914.81
461.238	862.81
461.458	863.81
461.678	890.81
461.898	934.81
462.118	926.81
462.338	944.81
462.558	948.81
462.777	1036.81
462.997	1020.81
463.217	1028.81
463.437	1067.81
463.657	999.81
463.876	952.81
464.096	971.81
464.316	1011.81
464.536	969.81
464.755	1038.81
464.975	1023.81
465.195	981.81
465.414	996.81
465.634	957.81
465.854	939.81
466.073	879.81
466.293	855.81
466.512	912.81
466.732	1016.81
466.951	1049.81
467.171	950.81
467.391	899.81
467.61	855.81
467.829	950.81
468.049	922.81
468.268	895.81
468.488	879.81
468.707	927.81
468.927	1062.81
469.146	1157.81
469.365	1052.81
469.585	939.81
469.804	981.81
470.023	1100.81
470.243	961.81
470.462	938.81
470.681	891.81
470.901	934.81
471.12	971.81
471.339	966.81
471.558	939.81
471.777	945.81
471.997	997.81
472.216	1158.81
472.435	1088.81
472.654	974.81
472.873	971.81
473.092	1018.81
473.311	1066.81
473.53	960.81
473.749	934.81
473.968	970.81
474.187	980.81
474.406	926.81
474.625	948.81
474.844	955.81
475.063	1002.81
475.282	1039.81
475.501	1108.81
475.72	1122.81
475.939	1093.81
476.158	1117.81
476.377	1297.81
476.596	1444.81
476.814	1492.81
477.033	1231.81
477.252	1072.81
477.471	983.81
477.69	1014.81
477.908	1110.81
478.127	1164.81
478.346	1074.81
478.564	1157.81
478.783	1112.81
479.002	1127.81
479.22	1296.81
479.439	1422.81
479.658	1222.81
479.876	1125.81
480.095	1216.81
480.313	1248.81
480.532	1129.81
480.751	1088.81
480.969	1133.81
481.188	1289.81
481.406	1308.81
481.624	1211.81
481.843	1099.81
482.061	1056.81
482.28	1198.81
482.498	1499.81
482.717	1395.81
482.935	1190.81
483.153	1111.81
483.372	1066.81
483.59	1068.81
483.808	1070.81
484.027	1018.81
484.245	1009.81
484.463	1004.81
484.681	1040.81
484.9	1139.81
485.118	1222.81
485.336	1113.81
485.554	1052.81
485.772	1083.81
485.99	1178.81
486.209	1229.81
486.427	1218.81
486.645	1178.81
486.863	1238.81
487.081	1268.81
487.299	1426.81
487.517	1373.81
487.735	1208.81
487.953	1245.81
488.171	1284.81
488.389	1224.81
488.607	1115.81
488.825	1169.81
489.043	1302.81
489.261	1482.81
489.479	1580.81
489.696	1299.81
489.914	1189.81
490.132	1086.81
490.35	1153.81
490.568	1147.81
490.786	1121.81
491.003	1119.81
491.221	1165.81
491.439	1150.81
491.657	1166.81
491.874	1230.81
492.092	1529.81
492.31	1831.81
492.527	1762.81
492.745	1526.81
492.963	1334.81
493.18	1282.81
493.398	1276.81
493.615	1267.81
493.833	1255.81
494.05	1255.81
494.268	1274.81
494.485	1250.81
494.703	1206.81
494.92	1247.81
495.138	1194.81
495.355	1207.81
495.573	1244.81
495.79	1398.81
496.008	1868.81
496.225	1603.81
496.442	1387.81
496.66	1378.81
496.877	1422.81
497.094	1410.81
497.312	1330.81
497.529	1330.81
497.746	1313.81
497.963	1400.81
498.181	1478.81
498.398	1609.81
498.615	1670.81
498.832	1687.81
499.049	1665.81
499.267	1542.81
499.484	1546.81
499.701	1589.81
499.918	1755.81
500.135	1925.81
500.352	1892.81
500.569	1976.81
500.786	2038.81
501.003	2042.81
501.22	1818.81
501.437	1723.81
501.654	1651.81
501.871	1618.81
502.088	1659.81
502.305	1484.81
502.522	1524.81
502.739	1502.81
502.956	1394.81
503.172	1352.81
503.389	1311.81
503.606	1268.81
503.823	1282.81
504.04	1309.81
504.256	1341.81
504.473	1381.81
504.69	1396.81
504.907	1399.81
505.123	1358.81
505.34	1454.81
505.557	1383.81
505.773	1339.81
505.99	1288.81
506.207	1380.81
506.423	1268.81
506.64	1195.81
506.856	1265.81
507.073	1406.81
507.289	1347.81
507.506	1318.81
507.722	1400.81
507.939	1453.81
508.155	1463.81
508.372	1284.81
508.588	1281.81
508.805	1236.81
509.021	1223.81
509.238	1176.81
509.454	1194.81
509.67	1210.81
509.887	1209.81
510.103	1362.81
510.319	1292.81
510.536	1184.81
510.752	1077.81
510.968	1030.81
511.184	1008.81
511.401	1068.81
511.617	1045.81
511.833	1035.81
512.049	1026.81
512.265	1074.81
512.481	1133.81
512.698	1255.81
512.914	1373.81
513.13	1238.81
513.346	1118.81
513.562	1175.81
513.778	1187.81
513.994	1166.81
514.21	1283.81
514.426	1192.81
514.642	1155.81
514.858	1150.81
515.074	1200.81
515.29	1294.81
515.506	1411.81
515.721	1317.81
515.937	1258.81
516.153	1194.81
516.369	1163.81
516.585	1226.81
516.801	1432.81
517.016	1636.81
517.232	1580.81
517.448	1536.81
517.664	1369.81
517.879	1285.81
518.095	1266.81
518.311	1281.81
518.527	1280.81
518.742	1390.81
518.958	1469.81
519.173	1375.81
519.389	1366.81
519.605	1426.81
519.82	1526.81
520.036	1746.81
520.251	1738.81
520.467	1588.81
520.682	2456.81
520.898	2986.81
521.113	2810.81
521.329	1728.81
521.544	1557.81
521.76	1526.81
521.975	1347.81
522.19	1279.81
522.406	1316.81
522.621	1506.81
522.836	1512.81
523.052	1562.81
523.267	1308.81
523.482	1301.81
523.698	1389.81
523.913	1376.81
524.128	1217.81
524.343	1170.81
524.559	1185.81
524.774	1132.81
524.989	1163.81
525.204	1174.81
525.419	1345.81
525.634	1236.81
525.849	1264.81
526.064	1252.81
526.28	1269.81
526.495	1489.81
526.71	1558.81
526.925	1364.81
527.14	1413.81
527.355	1414.81
527.57	1151.81
527.785	1239.81
527.999	1122.81
528.214	1069.81
528.429	1070.81
528.644	1096.81
528.859	1010.81
529.074	1004.81
529.289	993.81
529.503	993.81
529.718	1040.81
529.933	1180.81
530.148	1214.81
530.363	1034.81
530.577	1016.81
530.792	1007.81
531.007	1032.81
531.221	997.81
531.436	976.81
531.651	1010.81
531.865	1020.81
532.08	1028.81
532.295	1008.81
532.509	1042.81
532.724	1187.81
532.938	1322.81
533.153	1578.81
533.367	1240.81
533.582	1187.81
533.796	1091.81
534.011	1087.81
534.225	1053.81
534.44	1065.81
534.654	1080.81
534.868	1262.81
535.083	1119.81
535.297	1034.81
535.511	1019.81
535.726	1146.81
535.94	1077.81
536.154	1015.81
536.369	988.81
536.583	974.81
536.797	1029.81
537.011	1038.81
537.225	1124.81
537.44	1196.81
537.654	1024.81
537.868	1014.81
538.082	1011.81
538.296	994.81
538.51	1100.81
538.724	1092.81
538.938	1044.81
539.153	959.81
539.367	978.81
539.581	1004.81
539.795	1070.81
540.009	1148.81
540.222	1079.81
540.436	1070.81
540.65	1166.81
540.864	1205.81
541.078	1198.81
541.292	1383.81
541.506	1101.81
541.72	1072.81
541.934	1045.81
542.147	1044.81
542.361	1030.81
542.575	1075.81
542.789	990.81
543.002	954.81
543.216	1060.81
543.43	968.81
543.644	939.81
543.857	947.81
544.071	974.81
544.285	929.81
544.498	919.81
544.712	931.81
544.925	1002.81
545.139	963.81
545.352	910.81
545.566	912.81
545.779	1078.81
545.993	959.81
546.206	871.81
546.42	894.81
546.633	889.81
546.847	854.81
547.06	860.81
547.274	880.81
547.487	885.81
547.7	977.81
547.914	1016.81
548.127	1125.81
548.34	1087.81
548.554	968.81
548.767	993.81
548.98	1054.81
549.193	987.81
549.407	1000.81
549.62	1203.81
549.833	1110.81
550.046	1158.81
550.259	1182.81
550.473	1021.81
550.686	962.81
550.899	1022.81
551.112	997.81
551.325	1059.81
551.538	1115.81
551.751	941.81
551.964	902.81
552.177	908.81
552.39	838.81
552.603	897.81
552.816	947.81
553.029	897.81
553.242	867.81
553.455	947.81
553.667	1006.81
553.88	972.81
554.093	901.81
554.306	846.81
554.519	792.81
554.732	794.81
554.944	780.81
555.157	755.81
555.37	780.81
555.583	777.81
555.795	805.81
556.008	811.81
556.221	800.81
556.433	766.81
556.646	793.81
556.859	795.81
557.071	827.81
557.284	823.81
557.496	838.81
557.709	816.81
557.921	797.81
558.134	756.81
558.346	713.81
558.559	707.81
558.771	766.81
558.984	834.81
559.196	792.81
559.409	739.81
559.621	701.81
559.833	710.81
560.046	735.81
560.258	727.81
560.47	754.81
560.683	719.81
560.895	690.81
561.107	666.81
561.32	685.81
561.532	679.81
561.744	782.81
561.956	781.81
562.168	700.81
562.381	720.81
562.593	741.81
562.805	746.81
563.017	676.81
563.229	644.81
563.441	671.81
563.653	667.81
563.865	692.81
564.077	721.81
564.289	689.81
564.501	703.81
564.713	761.81
564.925	746.81
565.137	684.81
565.349	688.81
565.561	684.81
565.773	696.81
565.985	734.81
566.197	783.81
566.408	862.81
566.62	855.81
566.832	860.81
567.044	847.81
567.255	933.81
567.467	957.81
567.679	893.81
567.891	879.81
568.102	888.81
568.314	896.81
568.526	880.81
568.737	839.81
568.949	842.81
569.161	780.81
569.372	692.81
569.584	676.81
569.795	690.81
570.007	702.81
570.218	760.81
570.43	722.81
570.641	693.81
570.853	683.81
571.064	656.81
571.276	686.81
571.487	709.81
571.698	658.81
571.91	669.81
572.121	658.81
572.333	614.81
572.544	604.81
572.755	622.81
572.966	620.81
573.178	623.81
573.389	656.81
573.6	649.81
573.811	643.81
574.023	581.81
574.234	577.81
574.445	581.81
574.656	572.81
574.867	574.81
575.078	568.81
575.289	592.81
575.501	622.81
575.712	601.81
575.923	544.81
576.134	544.81
576.345	547.81
576.556	546.81
576.767	536.81
576.978	510.81
577.188	526.81
577.399	510.81
577.61	517.81
577.821	517.81
578.032	524.81
578.243	532.81
578.454	575.81
578.665	583.81
578.875	564.81
579.086	551.81
579.297	566.81
579.508	563.81
579.718	549.81
579.929	561.81
580.14	536.81
580.35	504.81
580.561	494.81
580.772	486.81
580.982	475.81
581.193	495.81
581.403	467.81
581.614	467.81
581.825	480.81
582.035	478.81
582.246	469.81
582.456	478.81
582.667	470.81
582.877	470.81
583.087	461.81
583.298	443.81
583.508	452.81
583.719	438.81
583.929	457.81
584.139	443.81
584.35	473.81
584.56	478.81
584.77	468.81
584.981	463.81
585.191	472.81
585.401	469.81
585.611	487.81
585.821	468.81
586.032	466.81
586.242	479.81
586.452	496.81
586.662	462.81
586.872	508.81
587.082	510.81
587.292	469.81
587.502	447.81
587.713	466.81
587.923	463.81
588.133	510.81
588.343	477.81
588.553	449.81
588.762	450.81
588.972	440.81
589.182	480.81
589.392	461.81
589.602	448.81
589.812	460.81
590.022	510.81
590.232	520.81
590.441	455.81
590.651	454.81
590.861	446.81
591.071	487.81
591.281	445.81
591.49	445.81
591.7	451.81
591.91	471.81
592.119	454.81
592.329	463.81
592.539	461.81
592.748	456.81
592.958	463.81
593.167	482.81
593.377	506.81
593.587	485.81
593.796	490.81
594.006	473.81
594.215	503.81
594.424	475.81
594.634	496.81
594.843	499.81
595.053	479.81
595.262	434.81
595.472	448.81
595.681	438.81
595.89	411.81
596.1	427.81
596.309	447.81
596.518	424.81
596.727	419.81
596.937	429.81
597.146	446.81
597.355	454.81
597.564	451.81
597.774	430.81
597.983	412.81
598.192	411.81
598.401	393.81
598.61	380.81
598.819	386.81
599.028	401.81
599.237	395.81
599.446	372.81
599.655	383.81
599.864	369.81
600.073	376.81
600.282	393.81
600.491	368.81
600.7	374.81
600.909	398.81
601.118	379.81
601.327	384.81
601.536	376.81
601.745	399.81
601.953	400.81
602.162	393.81
602.371	418.81
602.58	396.81
602.789	391.81
602.997	376.81
603.206	388.81
603.415	382.81
603.623	375.81
603.832	370.81
604.041	375.81
604.249	359.81
604.458	384.81
604.666	355.81
604.875	345.81
605.084	363.81
605.292	347.81
605.501	370.81
605.709	366.81
605.918	336.81
606.126	337.81
606.334	357.81
606.543	331.81
606.751	355.81
606.96	364.81
607.168	343.81
607.376	327.81
607.585	316.81
607.793	363.81
608.001	354.81
608.21	364.81
608.418	373.81
608.626	336.81
608.834	351.81
609.043	339.81
609.251	338.81
609.459	345.81
609.667	354.81
609.875	336.81
610.083	328.81
610.291	359.81
610.499	362.81
610.707	353.81
610.916	334.81
611.124	340.81
611.332	322.81
611.54	338.81
611.748	327.81
611.955	333.81
612.163	336.81
612.371	332.81
612.579	335.81
612.787	336.81
612.995	337.81
613.203	309.81
613.411	325.81
613.618	318.81
613.826	351.81
614.034	353.81
614.242	325.81
614.449	325.81
614.657	342.81
614.865	323.81
615.072	305.81
615.28	317.81
615.488	306.81
615.695	344.81
615.903	335.81
616.111	307.81
616.318	322.81
616.526	326.81
616.733	319.81
616.941	293.81
617.148	329.81
617.356	323.81
617.563	318.81
617.771	306.81
617.978	330.81
618.185	303.81
618.393	308.81
618.6	318.81
618.807	306.81
619.015	311.81
619.222	296.81
619.429	324.81
619.637	315.81
619.844	277.81
620.051	287.81
620.258	318.81
620.466	300.81
620.673	286.81
620.88	281.81
621.087	301.81
621.294	307.81
621.501	301.81
621.708	302.81
621.915	315.81
622.122	296.81
622.329	302.81
622.536	280.81
622.743	294.81
622.95	292.81
623.157	308.81
623.364	307.81
623.571	317.81
623.778	282.81
623.985	283.81
624.192	310.81
624.399	300.81
624.606	287.81
624.812	283.81
625.019	291.81
625.226	321.81
625.433	312.81
625.639	298.81
625.846	305.81
626.053	278.81
626.259	274.81
626.466	275.81
626.673	304.81
626.879	290.81
627.086	278.81
627.293	271.81
627.499	268.81
627.706	286.81
627.912	279.81
628.119	272.81
628.325	276.81
628.532	258.81
628.738	251.81
628.945	270.81
629.151	270.81
629.357	263.81
629.564	278.81
629.77	254.81
629.976	243.81
630.183	243.81
630.389	253.81
630.595	262.81
630.802	266.81
631.008	260.81
631.214	263.81
631.42	253.81
631.627	251.81
631.833	269.81
632.039	235.81
632.245	249.81
632.451	237.81
632.657	243.81
632.863	240.81
633.069	236.81
633.275	236.81
633.481	234.81
633.688	244.81
633.893	250.81
634.099	237.81
634.305	238.81
634.511	235.81
634.717	221.81
634.923	229.81
635.129	234.81
635.335	224.81
635.541	198.81
635.747	221.81
635.952	224.81
636.158	235.81
636.364	236.81
636.57	235.81
636.775	237.81
636.981	241.81
637.187	213.81
637.392	210.81
637.598	227.81
637.804	232.81
638.009	223.81
638.215	226.81
638.421	230.81
638.626	218.81
638.832	219.81
639.037	224.81
639.243	225.81
639.448	219.81
639.654	231.81
639.859	222.81
640.065	226.81
640.27	257.81
640.475	218.81
640.681	228.81
640.886	222.81
641.091	219.81
641.297	234.81
641.502	230.81
641.707	218.81
641.913	229.81
642.118	225.81
642.323	219.81
642.528	224.81
642.733	227.81
642.939	224.81
643.144	221.81
643.349	235.81
643.554	218.81
643.759	220.81
643.964	215.81
644.169	213.81
644.374	204.81
644.579	204.81
644.784	213.81
644.989	201.81
645.194	211.81
645.399	207.81
645.604	202.81
645.809	218.81
646.014	217.81
646.219	205.81
646.423	202.81
646.628	207.81
646.833	188.81
647.038	207.81
647.243	225.81
647.447	209.81
647.652	194.81
647.857	218.81
648.062	213.81
648.266	207.81
648.471	212.81
648.676	208.81
648.88	212.81
649.085	209.81
649.289	194.81
649.494	232.81
649.698	229.81
649.903	200.81
650.107	199.81
650.312	194.81
650.516	197.81
650.721	184.81
650.925	173.81
651.13	191.81
651.334	195.81
651.539	172.81
651.743	184.81
651.947	171.81
652.152	176.81
652.356	165.81
652.56	174.81
652.764	167.81
652.969	172.81
653.173	171.81
653.377	164.81
653.581	161.81
653.785	151.81
653.99	155.81
654.194	156.81
654.398	157.81
654.602	153.81
654.806	164.81
655.01	163.81
655.214	157.81
655.418	138.81
655.622	140.81
655.826	162.81
656.03	157.81
656.234	172.81
656.438	160.81
656.642	159.81
656.846	153.81
657.049	161.81
657.253	149.81
657.457	147.81
657.661	139.81
657.865	136.81
658.068	123.81
658.272	119.81
658.476	118.81
658.68	111.81
658.883	110.81
659.087	118.81
659.291	112.81
659.494	117.81
659.698	114.81
659.901	119.81
660.105	93.81
660.309	102.81
660.512	95.81
660.716	93.81
660.919	103.81
661.123	93.81
661.326	88.81
661.53	86.81
661.733	95.81
661.936	95.81
662.14	83.81
662.343	101.81
662.546	84.81
662.75	90.81
662.953	86.81
663.156	89.81
663.36	83.81
663.563	85.81
663.766	93.81
663.969	80.81
664.173	82.81
664.376	75.81
664.579	67.81
664.782	91.81
664.985	72.81
665.188	88.81
665.391	80.81
665.594	79.81
665.797	79.81
666	68.81
666.203	76.81
666.406	86.81
666.609	68.81
666.812	83.81
667.015	92.81
667.218	82.81
667.421	89.81
667.624	78.81
667.827	76.81
668.03	76.81
668.232	71.81
668.435	76.81
668.638	82.81
668.841	86.81
669.043	88.81
669.246	72.81
669.449	84.81
669.651	75.81
669.854	77.81
670.057	75.81
670.259	83.81
670.462	91.81
670.665	93.81
670.867	84.81
671.07	81.81
671.272	75.81
671.475	79.81
671.677	80.81
671.88	72.81
672.082	92.81
672.284	97.81
672.487	85.81
672.689	86.81
672.892	78.81
