Data from NickelSpatula.Lamp.E10.P2_HRD10591_11-58-21-528.txt Node
Date: Tue Jul 23 11:58:21 EDT 2019
User: cochatt
Spectrometer: HR+D1059
Trigger mode: 1
Integration Time (sec): 1.000000E-1
Scans to average: 1
Electric dark correction enabled: true
Nonlinearity correction enabled: false
Boxcar width: 0
XAxis mode: Wavelengths
Number of Pixels in Spectrum: 2048
>>>>>Begin Spectral Data<<<<<
223.165	-15.88
223.4	-15.88
223.635	-15.88
223.869	-20.88
224.104	-23.88
224.338	-10.88
224.573	-15.88
224.808	-19.88
225.042	-6.88
225.277	3.12
225.511	-3.88
225.746	12.12
225.98	3.12
226.215	-1.88
226.449	22.12
226.683	17.12
226.918	22.12
227.152	40.12
227.387	34.12
227.621	38.12
227.856	50.12
228.09	47.12
228.324	49.12
228.559	46.12
228.793	78.12
229.027	136.12
229.262	151.12
229.496	168.12
229.73	167.12
229.964	196.12
230.199	206.12
230.433	215.12
230.667	203.12
230.901	214.12
231.136	203.12
231.37	209.12
231.604	228.12
231.838	235.12
232.072	257.12
232.306	240.12
232.541	220.12
232.775	228.12
233.009	268.12
233.243	317.12
233.477	312.12
233.711	344.12
233.945	336.12
234.179	347.12
234.413	357.12
234.647	379.12
234.881	450.12
235.115	416.12
235.349	416.12
235.583	355.12
235.817	361.12
236.051	390.12
236.285	441.12
236.519	465.12
236.753	450.12
236.987	438.12
237.221	395.12
237.455	419.12
237.689	440.12
237.922	460.12
238.156	474.12
238.39	551.12
238.624	683.12
238.858	591.12
239.091	513.12
239.325	504.12
239.559	498.12
239.793	540.12
240.027	660.12
240.26	595.12
240.494	581.12
240.728	592.12
240.961	691.12
241.195	629.12
241.429	646.12
241.662	645.12
241.896	524.12
242.13	510.12
242.363	440.12
242.597	468.12
242.83	542.12
243.064	546.12
243.298	576.12
243.531	622.12
243.765	655.12
243.998	648.12
244.232	609.12
244.465	609.12
244.699	583.12
244.932	668.12
245.166	615.12
245.399	569.12
245.633	532.12
245.866	592.12
246.099	624.12
246.333	720.12
246.566	777.12
246.8	772.12
247.033	752.12
247.266	686.12
247.5	663.12
247.733	695.12
247.966	659.12
248.2	703.12
248.433	757.12
248.666	848.12
248.899	870.12
249.133	880.12
249.366	1000.12
249.599	1076.12
249.832	964.12
250.066	815.12
250.299	861.12
250.532	839.12
250.765	827.12
250.998	748.12
251.231	753.12
251.465	800.12
251.698	821.12
251.931	809.12
252.164	844.12
252.397	951.12
252.63	1041.12
252.863	1211.12
253.096	1217.12
253.329	1176.12
253.562	1124.12
253.795	1243.12
254.028	1379.12
254.261	1458.12
254.494	1275.12
254.727	1156.12
254.96	1112.12
255.193	1201.12
255.426	1161.12
255.659	861.12
255.892	803.12
256.124	860.12
256.357	1008.12
256.59	1202.12
256.823	1189.12
257.056	983.12
257.289	914.12
257.521	987.12
257.754	1175.12
257.987	1294.12
258.22	1140.12
258.452	1019.12
258.685	1167.12
258.918	1274.12
259.151	1229.12
259.383	1309.12
259.616	1490.12
259.849	1574.12
260.081	1737.12
260.314	1886.12
260.547	1492.12
260.779	1506.12
261.012	1708.12
261.244	1638.12
261.477	1675.12
261.71	1569.12
261.942	1329.12
262.175	1289.12
262.407	1232.12
262.64	1264.12
262.872	1515.12
263.105	1649.12
263.337	1720.12
263.57	1569.12
263.802	1025.12
264.035	905.12
264.267	859.12
264.499	799.12
264.732	724.12
264.964	711.12
265.197	734.12
265.429	797.12
265.661	836.12
265.894	870.12
266.126	926.12
266.358	1051.12
266.591	1251.12
266.823	1561.12
267.055	1427.12
267.287	1225.12
267.52	1268.12
267.752	1349.12
267.984	1483.12
268.216	1333.12
268.448	1142.12
268.681	1107.12
268.913	1221.12
269.145	1290.12
269.377	1336.12
269.609	1284.12
269.841	1233.12
270.073	1299.12
270.306	1395.12
270.538	1373.12
270.77	1419.12
271.002	1453.12
271.234	1461.12
271.466	1553.12
271.698	1444.12
271.93	1429.12
272.162	1439.12
272.394	1456.12
272.626	1391.12
272.858	1464.12
273.09	1498.12
273.322	1313.12
273.553	1287.12
273.785	1527.12
274.017	2000.12
274.249	2460.12
274.481	2564.12
274.713	2759.12
274.945	3206.12
275.176	3321.12
275.408	2887.12
275.64	2687.12
275.872	2676.12
276.104	2261.12
276.335	1908.12
276.567	1894.12
276.799	1996.12
277.031	2101.12
277.262	1639.12
277.494	1261.12
277.726	1195.12
277.957	1351.12
278.189	1487.12
278.421	1488.12
278.652	1449.12
278.884	1383.12
279.115	1227.12
279.347	1206.12
279.579	1230.12
279.81	1219.12
280.042	1228.12
280.273	1243.12
280.505	1173.12
280.736	1027.12
280.968	1013.12
281.199	1088.12
281.431	1255.12
281.662	1215.12
281.894	1192.12
282.125	1244.12
282.356	1363.12
282.588	1431.12
282.819	1248.12
283.051	1378.12
283.282	1705.12
283.513	1954.12
283.745	2219.12
283.976	2186.12
284.207	2009.12
284.439	2133.12
284.67	2039.12
284.901	1808.12
285.132	1937.12
285.364	2072.12
285.595	1888.12
285.826	1983.12
286.057	2102.12
286.288	1975.12
286.52	2005.12
286.751	2129.12
286.982	2125.12
287.213	1829.12
287.444	1749.12
287.675	1891.12
287.906	1838.12
288.138	1546.12
288.369	1397.12
288.6	1264.12
288.831	1355.12
289.062	1549.12
289.293	1724.12
289.524	1626.12
289.755	1610.12
289.986	1653.12
290.217	1439.12
290.448	1126.12
290.679	977.12
290.91	937.12
291.141	947.12
291.371	989.12
291.602	963.12
291.833	994.12
292.064	1077.12
292.295	1258.12
292.526	1421.12
292.757	1469.12
292.987	1579.12
293.218	1556.12
293.449	1617.12
293.68	1649.12
293.91	1584.12
294.141	1612.12
294.372	1499.12
294.603	1425.12
294.833	1595.12
295.064	1893.12
295.295	1700.12
295.525	1288.12
295.756	1149.12
295.987	1011.12
296.217	1008.12
296.448	1053.12
296.679	1137.12
296.909	1198.12
297.14	1320.12
297.37	1410.12
297.601	1367.12
297.831	1180.12
298.062	1275.12
298.292	1476.12
298.523	1590.12
298.753	1810.12
298.984	1642.12
299.214	1260.12
299.445	1088.12
299.675	1026.12
299.905	1045.12
300.136	1084.12
300.366	1183.12
300.597	1147.12
300.827	1030.12
301.057	982.12
301.288	1003.12
301.518	1064.12
301.748	1247.12
301.979	1331.12
302.209	1407.12
302.439	1455.12
302.669	1273.12
302.9	1262.12
303.13	1177.12
303.36	1104.12
303.59	1064.12
303.82	1134.12
304.051	1238.12
304.281	1332.12
304.511	1320.12
304.741	1165.12
304.971	1219.12
305.201	1273.12
305.431	1195.12
305.661	1065.12
305.891	1082.12
306.121	1083.12
306.352	976.12
306.582	851.12
306.812	873.12
307.042	879.12
307.272	821.12
307.502	794.12
307.731	903.12
307.961	928.12
308.191	845.12
308.421	816.12
308.651	832.12
308.881	776.12
309.111	775.12
309.341	822.12
309.571	893.12
309.8	927.12
310.03	959.12
310.26	1018.12
310.49	995.12
310.72	881.12
310.949	855.12
311.179	873.12
311.409	935.12
311.639	1105.12
311.868	1396.12
312.098	1816.12
312.328	1936.12
312.557	1901.12
312.787	1912.12
313.017	1685.12
313.246	1839.12
313.476	1997.12
313.706	1619.12
313.935	1300.12
314.165	1067.12
314.394	960.12
314.624	944.12
314.853	998.12
315.083	1076.12
315.312	1048.12
315.542	1005.12
315.771	921.12
316.001	857.12
316.23	846.12
316.46	847.12
316.689	895.12
316.919	891.12
317.148	888.12
317.377	894.12
317.607	870.12
317.836	978.12
318.065	1112.12
318.295	1258.12
318.524	1168.12
318.753	1008.12
318.983	952.12
319.212	940.12
319.441	1015.12
319.67	1135.12
319.9	1220.12
320.129	1195.12
320.358	973.12
320.587	961.12
320.816	1043.12
321.046	1203.12
321.275	1343.12
321.504	1330.12
321.733	1294.12
321.962	1232.12
322.191	1174.12
322.42	1106.12
322.649	1114.12
322.878	1207.12
323.108	1232.12
323.337	1118.12
323.566	1108.12
323.795	1056.12
324.024	1019.12
324.253	967.12
324.482	963.12
324.71	1061.12
324.939	1216.12
325.168	1154.12
325.397	927.12
325.626	912.12
325.855	917.12
326.084	945.12
326.313	881.12
326.542	856.12
326.77	903.12
326.999	911.12
327.228	962.12
327.457	1037.12
327.686	1019.12
327.914	911.12
328.143	848.12
328.372	838.12
328.6	861.12
328.829	883.12
329.058	916.12
329.287	874.12
329.515	903.12
329.744	869.12
329.972	860.12
330.201	827.12
330.43	849.12
330.658	947.12
330.887	1072.12
331.115	1049.12
331.344	1033.12
331.572	962.12
331.801	897.12
332.03	821.12
332.258	887.12
332.486	965.12
332.715	990.12
332.943	927.12
333.172	912.12
333.4	964.12
333.629	1027.12
333.857	1135.12
334.085	1148.12
334.314	1116.12
334.542	1030.12
334.771	965.12
334.999	954.12
335.227	931.12
335.455	931.12
335.684	1042.12
335.912	1179.12
336.14	1318.12
336.369	1242.12
336.597	1242.12
336.825	1383.12
337.053	1549.12
337.281	1221.12
337.51	996.12
337.738	975.12
337.966	1069.12
338.194	1217.12
338.422	1145.12
338.65	984.12
338.878	902.12
339.106	925.12
339.334	1014.12
339.562	1117.12
339.79	1017.12
340.018	972.12
340.246	1067.12
340.474	1178.12
340.702	1285.12
340.93	1362.12
341.158	1313.12
341.386	1128.12
341.614	1098.12
341.842	1133.12
342.07	1151.12
342.298	1343.12
342.526	1427.12
342.754	1208.12
342.981	1094.12
343.209	1063.12
343.437	1136.12
343.665	1224.12
343.893	1208.12
344.12	1387.12
344.348	1606.12
344.576	1441.12
344.804	1175.12
345.031	1033.12
345.259	962.12
345.487	1008.12
345.714	1039.12
345.942	1117.12
346.17	1170.12
346.397	1155.12
346.625	1011.12
346.853	980.12
347.08	949.12
347.308	999.12
347.535	1141.12
347.763	1154.12
347.99	1001.12
348.218	939.12
348.445	964.12
348.673	983.12
348.9	998.12
349.128	1044.12
349.355	1101.12
349.583	1060.12
349.81	1021.12
350.037	943.12
350.265	852.12
350.492	781.12
350.72	827.12
350.947	836.12
351.174	874.12
351.402	943.12
351.629	992.12
351.856	952.12
352.083	905.12
352.311	979.12
352.538	1109.12
352.765	1161.12
352.992	1040.12
353.22	965.12
353.447	1020.12
353.674	992.12
353.901	958.12
354.128	983.12
354.355	1011.12
354.583	1000.12
354.81	981.12
355.037	1045.12
355.264	976.12
355.491	1085.12
355.718	1153.12
355.945	1141.12
356.172	1120.12
356.399	1107.12
356.626	1352.12
356.853	1640.12
357.08	1715.12
357.307	1780.12
357.534	1387.12
357.761	1392.12
357.988	1760.12
358.215	2075.12
358.441	1929.12
358.668	1613.12
358.895	1559.12
359.122	1229.12
359.349	1212.12
359.576	1330.12
359.802	1082.12
360.029	931.12
360.256	1054.12
360.483	1284.12
360.709	1621.12
360.936	1645.12
361.163	1449.12
361.39	1147.12
361.616	1091.12
361.843	1264.12
362.07	1522.12
362.296	1363.12
362.523	1071.12
362.749	968.12
362.976	1001.12
363.203	1209.12
363.429	1355.12
363.656	1080.12
363.882	987.12
364.109	1019.12
364.335	997.12
364.562	987.12
364.788	1134.12
365.015	1353.12
365.241	1172.12
365.468	955.12
365.694	843.12
365.92	830.12
366.147	797.12
366.373	815.12
366.599	789.12
366.826	816.12
367.052	825.12
367.278	840.12
367.505	807.12
367.731	926.12
367.957	1002.12
368.184	1043.12
368.41	1013.12
368.636	1054.12
368.862	1059.12
369.089	992.12
369.315	907.12
369.541	908.12
369.767	903.12
369.993	863.12
370.219	881.12
370.445	931.12
370.672	1003.12
370.898	1087.12
371.124	1086.12
371.35	976.12
371.576	918.12
371.802	983.12
372.028	1150.12
372.254	1332.12
372.48	1131.12
372.706	1007.12
372.932	1084.12
373.158	1161.12
373.384	1361.12
373.61	1852.12
373.835	1911.12
374.061	1368.12
374.287	1177.12
374.513	1393.12
374.739	1694.12
374.965	1719.12
375.191	1684.12
375.416	1161.12
375.642	1021.12
375.868	1227.12
376.094	1364.12
376.319	1165.12
376.545	1319.12
376.771	1357.12
376.997	1169.12
377.222	859.12
377.448	766.12
377.674	763.12
377.899	749.12
378.125	732.12
378.35	749.12
378.576	791.12
378.802	879.12
379.027	920.12
379.253	926.12
379.478	965.12
379.704	1064.12
379.929	1115.12
380.155	1091.12
380.38	965.12
380.606	1038.12
380.831	1102.12
381.057	1037.12
381.282	979.12
381.507	1163.12
381.733	1471.12
381.958	1551.12
382.184	1631.12
382.409	1716.12
382.634	1678.12
382.86	1766.12
383.085	1467.12
383.31	1144.12
383.535	1233.12
383.761	1237.12
383.986	1147.12
384.211	1417.12
384.436	1356.12
384.662	1060.12
384.887	980.12
385.112	1054.12
385.337	1049.12
385.562	978.12
385.787	1104.12
386.013	1215.12
386.238	1225.12
386.463	1009.12
386.688	1006.12
386.913	985.12
387.138	897.12
387.363	969.12
387.588	988.12
387.813	1020.12
388.038	1092.12
388.263	972.12
388.488	1003.12
388.713	1123.12
388.938	1216.12
389.163	1047.12
389.387	916.12
389.612	907.12
389.837	957.12
390.062	979.12
390.287	1023.12
390.512	1029.12
390.736	952.12
390.961	888.12
391.186	839.12
391.411	825.12
391.636	852.12
391.86	939.12
392.085	1015.12
392.31	987.12
392.534	987.12
392.759	936.12
392.984	975.12
393.208	987.12
393.433	860.12
393.658	816.12
393.882	825.12
394.107	821.12
394.331	813.12
394.556	815.12
394.78	817.12
395.005	856.12
395.229	879.12
395.454	867.12
395.678	893.12
395.903	923.12
396.127	870.12
396.352	906.12
396.576	985.12
396.801	1002.12
397.025	1108.12
397.249	1151.12
397.474	934.12
397.698	932.12
397.922	972.12
398.147	924.12
398.371	914.12
398.595	955.12
398.82	949.12
399.044	965.12
399.268	1043.12
399.492	1063.12
399.717	1038.12
399.941	1126.12
400.165	1043.12
400.389	1053.12
400.613	1107.12
400.837	1042.12
401.062	919.12
401.286	903.12
401.51	945.12
401.734	928.12
401.958	921.12
402.182	929.12
402.406	942.12
402.63	936.12
402.854	951.12
403.078	1067.12
403.302	1290.12
403.526	1345.12
403.75	1185.12
403.974	1056.12
404.198	1075.12
404.422	1241.12
404.645	1443.12
404.869	1599.12
405.093	1198.12
405.317	982.12
405.541	980.12
405.765	1042.12
405.988	1046.12
406.212	1083.12
406.436	1269.12
406.66	1413.12
406.883	1138.12
407.107	1189.12
407.331	1376.12
407.555	1298.12
407.778	1089.12
408.002	1061.12
408.226	1059.12
408.449	1067.12
408.673	1035.12
408.896	928.12
409.12	915.12
409.344	941.12
409.567	892.12
409.791	898.12
410.014	928.12
410.238	897.12
410.461	917.12
410.685	917.12
410.908	909.12
411.132	931.12
411.355	957.12
411.578	957.12
411.802	950.12
412.025	1000.12
412.249	994.12
412.472	964.12
412.695	944.12
412.919	955.12
413.142	964.12
413.365	1063.12
413.589	1079.12
413.812	955.12
414.035	949.12
414.258	935.12
414.482	1067.12
414.705	1061.12
414.928	933.12
415.151	875.12
415.374	895.12
415.597	924.12
415.821	931.12
416.044	884.12
416.267	873.12
416.49	877.12
416.713	885.12
416.936	847.12
417.159	876.12
417.382	899.12
417.605	920.12
417.828	877.12
418.051	940.12
418.274	948.12
418.497	911.12
418.72	929.12
418.943	963.12
419.166	1009.12
419.389	1046.12
419.611	1012.12
419.834	1019.12
420.057	1110.12
420.28	1117.12
420.503	1031.12
420.726	889.12
420.948	892.12
421.171	856.12
421.394	896.12
421.617	870.12
421.839	880.12
422.062	943.12
422.285	949.12
422.507	944.12
422.73	949.12
422.953	970.12
423.175	961.12
423.398	975.12
423.621	1015.12
423.843	1089.12
424.066	996.12
424.288	966.12
424.511	920.12
424.733	932.12
424.956	969.12
425.178	1078.12
425.401	1217.12
425.623	1388.12
425.846	1176.12
426.068	1027.12
426.291	1137.12
426.513	1043.12
426.735	948.12
426.958	1005.12
427.18	1143.12
427.402	1522.12
427.625	1506.12
427.847	1216.12
428.069	915.12
428.292	889.12
428.514	900.12
428.736	883.12
428.958	981.12
429.181	1119.12
429.403	994.12
429.625	903.12
429.847	856.12
430.069	879.12
430.292	939.12
430.514	917.12
430.736	972.12
430.958	1200.12
431.18	1093.12
431.402	848.12
431.624	813.12
431.846	810.12
432.068	788.12
432.29	817.12
432.512	934.12
432.734	1197.12
432.956	1157.12
433.178	901.12
433.4	847.12
433.622	857.12
433.844	899.12
434.066	925.12
434.287	891.12
434.509	894.12
434.731	918.12
434.953	863.12
435.175	881.12
435.397	1040.12
435.618	930.12
435.84	848.12
436.062	830.12
436.284	832.12
436.505	813.12
436.727	796.12
436.949	807.12
437.17	849.12
437.392	862.12
437.614	838.12
437.835	860.12
438.057	859.12
438.278	980.12
438.5	1416.12
438.721	1380.12
438.943	946.12
439.165	817.12
439.386	797.12
439.608	782.12
439.829	784.12
440.05	801.12
440.272	854.12
440.493	1010.12
440.715	1241.12
440.936	995.12
441.158	870.12
441.379	871.12
441.6	1000.12
441.822	1053.12
442.043	915.12
442.264	864.12
442.486	895.12
442.707	879.12
442.928	884.12
443.149	898.12
443.371	927.12
443.592	934.12
443.813	941.12
444.034	926.12
444.255	912.12
444.476	942.12
444.698	907.12
444.919	977.12
445.14	1052.12
445.361	1029.12
445.582	943.12
445.803	913.12
446.024	928.12
446.245	924.12
446.466	926.12
446.687	906.12
446.908	910.12
447.129	839.12
447.35	848.12
447.571	830.12
447.792	818.12
448.013	791.12
448.234	781.12
448.455	781.12
448.675	834.12
448.896	849.12
449.117	812.12
449.338	806.12
449.559	848.12
449.779	886.12
450	875.12
450.221	831.12
450.442	836.12
450.662	795.12
450.883	821.12
451.104	840.12
451.324	835.12
451.545	826.12
451.766	802.12
451.986	797.12
452.207	806.12
452.428	777.12
452.648	788.12
452.869	806.12
453.089	860.12
453.31	833.12
453.53	729.12
453.751	773.12
453.971	773.12
454.192	770.12
454.412	809.12
454.633	747.12
454.853	748.12
455.073	723.12
455.294	755.12
455.514	720.12
455.734	789.12
455.955	819.12
456.175	851.12
456.395	786.12
456.616	735.12
456.836	691.12
457.056	697.12
457.276	692.12
457.497	701.12
457.717	747.12
457.937	715.12
458.157	720.12
458.377	747.12
458.598	724.12
458.818	759.12
459.038	797.12
459.258	833.12
459.478	844.12
459.698	911.12
459.918	918.12
460.138	891.12
460.358	904.12
460.578	866.12
460.798	909.12
461.018	912.12
461.238	872.12
461.458	869.12
461.678	917.12
461.898	932.12
462.118	917.12
462.338	965.12
462.558	957.12
462.777	968.12
462.997	999.12
463.217	1047.12
463.437	1031.12
463.657	1063.12
463.876	952.12
464.096	964.12
464.316	979.12
464.536	972.12
464.755	1033.12
464.975	1025.12
465.195	962.12
465.414	1020.12
465.634	971.12
465.854	955.12
466.073	878.12
466.293	892.12
466.512	922.12
466.732	1016.12
466.951	1034.12
467.171	949.12
467.391	877.12
467.61	880.12
467.829	955.12
468.049	956.12
468.268	885.12
468.488	893.12
468.707	964.12
468.927	1078.12
469.146	1160.12
469.365	1005.12
469.585	973.12
469.804	1021.12
470.023	1124.12
470.243	976.12
470.462	943.12
470.681	923.12
470.901	933.12
471.12	991.12
471.339	990.12
471.558	947.12
471.777	941.12
471.997	994.12
472.216	1084.12
472.435	1070.12
472.654	999.12
472.873	987.12
473.092	1041.12
473.311	1047.12
473.53	943.12
473.749	943.12
473.968	984.12
474.187	977.12
474.406	963.12
474.625	934.12
474.844	956.12
475.063	1029.12
475.282	1078.12
475.501	1079.12
475.72	1115.12
475.939	1117.12
476.158	1108.12
476.377	1276.12
476.596	1452.12
476.814	1499.12
477.033	1245.12
477.252	1059.12
477.471	997.12
477.69	1011.12
477.908	1093.12
478.127	1174.12
478.346	1069.12
478.564	1133.12
478.783	1100.12
479.002	1116.12
479.22	1279.12
479.439	1418.12
479.658	1217.12
479.876	1142.12
480.095	1229.12
480.313	1225.12
480.532	1143.12
480.751	1131.12
480.969	1138.12
481.188	1300.12
481.406	1314.12
481.624	1230.12
481.843	1119.12
482.061	1053.12
482.28	1223.12
482.498	1471.12
482.717	1371.12
482.935	1217.12
483.153	1149.12
483.372	1057.12
483.59	1067.12
483.808	1034.12
484.027	1036.12
484.245	1036.12
484.463	999.12
484.681	1022.12
484.9	1105.12
485.118	1182.12
485.336	1092.12
485.554	1064.12
485.772	1070.12
485.99	1179.12
486.209	1261.12
486.427	1230.12
486.645	1212.12
486.863	1254.12
487.081	1265.12
487.299	1391.12
487.517	1355.12
487.735	1249.12
487.953	1243.12
488.171	1295.12
488.389	1181.12
488.607	1115.12
488.825	1177.12
489.043	1295.12
489.261	1462.12
489.479	1569.12
489.696	1297.12
489.914	1214.12
490.132	1123.12
490.35	1173.12
490.568	1123.12
490.786	1134.12
491.003	1157.12
491.221	1179.12
491.439	1153.12
491.657	1145.12
491.874	1250.12
492.092	1523.12
492.31	1807.12
492.527	1730.12
492.745	1520.12
492.963	1348.12
493.18	1289.12
493.398	1328.12
493.615	1314.12
493.833	1275.12
494.05	1241.12
494.268	1253.12
494.485	1275.12
494.703	1237.12
494.92	1268.12
495.138	1226.12
495.355	1248.12
495.573	1264.12
495.79	1429.12
496.008	1813.12
496.225	1622.12
496.442	1370.12
496.66	1397.12
496.877	1455.12
497.094	1440.12
497.312	1331.12
497.529	1339.12
497.746	1345.12
497.963	1384.12
498.181	1472.12
498.398	1599.12
498.615	1636.12
498.832	1707.12
499.049	1707.12
499.267	1559.12
499.484	1551.12
499.701	1627.12
499.918	1763.12
500.135	1933.12
500.352	1907.12
500.569	1983.12
500.786	2043.12
501.003	2038.12
501.22	1875.12
501.437	1741.12
501.654	1666.12
501.871	1647.12
502.088	1665.12
502.305	1545.12
502.522	1546.12
502.739	1551.12
502.956	1390.12
503.172	1368.12
503.389	1280.12
503.606	1275.12
503.823	1325.12
504.04	1348.12
504.256	1336.12
504.473	1339.12
504.69	1385.12
504.907	1374.12
505.123	1380.12
505.34	1459.12
505.557	1420.12
505.773	1378.12
505.99	1327.12
506.207	1373.12
506.423	1318.12
506.64	1228.12
506.856	1281.12
507.073	1366.12
507.289	1375.12
507.506	1352.12
507.722	1435.12
507.939	1469.12
508.155	1467.12
508.372	1294.12
508.588	1267.12
508.805	1215.12
509.021	1251.12
509.238	1189.12
509.454	1175.12
509.67	1221.12
509.887	1220.12
510.103	1378.12
510.319	1332.12
510.536	1194.12
510.752	1113.12
510.968	1055.12
511.184	1043.12
511.401	1064.12
511.617	1025.12
511.833	1078.12
512.049	1090.12
512.265	1088.12
512.481	1139.12
512.698	1277.12
512.914	1411.12
513.13	1295.12
513.346	1151.12
513.562	1209.12
513.778	1171.12
513.994	1172.12
514.21	1260.12
514.426	1210.12
514.642	1157.12
514.858	1165.12
515.074	1225.12
515.29	1329.12
515.506	1443.12
515.721	1354.12
515.937	1243.12
516.153	1172.12
516.369	1189.12
516.585	1249.12
516.801	1382.12
517.016	1622.12
517.232	1563.12
517.448	1556.12
517.664	1396.12
517.879	1302.12
518.095	1283.12
518.311	1293.12
518.527	1337.12
518.742	1417.12
518.958	1473.12
519.173	1414.12
519.389	1373.12
519.605	1417.12
519.82	1523.12
520.036	1753.12
520.251	1712.12
520.467	1603.12
520.682	2390.12
520.898	2899.12
521.113	2775.12
521.329	1735.12
521.544	1563.12
521.76	1517.12
521.975	1309.12
522.19	1287.12
522.406	1340.12
522.621	1501.12
522.836	1536.12
523.052	1580.12
523.267	1322.12
523.482	1358.12
523.698	1415.12
523.913	1340.12
524.128	1192.12
524.343	1183.12
524.559	1203.12
524.774	1151.12
524.989	1183.12
525.204	1210.12
525.419	1323.12
525.634	1274.12
525.849	1265.12
526.064	1264.12
526.28	1297.12
526.495	1534.12
526.71	1539.12
526.925	1355.12
527.14	1427.12
527.355	1344.12
527.57	1132.12
527.785	1189.12
527.999	1124.12
528.214	1077.12
528.429	1110.12
528.644	1075.12
528.859	1023.12
529.074	1010.12
529.289	1021.12
529.503	1027.12
529.718	1041.12
529.933	1175.12
530.148	1208.12
530.363	1071.12
530.577	1047.12
530.792	1012.12
531.007	1014.12
531.221	985.12
531.436	993.12
531.651	963.12
531.865	998.12
532.08	1042.12
532.295	985.12
532.509	1034.12
532.724	1185.12
532.938	1330.12
533.153	1524.12
533.367	1229.12
533.582	1197.12
533.796	1099.12
534.011	1057.12
534.225	1087.12
534.44	1060.12
534.654	1119.12
534.868	1263.12
535.083	1121.12
535.297	1034.12
535.511	1050.12
535.726	1165.12
535.94	1092.12
536.154	1049.12
536.369	1005.12
536.583	1006.12
536.797	1012.12
537.011	1059.12
537.225	1136.12
537.44	1201.12
537.654	1037.12
537.868	1021.12
538.082	1021.12
538.296	1037.12
538.51	1106.12
538.724	1101.12
538.938	1070.12
539.153	967.12
539.367	993.12
539.581	991.12
539.795	1033.12
540.009	1129.12
540.222	1087.12
540.436	1091.12
540.65	1181.12
540.864	1175.12
541.078	1206.12
541.292	1358.12
541.506	1120.12
541.72	1094.12
541.934	1056.12
542.147	1046.12
542.361	1054.12
542.575	1077.12
542.789	1027.12
543.002	969.12
543.216	1076.12
543.43	948.12
543.644	953.12
543.857	932.12
544.071	944.12
544.285	972.12
544.498	939.12
544.712	919.12
544.925	1037.12
545.139	985.12
545.352	954.12
545.566	950.12
545.779	1040.12
545.993	963.12
546.206	880.12
546.42	907.12
546.633	888.12
546.847	891.12
547.06	866.12
547.274	888.12
547.487	906.12
547.7	965.12
547.914	1019.12
548.127	1116.12
548.34	1112.12
548.554	969.12
548.767	981.12
548.98	1064.12
549.193	992.12
549.407	1030.12
549.62	1199.12
549.833	1151.12
550.046	1157.12
550.259	1179.12
550.473	1041.12
550.686	980.12
550.899	1016.12
551.112	1000.12
551.325	1060.12
551.538	1091.12
551.751	947.12
551.964	897.12
552.177	927.12
552.39	855.12
552.603	891.12
552.816	961.12
553.029	905.12
553.242	852.12
553.455	923.12
553.667	1038.12
553.88	961.12
554.093	899.12
554.306	866.12
554.519	837.12
554.732	813.12
554.944	774.12
555.157	796.12
555.37	799.12
555.583	787.12
555.795	788.12
556.008	808.12
556.221	807.12
556.433	785.12
556.646	788.12
556.859	824.12
557.071	824.12
557.284	834.12
557.496	848.12
557.709	830.12
557.921	796.12
558.134	782.12
558.346	741.12
558.559	751.12
558.771	751.12
558.984	843.12
559.196	785.12
559.409	740.12
559.621	701.12
559.833	723.12
560.046	729.12
560.258	736.12
560.47	758.12
560.683	722.12
560.895	708.12
561.107	688.12
561.32	672.12
561.532	729.12
561.744	760.12
561.956	782.12
562.168	709.12
562.381	733.12
562.593	729.12
562.805	752.12
563.017	698.12
563.229	670.12
563.441	672.12
563.653	698.12
563.865	734.12
564.077	698.12
564.289	693.12
564.501	673.12
564.713	775.12
564.925	722.12
565.137	687.12
565.349	729.12
565.561	712.12
565.773	699.12
565.985	742.12
566.197	788.12
566.408	869.12
566.62	871.12
566.832	848.12
567.044	857.12
567.255	909.12
567.467	967.12
567.679	880.12
567.891	888.12
568.102	905.12
568.314	931.12
568.526	885.12
568.737	854.12
568.949	879.12
569.161	757.12
569.372	738.12
569.584	707.12
569.795	693.12
570.007	722.12
570.218	741.12
570.43	729.12
570.641	716.12
570.853	682.12
571.064	662.12
571.276	705.12
571.487	700.12
571.698	679.12
571.91	661.12
572.121	679.12
572.333	650.12
572.544	628.12
572.755	656.12
572.966	629.12
573.178	613.12
573.389	669.12
573.6	652.12
573.811	644.12
574.023	573.12
574.234	573.12
574.445	619.12
574.656	566.12
574.867	581.12
575.078	578.12
575.289	582.12
575.501	626.12
575.712	595.12
575.923	555.12
576.134	555.12
576.345	557.12
576.556	560.12
576.767	520.12
576.978	525.12
577.188	522.12
577.399	529.12
577.61	535.12
577.821	545.12
578.032	572.12
578.243	582.12
578.454	578.12
578.665	582.12
578.875	563.12
579.086	542.12
579.297	573.12
579.508	575.12
579.718	562.12
579.929	561.12
580.14	519.12
580.35	510.12
580.561	487.12
580.772	535.12
580.982	469.12
581.193	473.12
581.403	468.12
581.614	480.12
581.825	471.12
582.035	470.12
582.246	484.12
582.456	476.12
582.667	468.12
582.877	461.12
583.087	457.12
583.298	460.12
583.508	466.12
583.719	466.12
583.929	462.12
584.139	430.12
584.35	461.12
584.56	501.12
584.77	451.12
584.981	484.12
585.191	464.12
585.401	456.12
585.611	483.12
585.821	499.12
586.032	500.12
586.242	480.12
586.452	457.12
586.662	474.12
586.872	505.12
587.082	487.12
587.292	511.12
587.502	479.12
587.713	465.12
587.923	475.12
588.133	482.12
588.343	482.12
588.553	444.12
588.762	475.12
588.972	464.12
589.182	474.12
589.392	461.12
589.602	455.12
589.812	520.12
590.022	525.12
590.232	507.12
590.441	477.12
590.651	456.12
590.861	469.12
591.071	481.12
591.281	454.12
591.49	455.12
591.7	458.12
591.91	482.12
592.119	460.12
592.329	463.12
592.539	461.12
592.748	459.12
592.958	481.12
593.167	477.12
593.377	486.12
593.587	491.12
593.796	501.12
594.006	490.12
594.215	494.12
594.424	491.12
594.634	491.12
594.843	468.12
595.053	469.12
595.262	473.12
595.472	443.12
595.681	429.12
595.89	433.12
596.1	445.12
596.309	452.12
596.518	440.12
596.727	440.12
596.937	413.12
597.146	453.12
597.355	446.12
597.564	436.12
597.774	432.12
597.983	397.12
598.192	409.12
598.401	375.12
598.61	405.12
598.819	395.12
599.028	405.12
599.237	403.12
599.446	386.12
599.655	373.12
599.864	361.12
600.073	369.12
600.282	387.12
600.491	391.12
600.7	365.12
600.909	411.12
601.118	368.12
601.327	369.12
601.536	396.12
601.745	409.12
601.953	398.12
602.162	397.12
602.371	410.12
602.58	414.12
602.789	376.12
602.997	373.12
603.206	383.12
603.415	382.12
603.623	371.12
603.832	365.12
604.041	370.12
604.249	371.12
604.458	381.12
604.666	364.12
604.875	366.12
605.084	364.12
605.292	372.12
605.501	372.12
605.709	344.12
605.918	363.12
606.126	347.12
606.334	367.12
606.543	376.12
606.751	367.12
606.96	355.12
607.168	353.12
607.376	339.12
607.585	353.12
607.793	367.12
608.001	360.12
608.21	347.12
608.418	341.12
608.626	356.12
608.834	354.12
609.043	361.12
609.251	346.12
609.459	346.12
609.667	334.12
609.875	353.12
610.083	342.12
610.291	367.12
610.499	370.12
610.707	345.12
610.916	342.12
611.124	348.12
611.332	350.12
611.54	349.12
611.748	335.12
611.955	347.12
612.163	340.12
612.371	338.12
612.579	338.12
612.787	348.12
612.995	333.12
613.203	343.12
613.411	334.12
613.618	350.12
613.826	349.12
614.034	359.12
614.242	323.12
614.449	337.12
614.657	331.12
614.865	348.12
615.072	328.12
615.28	328.12
615.488	316.12
615.695	316.12
615.903	317.12
616.111	325.12
616.318	328.12
616.526	317.12
616.733	358.12
616.941	325.12
617.148	331.12
617.356	319.12
617.563	313.12
617.771	317.12
617.978	310.12
618.185	319.12
618.393	303.12
618.6	312.12
618.807	311.12
619.015	312.12
619.222	315.12
619.429	320.12
619.637	310.12
619.844	303.12
620.051	321.12
620.258	310.12
620.466	295.12
620.673	316.12
620.88	287.12
621.087	275.12
621.294	283.12
621.501	293.12
621.708	284.12
621.915	279.12
622.122	291.12
622.329	295.12
622.536	291.12
622.743	287.12
622.95	274.12
623.157	300.12
623.364	304.12
623.571	311.12
623.778	291.12
623.985	318.12
624.192	322.12
624.399	319.12
624.606	311.12
624.812	295.12
625.019	295.12
625.226	319.12
625.433	325.12
625.639	292.12
625.846	310.12
626.053	284.12
626.259	267.12
626.466	286.12
626.673	307.12
626.879	289.12
627.086	280.12
627.293	292.12
627.499	284.12
627.706	254.12
627.912	266.12
628.119	263.12
628.325	258.12
628.532	270.12
628.738	253.12
628.945	253.12
629.151	268.12
629.357	270.12
629.564	262.12
629.77	268.12
629.976	271.12
630.183	248.12
630.389	260.12
630.595	272.12
630.802	255.12
631.008	259.12
631.214	275.12
631.42	262.12
631.627	251.12
631.833	261.12
632.039	238.12
632.245	233.12
632.451	247.12
632.657	261.12
632.863	251.12
633.069	260.12
633.275	244.12
633.481	247.12
633.688	230.12
633.893	244.12
634.099	256.12
634.305	224.12
634.511	244.12
634.717	236.12
634.923	240.12
635.129	244.12
635.335	225.12
635.541	237.12
635.747	228.12
635.952	233.12
636.158	246.12
636.364	225.12
636.57	248.12
636.775	230.12
636.981	247.12
637.187	255.12
637.392	226.12
637.598	245.12
637.804	225.12
638.009	246.12
638.215	249.12
638.421	246.12
638.626	225.12
638.832	230.12
639.037	208.12
639.243	226.12
639.448	228.12
639.654	233.12
639.859	211.12
640.065	240.12
640.27	261.12
640.475	242.12
640.681	206.12
640.886	227.12
641.091	203.12
641.297	213.12
641.502	214.12
641.707	224.12
641.913	225.12
642.118	230.12
642.323	223.12
642.528	225.12
642.733	206.12
642.939	212.12
643.144	216.12
643.349	229.12
643.554	202.12
643.759	206.12
643.964	211.12
644.169	216.12
644.374	194.12
644.579	214.12
644.784	201.12
644.989	210.12
645.194	203.12
645.399	210.12
645.604	232.12
645.809	214.12
646.014	214.12
646.219	220.12
646.423	205.12
646.628	222.12
646.833	201.12
647.038	221.12
647.243	210.12
647.447	207.12
647.652	204.12
647.857	196.12
648.062	207.12
648.266	203.12
648.471	204.12
648.676	205.12
648.88	211.12
649.085	217.12
649.289	207.12
649.494	205.12
649.698	215.12
649.903	227.12
650.107	195.12
650.312	204.12
650.516	199.12
650.721	199.12
650.925	202.12
651.13	189.12
651.334	187.12
651.539	191.12
651.743	175.12
651.947	192.12
652.152	196.12
652.356	184.12
652.56	180.12
652.764	173.12
652.969	177.12
653.173	172.12
653.377	175.12
653.581	173.12
653.785	180.12
653.99	153.12
654.194	175.12
654.398	173.12
654.602	175.12
654.806	159.12
655.01	177.12
655.214	161.12
655.418	157.12
655.622	157.12
655.826	176.12
656.03	146.12
656.234	158.12
656.438	178.12
656.642	163.12
656.846	146.12
657.049	144.12
657.253	143.12
657.457	163.12
657.661	133.12
657.865	131.12
658.068	128.12
658.272	122.12
658.476	111.12
658.68	117.12
658.883	112.12
659.087	115.12
659.291	104.12
659.494	103.12
659.698	117.12
659.901	105.12
660.105	101.12
660.309	100.12
660.512	91.12
660.716	101.12
660.919	102.12
661.123	96.12
661.326	83.12
661.53	104.12
661.733	79.12
661.936	72.12
662.14	87.12
662.343	93.12
662.546	79.12
662.75	97.12
662.953	90.12
663.156	83.12
663.36	85.12
663.563	86.12
663.766	81.12
663.969	83.12
664.173	89.12
664.376	83.12
664.579	76.12
664.782	77.12
664.985	67.12
665.188	87.12
665.391	94.12
665.594	76.12
665.797	80.12
666	81.12
666.203	86.12
666.406	84.12
666.609	87.12
666.812	71.12
667.015	80.12
667.218	96.12
667.421	83.12
667.624	81.12
667.827	81.12
668.03	70.12
668.232	83.12
668.435	72.12
668.638	68.12
668.841	91.12
669.043	87.12
669.246	79.12
669.449	90.12
669.651	84.12
669.854	77.12
670.057	81.12
670.259	72.12
670.462	82.12
670.665	82.12
670.867	83.12
671.07	74.12
671.272	73.12
671.475	84.12
671.677	79.12
671.88	85.12
672.082	83.12
672.284	82.12
672.487	91.12
672.689	91.12
672.892	95.12
