Data from NickelSpatula.Lamp.E10.P2_HRD10591_11-59-20-525.txt Node
Date: Tue Jul 23 11:59:20 EDT 2019
User: cochatt
Spectrometer: HR+D1059
Trigger mode: 1
Integration Time (sec): 1.000000E-1
Scans to average: 1
Electric dark correction enabled: true
Nonlinearity correction enabled: false
Boxcar width: 0
XAxis mode: Wavelengths
Number of Pixels in Spectrum: 2048
>>>>>Begin Spectral Data<<<<<
223.165	-21.38
223.4	-21.38
223.635	-21.38
223.869	-20.38
224.104	-12.38
224.338	-9.38
224.573	-11.38
224.808	-11.38
225.042	-1.38
225.277	7.62
225.511	-16.38
225.746	-10.38
225.98	3.62
226.215	20.62
226.449	12.62
226.683	19.62
226.918	20.62
227.152	29.62
227.387	27.62
227.621	25.62
227.856	13.62
228.09	46.62
228.324	39.62
228.559	52.62
228.793	90.62
229.027	149.62
229.262	163.62
229.496	167.62
229.73	160.62
229.964	177.62
230.199	225.62
230.433	223.62
230.667	209.62
230.901	198.62
231.136	209.62
231.37	212.62
231.604	218.62
231.838	241.62
232.072	239.62
232.306	244.62
232.541	249.62
232.775	242.62
233.009	251.62
233.243	289.62
233.477	318.62
233.711	347.62
233.945	351.62
234.179	332.62
234.413	360.62
234.647	414.62
234.881	446.62
235.115	431.62
235.349	399.62
235.583	364.62
235.817	365.62
236.051	374.62
236.285	413.62
236.519	473.62
236.753	421.62
236.987	430.62
237.221	432.62
237.455	437.62
237.689	450.62
237.922	473.62
238.156	512.62
238.39	559.62
238.624	671.62
238.858	591.62
239.091	498.62
239.325	539.62
239.559	496.62
239.793	552.62
240.027	647.62
240.26	617.62
240.494	593.62
240.728	611.62
240.961	698.62
241.195	648.62
241.429	665.62
241.662	620.62
241.896	531.62
242.13	475.62
242.363	464.62
242.597	467.62
242.83	544.62
243.064	542.62
243.298	605.62
243.531	627.62
243.765	659.62
243.998	661.62
244.232	608.62
244.465	612.62
244.699	598.62
244.932	662.62
245.166	646.62
245.399	548.62
245.633	541.62
245.866	596.62
246.099	630.62
246.333	709.62
246.566	802.62
246.8	801.62
247.033	740.62
247.266	707.62
247.5	697.62
247.733	667.62
247.966	673.62
248.2	687.62
248.433	797.62
248.666	882.62
248.899	866.62
249.133	881.62
249.366	1025.62
249.599	1083.62
249.832	984.62
250.066	845.62
250.299	868.62
250.532	831.62
250.765	841.62
250.998	766.62
251.231	744.62
251.465	808.62
251.698	832.62
251.931	814.62
252.164	858.62
252.397	980.62
252.63	1096.62
252.863	1155.62
253.096	1252.62
253.329	1174.62
253.562	1131.62
253.795	1256.62
254.028	1373.62
254.261	1414.62
254.494	1243.62
254.727	1161.62
254.96	1149.62
255.193	1200.62
255.426	1149.62
255.659	879.62
255.892	792.62
256.124	858.62
256.357	1037.62
256.59	1227.62
256.823	1153.62
257.056	976.62
257.289	952.62
257.521	996.62
257.754	1152.62
257.987	1318.62
258.22	1108.62
258.452	1052.62
258.685	1183.62
258.918	1285.62
259.151	1229.62
259.383	1333.62
259.616	1539.62
259.849	1574.62
260.081	1730.62
260.314	1953.62
260.547	1513.62
260.779	1488.62
261.012	1752.62
261.244	1634.62
261.477	1681.62
261.71	1575.62
261.942	1320.62
262.175	1327.62
262.407	1239.62
262.64	1304.62
262.872	1553.62
263.105	1698.62
263.337	1758.62
263.57	1549.62
263.802	1040.62
264.035	909.62
264.267	883.62
264.499	751.62
264.732	722.62
264.964	693.62
265.197	729.62
265.429	761.62
265.661	797.62
265.894	856.62
266.126	913.62
266.358	1053.62
266.591	1240.62
266.823	1559.62
267.055	1423.62
267.287	1263.62
267.52	1287.62
267.752	1314.62
267.984	1435.62
268.216	1411.62
268.448	1143.62
268.681	1131.62
268.913	1215.62
269.145	1295.62
269.377	1315.62
269.609	1339.62
269.841	1204.62
270.073	1293.62
270.306	1345.62
270.538	1439.62
270.77	1413.62
271.002	1400.62
271.234	1477.62
271.466	1544.62
271.698	1464.62
271.93	1459.62
272.162	1451.62
272.394	1435.62
272.626	1430.62
272.858	1508.62
273.09	1508.62
273.322	1365.62
273.553	1307.62
273.785	1579.62
274.017	2053.62
274.249	2512.62
274.481	2594.62
274.713	2856.62
274.945	3250.62
275.176	3317.62
275.408	2937.62
275.64	2703.62
275.872	2697.62
276.104	2289.62
276.335	1963.62
276.567	1941.62
276.799	1993.62
277.031	2079.62
277.262	1628.62
277.494	1297.62
277.726	1219.62
277.957	1341.62
278.189	1491.62
278.421	1496.62
278.652	1449.62
278.884	1412.62
279.115	1276.62
279.347	1199.62
279.579	1256.62
279.81	1209.62
280.042	1191.62
280.273	1250.62
280.505	1138.62
280.736	1038.62
280.968	1026.62
281.199	1115.62
281.431	1244.62
281.662	1248.62
281.894	1190.62
282.125	1282.62
282.356	1353.62
282.588	1414.62
282.819	1256.62
283.051	1393.62
283.282	1731.62
283.513	2001.62
283.745	2203.62
283.976	2198.62
284.207	2025.62
284.439	2089.62
284.67	2054.62
284.901	1801.62
285.132	1971.62
285.364	2018.62
285.595	1910.62
285.826	2026.62
286.057	2067.62
286.288	2001.62
286.52	2051.62
286.751	2143.62
286.982	2118.62
287.213	1859.62
287.444	1805.62
287.675	1878.62
287.906	1864.62
288.138	1567.62
288.369	1373.62
288.6	1299.62
288.831	1355.62
289.062	1579.62
289.293	1693.62
289.524	1640.62
289.755	1597.62
289.986	1651.62
290.217	1435.62
290.448	1110.62
290.679	971.62
290.91	937.62
291.141	959.62
291.371	1033.62
291.602	989.62
291.833	988.62
292.064	1063.62
292.295	1264.62
292.526	1427.62
292.757	1459.62
292.987	1570.62
293.218	1591.62
293.449	1611.62
293.68	1698.62
293.91	1591.62
294.141	1630.62
294.372	1542.62
294.603	1437.62
294.833	1612.62
295.064	1888.62
295.295	1735.62
295.525	1293.62
295.756	1168.62
295.987	998.62
296.217	1015.62
296.448	1051.62
296.679	1128.62
296.909	1282.62
297.14	1307.62
297.37	1463.62
297.601	1353.62
297.831	1177.62
298.062	1241.62
298.292	1471.62
298.523	1630.62
298.753	1814.62
298.984	1619.62
299.214	1277.62
299.445	1102.62
299.675	1047.62
299.905	1061.62
300.136	1080.62
300.366	1196.62
300.597	1165.62
300.827	1071.62
301.057	988.62
301.288	1054.62
301.518	1127.62
301.748	1259.62
301.979	1373.62
302.209	1493.62
302.439	1489.62
302.669	1275.62
302.9	1264.62
303.13	1162.62
303.36	1067.62
303.59	1069.62
303.82	1101.62
304.051	1244.62
304.281	1376.62
304.511	1301.62
304.741	1146.62
304.971	1210.62
305.201	1297.62
305.431	1209.62
305.661	1065.62
305.891	1078.62
306.121	1101.62
306.352	966.62
306.582	888.62
306.812	868.62
307.042	852.62
307.272	807.62
307.502	814.62
307.731	879.62
307.961	911.62
308.191	886.62
308.421	784.62
308.651	808.62
308.881	748.62
309.111	772.62
309.341	818.62
309.571	917.62
309.8	941.62
310.03	954.62
310.26	1013.62
310.49	987.62
310.72	884.62
310.949	845.62
311.179	871.62
311.409	940.62
311.639	1077.62
311.868	1451.62
312.098	1850.62
312.328	2019.62
312.557	1891.62
312.787	1891.62
313.017	1680.62
313.246	1877.62
313.476	1986.62
313.706	1652.62
313.935	1300.62
314.165	1055.62
314.394	969.62
314.624	985.62
314.853	1026.62
315.083	1032.62
315.312	1029.62
315.542	1029.62
315.771	971.62
316.001	864.62
316.23	852.62
316.46	851.62
316.689	860.62
316.919	866.62
317.148	895.62
317.377	873.62
317.607	887.62
317.836	1003.62
318.065	1118.62
318.295	1239.62
318.524	1162.62
318.753	974.62
318.983	929.62
319.212	923.62
319.441	1004.62
319.67	1155.62
319.9	1243.62
320.129	1138.62
320.358	961.62
320.587	982.62
320.816	1028.62
321.046	1201.62
321.275	1371.62
321.504	1371.62
321.733	1288.62
321.962	1221.62
322.191	1189.62
322.42	1124.62
322.649	1166.62
322.878	1259.62
323.108	1229.62
323.337	1107.62
323.566	1106.62
323.795	1044.62
324.024	1004.62
324.253	979.62
324.482	1003.62
324.71	1145.62
324.939	1253.62
325.168	1140.62
325.397	950.62
325.626	955.62
325.855	965.62
326.084	901.62
326.313	891.62
326.542	837.62
326.77	895.62
326.999	934.62
327.228	985.62
327.457	1014.62
327.686	1038.62
327.914	910.62
328.143	840.62
328.372	851.62
328.6	842.62
328.829	853.62
329.058	919.62
329.287	890.62
329.515	927.62
329.744	899.62
329.972	836.62
330.201	823.62
330.43	847.62
330.658	943.62
330.887	1067.62
331.115	1046.62
331.344	1028.62
331.572	991.62
331.801	900.62
332.03	861.62
332.258	876.62
332.486	973.62
332.715	989.62
332.943	925.62
333.172	920.62
333.4	964.62
333.629	1033.62
333.857	1127.62
334.085	1120.62
334.314	1122.62
334.542	1051.62
334.771	964.62
334.999	959.62
335.227	934.62
335.455	939.62
335.684	1019.62
335.912	1205.62
336.14	1344.62
336.369	1286.62
336.597	1252.62
336.825	1403.62
337.053	1539.62
337.281	1232.62
337.51	1031.62
337.738	983.62
337.966	1083.62
338.194	1207.62
338.422	1128.62
338.65	975.62
338.878	853.62
339.106	915.62
339.334	1032.62
339.562	1101.62
339.79	991.62
340.018	965.62
340.246	1052.62
340.474	1223.62
340.702	1281.62
340.93	1339.62
341.158	1359.62
341.386	1150.62
341.614	1107.62
341.842	1137.62
342.07	1170.62
342.298	1370.62
342.526	1417.62
342.754	1203.62
342.981	1105.62
343.209	1071.62
343.437	1162.62
343.665	1209.62
343.893	1202.62
344.12	1401.62
344.348	1633.62
344.576	1435.62
344.804	1237.62
345.031	1062.62
345.259	976.62
345.487	1023.62
345.714	992.62
345.942	1131.62
346.17	1197.62
346.397	1150.62
346.625	1027.62
346.853	975.62
347.08	957.62
347.308	1005.62
347.535	1146.62
347.763	1172.62
347.99	1039.62
348.218	932.62
348.445	957.62
348.673	975.62
348.9	952.62
349.128	1070.62
349.355	1114.62
349.583	1071.62
349.81	1003.62
350.037	949.62
350.265	833.62
350.492	808.62
350.72	795.62
350.947	841.62
351.174	891.62
351.402	957.62
351.629	987.62
351.856	956.62
352.083	906.62
352.311	1016.62
352.538	1103.62
352.765	1203.62
352.992	1064.62
353.22	975.62
353.447	1004.62
353.674	985.62
353.901	959.62
354.128	991.62
354.355	1007.62
354.583	976.62
354.81	979.62
355.037	1047.62
355.264	1024.62
355.491	1124.62
355.718	1189.62
355.945	1159.62
356.172	1109.62
356.399	1124.62
356.626	1362.62
356.853	1683.62
357.08	1782.62
357.307	1805.62
357.534	1415.62
357.761	1442.62
357.988	1823.62
358.215	2163.62
358.441	2015.62
358.668	1729.62
358.895	1546.62
359.122	1252.62
359.349	1219.62
359.576	1357.62
359.802	1139.62
360.029	982.62
360.256	1061.62
360.483	1317.62
360.709	1674.62
360.936	1696.62
361.163	1506.62
361.39	1163.62
361.616	1055.62
361.843	1255.62
362.07	1543.62
362.296	1399.62
362.523	1081.62
362.749	947.62
362.976	1024.62
363.203	1261.62
363.429	1384.62
363.656	1126.62
363.882	1007.62
364.109	1014.62
364.335	1026.62
364.562	1012.62
364.788	1143.62
365.015	1344.62
365.241	1197.62
365.468	949.62
365.694	843.62
365.92	828.62
366.147	791.62
366.373	763.62
366.599	783.62
366.826	811.62
367.052	822.62
367.278	845.62
367.505	843.62
367.731	918.62
367.957	1054.62
368.184	1072.62
368.41	1025.62
368.636	1034.62
368.862	1091.62
369.089	1073.62
369.315	924.62
369.541	879.62
369.767	884.62
369.993	841.62
370.219	849.62
370.445	911.62
370.672	1037.62
370.898	1135.62
371.124	1115.62
371.35	985.62
371.576	920.62
371.802	1004.62
372.028	1206.62
372.254	1352.62
372.48	1195.62
372.706	1044.62
372.932	1126.62
373.158	1170.62
373.384	1368.62
373.61	1925.62
373.835	1913.62
374.061	1419.62
374.287	1180.62
374.513	1417.62
374.739	1716.62
374.965	1753.62
375.191	1720.62
375.416	1179.62
375.642	1059.62
375.868	1233.62
376.094	1393.62
376.319	1177.62
376.545	1366.62
376.771	1408.62
376.997	1183.62
377.222	877.62
377.448	764.62
377.674	741.62
377.899	752.62
378.125	756.62
378.35	784.62
378.576	797.62
378.802	869.62
379.027	942.62
379.253	920.62
379.478	927.62
379.704	1057.62
379.929	1120.62
380.155	1095.62
380.38	962.62
380.606	1007.62
380.831	1158.62
381.057	1035.62
381.282	972.62
381.507	1207.62
381.733	1543.62
381.958	1581.62
382.184	1687.62
382.409	1729.62
382.634	1731.62
382.86	1793.62
383.085	1466.62
383.31	1154.62
383.535	1219.62
383.761	1295.62
383.986	1180.62
384.211	1457.62
384.436	1407.62
384.662	1062.62
384.887	1027.62
385.112	1075.62
385.337	1053.62
385.562	994.62
385.787	1096.62
386.013	1264.62
386.238	1301.62
386.463	1062.62
386.688	991.62
386.913	984.62
387.138	916.62
387.363	983.62
387.588	961.62
387.813	1006.62
388.038	1104.62
388.263	1001.62
388.488	958.62
388.713	1160.62
388.938	1277.62
389.163	1045.62
389.387	925.62
389.612	937.62
389.837	975.62
390.062	985.62
390.287	1038.62
390.512	1007.62
390.736	928.62
390.961	917.62
391.186	865.62
391.411	829.62
391.636	884.62
391.86	934.62
392.085	1008.62
392.31	1012.62
392.534	937.62
392.759	975.62
392.984	1025.62
393.208	966.62
393.433	885.62
393.658	796.62
393.882	783.62
394.107	805.62
394.331	821.62
394.556	806.62
394.78	826.62
395.005	850.62
395.229	893.62
395.454	883.62
395.678	879.62
395.903	922.62
396.127	906.62
396.352	928.62
396.576	1002.62
396.801	1022.62
397.025	1125.62
397.249	1144.62
397.474	953.62
397.698	924.62
397.922	979.62
398.147	910.62
398.371	923.62
398.595	982.62
398.82	955.62
399.044	939.62
399.268	1000.62
399.492	1059.62
399.717	1075.62
399.941	1123.62
400.165	1096.62
400.389	1053.62
400.613	1072.62
400.837	1056.62
401.062	920.62
401.286	895.62
401.51	916.62
401.734	903.62
401.958	928.62
402.182	900.62
402.406	905.62
402.63	916.62
402.854	945.62
403.078	1069.62
403.302	1301.62
403.526	1408.62
403.75	1217.62
403.974	1051.62
404.198	1091.62
404.422	1243.62
404.645	1469.62
404.869	1624.62
405.093	1191.62
405.317	1016.62
405.541	993.62
405.765	1021.62
405.988	1040.62
406.212	1111.62
406.436	1311.62
406.66	1440.62
406.883	1156.62
407.107	1191.62
407.331	1403.62
407.555	1309.62
407.778	1103.62
408.002	1071.62
408.226	1052.62
408.449	1045.62
408.673	1003.62
408.896	937.62
409.12	919.62
409.344	912.62
409.567	901.62
409.791	907.62
410.014	902.62
410.238	881.62
410.461	897.62
410.685	900.62
410.908	921.62
411.132	916.62
411.355	969.62
411.578	951.62
411.802	920.62
412.025	961.62
412.249	1027.62
412.472	913.62
412.695	945.62
412.919	982.62
413.142	972.62
413.365	1075.62
413.589	1069.62
413.812	960.62
414.035	943.62
414.258	956.62
414.482	1046.62
414.705	1082.62
414.928	913.62
415.151	897.62
415.374	924.62
415.597	936.62
415.821	965.62
416.044	915.62
416.267	890.62
416.49	892.62
416.713	870.62
416.936	839.62
417.159	865.62
417.382	896.62
417.605	897.62
417.828	919.62
418.051	916.62
418.274	933.62
418.497	953.62
418.72	935.62
418.943	972.62
419.166	997.62
419.389	1023.62
419.611	1037.62
419.834	1052.62
420.057	1125.62
420.28	1151.62
420.503	1021.62
420.726	944.62
420.948	891.62
421.171	923.62
421.394	889.62
421.617	875.62
421.839	884.62
422.062	939.62
422.285	943.62
422.507	935.62
422.73	966.62
422.953	971.62
423.175	923.62
423.398	930.62
423.621	1041.62
423.843	1062.62
424.066	1005.62
424.288	921.62
424.511	926.62
424.733	939.62
424.956	969.62
425.178	1124.62
425.401	1280.62
425.623	1432.62
425.846	1168.62
426.068	1027.62
426.291	1127.62
426.513	1044.62
426.735	948.62
426.958	1016.62
427.18	1191.62
427.402	1567.62
427.625	1540.62
427.847	1223.62
428.069	892.62
428.292	913.62
428.514	897.62
428.736	886.62
428.958	953.62
429.181	1150.62
429.403	975.62
429.625	909.62
429.847	877.62
430.069	912.62
430.292	919.62
430.514	872.62
430.736	955.62
430.958	1217.62
431.18	1109.62
431.402	838.62
431.624	836.62
431.846	829.62
432.068	791.62
432.29	822.62
432.512	944.62
432.734	1249.62
432.956	1160.62
433.178	879.62
433.4	830.62
433.622	844.62
433.844	890.62
434.066	951.62
434.287	960.62
434.509	919.62
434.731	904.62
434.953	862.62
435.175	925.62
435.397	1059.62
435.618	935.62
435.84	823.62
436.062	823.62
436.284	824.62
436.505	784.62
436.727	769.62
436.949	790.62
437.17	841.62
437.392	854.62
437.614	834.62
437.835	835.62
438.057	836.62
438.278	989.62
438.5	1471.62
438.721	1431.62
438.943	958.62
439.165	824.62
439.386	788.62
439.608	801.62
439.829	778.62
440.05	814.62
440.272	852.62
440.493	1027.62
440.715	1244.62
440.936	990.62
441.158	898.62
441.379	879.62
441.6	1016.62
441.822	1045.62
442.043	905.62
442.264	869.62
442.486	881.62
442.707	890.62
442.928	853.62
443.149	889.62
443.371	923.62
443.592	945.62
443.813	926.62
444.034	895.62
444.255	901.62
444.476	941.62
444.698	948.62
444.919	962.62
445.14	1080.62
445.361	1049.62
445.582	951.62
445.803	924.62
446.024	941.62
446.245	967.62
446.466	923.62
446.687	893.62
446.908	902.62
447.129	847.62
447.35	811.62
447.571	792.62
447.792	814.62
448.013	803.62
448.234	773.62
448.455	778.62
448.675	785.62
448.896	813.62
449.117	801.62
449.338	833.62
449.559	824.62
449.779	882.62
450	864.62
450.221	834.62
450.442	831.62
450.662	781.62
450.883	819.62
451.104	816.62
451.324	791.62
451.545	812.62
451.766	803.62
451.986	777.62
452.207	771.62
452.428	799.62
452.648	783.62
452.869	815.62
453.089	860.62
453.31	839.62
453.53	744.62
453.751	756.62
453.971	738.62
454.192	787.62
454.412	798.62
454.633	774.62
454.853	748.62
455.073	751.62
455.294	735.62
455.514	747.62
455.734	771.62
455.955	823.62
456.175	859.62
456.395	763.62
456.616	718.62
456.836	715.62
457.056	718.62
457.276	737.62
457.497	722.62
457.717	708.62
457.937	742.62
458.157	728.62
458.377	733.62
458.598	783.62
458.818	773.62
459.038	823.62
459.258	819.62
459.478	838.62
459.698	906.62
459.918	900.62
460.138	882.62
460.358	912.62
460.578	879.62
460.798	889.62
461.018	889.62
461.238	854.62
461.458	880.62
461.678	849.62
461.898	943.62
462.118	921.62
462.338	941.62
462.558	963.62
462.777	1008.62
462.997	1019.62
463.217	1026.62
463.437	1070.62
463.657	1045.62
463.876	961.62
464.096	965.62
464.316	992.62
464.536	991.62
464.755	1030.62
464.975	1012.62
465.195	990.62
465.414	1031.62
465.634	969.62
465.854	960.62
466.073	896.62
466.293	875.62
466.512	936.62
466.732	1043.62
466.951	1053.62
467.171	960.62
467.391	903.62
467.61	897.62
467.829	934.62
468.049	961.62
468.268	881.62
468.488	888.62
468.707	923.62
468.927	1041.62
469.146	1161.62
469.365	1049.62
469.585	958.62
469.804	1021.62
470.023	1094.62
470.243	967.62
470.462	924.62
470.681	907.62
470.901	920.62
471.12	998.62
471.339	1007.62
471.558	947.62
471.777	957.62
471.997	1003.62
472.216	1142.62
472.435	1092.62
472.654	996.62
472.873	973.62
473.092	1018.62
473.311	1077.62
473.53	975.62
473.749	952.62
473.968	1017.62
474.187	991.62
474.406	934.62
474.625	914.62
474.844	949.62
475.063	1030.62
475.282	1058.62
475.501	1100.62
475.72	1151.62
475.939	1123.62
476.158	1119.62
476.377	1245.62
476.596	1475.62
476.814	1555.62
477.033	1273.62
477.252	1069.62
477.471	988.62
477.69	1022.62
477.908	1108.62
478.127	1189.62
478.346	1078.62
478.564	1133.62
478.783	1105.62
479.002	1107.62
479.22	1281.62
479.439	1409.62
479.658	1216.62
479.876	1127.62
480.095	1220.62
480.313	1235.62
480.532	1117.62
480.751	1115.62
480.969	1137.62
481.188	1305.62
481.406	1310.62
481.624	1291.62
481.843	1155.62
482.061	1092.62
482.28	1196.62
482.498	1492.62
482.717	1403.62
482.935	1227.62
483.153	1167.62
483.372	1065.62
483.59	1078.62
483.808	1061.62
484.027	1028.62
484.245	1013.62
484.463	977.62
484.681	1029.62
484.9	1126.62
485.118	1220.62
485.336	1125.62
485.554	1034.62
485.772	1100.62
485.99	1166.62
486.209	1259.62
486.427	1247.62
486.645	1200.62
486.863	1253.62
487.081	1230.62
487.299	1399.62
487.517	1343.62
487.735	1231.62
487.953	1252.62
488.171	1271.62
488.389	1187.62
488.607	1107.62
488.825	1183.62
489.043	1295.62
489.261	1504.62
489.479	1605.62
489.696	1311.62
489.914	1177.62
490.132	1126.62
490.35	1148.62
490.568	1169.62
490.786	1108.62
491.003	1149.62
491.221	1167.62
491.439	1144.62
491.657	1147.62
491.874	1224.62
492.092	1529.62
492.31	1871.62
492.527	1779.62
492.745	1558.62
492.963	1347.62
493.18	1310.62
493.398	1321.62
493.615	1318.62
493.833	1260.62
494.05	1238.62
494.268	1267.62
494.485	1259.62
494.703	1230.62
494.92	1250.62
495.138	1216.62
495.355	1242.62
495.573	1278.62
495.79	1411.62
496.008	1869.62
496.225	1614.62
496.442	1385.62
496.66	1368.62
496.877	1490.62
497.094	1413.62
497.312	1314.62
497.529	1343.62
497.746	1339.62
497.963	1415.62
498.181	1503.62
498.398	1602.62
498.615	1697.62
498.832	1737.62
499.049	1731.62
499.267	1551.62
499.484	1564.62
499.701	1655.62
499.918	1731.62
500.135	1865.62
500.352	1947.62
500.569	2011.62
500.786	2066.62
501.003	2070.62
501.22	1852.62
501.437	1726.62
501.654	1695.62
501.871	1654.62
502.088	1679.62
502.305	1541.62
502.522	1519.62
502.739	1531.62
502.956	1393.62
503.172	1389.62
503.389	1333.62
503.606	1325.62
503.823	1288.62
504.04	1341.62
504.256	1344.62
504.473	1349.62
504.69	1376.62
504.907	1410.62
505.123	1383.62
505.34	1479.62
505.557	1425.62
505.773	1363.62
505.99	1311.62
506.207	1407.62
506.423	1284.62
506.64	1223.62
506.856	1256.62
507.073	1377.62
507.289	1363.62
507.506	1350.62
507.722	1430.62
507.939	1465.62
508.155	1470.62
508.372	1307.62
508.588	1316.62
508.805	1262.62
509.021	1243.62
509.238	1226.62
509.454	1176.62
509.67	1155.62
509.887	1209.62
510.103	1324.62
510.319	1299.62
510.536	1176.62
510.752	1111.62
510.968	1069.62
511.184	1029.62
511.401	1037.62
511.617	1027.62
511.833	1044.62
512.049	1080.62
512.265	1107.62
512.481	1142.62
512.698	1264.62
512.914	1377.62
513.13	1215.62
513.346	1128.62
513.562	1183.62
513.778	1195.62
513.994	1165.62
514.21	1239.62
514.426	1232.62
514.642	1144.62
514.858	1157.62
515.074	1203.62
515.29	1283.62
515.506	1435.62
515.721	1359.62
515.937	1273.62
516.153	1163.62
516.369	1172.62
516.585	1261.62
516.801	1447.62
517.016	1666.62
517.232	1555.62
517.448	1568.62
517.664	1387.62
517.879	1320.62
518.095	1287.62
518.311	1278.62
518.527	1357.62
518.742	1413.62
518.958	1485.62
519.173	1403.62
519.389	1379.62
519.605	1421.62
519.82	1509.62
520.036	1811.62
520.251	1720.62
520.467	1643.62
520.682	2449.62
520.898	3041.62
521.113	2820.62
521.329	1769.62
521.544	1551.62
521.76	1537.62
521.975	1355.62
522.19	1279.62
522.406	1361.62
522.621	1508.62
522.836	1558.62
523.052	1600.62
523.267	1301.62
523.482	1329.62
523.698	1416.62
523.913	1383.62
524.128	1207.62
524.343	1197.62
524.559	1187.62
524.774	1136.62
524.989	1173.62
525.204	1193.62
525.419	1347.62
525.634	1250.62
525.849	1268.62
526.064	1260.62
526.28	1266.62
526.495	1521.62
526.71	1564.62
526.925	1395.62
527.14	1449.62
527.355	1376.62
527.57	1165.62
527.785	1183.62
527.999	1129.62
528.214	1105.62
528.429	1083.62
528.644	1069.62
528.859	1018.62
529.074	1014.62
529.289	984.62
529.503	993.62
529.718	1015.62
529.933	1198.62
530.148	1219.62
530.363	1051.62
530.577	1026.62
530.792	988.62
531.007	1007.62
531.221	988.62
531.436	969.62
531.651	1003.62
531.865	1022.62
532.08	1076.62
532.295	1007.62
532.509	1045.62
532.724	1211.62
532.938	1336.62
533.153	1576.62
533.367	1248.62
533.582	1205.62
533.796	1089.62
534.011	1049.62
534.225	1074.62
534.44	1091.62
534.654	1133.62
534.868	1289.62
535.083	1157.62
535.297	996.62
535.511	1056.62
535.726	1174.62
535.94	1079.62
536.154	1028.62
536.369	1005.62
536.583	1039.62
536.797	1054.62
537.011	1073.62
537.225	1151.62
537.44	1222.62
537.654	1047.62
537.868	1021.62
538.082	1020.62
538.296	977.62
538.51	1101.62
538.724	1115.62
538.938	1075.62
539.153	1000.62
539.367	969.62
539.581	1015.62
539.795	1081.62
540.009	1187.62
540.222	1053.62
540.436	1086.62
540.65	1196.62
540.864	1197.62
541.078	1230.62
541.292	1392.62
541.506	1124.62
541.72	1071.62
541.934	1053.62
542.147	1047.62
542.361	1069.62
542.575	1079.62
542.789	1061.62
543.002	968.62
543.216	1117.62
543.43	947.62
543.644	943.62
543.857	950.62
544.071	945.62
544.285	941.62
544.498	941.62
544.712	955.62
544.925	1020.62
545.139	936.62
545.352	907.62
545.566	917.62
545.779	1073.62
545.993	983.62
546.206	911.62
546.42	877.62
546.633	886.62
546.847	829.62
547.06	867.62
547.274	867.62
547.487	919.62
547.7	953.62
547.914	1027.62
548.127	1116.62
548.34	1112.62
548.554	956.62
548.767	1028.62
548.98	1069.62
549.193	998.62
549.407	1009.62
549.62	1185.62
549.833	1136.62
550.046	1151.62
550.259	1187.62
550.473	1056.62
550.686	995.62
550.899	987.62
551.112	1021.62
551.325	1029.62
551.538	1119.62
551.751	970.62
551.964	915.62
552.177	929.62
552.39	869.62
552.603	888.62
552.816	961.62
553.029	916.62
553.242	871.62
553.455	961.62
553.667	1011.62
553.88	973.62
554.093	886.62
554.306	839.62
554.519	808.62
554.732	796.62
554.944	774.62
555.157	789.62
555.37	761.62
555.583	786.62
555.795	781.62
556.008	801.62
556.221	819.62
556.433	764.62
556.646	785.62
556.859	816.62
557.071	847.62
557.284	823.62
557.496	868.62
557.709	827.62
557.921	794.62
558.134	748.62
558.346	710.62
558.559	737.62
558.771	775.62
558.984	859.62
559.196	779.62
559.409	756.62
559.621	709.62
559.833	702.62
560.046	729.62
560.258	735.62
560.47	752.62
560.683	712.62
560.895	662.62
561.107	664.62
561.32	694.62
561.532	685.62
561.744	780.62
561.956	808.62
562.168	711.62
562.381	719.62
562.593	738.62
562.805	773.62
563.017	710.62
563.229	691.62
563.441	651.62
563.653	701.62
563.865	712.62
564.077	703.62
564.289	681.62
564.501	689.62
564.713	747.62
564.925	732.62
565.137	707.62
565.349	679.62
565.561	711.62
565.773	764.62
565.985	759.62
566.197	791.62
566.408	839.62
566.62	844.62
566.832	817.62
567.044	846.62
567.255	932.62
567.467	982.62
567.679	887.62
567.891	878.62
568.102	884.62
568.314	911.62
568.526	857.62
568.737	848.62
568.949	877.62
569.161	769.62
569.372	705.62
569.584	705.62
569.795	683.62
570.007	690.62
570.218	755.62
570.43	711.62
570.641	732.62
570.853	679.62
571.064	658.62
571.276	705.62
571.487	705.62
571.698	669.62
571.91	676.62
572.121	705.62
572.333	633.62
572.544	641.62
572.755	632.62
572.966	600.62
573.178	626.62
573.389	662.62
573.6	661.62
573.811	629.62
574.023	599.62
574.234	589.62
574.445	574.62
574.656	570.62
574.867	592.62
575.078	588.62
575.289	582.62
575.501	623.62
575.712	573.62
575.923	580.62
576.134	544.62
576.345	535.62
576.556	549.62
576.767	537.62
576.978	533.62
577.188	528.62
577.399	529.62
577.61	551.62
577.821	543.62
578.032	572.62
578.243	579.62
578.454	557.62
578.665	564.62
578.875	563.62
579.086	571.62
579.297	585.62
579.508	580.62
579.718	564.62
579.929	559.62
580.14	544.62
580.35	519.62
580.561	501.62
580.772	484.62
580.982	486.62
581.193	471.62
581.403	472.62
581.614	462.62
581.825	480.62
582.035	473.62
582.246	470.62
582.456	468.62
582.667	467.62
582.877	468.62
583.087	467.62
583.298	468.62
583.508	469.62
583.719	445.62
583.929	435.62
584.139	448.62
584.35	475.62
584.56	469.62
584.77	479.62
584.981	463.62
585.191	461.62
585.401	473.62
585.611	495.62
585.821	474.62
586.032	495.62
586.242	472.62
586.452	451.62
586.662	462.62
586.872	514.62
587.082	492.62
587.292	493.62
587.502	460.62
587.713	468.62
587.923	465.62
588.133	509.62
588.343	479.62
588.553	463.62
588.762	458.62
588.972	466.62
589.182	452.62
589.392	461.62
589.602	467.62
589.812	476.62
590.022	507.62
590.232	503.62
590.441	470.62
590.651	450.62
590.861	467.62
591.071	472.62
591.281	467.62
591.49	451.62
591.7	449.62
591.91	456.62
592.119	452.62
592.329	456.62
592.539	462.62
592.748	468.62
592.958	439.62
593.167	486.62
593.377	484.62
593.587	486.62
593.796	496.62
594.006	477.62
594.215	505.62
594.424	477.62
594.634	513.62
594.843	495.62
595.053	451.62
595.262	430.62
595.472	448.62
595.681	433.62
595.89	433.62
596.1	451.62
596.309	432.62
596.518	432.62
596.727	430.62
596.937	429.62
597.146	443.62
597.355	466.62
597.564	447.62
597.774	424.62
597.983	420.62
598.192	419.62
598.401	414.62
598.61	409.62
598.819	411.62
599.028	404.62
599.237	372.62
599.446	381.62
599.655	391.62
599.864	373.62
600.073	373.62
600.282	380.62
600.491	372.62
600.7	385.62
600.909	377.62
601.118	408.62
601.327	377.62
601.536	384.62
601.745	379.62
601.953	416.62
602.162	389.62
602.371	417.62
602.58	412.62
602.789	373.62
602.997	377.62
603.206	387.62
603.415	384.62
603.623	335.62
603.832	370.62
604.041	365.62
604.249	383.62
604.458	362.62
604.666	372.62
604.875	330.62
605.084	343.62
605.292	369.62
605.501	375.62
605.709	404.62
605.918	349.62
606.126	347.62
606.334	358.62
606.543	352.62
606.751	376.62
606.96	360.62
607.168	343.62
607.376	340.62
607.585	342.62
607.793	353.62
608.001	352.62
608.21	350.62
608.418	367.62
608.626	352.62
608.834	358.62
609.043	339.62
609.251	341.62
609.459	320.62
609.667	352.62
609.875	365.62
610.083	341.62
610.291	352.62
610.499	349.62
610.707	335.62
610.916	337.62
611.124	355.62
611.332	345.62
611.54	340.62
611.748	350.62
611.955	341.62
612.163	317.62
612.371	311.62
612.579	332.62
612.787	330.62
612.995	321.62
613.203	335.62
613.411	326.62
613.618	330.62
613.826	363.62
614.034	371.62
614.242	320.62
614.449	326.62
614.657	332.62
614.865	317.62
615.072	317.62
615.28	329.62
615.488	313.62
615.695	333.62
615.903	320.62
616.111	319.62
616.318	331.62
616.526	327.62
616.733	335.62
616.941	311.62
617.148	311.62
617.356	325.62
617.563	310.62
617.771	338.62
617.978	309.62
618.185	327.62
618.393	305.62
618.6	336.62
618.807	324.62
619.015	336.62
619.222	315.62
619.429	341.62
619.637	302.62
619.844	307.62
620.051	321.62
620.258	312.62
620.466	280.62
620.673	296.62
620.88	286.62
621.087	280.62
621.294	291.62
621.501	290.62
621.708	283.62
621.915	312.62
622.122	292.62
622.329	292.62
622.536	279.62
622.743	287.62
622.95	287.62
623.157	302.62
623.364	313.62
623.571	317.62
623.778	297.62
623.985	301.62
624.192	317.62
624.399	319.62
624.606	309.62
624.812	313.62
625.019	291.62
625.226	303.62
625.433	316.62
625.639	286.62
625.846	294.62
626.053	269.62
626.259	267.62
626.466	268.62
626.673	292.62
626.879	281.62
627.086	274.62
627.293	283.62
627.499	284.62
627.706	262.62
627.912	262.62
628.119	259.62
628.325	261.62
628.532	245.62
628.738	240.62
628.945	269.62
629.151	270.62
629.357	257.62
629.564	264.62
629.77	255.62
629.976	241.62
630.183	267.62
630.389	270.62
630.595	257.62
630.802	269.62
631.008	255.62
631.214	241.62
631.42	239.62
631.627	256.62
631.833	254.62
632.039	246.62
632.245	241.62
632.451	255.62
632.657	246.62
632.863	232.62
633.069	222.62
633.275	242.62
633.481	249.62
633.688	247.62
633.893	230.62
634.099	248.62
634.305	252.62
634.511	248.62
634.717	247.62
634.923	251.62
635.129	222.62
635.335	211.62
635.541	216.62
635.747	250.62
635.952	243.62
636.158	231.62
636.364	242.62
636.57	244.62
636.775	236.62
636.981	240.62
637.187	253.62
637.392	201.62
637.598	216.62
637.804	232.62
638.009	235.62
638.215	217.62
638.421	220.62
638.626	221.62
638.832	212.62
639.037	202.62
639.243	223.62
639.448	227.62
639.654	238.62
639.859	235.62
640.065	220.62
640.27	259.62
640.475	217.62
640.681	222.62
640.886	215.62
641.091	226.62
641.297	222.62
641.502	232.62
641.707	237.62
641.913	208.62
642.118	217.62
642.323	238.62
642.528	206.62
642.733	208.62
642.939	229.62
643.144	221.62
643.349	227.62
643.554	213.62
643.759	198.62
643.964	216.62
644.169	210.62
644.374	220.62
644.579	202.62
644.784	213.62
644.989	217.62
645.194	209.62
645.399	196.62
645.604	199.62
645.809	215.62
646.014	211.62
646.219	200.62
646.423	209.62
646.628	216.62
646.833	196.62
647.038	201.62
647.243	200.62
647.447	210.62
647.652	205.62
647.857	211.62
648.062	220.62
648.266	212.62
648.471	206.62
648.676	207.62
648.88	200.62
649.085	227.62
649.289	216.62
649.494	222.62
649.698	216.62
649.903	218.62
650.107	211.62
650.312	184.62
650.516	186.62
650.721	212.62
650.925	189.62
651.13	179.62
651.334	192.62
651.539	177.62
651.743	189.62
651.947	204.62
652.152	174.62
652.356	189.62
652.56	165.62
652.764	179.62
652.969	167.62
653.173	173.62
653.377	176.62
653.581	177.62
653.785	152.62
653.99	164.62
654.194	153.62
654.398	165.62
654.602	159.62
654.806	160.62
655.01	158.62
655.214	165.62
655.418	153.62
655.622	160.62
655.826	155.62
656.03	150.62
656.234	151.62
656.438	167.62
656.642	164.62
656.846	180.62
657.049	142.62
657.253	153.62
657.457	147.62
657.661	145.62
657.865	140.62
658.068	119.62
658.272	109.62
658.476	127.62
658.68	105.62
658.883	110.62
659.087	115.62
659.291	125.62
659.494	111.62
659.698	105.62
659.901	104.62
660.105	104.62
660.309	109.62
660.512	97.62
660.716	113.62
660.919	100.62
661.123	115.62
661.326	97.62
661.53	90.62
661.733	81.62
661.936	72.62
662.14	76.62
662.343	79.62
662.546	91.62
662.75	94.62
662.953	88.62
663.156	87.62
663.36	91.62
663.563	103.62
663.766	76.62
663.969	85.62
664.173	86.62
664.376	85.62
664.579	88.62
664.782	79.62
664.985	99.62
665.188	93.62
665.391	74.62
665.594	78.62
665.797	84.62
666	76.62
666.203	81.62
666.406	80.62
666.609	72.62
666.812	97.62
667.015	79.62
667.218	83.62
667.421	82.62
667.624	75.62
667.827	78.62
668.03	86.62
668.232	85.62
668.435	75.62
668.638	79.62
668.841	73.62
669.043	66.62
669.246	73.62
669.449	85.62
669.651	78.62
669.854	72.62
670.057	81.62
670.259	80.62
670.462	80.62
670.665	80.62
670.867	76.62
671.07	85.62
671.272	71.62
671.475	91.62
671.677	75.62
671.88	71.62
672.082	80.62
672.284	79.62
672.487	84.62
672.689	78.62
672.892	89.62
