Data from NickelSpatula.Lamp.E10.P2_HRD10591_11-59-45-525.txt Node
Date: Tue Jul 23 11:59:45 EDT 2019
User: cochatt
Spectrometer: HR+D1059
Trigger mode: 1
Integration Time (sec): 1.000000E-1
Scans to average: 1
Electric dark correction enabled: true
Nonlinearity correction enabled: false
Boxcar width: 0
XAxis mode: Wavelengths
Number of Pixels in Spectrum: 2048
>>>>>Begin Spectral Data<<<<<
223.165	-27.25
223.4	-27.25
223.635	-27.25
223.869	-7.25
224.104	-15.25
224.338	-14.25
224.573	-19.25
224.808	-8.25
225.042	-12.25
225.277	-14.25
225.511	-12.25
225.746	9.75
225.98	12.75
226.215	17.75
226.449	4.75
226.683	26.75
226.918	28.75
227.152	29.75
227.387	59.75
227.621	38.75
227.856	51.75
228.09	39.75
228.324	48.75
228.559	62.75
228.793	96.75
229.027	152.75
229.262	156.75
229.496	149.75
229.73	169.75
229.964	193.75
230.199	213.75
230.433	233.75
230.667	217.75
230.901	223.75
231.136	212.75
231.37	217.75
231.604	214.75
231.838	230.75
232.072	254.75
232.306	243.75
232.541	244.75
232.775	253.75
233.009	259.75
233.243	306.75
233.477	312.75
233.711	360.75
233.945	335.75
234.179	337.75
234.413	359.75
234.647	400.75
234.881	477.75
235.115	447.75
235.349	420.75
235.583	369.75
235.817	374.75
236.051	371.75
236.285	406.75
236.519	474.75
236.753	439.75
236.987	431.75
237.221	418.75
237.455	419.75
237.689	447.75
237.922	457.75
238.156	494.75
238.39	551.75
238.624	666.75
238.858	606.75
239.091	478.75
239.325	526.75
239.559	467.75
239.793	550.75
240.027	696.75
240.26	620.75
240.494	592.75
240.728	588.75
240.961	679.75
241.195	656.75
241.429	645.75
241.662	625.75
241.896	518.75
242.13	504.75
242.363	448.75
242.597	462.75
242.83	558.75
243.064	532.75
243.298	596.75
243.531	628.75
243.765	652.75
243.998	640.75
244.232	607.75
244.465	631.75
244.699	592.75
244.932	680.75
245.166	638.75
245.399	542.75
245.633	535.75
245.866	580.75
246.099	639.75
246.333	730.75
246.566	814.75
246.8	798.75
247.033	779.75
247.266	717.75
247.5	701.75
247.733	691.75
247.966	674.75
248.2	679.75
248.433	777.75
248.666	861.75
248.899	861.75
249.133	912.75
249.366	1020.75
249.599	1088.75
249.832	953.75
250.066	861.75
250.299	858.75
250.532	825.75
250.765	806.75
250.998	783.75
251.231	721.75
251.465	819.75
251.698	855.75
251.931	842.75
252.164	842.75
252.397	954.75
252.63	1080.75
252.863	1188.75
253.096	1280.75
253.329	1178.75
253.562	1107.75
253.795	1250.75
254.028	1377.75
254.261	1465.75
254.494	1300.75
254.727	1182.75
254.96	1121.75
255.193	1198.75
255.426	1142.75
255.659	861.75
255.892	806.75
256.124	887.75
256.357	1056.75
256.59	1236.75
256.823	1176.75
257.056	999.75
257.289	938.75
257.521	981.75
257.754	1144.75
257.987	1316.75
258.22	1100.75
258.452	1010.75
258.685	1151.75
258.918	1320.75
259.151	1264.75
259.383	1345.75
259.616	1524.75
259.849	1602.75
260.081	1730.75
260.314	1924.75
260.547	1490.75
260.779	1506.75
261.012	1726.75
261.244	1641.75
261.477	1646.75
261.71	1556.75
261.942	1336.75
262.175	1299.75
262.407	1238.75
262.64	1314.75
262.872	1521.75
263.105	1670.75
263.337	1750.75
263.57	1592.75
263.802	1042.75
264.035	926.75
264.267	902.75
264.499	781.75
264.732	723.75
264.964	692.75
265.197	726.75
265.429	789.75
265.661	814.75
265.894	841.75
266.126	919.75
266.358	1065.75
266.591	1272.75
266.823	1533.75
267.055	1416.75
267.287	1292.75
267.52	1281.75
267.752	1345.75
267.984	1440.75
268.216	1424.75
268.448	1158.75
268.681	1126.75
268.913	1223.75
269.145	1279.75
269.377	1308.75
269.609	1304.75
269.841	1230.75
270.073	1329.75
270.306	1383.75
270.538	1384.75
270.77	1374.75
271.002	1444.75
271.234	1497.75
271.466	1532.75
271.698	1508.75
271.93	1473.75
272.162	1457.75
272.394	1437.75
272.626	1433.75
272.858	1505.75
273.09	1513.75
273.322	1360.75
273.553	1312.75
273.785	1518.75
274.017	2025.75
274.249	2507.75
274.481	2568.75
274.713	2860.75
274.945	3269.75
275.176	3425.75
275.408	2918.75
275.64	2672.75
275.872	2708.75
276.104	2274.75
276.335	1974.75
276.567	1942.75
276.799	2021.75
277.031	2063.75
277.262	1656.75
277.494	1271.75
277.726	1240.75
277.957	1351.75
278.189	1544.75
278.421	1489.75
278.652	1428.75
278.884	1403.75
279.115	1287.75
279.347	1238.75
279.579	1232.75
279.81	1239.75
280.042	1236.75
280.273	1297.75
280.505	1167.75
280.736	1049.75
280.968	1040.75
281.199	1112.75
281.431	1245.75
281.662	1225.75
281.894	1207.75
282.125	1263.75
282.356	1329.75
282.588	1411.75
282.819	1294.75
283.051	1404.75
283.282	1706.75
283.513	2015.75
283.745	2249.75
283.976	2167.75
284.207	2023.75
284.439	2154.75
284.67	2049.75
284.901	1797.75
285.132	1976.75
285.364	2019.75
285.595	1891.75
285.826	2035.75
286.057	2072.75
286.288	1982.75
286.52	2025.75
286.751	2137.75
286.982	2148.75
287.213	1833.75
287.444	1764.75
287.675	1865.75
287.906	1852.75
288.138	1546.75
288.369	1371.75
288.6	1318.75
288.831	1354.75
289.062	1590.75
289.293	1724.75
289.524	1618.75
289.755	1633.75
289.986	1687.75
290.217	1455.75
290.448	1114.75
290.679	981.75
290.91	940.75
291.141	944.75
291.371	1001.75
291.602	972.75
291.833	1013.75
292.064	1072.75
292.295	1201.75
292.526	1409.75
292.757	1497.75
292.987	1580.75
293.218	1636.75
293.449	1648.75
293.68	1728.75
293.91	1628.75
294.141	1628.75
294.372	1552.75
294.603	1461.75
294.833	1623.75
295.064	1871.75
295.295	1745.75
295.525	1337.75
295.756	1181.75
295.987	1054.75
296.217	1018.75
296.448	1064.75
296.679	1132.75
296.909	1260.75
297.14	1345.75
297.37	1480.75
297.601	1395.75
297.831	1201.75
298.062	1292.75
298.292	1443.75
298.523	1620.75
298.753	1818.75
298.984	1620.75
299.214	1312.75
299.445	1112.75
299.675	1093.75
299.905	1070.75
300.136	1106.75
300.366	1204.75
300.597	1190.75
300.827	1018.75
301.057	1037.75
301.288	1057.75
301.518	1141.75
301.748	1305.75
301.979	1416.75
302.209	1510.75
302.439	1518.75
302.669	1260.75
302.9	1276.75
303.13	1183.75
303.36	1129.75
303.59	1094.75
303.82	1128.75
304.051	1279.75
304.281	1371.75
304.511	1348.75
304.741	1177.75
304.971	1224.75
305.201	1352.75
305.431	1243.75
305.661	1091.75
305.891	1057.75
306.121	1120.75
306.352	972.75
306.582	895.75
306.812	872.75
307.042	909.75
307.272	818.75
307.502	807.75
307.731	881.75
307.961	952.75
308.191	904.75
308.421	825.75
308.651	846.75
308.881	781.75
309.111	793.75
309.341	838.75
309.571	911.75
309.8	922.75
310.03	969.75
310.26	1047.75
310.49	998.75
310.72	868.75
310.949	873.75
311.179	895.75
311.409	947.75
311.639	1128.75
311.868	1410.75
312.098	1846.75
312.328	1944.75
312.557	1861.75
312.787	1897.75
313.017	1697.75
313.246	1841.75
313.476	2012.75
313.706	1650.75
313.935	1296.75
314.165	1053.75
314.394	970.75
314.624	956.75
314.853	1026.75
315.083	1066.75
315.312	1060.75
315.542	1025.75
315.771	954.75
316.001	854.75
316.23	867.75
316.46	863.75
316.689	877.75
316.919	898.75
317.148	906.75
317.377	900.75
317.607	905.75
317.836	984.75
318.065	1135.75
318.295	1267.75
318.524	1173.75
318.753	976.75
318.983	937.75
319.212	953.75
319.441	1000.75
319.67	1145.75
319.9	1267.75
320.129	1202.75
320.358	1017.75
320.587	967.75
320.816	1030.75
321.046	1209.75
321.275	1392.75
321.504	1389.75
321.733	1314.75
321.962	1275.75
322.191	1216.75
322.42	1144.75
322.649	1175.75
322.878	1267.75
323.108	1209.75
323.337	1121.75
323.566	1146.75
323.795	1110.75
324.024	1038.75
324.253	982.75
324.482	994.75
324.71	1108.75
324.939	1240.75
325.168	1146.75
325.397	964.75
325.626	954.75
325.855	976.75
326.084	979.75
326.313	893.75
326.542	861.75
326.77	896.75
326.999	928.75
327.228	972.75
327.457	1044.75
327.686	1058.75
327.914	922.75
328.143	870.75
328.372	837.75
328.6	863.75
328.829	929.75
329.058	920.75
329.287	928.75
329.515	911.75
329.744	882.75
329.972	852.75
330.201	810.75
330.43	847.75
330.658	983.75
330.887	1108.75
331.115	1067.75
331.344	993.75
331.572	994.75
331.801	916.75
332.03	865.75
332.258	918.75
332.486	1004.75
332.715	1018.75
332.943	954.75
333.172	916.75
333.4	947.75
333.629	1042.75
333.857	1135.75
334.085	1103.75
334.314	1111.75
334.542	1068.75
334.771	958.75
334.999	959.75
335.227	915.75
335.455	940.75
335.684	1022.75
335.912	1221.75
336.14	1361.75
336.369	1272.75
336.597	1223.75
336.825	1365.75
337.053	1491.75
337.281	1252.75
337.51	1007.75
337.738	999.75
337.966	1088.75
338.194	1200.75
338.422	1124.75
338.65	968.75
338.878	893.75
339.106	941.75
339.334	1072.75
339.562	1107.75
339.79	1008.75
340.018	1008.75
340.246	1058.75
340.474	1229.75
340.702	1321.75
340.93	1337.75
341.158	1382.75
341.386	1143.75
341.614	1132.75
341.842	1133.75
342.07	1219.75
342.298	1412.75
342.526	1422.75
342.754	1264.75
342.981	1174.75
343.209	1091.75
343.437	1185.75
343.665	1235.75
343.893	1222.75
344.12	1413.75
344.348	1656.75
344.576	1503.75
344.804	1244.75
345.031	1077.75
345.259	1004.75
345.487	1037.75
345.714	1031.75
345.942	1127.75
346.17	1198.75
346.397	1146.75
346.625	1030.75
346.853	1004.75
347.08	957.75
347.308	1038.75
347.535	1147.75
347.763	1145.75
347.99	999.75
348.218	944.75
348.445	982.75
348.673	1012.75
348.9	980.75
349.128	1083.75
349.355	1119.75
349.583	1076.75
349.81	1007.75
350.037	942.75
350.265	858.75
350.492	814.75
350.72	825.75
350.947	848.75
351.174	945.75
351.402	1002.75
351.629	1002.75
351.856	954.75
352.083	914.75
352.311	994.75
352.538	1102.75
352.765	1264.75
352.992	1107.75
353.22	1018.75
353.447	1071.75
353.674	991.75
353.901	1012.75
354.128	1010.75
354.355	1064.75
354.583	1015.75
354.81	1008.75
355.037	1061.75
355.264	1057.75
355.491	1119.75
355.718	1257.75
355.945	1136.75
356.172	1150.75
356.399	1130.75
356.626	1368.75
356.853	1714.75
357.08	1833.75
357.307	1866.75
357.534	1447.75
357.761	1474.75
357.988	1858.75
358.215	2173.75
358.441	2072.75
358.668	1714.75
358.895	1582.75
359.122	1282.75
359.349	1262.75
359.576	1382.75
359.802	1132.75
360.029	959.75
360.256	1056.75
360.483	1348.75
360.709	1698.75
360.936	1752.75
361.163	1543.75
361.39	1182.75
361.616	1088.75
361.843	1312.75
362.07	1602.75
362.296	1452.75
362.523	1133.75
362.749	974.75
362.976	1020.75
363.203	1260.75
363.429	1412.75
363.656	1104.75
363.882	1013.75
364.109	1021.75
364.335	1047.75
364.562	998.75
364.788	1150.75
365.015	1364.75
365.241	1200.75
365.468	979.75
365.694	853.75
365.92	858.75
366.147	835.75
366.373	811.75
366.599	807.75
366.826	831.75
367.052	860.75
367.278	839.75
367.505	842.75
367.731	928.75
367.957	1087.75
368.184	1078.75
368.41	1031.75
368.636	1064.75
368.862	1097.75
369.089	1059.75
369.315	923.75
369.541	917.75
369.767	925.75
369.993	852.75
370.219	879.75
370.445	929.75
370.672	1059.75
370.898	1150.75
371.124	1166.75
371.35	1010.75
371.576	930.75
371.802	1004.75
372.028	1190.75
372.254	1383.75
372.48	1183.75
372.706	1075.75
372.932	1138.75
373.158	1206.75
373.384	1450.75
373.61	1904.75
373.835	1937.75
374.061	1421.75
374.287	1205.75
374.513	1478.75
374.739	1715.75
374.965	1794.75
375.191	1704.75
375.416	1167.75
375.642	1078.75
375.868	1220.75
376.094	1402.75
376.319	1221.75
376.545	1343.75
376.771	1410.75
376.997	1210.75
377.222	906.75
377.448	790.75
377.674	761.75
377.899	757.75
378.125	768.75
378.35	776.75
378.576	793.75
378.802	884.75
379.027	989.75
379.253	912.75
379.478	942.75
379.704	1096.75
379.929	1176.75
380.155	1137.75
380.38	962.75
380.606	1033.75
380.831	1141.75
381.057	1058.75
381.282	1021.75
381.507	1231.75
381.733	1534.75
381.958	1556.75
382.184	1717.75
382.409	1796.75
382.634	1776.75
382.86	1864.75
383.085	1487.75
383.31	1148.75
383.535	1237.75
383.761	1278.75
383.986	1180.75
384.211	1468.75
384.436	1446.75
384.662	1082.75
384.887	1042.75
385.112	1079.75
385.337	1086.75
385.562	1031.75
385.787	1132.75
386.013	1295.75
386.238	1304.75
386.463	1076.75
386.688	1062.75
386.913	984.75
387.138	923.75
387.363	983.75
387.588	1024.75
387.813	1020.75
388.038	1168.75
388.263	1031.75
388.488	996.75
388.713	1169.75
388.938	1294.75
389.163	1097.75
389.387	948.75
389.612	948.75
389.837	975.75
390.062	989.75
390.287	1050.75
390.512	1067.75
390.736	995.75
390.961	895.75
391.186	859.75
391.411	849.75
391.636	851.75
391.86	930.75
392.085	1068.75
392.31	1037.75
392.534	990.75
392.759	973.75
392.984	1030.75
393.208	1026.75
393.433	914.75
393.658	828.75
393.882	822.75
394.107	821.75
394.331	796.75
394.556	804.75
394.78	822.75
395.005	869.75
395.229	886.75
395.454	910.75
395.678	910.75
395.903	938.75
396.127	883.75
396.352	926.75
396.576	1015.75
396.801	1046.75
397.025	1158.75
397.249	1172.75
397.474	966.75
397.698	940.75
397.922	993.75
398.147	909.75
398.371	961.75
398.595	1028.75
398.82	949.75
399.044	1006.75
399.268	1032.75
399.492	1050.75
399.717	1056.75
399.941	1138.75
400.165	1085.75
400.389	1038.75
400.613	1102.75
400.837	1072.75
401.062	931.75
401.286	905.75
401.51	923.75
401.734	911.75
401.958	928.75
402.182	900.75
402.406	923.75
402.63	940.75
402.854	958.75
403.078	1070.75
403.302	1342.75
403.526	1404.75
403.75	1218.75
403.974	1063.75
404.198	1132.75
404.422	1286.75
404.645	1522.75
404.869	1670.75
405.093	1234.75
405.317	1006.75
405.541	1002.75
405.765	1056.75
405.988	1049.75
406.212	1144.75
406.436	1341.75
406.66	1496.75
406.883	1152.75
407.107	1172.75
407.331	1404.75
407.555	1359.75
407.778	1161.75
408.002	1080.75
408.226	1080.75
408.449	1089.75
408.673	1041.75
408.896	940.75
409.12	908.75
409.344	914.75
409.567	915.75
409.791	923.75
410.014	924.75
410.238	927.75
410.461	899.75
410.685	914.75
410.908	943.75
411.132	947.75
411.355	941.75
411.578	938.75
411.802	954.75
412.025	1012.75
412.249	997.75
412.472	975.75
412.695	971.75
412.919	943.75
413.142	994.75
413.365	1074.75
413.589	1088.75
413.812	972.75
414.035	933.75
414.258	960.75
414.482	1120.75
414.705	1102.75
414.928	952.75
415.151	879.75
415.374	892.75
415.597	931.75
415.821	949.75
416.044	908.75
416.267	900.75
416.49	862.75
416.713	864.75
416.936	895.75
417.159	890.75
417.382	921.75
417.605	886.75
417.828	946.75
418.051	932.75
418.274	948.75
418.497	947.75
418.72	922.75
418.943	985.75
419.166	1046.75
419.389	1064.75
419.611	1009.75
419.834	1056.75
420.057	1173.75
420.28	1180.75
420.503	1072.75
420.726	916.75
420.948	930.75
421.171	907.75
421.394	883.75
421.617	877.75
421.839	899.75
422.062	954.75
422.285	949.75
422.507	969.75
422.73	977.75
422.953	993.75
423.175	976.75
423.398	970.75
423.621	1042.75
423.843	1101.75
424.066	1008.75
424.288	975.75
424.511	928.75
424.733	908.75
424.956	987.75
425.178	1111.75
425.401	1324.75
425.623	1440.75
425.846	1168.75
426.068	1020.75
426.291	1168.75
426.513	1064.75
426.735	973.75
426.958	1022.75
427.18	1211.75
427.402	1554.75
427.625	1520.75
427.847	1227.75
428.069	932.75
428.292	905.75
428.514	920.75
428.736	892.75
428.958	977.75
429.181	1156.75
429.403	1009.75
429.625	916.75
429.847	870.75
430.069	905.75
430.292	935.75
430.514	925.75
430.736	974.75
430.958	1246.75
431.18	1145.75
431.402	883.75
431.624	818.75
431.846	812.75
432.068	800.75
432.29	832.75
432.512	958.75
432.734	1267.75
432.956	1168.75
433.178	871.75
433.4	884.75
433.622	879.75
433.844	899.75
434.066	933.75
434.287	954.75
434.509	913.75
434.731	928.75
434.953	880.75
435.175	942.75
435.397	1076.75
435.618	919.75
435.84	826.75
436.062	837.75
436.284	848.75
436.505	818.75
436.727	813.75
436.949	822.75
437.17	876.75
437.392	880.75
437.614	850.75
437.835	836.75
438.057	863.75
438.278	973.75
438.5	1432.75
438.721	1426.75
438.943	976.75
439.165	832.75
439.386	805.75
439.608	808.75
439.829	807.75
440.05	807.75
440.272	871.75
440.493	1025.75
440.715	1300.75
440.936	1016.75
441.158	861.75
441.379	886.75
441.6	991.75
441.822	1071.75
442.043	896.75
442.264	886.75
442.486	898.75
442.707	891.75
442.928	900.75
443.149	917.75
443.371	915.75
443.592	943.75
443.813	944.75
444.034	907.75
444.255	935.75
444.476	960.75
444.698	933.75
444.919	955.75
445.14	1064.75
445.361	1036.75
445.582	954.75
445.803	954.75
446.024	946.75
446.245	977.75
446.466	922.75
446.687	899.75
446.908	892.75
447.129	846.75
447.35	839.75
447.571	801.75
447.792	782.75
448.013	782.75
448.234	768.75
448.455	805.75
448.675	821.75
448.896	825.75
449.117	808.75
449.338	831.75
449.559	818.75
449.779	890.75
450	889.75
450.221	873.75
450.442	822.75
450.662	812.75
450.883	815.75
451.104	816.75
451.324	797.75
451.545	809.75
451.766	803.75
451.986	801.75
452.207	774.75
452.428	769.75
452.648	789.75
452.869	833.75
453.089	871.75
453.31	881.75
453.53	756.75
453.751	761.75
453.971	766.75
454.192	792.75
454.412	826.75
454.633	790.75
454.853	799.75
455.073	740.75
455.294	712.75
455.514	737.75
455.734	746.75
455.955	830.75
456.175	819.75
456.395	755.75
456.616	722.75
456.836	711.75
457.056	710.75
457.276	707.75
457.497	712.75
457.717	723.75
457.937	715.75
458.157	704.75
458.377	725.75
458.598	770.75
458.818	786.75
459.038	812.75
459.258	825.75
459.478	846.75
459.698	918.75
459.918	882.75
460.138	903.75
460.358	912.75
460.578	890.75
460.798	936.75
461.018	867.75
461.238	856.75
461.458	865.75
461.678	882.75
461.898	976.75
462.118	944.75
462.338	940.75
462.558	977.75
462.777	1001.75
462.997	1053.75
463.217	1044.75
463.437	1055.75
463.657	1038.75
463.876	991.75
464.096	988.75
464.316	973.75
464.536	968.75
464.755	1026.75
464.975	1048.75
465.195	1007.75
465.414	1041.75
465.634	1008.75
465.854	958.75
466.073	871.75
466.293	880.75
466.512	946.75
466.732	1052.75
466.951	1025.75
467.171	912.75
467.391	865.75
467.61	900.75
467.829	946.75
468.049	963.75
468.268	912.75
468.488	886.75
468.707	919.75
468.927	1074.75
469.146	1149.75
469.365	1042.75
469.585	982.75
469.804	1040.75
470.023	1135.75
470.243	994.75
470.462	960.75
470.681	919.75
470.901	936.75
471.12	1006.75
471.339	984.75
471.558	970.75
471.777	961.75
471.997	1036.75
472.216	1125.75
472.435	1081.75
472.654	977.75
472.873	956.75
473.092	1014.75
473.311	1057.75
473.53	968.75
473.749	951.75
473.968	1000.75
474.187	995.75
474.406	959.75
474.625	915.75
474.844	989.75
475.063	1040.75
475.282	1053.75
475.501	1098.75
475.72	1144.75
475.939	1148.75
476.158	1130.75
476.377	1296.75
476.596	1475.75
476.814	1567.75
477.033	1270.75
477.252	1070.75
477.471	990.75
477.69	1014.75
477.908	1123.75
478.127	1161.75
478.346	1069.75
478.564	1187.75
478.783	1088.75
479.002	1123.75
479.22	1308.75
479.439	1445.75
479.658	1232.75
479.876	1138.75
480.095	1231.75
480.313	1225.75
480.532	1141.75
480.751	1108.75
480.969	1170.75
481.188	1324.75
481.406	1336.75
481.624	1250.75
481.843	1147.75
482.061	1089.75
482.28	1235.75
482.498	1481.75
482.717	1446.75
482.935	1214.75
483.153	1158.75
483.372	1078.75
483.59	1088.75
483.808	1028.75
484.027	1047.75
484.245	1000.75
484.463	999.75
484.681	1046.75
484.9	1114.75
485.118	1194.75
485.336	1135.75
485.554	1010.75
485.772	1068.75
485.99	1176.75
486.209	1265.75
486.427	1259.75
486.645	1242.75
486.863	1261.75
487.081	1254.75
487.299	1421.75
487.517	1419.75
487.735	1265.75
487.953	1256.75
488.171	1290.75
488.389	1199.75
488.607	1166.75
488.825	1172.75
489.043	1285.75
489.261	1492.75
489.479	1598.75
489.696	1344.75
489.914	1225.75
490.132	1114.75
490.35	1134.75
490.568	1135.75
490.786	1150.75
491.003	1190.75
491.221	1156.75
491.439	1145.75
491.657	1118.75
491.874	1259.75
492.092	1536.75
492.31	1887.75
492.527	1801.75
492.745	1578.75
492.963	1346.75
493.18	1327.75
493.398	1338.75
493.615	1298.75
493.833	1264.75
494.05	1247.75
494.268	1280.75
494.485	1277.75
494.703	1217.75
494.92	1269.75
495.138	1216.75
495.355	1224.75
495.573	1289.75
495.79	1369.75
496.008	1918.75
496.225	1636.75
496.442	1396.75
496.66	1378.75
496.877	1450.75
497.094	1406.75
497.312	1349.75
497.529	1349.75
497.746	1362.75
497.963	1384.75
498.181	1530.75
498.398	1624.75
498.615	1666.75
498.832	1757.75
499.049	1696.75
499.267	1555.75
499.484	1562.75
499.701	1643.75
499.918	1780.75
500.135	1888.75
500.352	1905.75
500.569	2011.75
500.786	2086.75
501.003	2084.75
501.22	1857.75
501.437	1796.75
501.654	1672.75
501.871	1654.75
502.088	1679.75
502.305	1551.75
502.522	1547.75
502.739	1544.75
502.956	1392.75
503.172	1383.75
503.389	1330.75
503.606	1284.75
503.823	1286.75
504.04	1343.75
504.256	1340.75
504.473	1369.75
504.69	1371.75
504.907	1430.75
505.123	1370.75
505.34	1428.75
505.557	1426.75
505.773	1354.75
505.99	1320.75
506.207	1373.75
506.423	1260.75
506.64	1225.75
506.856	1262.75
507.073	1383.75
507.289	1326.75
507.506	1372.75
507.722	1426.75
507.939	1462.75
508.155	1479.75
508.372	1306.75
508.588	1276.75
508.805	1264.75
509.021	1212.75
509.238	1206.75
509.454	1196.75
509.67	1218.75
509.887	1193.75
510.103	1362.75
510.319	1369.75
510.536	1204.75
510.752	1102.75
510.968	1063.75
511.184	1020.75
511.401	1038.75
511.617	1020.75
511.833	1052.75
512.049	1092.75
512.265	1120.75
512.481	1144.75
512.698	1254.75
512.914	1374.75
513.13	1271.75
513.346	1143.75
513.562	1216.75
513.778	1167.75
513.994	1214.75
514.21	1300.75
514.426	1239.75
514.642	1184.75
514.858	1156.75
515.074	1220.75
515.29	1299.75
515.506	1449.75
515.721	1346.75
515.937	1303.75
516.153	1201.75
516.369	1191.75
516.585	1249.75
516.801	1424.75
517.016	1678.75
517.232	1596.75
517.448	1520.75
517.664	1386.75
517.879	1282.75
518.095	1305.75
518.311	1308.75
518.527	1333.75
518.742	1425.75
518.958	1491.75
519.173	1440.75
519.389	1396.75
519.605	1457.75
519.82	1529.75
520.036	1792.75
520.251	1728.75
520.467	1659.75
520.682	2533.75
520.898	3094.75
521.113	2897.75
521.329	1774.75
521.544	1534.75
521.76	1556.75
521.975	1345.75
522.19	1302.75
522.406	1324.75
522.621	1510.75
522.836	1544.75
523.052	1621.75
523.267	1321.75
523.482	1340.75
523.698	1431.75
523.913	1381.75
524.128	1246.75
524.343	1176.75
524.559	1193.75
524.774	1173.75
524.989	1178.75
525.204	1196.75
525.419	1349.75
525.634	1236.75
525.849	1235.75
526.064	1282.75
526.28	1328.75
526.495	1440.75
526.71	1562.75
526.925	1413.75
527.14	1470.75
527.355	1432.75
527.57	1188.75
527.785	1253.75
527.999	1164.75
528.214	1094.75
528.429	1102.75
528.644	1080.75
528.859	1055.75
529.074	996.75
529.289	1012.75
529.503	988.75
529.718	1033.75
529.933	1222.75
530.148	1298.75
530.363	1090.75
530.577	1035.75
530.792	1013.75
531.007	1046.75
531.221	984.75
531.436	983.75
531.651	1031.75
531.865	1044.75
532.08	1034.75
532.295	1008.75
532.509	1060.75
532.724	1216.75
532.938	1383.75
533.153	1604.75
533.367	1253.75
533.582	1232.75
533.796	1121.75
534.011	1061.75
534.225	1078.75
534.44	1092.75
534.654	1125.75
534.868	1320.75
535.083	1143.75
535.297	1027.75
535.511	1050.75
535.726	1162.75
535.94	1090.75
536.154	1037.75
536.369	1021.75
536.583	1001.75
536.797	1041.75
537.011	1070.75
537.225	1157.75
537.44	1220.75
537.654	1037.75
537.868	1032.75
538.082	1044.75
538.296	1030.75
538.51	1107.75
538.724	1150.75
538.938	1072.75
539.153	1000.75
539.367	999.75
539.581	1024.75
539.795	1059.75
540.009	1144.75
540.222	1068.75
540.436	1087.75
540.65	1177.75
540.864	1200.75
541.078	1242.75
541.292	1404.75
541.506	1138.75
541.72	1123.75
541.934	1080.75
542.147	1048.75
542.361	1024.75
542.575	1104.75
542.789	1075.75
543.002	967.75
543.216	1119.75
543.43	976.75
543.644	953.75
543.857	954.75
544.071	937.75
544.285	931.75
544.498	929.75
544.712	961.75
544.925	1002.75
545.139	963.75
545.352	900.75
545.566	934.75
545.779	1060.75
545.993	998.75
546.206	886.75
546.42	882.75
546.633	901.75
546.847	865.75
547.06	867.75
547.274	872.75
547.487	914.75
547.7	958.75
547.914	1013.75
548.127	1163.75
548.34	1133.75
548.554	984.75
548.767	1026.75
548.98	1052.75
549.193	997.75
549.407	1007.75
549.62	1158.75
549.833	1105.75
550.046	1144.75
550.259	1166.75
550.473	1070.75
550.686	980.75
550.899	1001.75
551.112	985.75
551.325	1073.75
551.538	1095.75
551.751	949.75
551.964	893.75
552.177	899.75
552.39	897.75
552.603	905.75
552.816	930.75
553.029	883.75
553.242	886.75
553.455	959.75
553.667	1055.75
553.88	1008.75
554.093	912.75
554.306	848.75
554.519	826.75
554.732	800.75
554.944	774.75
555.157	765.75
555.37	773.75
555.583	761.75
555.795	803.75
556.008	828.75
556.221	853.75
556.433	808.75
556.646	770.75
556.859	799.75
557.071	848.75
557.284	809.75
557.496	876.75
557.709	850.75
557.921	814.75
558.134	764.75
558.346	737.75
558.559	768.75
558.771	788.75
558.984	854.75
559.196	791.75
559.409	761.75
559.621	733.75
559.833	760.75
560.046	716.75
560.258	736.75
560.47	744.75
560.683	716.75
560.895	680.75
561.107	697.75
561.32	676.75
561.532	699.75
561.744	800.75
561.956	799.75
562.168	729.75
562.381	701.75
562.593	717.75
562.805	764.75
563.017	724.75
563.229	660.75
563.441	692.75
563.653	679.75
563.865	705.75
564.077	751.75
564.289	674.75
564.501	696.75
564.713	744.75
564.925	734.75
565.137	704.75
565.349	688.75
565.561	708.75
565.773	730.75
565.985	750.75
566.197	782.75
566.408	848.75
566.62	865.75
566.832	831.75
567.044	850.75
567.255	936.75
567.467	962.75
567.679	900.75
567.891	871.75
568.102	888.75
568.314	920.75
568.526	869.75
568.737	836.75
568.949	882.75
569.161	773.75
569.372	742.75
569.584	688.75
569.795	673.75
570.007	723.75
570.218	766.75
570.43	726.75
570.641	701.75
570.853	680.75
571.064	686.75
571.276	728.75
571.487	720.75
571.698	668.75
571.91	675.75
572.121	670.75
572.333	643.75
572.544	608.75
572.755	658.75
572.966	615.75
573.178	612.75
573.389	669.75
573.6	628.75
573.811	634.75
574.023	591.75
574.234	573.75
574.445	594.75
574.656	565.75
574.867	582.75
575.078	605.75
575.289	605.75
575.501	656.75
575.712	617.75
575.923	584.75
576.134	558.75
576.345	554.75
576.556	565.75
576.767	550.75
576.978	537.75
577.188	537.75
577.399	495.75
577.61	540.75
577.821	536.75
578.032	561.75
578.243	594.75
578.454	591.75
578.665	572.75
578.875	567.75
579.086	573.75
579.297	579.75
579.508	579.75
579.718	573.75
579.929	572.75
580.14	567.75
580.35	520.75
580.561	480.75
580.772	476.75
580.982	475.75
581.193	456.75
581.403	487.75
581.614	466.75
581.825	474.75
582.035	476.75
582.246	480.75
582.456	471.75
582.667	481.75
582.877	476.75
583.087	469.75
583.298	468.75
583.508	479.75
583.719	444.75
583.929	451.75
584.139	480.75
584.35	466.75
584.56	497.75
584.77	466.75
584.981	478.75
585.191	472.75
585.401	459.75
585.611	498.75
585.821	496.75
586.032	485.75
586.242	477.75
586.452	476.75
586.662	451.75
586.872	500.75
587.082	499.75
587.292	483.75
587.502	478.75
587.713	458.75
587.923	484.75
588.133	479.75
588.343	488.75
588.553	452.75
588.762	441.75
588.972	465.75
589.182	481.75
589.392	465.75
589.602	470.75
589.812	501.75
590.022	519.75
590.232	502.75
590.441	466.75
590.651	457.75
590.861	464.75
591.071	475.75
591.281	450.75
591.49	466.75
591.7	465.75
591.91	471.75
592.119	448.75
592.329	454.75
592.539	481.75
592.748	475.75
592.958	463.75
593.167	487.75
593.377	487.75
593.587	501.75
593.796	486.75
594.006	474.75
594.215	477.75
594.424	528.75
594.634	508.75
594.843	488.75
595.053	480.75
595.262	432.75
595.472	453.75
595.681	428.75
595.89	432.75
596.1	432.75
596.309	450.75
596.518	416.75
596.727	418.75
596.937	420.75
597.146	453.75
597.355	463.75
597.564	447.75
597.774	432.75
597.983	417.75
598.192	410.75
598.401	396.75
598.61	394.75
598.819	401.75
599.028	401.75
599.237	406.75
599.446	361.75
599.655	378.75
599.864	371.75
600.073	386.75
600.282	394.75
600.491	394.75
600.7	397.75
600.909	399.75
601.118	408.75
601.327	369.75
601.536	387.75
601.745	399.75
601.953	416.75
602.162	393.75
602.371	407.75
602.58	429.75
602.789	394.75
602.997	382.75
603.206	386.75
603.415	382.75
603.623	352.75
603.832	361.75
604.041	388.75
604.249	386.75
604.458	400.75
604.666	357.75
604.875	358.75
605.084	344.75
605.292	358.75
605.501	365.75
605.709	378.75
605.918	370.75
606.126	373.75
606.334	358.75
606.543	368.75
606.751	377.75
606.96	366.75
607.168	340.75
607.376	353.75
607.585	348.75
607.793	370.75
608.001	349.75
608.21	354.75
608.418	366.75
608.626	372.75
608.834	350.75
609.043	345.75
609.251	356.75
609.459	355.75
609.667	340.75
609.875	374.75
610.083	345.75
610.291	356.75
610.499	354.75
610.707	337.75
610.916	345.75
611.124	330.75
611.332	347.75
611.54	335.75
611.748	356.75
611.955	349.75
612.163	354.75
612.371	333.75
612.579	337.75
612.787	350.75
612.995	329.75
613.203	341.75
613.411	324.75
613.618	318.75
613.826	362.75
614.034	383.75
614.242	344.75
614.449	327.75
614.657	327.75
614.865	325.75
615.072	321.75
615.28	328.75
615.488	352.75
615.695	314.75
615.903	338.75
616.111	331.75
616.318	329.75
616.526	321.75
616.733	333.75
616.941	333.75
617.148	330.75
617.356	314.75
617.563	334.75
617.771	324.75
617.978	318.75
618.185	319.75
618.393	311.75
618.6	310.75
618.807	330.75
619.015	321.75
619.222	321.75
619.429	326.75
619.637	298.75
619.844	293.75
620.051	323.75
620.258	324.75
620.466	292.75
620.673	286.75
620.88	310.75
621.087	310.75
621.294	290.75
621.501	311.75
621.708	310.75
621.915	294.75
622.122	287.75
622.329	301.75
622.536	305.75
622.743	292.75
622.95	298.75
623.157	293.75
623.364	288.75
623.571	302.75
623.778	297.75
623.985	332.75
624.192	328.75
624.399	307.75
624.606	293.75
624.812	280.75
625.019	315.75
625.226	332.75
625.433	291.75
625.639	290.75
625.846	265.75
626.053	288.75
626.259	289.75
626.466	310.75
626.673	308.75
626.879	285.75
627.086	294.75
627.293	266.75
627.499	263.75
627.706	277.75
627.912	244.75
628.119	282.75
628.325	269.75
628.532	286.75
628.738	263.75
628.945	267.75
629.151	266.75
629.357	258.75
629.564	254.75
629.77	263.75
629.976	263.75
630.183	258.75
630.389	268.75
630.595	265.75
630.802	250.75
631.008	260.75
631.214	271.75
631.42	258.75
631.627	243.75
631.833	241.75
632.039	252.75
632.245	255.75
632.451	245.75
632.657	238.75
632.863	238.75
633.069	256.75
633.275	251.75
633.481	252.75
633.688	243.75
633.893	251.75
634.099	245.75
634.305	226.75
634.511	242.75
634.717	244.75
634.923	241.75
635.129	231.75
635.335	232.75
635.541	248.75
635.747	246.75
635.952	259.75
636.158	252.75
636.364	242.75
636.57	236.75
636.775	237.75
636.981	233.75
637.187	229.75
637.392	228.75
637.598	232.75
637.804	228.75
638.009	236.75
638.215	228.75
638.421	232.75
638.626	234.75
638.832	242.75
639.037	220.75
639.243	236.75
639.448	225.75
639.654	246.75
639.859	214.75
640.065	219.75
640.27	247.75
640.475	226.75
640.681	228.75
640.886	226.75
641.091	213.75
641.297	221.75
641.502	231.75
641.707	224.75
641.913	204.75
642.118	227.75
642.323	231.75
642.528	220.75
642.733	214.75
642.939	227.75
643.144	207.75
643.349	211.75
643.554	224.75
643.759	213.75
643.964	231.75
644.169	217.75
644.374	200.75
644.579	224.75
644.784	221.75
644.989	214.75
645.194	200.75
645.399	229.75
645.604	199.75
645.809	218.75
646.014	228.75
646.219	221.75
646.423	191.75
646.628	210.75
646.833	214.75
647.038	220.75
647.243	207.75
647.447	210.75
647.652	204.75
647.857	205.75
648.062	200.75
648.266	217.75
648.471	215.75
648.676	194.75
648.88	217.75
649.085	197.75
649.289	213.75
649.494	203.75
649.698	221.75
649.903	217.75
650.107	209.75
650.312	186.75
650.516	208.75
650.721	200.75
650.925	186.75
651.13	189.75
651.334	189.75
651.539	187.75
651.743	199.75
651.947	210.75
652.152	182.75
652.356	180.75
652.56	190.75
652.764	174.75
652.969	182.75
653.173	177.75
653.377	184.75
653.581	164.75
653.785	174.75
653.99	152.75
654.194	165.75
654.398	157.75
654.602	163.75
654.806	164.75
655.01	164.75
655.214	137.75
655.418	175.75
655.622	158.75
655.826	164.75
656.03	153.75
656.234	184.75
656.438	175.75
656.642	151.75
656.846	183.75
657.049	174.75
657.253	158.75
657.457	148.75
657.661	137.75
657.865	136.75
658.068	147.75
658.272	126.75
658.476	131.75
658.68	114.75
658.883	134.75
659.087	118.75
659.291	100.75
659.494	109.75
659.698	130.75
659.901	113.75
660.105	119.75
660.309	112.75
660.512	104.75
660.716	106.75
660.919	92.75
661.123	88.75
661.326	111.75
661.53	98.75
661.733	84.75
661.936	87.75
662.14	100.75
662.343	92.75
662.546	98.75
662.75	97.75
662.953	91.75
663.156	95.75
663.36	74.75
663.563	84.75
663.766	90.75
663.969	95.75
664.173	94.75
664.376	92.75
664.579	66.75
664.782	76.75
664.985	77.75
665.188	74.75
665.391	82.75
665.594	85.75
665.797	79.75
666	89.75
666.203	78.75
666.406	79.75
666.609	87.75
666.812	77.75
667.015	74.75
667.218	74.75
667.421	84.75
667.624	88.75
667.827	91.75
668.03	93.75
668.232	84.75
668.435	88.75
668.638	90.75
668.841	78.75
669.043	70.75
669.246	81.75
669.449	62.75
669.651	84.75
669.854	81.75
670.057	90.75
670.259	94.75
670.462	94.75
670.665	87.75
670.867	87.75
671.07	73.75
671.272	81.75
671.475	73.75
671.677	80.75
671.88	87.75
672.082	84.75
672.284	86.75
672.487	83.75
672.689	78.75
672.892	93.75
