Data from NickelSpatula.Lamp.E10.P2_HRD10591_11-59-57-524.txt Node
Date: Tue Jul 23 11:59:57 EDT 2019
User: cochatt
Spectrometer: HR+D1059
Trigger mode: 1
Integration Time (sec): 1.000000E-1
Scans to average: 1
Electric dark correction enabled: true
Nonlinearity correction enabled: false
Boxcar width: 0
XAxis mode: Wavelengths
Number of Pixels in Spectrum: 2048
>>>>>Begin Spectral Data<<<<<
223.165	-31.5
223.4	-31.5
223.635	-31.5
223.869	-20.5
224.104	-6.5
224.338	-29.5
224.573	-16.5
224.808	-1.5
225.042	2.5
225.277	10.5
225.511	-6.5
225.746	-2.5
225.98	17.5
226.215	16.5
226.449	6.5
226.683	-3.5
226.918	25.5
227.152	39.5
227.387	26.5
227.621	26.5
227.856	38.5
228.09	56.5
228.324	42.5
228.559	65.5
228.793	88.5
229.027	140.5
229.262	143.5
229.496	153.5
229.73	165.5
229.964	186.5
230.199	241.5
230.433	228.5
230.667	213.5
230.901	197.5
231.136	196.5
231.37	212.5
231.604	217.5
231.838	254.5
232.072	255.5
232.306	255.5
232.541	227.5
232.775	257.5
233.009	283.5
233.243	312.5
233.477	319.5
233.711	350.5
233.945	340.5
234.179	329.5
234.413	379.5
234.647	400.5
234.881	469.5
235.115	436.5
235.349	418.5
235.583	369.5
235.817	370.5
236.051	391.5
236.285	431.5
236.519	465.5
236.753	451.5
236.987	448.5
237.221	414.5
237.455	440.5
237.689	475.5
237.922	472.5
238.156	488.5
238.39	585.5
238.624	667.5
238.858	614.5
239.091	522.5
239.325	513.5
239.559	505.5
239.793	560.5
240.027	693.5
240.26	620.5
240.494	595.5
240.728	594.5
240.961	706.5
241.195	673.5
241.429	661.5
241.662	621.5
241.896	549.5
242.13	501.5
242.363	468.5
242.597	472.5
242.83	551.5
243.064	546.5
243.298	599.5
243.531	641.5
243.765	653.5
243.998	639.5
244.232	627.5
244.465	600.5
244.699	600.5
244.932	677.5
245.166	641.5
245.399	563.5
245.633	558.5
245.866	587.5
246.099	634.5
246.333	738.5
246.566	773.5
246.8	778.5
247.033	783.5
247.266	705.5
247.5	704.5
247.733	707.5
247.966	673.5
248.2	708.5
248.433	796.5
248.666	896.5
248.899	883.5
249.133	891.5
249.366	1067.5
249.599	1102.5
249.832	971.5
250.066	862.5
250.299	871.5
250.532	858.5
250.765	837.5
250.998	768.5
251.231	742.5
251.465	805.5
251.698	874.5
251.931	839.5
252.164	886.5
252.397	972.5
252.63	1101.5
252.863	1225.5
253.096	1220.5
253.329	1182.5
253.562	1137.5
253.795	1288.5
254.028	1434.5
254.261	1448.5
254.494	1318.5
254.727	1186.5
254.96	1198.5
255.193	1217.5
255.426	1144.5
255.659	903.5
255.892	809.5
256.124	911.5
256.357	1065.5
256.59	1242.5
256.823	1212.5
257.056	1016.5
257.289	943.5
257.521	998.5
257.754	1195.5
257.987	1329.5
258.22	1157.5
258.452	1048.5
258.685	1181.5
258.918	1352.5
259.151	1287.5
259.383	1330.5
259.616	1507.5
259.849	1611.5
260.081	1776.5
260.314	1981.5
260.547	1515.5
260.779	1529.5
261.012	1772.5
261.244	1659.5
261.477	1680.5
261.71	1553.5
261.942	1327.5
262.175	1306.5
262.407	1259.5
262.64	1312.5
262.872	1557.5
263.105	1723.5
263.337	1791.5
263.57	1583.5
263.802	1072.5
264.035	924.5
264.267	899.5
264.499	765.5
264.732	727.5
264.964	703.5
265.197	707.5
265.429	821.5
265.661	827.5
265.894	893.5
266.126	950.5
266.358	1045.5
266.591	1253.5
266.823	1532.5
267.055	1448.5
267.287	1265.5
267.52	1254.5
267.752	1325.5
267.984	1465.5
268.216	1433.5
268.448	1127.5
268.681	1153.5
268.913	1205.5
269.145	1317.5
269.377	1340.5
269.609	1325.5
269.841	1237.5
270.073	1337.5
270.306	1402.5
270.538	1403.5
270.77	1439.5
271.002	1499.5
271.234	1524.5
271.466	1550.5
271.698	1509.5
271.93	1490.5
272.162	1473.5
272.394	1492.5
272.626	1468.5
272.858	1519.5
273.09	1576.5
273.322	1353.5
273.553	1319.5
273.785	1577.5
274.017	2056.5
274.249	2513.5
274.481	2637.5
274.713	2911.5
274.945	3309.5
275.176	3432.5
275.408	3023.5
275.64	2696.5
275.872	2761.5
276.104	2288.5
276.335	1991.5
276.567	1971.5
276.799	2069.5
277.031	2155.5
277.262	1675.5
277.494	1243.5
277.726	1220.5
277.957	1342.5
278.189	1541.5
278.421	1486.5
278.652	1487.5
278.884	1386.5
279.115	1290.5
279.347	1192.5
279.579	1223.5
279.81	1211.5
280.042	1230.5
280.273	1276.5
280.505	1190.5
280.736	1023.5
280.968	1042.5
281.199	1102.5
281.431	1252.5
281.662	1258.5
281.894	1207.5
282.125	1281.5
282.356	1407.5
282.588	1405.5
282.819	1301.5
283.051	1423.5
283.282	1719.5
283.513	2046.5
283.745	2309.5
283.976	2224.5
284.207	2105.5
284.439	2197.5
284.67	2109.5
284.901	1872.5
285.132	2015.5
285.364	2098.5
285.595	1952.5
285.826	2043.5
286.057	2083.5
286.288	2062.5
286.52	2068.5
286.751	2184.5
286.982	2200.5
287.213	1877.5
287.444	1830.5
287.675	1927.5
287.906	1899.5
288.138	1564.5
288.369	1411.5
288.6	1305.5
288.831	1378.5
289.062	1606.5
289.293	1773.5
289.524	1656.5
289.755	1663.5
289.986	1673.5
290.217	1460.5
290.448	1133.5
290.679	991.5
290.91	951.5
291.141	961.5
291.371	1005.5
291.602	992.5
291.833	1012.5
292.064	1092.5
292.295	1247.5
292.526	1440.5
292.757	1496.5
292.987	1617.5
293.218	1618.5
293.449	1626.5
293.68	1727.5
293.91	1647.5
294.141	1683.5
294.372	1546.5
294.603	1430.5
294.833	1608.5
295.064	1904.5
295.295	1756.5
295.525	1356.5
295.756	1173.5
295.987	1045.5
296.217	1032.5
296.448	1057.5
296.679	1099.5
296.909	1250.5
297.14	1354.5
297.37	1480.5
297.601	1418.5
297.831	1173.5
298.062	1320.5
298.292	1473.5
298.523	1614.5
298.753	1843.5
298.984	1652.5
299.214	1296.5
299.445	1108.5
299.675	1097.5
299.905	1085.5
300.136	1124.5
300.366	1230.5
300.597	1193.5
300.827	1056.5
301.057	1010.5
301.288	1055.5
301.518	1143.5
301.748	1281.5
301.979	1403.5
302.209	1533.5
302.439	1535.5
302.669	1300.5
302.9	1273.5
303.13	1183.5
303.36	1167.5
303.59	1091.5
303.82	1116.5
304.051	1282.5
304.281	1385.5
304.511	1318.5
304.741	1183.5
304.971	1238.5
305.201	1319.5
305.431	1251.5
305.661	1109.5
305.891	1111.5
306.121	1093.5
306.352	968.5
306.582	896.5
306.812	881.5
307.042	896.5
307.272	840.5
307.502	841.5
307.731	942.5
307.961	966.5
308.191	876.5
308.421	833.5
308.651	826.5
308.881	781.5
309.111	805.5
309.341	867.5
309.571	916.5
309.8	955.5
310.03	946.5
310.26	1030.5
310.49	974.5
310.72	904.5
310.949	876.5
311.179	904.5
311.409	964.5
311.639	1125.5
311.868	1427.5
312.098	1853.5
312.328	1989.5
312.557	1869.5
312.787	1924.5
313.017	1704.5
313.246	1851.5
313.476	2011.5
313.706	1629.5
313.935	1319.5
314.165	1060.5
314.394	973.5
314.624	967.5
314.853	1055.5
315.083	1067.5
315.312	1029.5
315.542	1072.5
315.771	987.5
316.001	911.5
316.23	841.5
316.46	848.5
316.689	875.5
316.919	872.5
317.148	906.5
317.377	889.5
317.607	889.5
317.836	987.5
318.065	1149.5
318.295	1270.5
318.524	1188.5
318.753	1003.5
318.983	960.5
319.212	944.5
319.441	1046.5
319.67	1175.5
319.9	1244.5
320.129	1174.5
320.358	1012.5
320.587	982.5
320.816	1035.5
321.046	1191.5
321.275	1377.5
321.504	1385.5
321.733	1358.5
321.962	1286.5
322.191	1207.5
322.42	1147.5
322.649	1197.5
322.878	1280.5
323.108	1278.5
323.337	1131.5
323.566	1127.5
323.795	1089.5
324.024	1048.5
324.253	1009.5
324.482	996.5
324.71	1101.5
324.939	1249.5
325.168	1162.5
325.397	955.5
325.626	927.5
325.855	926.5
326.084	973.5
326.313	907.5
326.542	856.5
326.77	917.5
326.999	961.5
327.228	1015.5
327.457	1048.5
327.686	1035.5
327.914	891.5
328.143	885.5
328.372	854.5
328.6	843.5
328.829	897.5
329.058	910.5
329.287	931.5
329.515	913.5
329.744	919.5
329.972	860.5
330.201	805.5
330.43	883.5
330.658	992.5
330.887	1115.5
331.115	1057.5
331.344	1034.5
331.572	982.5
331.801	915.5
332.03	897.5
332.258	889.5
332.486	972.5
332.715	1003.5
332.943	927.5
333.172	895.5
333.4	932.5
333.629	1053.5
333.857	1159.5
334.085	1129.5
334.314	1090.5
334.542	1069.5
334.771	972.5
334.999	958.5
335.227	942.5
335.455	955.5
335.684	1049.5
335.912	1225.5
336.14	1341.5
336.369	1264.5
336.597	1239.5
336.825	1394.5
337.053	1613.5
337.281	1277.5
337.51	995.5
337.738	1008.5
337.966	1086.5
338.194	1191.5
338.422	1155.5
338.65	1017.5
338.878	911.5
339.106	914.5
339.334	1060.5
339.562	1120.5
339.79	1051.5
340.018	963.5
340.246	1068.5
340.474	1246.5
340.702	1339.5
340.93	1390.5
341.158	1371.5
341.386	1151.5
341.614	1148.5
341.842	1144.5
342.07	1220.5
342.298	1377.5
342.526	1476.5
342.754	1271.5
342.981	1139.5
343.209	1114.5
343.437	1191.5
343.665	1229.5
343.893	1233.5
344.12	1428.5
344.348	1679.5
344.576	1491.5
344.804	1243.5
345.031	1067.5
345.259	1025.5
345.487	1023.5
345.714	1065.5
345.942	1165.5
346.17	1242.5
346.397	1179.5
346.625	1034.5
346.853	1000.5
347.08	962.5
347.308	1024.5
347.535	1149.5
347.763	1172.5
347.99	1042.5
348.218	943.5
348.445	1005.5
348.673	985.5
348.9	1012.5
349.128	1065.5
349.355	1139.5
349.583	1117.5
349.81	1036.5
350.037	986.5
350.265	877.5
350.492	801.5
350.72	809.5
350.947	846.5
351.174	920.5
351.402	995.5
351.629	984.5
351.856	937.5
352.083	917.5
352.311	1019.5
352.538	1140.5
352.765	1193.5
352.992	1087.5
353.22	1040.5
353.447	1036.5
353.674	993.5
353.901	1007.5
354.128	1004.5
354.355	1061.5
354.583	1046.5
354.81	1025.5
355.037	1063.5
355.264	1059.5
355.491	1139.5
355.718	1240.5
355.945	1183.5
356.172	1149.5
356.399	1154.5
356.626	1377.5
356.853	1708.5
357.08	1805.5
357.307	1846.5
357.534	1419.5
357.761	1465.5
357.988	1858.5
358.215	2159.5
358.441	2059.5
358.668	1724.5
358.895	1604.5
359.122	1274.5
359.349	1247.5
359.576	1411.5
359.802	1164.5
360.029	1005.5
360.256	1055.5
360.483	1333.5
360.709	1745.5
360.936	1780.5
361.163	1517.5
361.39	1205.5
361.616	1119.5
361.843	1320.5
362.07	1591.5
362.296	1444.5
362.523	1118.5
362.749	961.5
362.976	1016.5
363.203	1254.5
363.429	1421.5
363.656	1112.5
363.882	1050.5
364.109	1048.5
364.335	1035.5
364.562	1020.5
364.788	1179.5
365.015	1362.5
365.241	1244.5
365.468	983.5
365.694	865.5
365.92	833.5
366.147	792.5
366.373	821.5
366.599	801.5
366.826	833.5
367.052	845.5
367.278	860.5
367.505	854.5
367.731	929.5
367.957	1061.5
368.184	1033.5
368.41	1043.5
368.636	1057.5
368.862	1123.5
369.089	1047.5
369.315	943.5
369.541	935.5
369.767	940.5
369.993	852.5
370.219	865.5
370.445	957.5
370.672	1045.5
370.898	1137.5
371.124	1115.5
371.35	987.5
371.576	952.5
371.802	1025.5
372.028	1199.5
372.254	1382.5
372.48	1207.5
372.706	1057.5
372.932	1136.5
373.158	1203.5
373.384	1423.5
373.61	1936.5
373.835	1976.5
374.061	1427.5
374.287	1219.5
374.513	1437.5
374.739	1750.5
374.965	1778.5
375.191	1744.5
375.416	1211.5
375.642	1075.5
375.868	1229.5
376.094	1433.5
376.319	1211.5
376.545	1331.5
376.771	1435.5
376.997	1195.5
377.222	885.5
377.448	786.5
377.674	768.5
377.899	778.5
378.125	767.5
378.35	795.5
378.576	840.5
378.802	891.5
379.027	939.5
379.253	925.5
379.478	927.5
379.704	1081.5
379.929	1147.5
380.155	1137.5
380.38	984.5
380.606	1036.5
380.831	1137.5
381.057	1030.5
381.282	995.5
381.507	1207.5
381.733	1535.5
381.958	1636.5
382.184	1726.5
382.409	1780.5
382.634	1773.5
382.86	1864.5
383.085	1472.5
383.31	1171.5
383.535	1272.5
383.761	1268.5
383.986	1222.5
384.211	1483.5
384.436	1466.5
384.662	1087.5
384.887	1031.5
385.112	1073.5
385.337	1119.5
385.562	1017.5
385.787	1138.5
386.013	1277.5
386.238	1303.5
386.463	1055.5
386.688	997.5
386.913	971.5
387.138	931.5
387.363	991.5
387.588	1046.5
387.813	987.5
388.038	1148.5
388.263	1007.5
388.488	1009.5
388.713	1158.5
388.938	1293.5
389.163	1079.5
389.387	936.5
389.612	944.5
389.837	976.5
390.062	1000.5
390.287	1026.5
390.512	1018.5
390.736	949.5
390.961	906.5
391.186	851.5
391.411	853.5
391.636	873.5
391.86	953.5
392.085	1038.5
392.31	1032.5
392.534	1005.5
392.759	973.5
392.984	1042.5
393.208	1004.5
393.433	881.5
393.658	830.5
393.882	822.5
394.107	798.5
394.331	823.5
394.556	819.5
394.78	848.5
395.005	870.5
395.229	887.5
395.454	899.5
395.678	914.5
395.903	958.5
396.127	896.5
396.352	940.5
396.576	993.5
396.801	1015.5
397.025	1118.5
397.249	1185.5
397.474	971.5
397.698	967.5
397.922	1002.5
398.147	930.5
398.371	941.5
398.595	994.5
398.82	938.5
399.044	963.5
399.268	1016.5
399.492	1057.5
399.717	1083.5
399.941	1109.5
400.165	1077.5
400.389	1033.5
400.613	1083.5
400.837	1056.5
401.062	936.5
401.286	898.5
401.51	933.5
401.734	944.5
401.958	953.5
402.182	931.5
402.406	949.5
402.63	911.5
402.854	995.5
403.078	1083.5
403.302	1352.5
403.526	1373.5
403.75	1250.5
403.974	1086.5
404.198	1109.5
404.422	1257.5
404.645	1471.5
404.869	1695.5
405.093	1201.5
405.317	999.5
405.541	995.5
405.765	1030.5
405.988	1055.5
406.212	1141.5
406.436	1365.5
406.66	1457.5
406.883	1145.5
407.107	1222.5
407.331	1392.5
407.555	1347.5
407.778	1093.5
408.002	1072.5
408.226	1054.5
408.449	1077.5
408.673	1051.5
408.896	954.5
409.12	923.5
409.344	945.5
409.567	908.5
409.791	891.5
410.014	927.5
410.238	906.5
410.461	909.5
410.685	901.5
410.908	929.5
411.132	922.5
411.355	947.5
411.578	974.5
411.802	956.5
412.025	1028.5
412.249	1009.5
412.472	979.5
412.695	951.5
412.919	958.5
413.142	995.5
413.365	1093.5
413.589	1095.5
413.812	968.5
414.035	931.5
414.258	953.5
414.482	1069.5
414.705	1121.5
414.928	949.5
415.151	870.5
415.374	901.5
415.597	943.5
415.821	952.5
416.044	890.5
416.267	853.5
416.49	855.5
416.713	871.5
416.936	841.5
417.159	902.5
417.382	903.5
417.605	944.5
417.828	914.5
418.051	919.5
418.274	947.5
418.497	973.5
418.72	944.5
418.943	1003.5
419.166	1006.5
419.389	1072.5
419.611	1029.5
419.834	1068.5
420.057	1181.5
420.28	1155.5
420.503	1059.5
420.726	932.5
420.948	886.5
421.171	911.5
421.394	879.5
421.617	880.5
421.839	919.5
422.062	975.5
422.285	945.5
422.507	954.5
422.73	963.5
422.953	995.5
423.175	943.5
423.398	968.5
423.621	1035.5
423.843	1093.5
424.066	1023.5
424.288	987.5
424.511	910.5
424.733	943.5
424.956	976.5
425.178	1114.5
425.401	1302.5
425.623	1440.5
425.846	1188.5
426.068	1031.5
426.291	1167.5
426.513	1059.5
426.735	990.5
426.958	1021.5
427.18	1211.5
427.402	1576.5
427.625	1565.5
427.847	1220.5
428.069	911.5
428.292	907.5
428.514	898.5
428.736	891.5
428.958	1007.5
429.181	1170.5
429.403	1000.5
429.625	927.5
429.847	910.5
430.069	906.5
430.292	960.5
430.514	880.5
430.736	982.5
430.958	1240.5
431.18	1109.5
431.402	872.5
431.624	829.5
431.846	864.5
432.068	804.5
432.29	835.5
432.512	964.5
432.734	1279.5
432.956	1191.5
433.178	887.5
433.4	867.5
433.622	836.5
433.844	904.5
434.066	959.5
434.287	944.5
434.509	926.5
434.731	977.5
434.953	883.5
435.175	959.5
435.397	1083.5
435.618	923.5
435.84	832.5
436.062	855.5
436.284	868.5
436.505	795.5
436.727	813.5
436.949	797.5
437.17	853.5
437.392	885.5
437.614	875.5
437.835	847.5
438.057	861.5
438.278	992.5
438.5	1474.5
438.721	1419.5
438.943	987.5
439.165	836.5
439.386	776.5
439.608	811.5
439.829	811.5
440.05	812.5
440.272	869.5
440.493	1034.5
440.715	1275.5
440.936	996.5
441.158	869.5
441.379	884.5
441.6	1026.5
441.822	1056.5
442.043	891.5
442.264	882.5
442.486	919.5
442.707	879.5
442.928	895.5
443.149	906.5
443.371	919.5
443.592	966.5
443.813	919.5
444.034	906.5
444.255	923.5
444.476	976.5
444.698	977.5
444.919	974.5
445.14	1036.5
445.361	1045.5
445.582	993.5
445.803	937.5
446.024	963.5
446.245	957.5
446.466	915.5
446.687	895.5
446.908	888.5
447.129	853.5
447.35	823.5
447.571	817.5
447.792	801.5
448.013	819.5
448.234	815.5
448.455	800.5
448.675	803.5
448.896	812.5
449.117	811.5
449.338	790.5
449.559	833.5
449.779	889.5
450	893.5
450.221	844.5
450.442	813.5
450.662	839.5
450.883	817.5
451.104	830.5
451.324	808.5
451.545	831.5
451.766	814.5
451.986	774.5
452.207	749.5
452.428	779.5
452.648	791.5
452.869	813.5
453.089	843.5
453.31	848.5
453.53	776.5
453.751	773.5
453.971	744.5
454.192	790.5
454.412	792.5
454.633	777.5
454.853	783.5
455.073	727.5
455.294	721.5
455.514	752.5
455.734	779.5
455.955	835.5
456.175	864.5
456.395	769.5
456.616	702.5
456.836	721.5
457.056	710.5
457.276	710.5
457.497	738.5
457.717	749.5
457.937	728.5
458.157	718.5
458.377	732.5
458.598	755.5
458.818	784.5
459.038	829.5
459.258	848.5
459.478	881.5
459.698	930.5
459.918	918.5
460.138	865.5
460.358	903.5
460.578	887.5
460.798	889.5
461.018	914.5
461.238	880.5
461.458	865.5
461.678	892.5
461.898	939.5
462.118	902.5
462.338	939.5
462.558	1003.5
462.777	1007.5
462.997	1026.5
463.217	1023.5
463.437	1057.5
463.657	1007.5
463.876	980.5
464.096	968.5
464.316	999.5
464.536	969.5
464.755	1032.5
464.975	1063.5
465.195	987.5
465.414	1031.5
465.634	976.5
465.854	949.5
466.073	880.5
466.293	872.5
466.512	929.5
466.732	1025.5
466.951	1058.5
467.171	965.5
467.391	901.5
467.61	897.5
467.829	941.5
468.049	962.5
468.268	893.5
468.488	884.5
468.707	943.5
468.927	1070.5
469.146	1160.5
469.365	1056.5
469.585	956.5
469.804	1072.5
470.023	1145.5
470.243	989.5
470.462	922.5
470.681	923.5
470.901	950.5
471.12	1004.5
471.339	982.5
471.558	919.5
471.777	948.5
471.997	1045.5
472.216	1150.5
472.435	1110.5
472.654	1009.5
472.873	973.5
473.092	1054.5
473.311	1055.5
473.53	962.5
473.749	967.5
473.968	996.5
474.187	1025.5
474.406	962.5
474.625	960.5
474.844	991.5
475.063	1070.5
475.282	1073.5
475.501	1075.5
475.72	1159.5
475.939	1092.5
476.158	1122.5
476.377	1292.5
476.596	1456.5
476.814	1554.5
477.033	1274.5
477.252	1092.5
477.471	1030.5
477.69	1054.5
477.908	1104.5
478.127	1160.5
478.346	1073.5
478.564	1187.5
478.783	1105.5
479.002	1139.5
479.22	1313.5
479.439	1430.5
479.658	1246.5
479.876	1148.5
480.095	1222.5
480.313	1253.5
480.532	1140.5
480.751	1124.5
480.969	1165.5
481.188	1324.5
481.406	1358.5
481.624	1277.5
481.843	1115.5
482.061	1116.5
482.28	1208.5
482.498	1502.5
482.717	1425.5
482.935	1235.5
483.153	1163.5
483.372	1084.5
483.59	1071.5
483.808	1075.5
484.027	1050.5
484.245	1040.5
484.463	1013.5
484.681	1047.5
484.9	1129.5
485.118	1267.5
485.336	1121.5
485.554	1055.5
485.772	1123.5
485.99	1176.5
486.209	1282.5
486.427	1275.5
486.645	1218.5
486.863	1293.5
487.081	1281.5
487.299	1396.5
487.517	1343.5
487.735	1249.5
487.953	1264.5
488.171	1299.5
488.389	1205.5
488.607	1131.5
488.825	1226.5
489.043	1344.5
489.261	1516.5
489.479	1614.5
489.696	1327.5
489.914	1229.5
490.132	1135.5
490.35	1165.5
490.568	1165.5
490.786	1149.5
491.003	1169.5
491.221	1178.5
491.439	1147.5
491.657	1163.5
491.874	1271.5
492.092	1527.5
492.31	1923.5
492.527	1804.5
492.745	1599.5
492.963	1340.5
493.18	1315.5
493.398	1361.5
493.615	1304.5
493.833	1273.5
494.05	1251.5
494.268	1307.5
494.485	1265.5
494.703	1245.5
494.92	1251.5
495.138	1228.5
495.355	1249.5
495.573	1260.5
495.79	1459.5
496.008	1933.5
496.225	1630.5
496.442	1417.5
496.66	1382.5
496.877	1478.5
497.094	1433.5
497.312	1339.5
497.529	1374.5
497.746	1370.5
497.963	1418.5
498.181	1498.5
498.398	1613.5
498.615	1720.5
498.832	1755.5
499.049	1741.5
499.267	1563.5
499.484	1575.5
499.701	1625.5
499.918	1766.5
500.135	1877.5
500.352	1929.5
500.569	2014.5
500.786	2090.5
501.003	2094.5
501.22	1867.5
501.437	1771.5
501.654	1699.5
501.871	1644.5
502.088	1672.5
502.305	1502.5
502.522	1538.5
502.739	1560.5
502.956	1400.5
503.172	1365.5
503.389	1343.5
503.606	1317.5
503.823	1280.5
504.04	1340.5
504.256	1365.5
504.473	1371.5
504.69	1379.5
504.907	1447.5
505.123	1415.5
505.34	1516.5
505.557	1475.5
505.773	1381.5
505.99	1352.5
506.207	1396.5
506.423	1294.5
506.64	1196.5
506.856	1267.5
507.073	1423.5
507.289	1390.5
507.506	1379.5
507.722	1461.5
507.939	1479.5
508.155	1474.5
508.372	1343.5
508.588	1293.5
508.805	1289.5
509.021	1251.5
509.238	1221.5
509.454	1232.5
509.67	1192.5
509.887	1222.5
510.103	1376.5
510.319	1326.5
510.536	1211.5
510.752	1107.5
510.968	1094.5
511.184	1038.5
511.401	1068.5
511.617	1087.5
511.833	1045.5
512.049	1086.5
512.265	1107.5
512.481	1190.5
512.698	1271.5
512.914	1410.5
513.13	1257.5
513.346	1144.5
513.562	1227.5
513.778	1191.5
513.994	1204.5
514.21	1314.5
514.426	1251.5
514.642	1179.5
514.858	1183.5
515.074	1224.5
515.29	1315.5
515.506	1446.5
515.721	1365.5
515.937	1253.5
516.153	1180.5
516.369	1200.5
516.585	1252.5
516.801	1435.5
517.016	1699.5
517.232	1638.5
517.448	1545.5
517.664	1352.5
517.879	1294.5
518.095	1312.5
518.311	1289.5
518.527	1352.5
518.742	1435.5
518.958	1517.5
519.173	1425.5
519.389	1409.5
519.605	1435.5
519.82	1564.5
520.036	1830.5
520.251	1720.5
520.467	1613.5
520.682	2524.5
520.898	3097.5
521.113	2899.5
521.329	1773.5
521.544	1590.5
521.76	1524.5
521.975	1398.5
522.19	1310.5
522.406	1379.5
522.621	1549.5
522.836	1592.5
523.052	1645.5
523.267	1305.5
523.482	1367.5
523.698	1429.5
523.913	1396.5
524.128	1269.5
524.343	1204.5
524.559	1245.5
524.774	1160.5
524.989	1225.5
525.204	1240.5
525.419	1339.5
525.634	1251.5
525.849	1260.5
526.064	1249.5
526.28	1316.5
526.495	1516.5
526.71	1560.5
526.925	1413.5
527.14	1480.5
527.355	1415.5
527.57	1182.5
527.785	1251.5
527.999	1153.5
528.214	1099.5
528.429	1100.5
528.644	1101.5
528.859	1069.5
529.074	1013.5
529.289	1024.5
529.503	1027.5
529.718	1061.5
529.933	1236.5
530.148	1250.5
530.363	1064.5
530.577	1037.5
530.792	1022.5
531.007	997.5
531.221	965.5
531.436	1021.5
531.651	997.5
531.865	1043.5
532.08	1054.5
532.295	1014.5
532.509	1083.5
532.724	1239.5
532.938	1348.5
533.153	1587.5
533.367	1241.5
533.582	1207.5
533.796	1102.5
534.011	1064.5
534.225	1086.5
534.44	1079.5
534.654	1080.5
534.868	1282.5
535.083	1145.5
535.297	1025.5
535.511	1055.5
535.726	1183.5
535.94	1080.5
536.154	1045.5
536.369	1043.5
536.583	993.5
536.797	1059.5
537.011	1105.5
537.225	1162.5
537.44	1217.5
537.654	1042.5
537.868	1039.5
538.082	1062.5
538.296	1020.5
538.51	1127.5
538.724	1106.5
538.938	1037.5
539.153	1035.5
539.367	992.5
539.581	1005.5
539.795	1060.5
540.009	1188.5
540.222	1087.5
540.436	1104.5
540.65	1174.5
540.864	1216.5
541.078	1237.5
541.292	1437.5
541.506	1132.5
541.72	1107.5
541.934	1093.5
542.147	1043.5
542.361	1057.5
542.575	1094.5
542.789	1062.5
543.002	991.5
543.216	1091.5
543.43	947.5
543.644	980.5
543.857	935.5
544.071	952.5
544.285	948.5
544.498	928.5
544.712	975.5
544.925	1027.5
545.139	965.5
545.352	906.5
545.566	917.5
545.779	1098.5
545.993	1020.5
546.206	911.5
546.42	897.5
546.633	912.5
546.847	901.5
547.06	878.5
547.274	862.5
547.487	909.5
547.7	987.5
547.914	1039.5
548.127	1145.5
548.34	1113.5
548.554	964.5
548.767	1017.5
548.98	1093.5
549.193	1018.5
549.407	1041.5
549.62	1222.5
549.833	1115.5
550.046	1181.5
550.259	1183.5
550.473	1051.5
550.686	988.5
550.899	1016.5
551.112	1017.5
551.325	1077.5
551.538	1101.5
551.751	966.5
551.964	906.5
552.177	896.5
552.39	894.5
552.603	907.5
552.816	951.5
553.029	879.5
553.242	884.5
553.455	976.5
553.667	1022.5
553.88	984.5
554.093	938.5
554.306	864.5
554.519	797.5
554.732	836.5
554.944	804.5
555.157	753.5
555.37	788.5
555.583	776.5
555.795	805.5
556.008	783.5
556.221	819.5
556.433	801.5
556.646	790.5
556.859	800.5
557.071	826.5
557.284	849.5
557.496	839.5
557.709	828.5
557.921	798.5
558.134	760.5
558.346	723.5
558.559	735.5
558.771	793.5
558.984	826.5
559.196	790.5
559.409	757.5
559.621	737.5
559.833	718.5
560.046	713.5
560.258	733.5
560.47	754.5
560.683	724.5
560.895	683.5
561.107	701.5
561.32	705.5
561.532	688.5
561.744	787.5
561.956	821.5
562.168	710.5
562.381	733.5
562.593	751.5
562.805	779.5
563.017	699.5
563.229	664.5
563.441	673.5
563.653	689.5
563.865	710.5
564.077	713.5
564.289	699.5
564.501	692.5
564.713	764.5
564.925	760.5
565.137	697.5
565.349	692.5
565.561	694.5
565.773	728.5
565.985	745.5
566.197	801.5
566.408	899.5
566.62	866.5
566.832	836.5
567.044	831.5
567.255	923.5
567.467	972.5
567.679	898.5
567.891	880.5
568.102	924.5
568.314	917.5
568.526	853.5
568.737	828.5
568.949	879.5
569.161	787.5
569.372	719.5
569.584	694.5
569.795	708.5
570.007	741.5
570.218	764.5
570.43	742.5
570.641	701.5
570.853	671.5
571.064	661.5
571.276	726.5
571.487	721.5
571.698	685.5
571.91	680.5
572.121	674.5
572.333	645.5
572.544	631.5
572.755	646.5
572.966	624.5
573.178	592.5
573.389	645.5
573.6	645.5
573.811	650.5
574.023	582.5
574.234	583.5
574.445	612.5
574.656	577.5
574.867	598.5
575.078	591.5
575.289	588.5
575.501	649.5
575.712	612.5
575.923	562.5
576.134	571.5
576.345	565.5
576.556	596.5
576.767	552.5
576.978	518.5
577.188	519.5
577.399	526.5
577.61	542.5
577.821	529.5
578.032	544.5
578.243	583.5
578.454	589.5
578.665	564.5
578.875	574.5
579.086	570.5
579.297	594.5
579.508	595.5
579.718	588.5
579.929	550.5
580.14	521.5
580.35	515.5
580.561	524.5
580.772	504.5
580.982	494.5
581.193	509.5
581.403	479.5
581.614	458.5
581.825	470.5
582.035	484.5
582.246	442.5
582.456	471.5
582.667	500.5
582.877	493.5
583.087	463.5
583.298	469.5
583.508	461.5
583.719	447.5
583.929	459.5
584.139	449.5
584.35	464.5
584.56	475.5
584.77	473.5
584.981	470.5
585.191	493.5
585.401	459.5
585.611	465.5
585.821	483.5
586.032	521.5
586.242	503.5
586.452	469.5
586.662	467.5
586.872	510.5
587.082	507.5
587.292	479.5
587.502	466.5
587.713	472.5
587.923	478.5
588.133	508.5
588.343	490.5
588.553	482.5
588.762	465.5
588.972	451.5
589.182	464.5
589.392	475.5
589.602	457.5
589.812	493.5
590.022	507.5
590.232	495.5
590.441	464.5
590.651	465.5
590.861	461.5
591.071	477.5
591.281	456.5
591.49	441.5
591.7	457.5
591.91	453.5
592.119	450.5
592.329	448.5
592.539	443.5
592.748	465.5
592.958	481.5
593.167	473.5
593.377	528.5
593.587	509.5
593.796	466.5
594.006	479.5
594.215	476.5
594.424	498.5
594.634	511.5
594.843	475.5
595.053	456.5
595.262	468.5
595.472	460.5
595.681	425.5
595.89	424.5
596.1	443.5
596.309	464.5
596.518	447.5
596.727	437.5
596.937	428.5
597.146	432.5
597.355	473.5
597.564	435.5
597.774	412.5
597.983	407.5
598.192	423.5
598.401	398.5
598.61	398.5
598.819	381.5
599.028	387.5
599.237	379.5
599.446	390.5
599.655	377.5
599.864	385.5
600.073	356.5
600.282	401.5
600.491	381.5
600.7	356.5
600.909	391.5
601.118	385.5
601.327	365.5
601.536	388.5
601.745	398.5
601.953	409.5
602.162	383.5
602.371	417.5
602.58	422.5
602.789	383.5
602.997	388.5
603.206	371.5
603.415	379.5
603.623	366.5
603.832	369.5
604.041	363.5
604.249	366.5
604.458	388.5
604.666	352.5
604.875	337.5
605.084	363.5
605.292	369.5
605.501	350.5
605.709	359.5
605.918	363.5
606.126	355.5
606.334	367.5
606.543	355.5
606.751	363.5
606.96	365.5
607.168	337.5
607.376	337.5
607.585	339.5
607.793	341.5
608.001	349.5
608.21	341.5
608.418	364.5
608.626	370.5
608.834	353.5
609.043	345.5
609.251	346.5
609.459	342.5
609.667	341.5
609.875	374.5
610.083	340.5
610.291	353.5
610.499	345.5
610.707	343.5
610.916	336.5
611.124	337.5
611.332	339.5
611.54	328.5
611.748	333.5
611.955	346.5
612.163	345.5
612.371	334.5
612.579	317.5
612.787	339.5
612.995	325.5
613.203	332.5
613.411	336.5
613.618	339.5
613.826	367.5
614.034	366.5
614.242	347.5
614.449	315.5
614.657	332.5
614.865	309.5
615.072	313.5
615.28	328.5
615.488	327.5
615.695	338.5
615.903	329.5
616.111	320.5
616.318	323.5
616.526	325.5
616.733	338.5
616.941	320.5
617.148	320.5
617.356	333.5
617.563	335.5
617.771	339.5
617.978	310.5
618.185	289.5
618.393	315.5
618.6	318.5
618.807	320.5
619.015	311.5
619.222	320.5
619.429	333.5
619.637	318.5
619.844	307.5
620.051	289.5
620.258	318.5
620.466	295.5
620.673	283.5
620.88	289.5
621.087	274.5
621.294	307.5
621.501	292.5
621.708	305.5
621.915	307.5
622.122	289.5
622.329	297.5
622.536	291.5
622.743	290.5
622.95	280.5
623.157	301.5
623.364	329.5
623.571	291.5
623.778	324.5
623.985	324.5
624.192	318.5
624.399	319.5
624.606	310.5
624.812	287.5
625.019	311.5
625.226	325.5
625.433	322.5
625.639	292.5
625.846	283.5
626.053	288.5
626.259	275.5
626.466	278.5
626.673	314.5
626.879	298.5
627.086	292.5
627.293	273.5
627.499	260.5
627.706	257.5
627.912	281.5
628.119	284.5
628.325	274.5
628.532	263.5
628.738	263.5
628.945	265.5
629.151	272.5
629.357	260.5
629.564	238.5
629.77	269.5
629.976	266.5
630.183	265.5
630.389	275.5
630.595	263.5
630.802	269.5
631.008	243.5
631.214	252.5
631.42	238.5
631.627	247.5
631.833	258.5
632.039	261.5
632.245	228.5
632.451	255.5
632.657	236.5
632.863	230.5
633.069	232.5
633.275	251.5
633.481	230.5
633.688	253.5
633.893	253.5
634.099	249.5
634.305	239.5
634.511	246.5
634.717	241.5
634.923	231.5
635.129	226.5
635.335	218.5
635.541	226.5
635.747	239.5
635.952	235.5
636.158	241.5
636.364	236.5
636.57	227.5
636.775	221.5
636.981	221.5
637.187	224.5
637.392	224.5
637.598	241.5
637.804	232.5
638.009	236.5
638.215	235.5
638.421	225.5
638.626	225.5
638.832	237.5
639.037	236.5
639.243	211.5
639.448	234.5
639.654	246.5
639.859	223.5
640.065	221.5
640.27	244.5
640.475	232.5
640.681	223.5
640.886	228.5
641.091	233.5
641.297	237.5
641.502	232.5
641.707	208.5
641.913	216.5
642.118	220.5
642.323	209.5
642.528	232.5
642.733	225.5
642.939	221.5
643.144	233.5
643.349	201.5
643.554	215.5
643.759	217.5
643.964	194.5
644.169	207.5
644.374	200.5
644.579	199.5
644.784	208.5
644.989	206.5
645.194	198.5
645.399	213.5
645.604	219.5
645.809	216.5
646.014	223.5
646.219	222.5
646.423	214.5
646.628	195.5
646.833	194.5
647.038	207.5
647.243	200.5
647.447	197.5
647.652	199.5
647.857	206.5
648.062	197.5
648.266	207.5
648.471	212.5
648.676	222.5
648.88	219.5
649.085	206.5
649.289	212.5
649.494	216.5
649.698	229.5
649.903	215.5
650.107	199.5
650.312	197.5
650.516	207.5
650.721	201.5
650.925	201.5
651.13	196.5
651.334	189.5
651.539	195.5
651.743	200.5
651.947	177.5
652.152	169.5
652.356	179.5
652.56	162.5
652.764	166.5
652.969	171.5
653.173	183.5
653.377	158.5
653.581	182.5
653.785	156.5
653.99	168.5
654.194	172.5
654.398	186.5
654.602	162.5
654.806	165.5
655.01	163.5
655.214	160.5
655.418	164.5
655.622	163.5
655.826	164.5
656.03	160.5
656.234	170.5
656.438	165.5
656.642	159.5
656.846	158.5
657.049	155.5
657.253	147.5
657.457	147.5
657.661	132.5
657.865	120.5
658.068	128.5
658.272	131.5
658.476	126.5
658.68	115.5
658.883	133.5
659.087	113.5
659.291	122.5
659.494	101.5
659.698	115.5
659.901	110.5
660.105	105.5
660.309	107.5
660.512	111.5
660.716	98.5
660.919	100.5
661.123	104.5
661.326	92.5
661.53	107.5
661.733	79.5
661.936	111.5
662.14	95.5
662.343	88.5
662.546	81.5
662.75	87.5
662.953	92.5
663.156	85.5
663.36	78.5
663.563	79.5
663.766	76.5
663.969	88.5
664.173	89.5
664.376	89.5
664.579	85.5
664.782	88.5
664.985	85.5
665.188	85.5
665.391	81.5
665.594	71.5
665.797	86.5
666	81.5
666.203	72.5
666.406	86.5
666.609	86.5
666.812	87.5
667.015	78.5
667.218	84.5
667.421	92.5
667.624	79.5
667.827	77.5
668.03	89.5
668.232	67.5
668.435	82.5
668.638	80.5
668.841	77.5
669.043	71.5
669.246	77.5
669.449	80.5
669.651	80.5
669.854	79.5
670.057	83.5
670.259	81.5
670.462	63.5
670.665	72.5
670.867	83.5
671.07	90.5
671.272	84.5
671.475	92.5
671.677	85.5
671.88	76.5
672.082	88.5
672.284	96.5
672.487	94.5
672.689	84.5
672.892	94.5
