Data from NickelSpatula_HRD10591_16-36-12-126.txt Node
Date: Mon Jul 22 16:36:12 EDT 2019
User: cochatt
Spectrometer: HR+D1059
Trigger mode: 1
Integration Time (sec): 1.000000E-1
Scans to average: 1
Electric dark correction enabled: true
Nonlinearity correction enabled: false
Boxcar width: 0
XAxis mode: Wavelengths
Number of Pixels in Spectrum: 2048
>>>>>Begin Spectral Data<<<<<
223.165	-24.94
223.4	-24.94
223.635	-24.94
223.869	-22.94
224.104	-18.94
224.338	-11.94
224.573	-9.94
224.808	1.06
225.042	0.06
225.277	-7.94
225.511	-1.94
225.746	1.06
225.98	4.06
226.215	16.06
226.449	17.06
226.683	14.06
226.918	20.06
227.152	25.06
227.387	28.06
227.621	36.06
227.856	30.06
228.09	44.06
228.324	38.06
228.559	53.06
228.793	66.06
229.027	61.06
229.262	63.06
229.496	67.06
229.73	73.06
229.964	75.06
230.199	82.06
230.433	69.06
230.667	70.06
230.901	89.06
231.136	94.06
231.37	73.06
231.604	81.06
231.838	103.06
232.072	94.06
232.306	100.06
232.541	92.06
232.775	85.06
233.009	92.06
233.243	100.06
233.477	92.06
233.711	100.06
233.945	106.06
234.179	115.06
234.413	105.06
234.647	102.06
234.881	124.06
235.115	99.06
235.349	102.06
235.583	96.06
235.817	104.06
236.051	111.06
236.285	101.06
236.519	110.06
236.753	108.06
236.987	100.06
237.221	106.06
237.455	98.06
237.689	105.06
237.922	94.06
238.156	104.06
238.39	100.06
238.624	108.06
238.858	107.06
239.091	92.06
239.325	101.06
239.559	88.06
239.793	104.06
240.027	109.06
240.26	117.06
240.494	120.06
240.728	110.06
240.961	106.06
241.195	109.06
241.429	121.06
241.662	124.06
241.896	108.06
242.13	105.06
242.363	93.06
242.597	104.06
242.83	101.06
243.064	116.06
243.298	122.06
243.531	128.06
243.765	111.06
243.998	124.06
244.232	109.06
244.465	106.06
244.699	103.06
244.932	113.06
245.166	120.06
245.399	119.06
245.633	115.06
245.866	118.06
246.099	104.06
246.333	126.06
246.566	130.06
246.8	136.06
247.033	126.06
247.266	118.06
247.5	148.06
247.733	117.06
247.966	126.06
248.2	127.06
248.433	117.06
248.666	134.06
248.899	135.06
249.133	124.06
249.366	148.06
249.599	156.06
249.832	131.06
250.066	130.06
250.299	130.06
250.532	125.06
250.765	131.06
250.998	129.06
251.231	120.06
251.465	133.06
251.698	130.06
251.931	136.06
252.164	151.06
252.397	131.06
252.63	158.06
252.863	150.06
253.096	150.06
253.329	167.06
253.562	153.06
253.795	167.06
254.028	198.06
254.261	158.06
254.494	168.06
254.727	144.06
254.96	153.06
255.193	160.06
255.426	155.06
255.659	132.06
255.892	142.06
256.124	145.06
256.357	153.06
256.59	165.06
256.823	154.06
257.056	146.06
257.289	129.06
257.521	145.06
257.754	162.06
257.987	169.06
258.22	163.06
258.452	147.06
258.685	149.06
258.918	166.06
259.151	164.06
259.383	177.06
259.616	200.06
259.849	208.06
260.081	209.06
260.314	199.06
260.547	177.06
260.779	188.06
261.012	199.06
261.244	206.06
261.477	196.06
261.71	184.06
261.942	185.06
262.175	153.06
262.407	156.06
262.64	178.06
262.872	188.06
263.105	193.06
263.337	202.06
263.57	185.06
263.802	157.06
264.035	127.06
264.267	154.06
264.499	122.06
264.732	120.06
264.964	135.06
265.197	121.06
265.429	129.06
265.661	145.06
265.894	141.06
266.126	135.06
266.358	150.06
266.591	169.06
266.823	181.06
267.055	172.06
267.287	166.06
267.52	178.06
267.752	172.06
267.984	202.06
268.216	166.06
268.448	166.06
268.681	143.06
268.913	173.06
269.145	181.06
269.377	174.06
269.609	170.06
269.841	173.06
270.073	173.06
270.306	178.06
270.538	198.06
270.77	196.06
271.002	184.06
271.234	181.06
271.466	194.06
271.698	201.06
271.93	185.06
272.162	183.06
272.394	183.06
272.626	182.06
272.858	199.06
273.09	181.06
273.322	189.06
273.553	176.06
273.785	174.06
274.017	202.06
274.249	244.06
274.481	270.06
274.713	270.06
274.945	303.06
275.176	298.06
275.408	272.06
275.64	274.06
275.872	261.06
276.104	252.06
276.335	226.06
276.567	211.06
276.799	213.06
277.031	226.06
277.262	192.06
277.494	153.06
277.726	170.06
277.957	174.06
278.189	188.06
278.421	184.06
278.652	186.06
278.884	181.06
279.115	173.06
279.347	176.06
279.579	162.06
279.81	164.06
280.042	174.06
280.273	168.06
280.505	172.06
280.736	166.06
280.968	152.06
281.199	144.06
281.431	163.06
281.662	181.06
281.894	162.06
282.125	185.06
282.356	174.06
282.588	188.06
282.819	168.06
283.051	197.06
283.282	210.06
283.513	217.06
283.745	247.06
283.976	243.06
284.207	208.06
284.439	229.06
284.67	209.06
284.901	202.06
285.132	248.06
285.364	242.06
285.595	233.06
285.826	216.06
286.057	226.06
286.288	231.06
286.52	224.06
286.751	227.06
286.982	223.06
287.213	205.06
287.444	209.06
287.675	222.06
287.906	230.06
288.138	195.06
288.369	174.06
288.6	182.06
288.831	187.06
289.062	218.06
289.293	221.06
289.524	203.06
289.755	213.06
289.986	198.06
290.217	185.06
290.448	167.06
290.679	144.06
290.91	132.06
291.141	158.06
291.371	132.06
291.602	144.06
291.833	139.06
292.064	160.06
292.295	160.06
292.526	163.06
292.757	191.06
292.987	202.06
293.218	211.06
293.449	221.06
293.68	215.06
293.91	208.06
294.141	209.06
294.372	191.06
294.603	189.06
294.833	204.06
295.064	229.06
295.295	217.06
295.525	177.06
295.756	174.06
295.987	154.06
296.217	159.06
296.448	124.06
296.679	153.06
296.909	158.06
297.14	177.06
297.37	182.06
297.601	163.06
297.831	165.06
298.062	168.06
298.292	190.06
298.523	198.06
298.753	206.06
298.984	201.06
299.214	172.06
299.445	138.06
299.675	140.06
299.905	149.06
300.136	148.06
300.366	138.06
300.597	152.06
300.827	150.06
301.057	151.06
301.288	158.06
301.518	142.06
301.748	150.06
301.979	162.06
302.209	167.06
302.439	185.06
302.669	167.06
302.9	150.06
303.13	152.06
303.36	161.06
303.59	137.06
303.82	158.06
304.051	175.06
304.281	183.06
304.511	180.06
304.741	153.06
304.971	157.06
305.201	167.06
305.431	166.06
305.661	143.06
305.891	137.06
306.121	136.06
306.352	122.06
306.582	134.06
306.812	122.06
307.042	130.06
307.272	128.06
307.502	110.06
307.731	119.06
307.961	132.06
308.191	124.06
308.421	136.06
308.651	138.06
308.881	130.06
309.111	120.06
309.341	124.06
309.571	131.06
309.8	146.06
310.03	142.06
310.26	143.06
310.49	133.06
310.72	144.06
310.949	128.06
311.179	138.06
311.409	147.06
311.639	161.06
311.868	189.06
312.098	224.06
312.328	238.06
312.557	234.06
312.787	221.06
313.017	208.06
313.246	210.06
313.476	212.06
313.706	205.06
313.935	166.06
314.165	149.06
314.394	138.06
314.624	137.06
314.853	146.06
315.083	149.06
315.312	133.06
315.542	129.06
315.771	136.06
316.001	135.06
316.23	146.06
316.46	132.06
316.689	139.06
316.919	136.06
317.148	124.06
317.377	131.06
317.607	123.06
317.836	135.06
318.065	144.06
318.295	153.06
318.524	138.06
318.753	137.06
318.983	135.06
319.212	141.06
319.441	148.06
319.67	161.06
319.9	177.06
320.129	160.06
320.358	138.06
320.587	134.06
320.816	130.06
321.046	153.06
321.275	180.06
321.504	168.06
321.733	178.06
321.962	172.06
322.191	139.06
322.42	147.06
322.649	164.06
322.878	169.06
323.108	151.06
323.337	149.06
323.566	148.06
323.795	153.06
324.024	144.06
324.253	146.06
324.482	119.06
324.71	129.06
324.939	162.06
325.168	151.06
325.397	154.06
325.626	132.06
325.855	127.06
326.084	147.06
326.313	130.06
326.542	115.06
326.77	136.06
326.999	142.06
327.228	128.06
327.457	151.06
327.686	136.06
327.914	125.06
328.143	135.06
328.372	133.06
328.6	115.06
328.829	140.06
329.058	127.06
329.287	146.06
329.515	138.06
329.744	142.06
329.972	134.06
330.201	120.06
330.43	112.06
330.658	147.06
330.887	156.06
331.115	136.06
331.344	136.06
331.572	149.06
331.801	140.06
332.03	129.06
332.258	131.06
332.486	135.06
332.715	133.06
332.943	145.06
333.172	147.06
333.4	132.06
333.629	147.06
333.857	136.06
334.085	148.06
334.314	161.06
334.542	142.06
334.771	124.06
334.999	128.06
335.227	134.06
335.455	134.06
335.684	154.06
335.912	169.06
336.14	168.06
336.369	167.06
336.597	165.06
336.825	164.06
337.053	189.06
337.281	170.06
337.51	142.06
337.738	145.06
337.966	150.06
338.194	173.06
338.422	144.06
338.65	146.06
338.878	123.06
339.106	124.06
339.334	149.06
339.562	138.06
339.79	156.06
340.018	138.06
340.246	144.06
340.474	159.06
340.702	158.06
340.93	154.06
341.158	156.06
341.386	159.06
341.614	134.06
341.842	148.06
342.07	157.06
342.298	160.06
342.526	172.06
342.754	151.06
342.981	156.06
343.209	130.06
343.437	154.06
343.665	158.06
343.893	163.06
344.12	189.06
344.348	196.06
344.576	182.06
344.804	167.06
345.031	154.06
345.259	131.06
345.487	143.06
345.714	138.06
345.942	150.06
346.17	147.06
346.397	154.06
346.625	129.06
346.853	134.06
347.08	143.06
347.308	147.06
347.535	152.06
347.763	148.06
347.99	119.06
348.218	126.06
348.445	134.06
348.673	143.06
348.9	142.06
349.128	137.06
349.355	151.06
349.583	159.06
349.81	154.06
350.037	166.06
350.265	132.06
350.492	135.06
350.72	124.06
350.947	112.06
351.174	130.06
351.402	146.06
351.629	123.06
351.856	142.06
352.083	127.06
352.311	126.06
352.538	145.06
352.765	152.06
352.992	134.06
353.22	161.06
353.447	147.06
353.674	139.06
353.901	139.06
354.128	140.06
354.355	140.06
354.583	128.06
354.81	151.06
355.037	156.06
355.264	153.06
355.491	137.06
355.718	141.06
355.945	150.06
356.172	152.06
356.399	146.06
356.626	159.06
356.853	189.06
357.08	215.06
357.307	215.06
357.534	188.06
357.761	180.06
357.988	221.06
358.215	229.06
358.441	214.06
358.668	190.06
358.895	181.06
359.122	182.06
359.349	189.06
359.576	177.06
359.802	155.06
360.029	158.06
360.256	157.06
360.483	158.06
360.709	184.06
360.936	209.06
361.163	181.06
361.39	141.06
361.616	146.06
361.843	165.06
362.07	169.06
362.296	180.06
362.523	148.06
362.749	126.06
362.976	138.06
363.203	172.06
363.429	168.06
363.656	164.06
363.882	164.06
364.109	148.06
364.335	142.06
364.562	145.06
364.788	157.06
365.015	147.06
365.241	150.06
365.468	132.06
365.694	111.06
365.92	138.06
366.147	128.06
366.373	137.06
366.599	130.06
366.826	137.06
367.052	126.06
367.278	126.06
367.505	132.06
367.731	146.06
367.957	139.06
368.184	133.06
368.41	132.06
368.636	148.06
368.862	156.06
369.089	140.06
369.315	130.06
369.541	140.06
369.767	126.06
369.993	141.06
370.219	139.06
370.445	134.06
370.672	134.06
370.898	147.06
371.124	140.06
371.35	138.06
371.576	132.06
371.802	136.06
372.028	145.06
372.254	150.06
372.48	155.06
372.706	150.06
372.932	142.06
373.158	151.06
373.384	188.06
373.61	200.06
373.835	194.06
374.061	175.06
374.287	154.06
374.513	169.06
374.739	175.06
374.965	184.06
375.191	179.06
375.416	159.06
375.642	156.06
375.868	160.06
376.094	159.06
376.319	172.06
376.545	154.06
376.771	175.06
376.997	141.06
377.222	128.06
377.448	124.06
377.674	135.06
377.899	117.06
378.125	115.06
378.35	113.06
378.576	125.06
378.802	137.06
379.027	143.06
379.253	133.06
379.478	138.06
379.704	160.06
379.929	162.06
380.155	137.06
380.38	131.06
380.606	133.06
380.831	162.06
381.057	146.06
381.282	151.06
381.507	162.06
381.733	179.06
381.958	178.06
382.184	207.06
382.409	195.06
382.634	193.06
382.86	184.06
383.085	178.06
383.31	144.06
383.535	166.06
383.761	162.06
383.986	164.06
384.211	193.06
384.436	174.06
384.662	132.06
384.887	147.06
385.112	157.06
385.337	164.06
385.562	143.06
385.787	150.06
386.013	166.06
386.238	166.06
386.463	152.06
386.688	145.06
386.913	138.06
387.138	150.06
387.363	132.06
387.588	144.06
387.813	142.06
388.038	146.06
388.263	135.06
388.488	133.06
388.713	138.06
388.938	148.06
389.163	126.06
389.387	123.06
389.612	127.06
389.837	148.06
390.062	130.06
390.287	133.06
390.512	148.06
390.736	144.06
390.961	138.06
391.186	134.06
391.411	126.06
391.636	143.06
391.86	137.06
392.085	150.06
392.31	147.06
392.534	145.06
392.759	135.06
392.984	139.06
393.208	142.06
393.433	143.06
393.658	119.06
393.882	135.06
394.107	130.06
394.331	133.06
394.556	128.06
394.78	129.06
395.005	120.06
395.229	128.06
395.454	120.06
395.678	113.06
395.903	139.06
396.127	135.06
396.352	143.06
396.576	142.06
396.801	144.06
397.025	154.06
397.249	161.06
397.474	144.06
397.698	142.06
397.922	152.06
398.147	148.06
398.371	152.06
398.595	157.06
398.82	143.06
399.044	130.06
399.268	149.06
399.492	147.06
399.717	149.06
399.941	153.06
400.165	141.06
400.389	148.06
400.613	149.06
400.837	158.06
401.062	127.06
401.286	150.06
401.51	140.06
401.734	125.06
401.958	126.06
402.182	136.06
402.406	119.06
402.63	138.06
402.854	136.06
403.078	153.06
403.302	201.06
403.526	219.06
403.75	188.06
403.974	142.06
404.198	177.06
404.422	171.06
404.645	181.06
404.869	194.06
405.093	161.06
405.317	151.06
405.541	150.06
405.765	144.06
405.988	172.06
406.212	158.06
406.436	163.06
406.66	162.06
406.883	148.06
407.107	146.06
407.331	179.06
407.555	159.06
407.778	146.06
408.002	153.06
408.226	157.06
408.449	155.06
408.673	142.06
408.896	150.06
409.12	140.06
409.344	134.06
409.567	142.06
409.791	140.06
410.014	130.06
410.238	134.06
410.461	134.06
410.685	146.06
410.908	147.06
411.132	146.06
411.355	155.06
411.578	142.06
411.802	134.06
412.025	149.06
412.249	150.06
412.472	138.06
412.695	131.06
412.919	147.06
413.142	139.06
413.365	155.06
413.589	159.06
413.812	150.06
414.035	135.06
414.258	147.06
414.482	144.06
414.705	162.06
414.928	145.06
415.151	140.06
415.374	148.06
415.597	156.06
415.821	138.06
416.044	140.06
416.267	134.06
416.49	132.06
416.713	119.06
416.936	134.06
417.159	132.06
417.382	138.06
417.605	147.06
417.828	134.06
418.051	129.06
418.274	151.06
418.497	132.06
418.72	144.06
418.943	135.06
419.166	126.06
419.389	139.06
419.611	146.06
419.834	149.06
420.057	148.06
420.28	156.06
420.503	129.06
420.726	132.06
420.948	136.06
421.171	148.06
421.394	128.06
421.617	138.06
421.839	141.06
422.062	134.06
422.285	121.06
422.507	153.06
422.73	137.06
422.953	143.06
423.175	130.06
423.398	133.06
423.621	153.06
423.843	168.06
424.066	144.06
424.288	134.06
424.511	148.06
424.733	134.06
424.956	151.06
425.178	164.06
425.401	185.06
425.623	192.06
425.846	160.06
426.068	150.06
426.291	172.06
426.513	135.06
426.735	144.06
426.958	155.06
427.18	180.06
427.402	192.06
427.625	182.06
427.847	165.06
428.069	134.06
428.292	142.06
428.514	147.06
428.736	139.06
428.958	161.06
429.181	170.06
429.403	163.06
429.625	142.06
429.847	135.06
430.069	157.06
430.292	142.06
430.514	130.06
430.736	135.06
430.958	167.06
431.18	136.06
431.402	129.06
431.624	128.06
431.846	112.06
432.068	129.06
432.29	136.06
432.512	143.06
432.734	161.06
432.956	164.06
433.178	140.06
433.4	138.06
433.622	138.06
433.844	128.06
434.066	151.06
434.287	152.06
434.509	155.06
434.731	153.06
434.953	144.06
435.175	150.06
435.397	159.06
435.618	150.06
435.84	124.06
436.062	122.06
436.284	128.06
436.505	133.06
436.727	117.06
436.949	114.06
437.17	128.06
437.392	128.06
437.614	135.06
437.835	137.06
438.057	138.06
438.278	167.06
438.5	199.06
438.721	172.06
438.943	153.06
439.165	124.06
439.386	137.06
439.608	132.06
439.829	128.06
440.05	116.06
440.272	130.06
440.493	152.06
440.715	164.06
440.936	159.06
441.158	136.06
441.379	135.06
441.6	154.06
441.822	140.06
442.043	124.06
442.264	125.06
442.486	142.06
442.707	138.06
442.928	140.06
443.149	130.06
443.371	137.06
443.592	126.06
443.813	136.06
444.034	131.06
444.255	133.06
444.476	144.06
444.698	119.06
444.919	126.06
445.14	272.06
445.361	219.06
445.582	152.06
445.803	160.06
446.024	141.06
446.245	154.06
446.466	157.06
446.687	145.06
446.908	136.06
447.129	130.06
447.35	132.06
447.571	132.06
447.792	120.06
448.013	133.06
448.234	132.06
448.455	112.06
448.675	124.06
448.896	134.06
449.117	123.06
449.338	123.06
449.559	119.06
449.779	144.06
450	132.06
450.221	134.06
450.442	135.06
450.662	134.06
450.883	131.06
451.104	142.06
451.324	124.06
451.545	116.06
451.766	151.06
451.986	136.06
452.207	130.06
452.428	120.06
452.648	138.06
452.869	142.06
453.089	153.06
453.31	134.06
453.53	150.06
453.751	122.06
453.971	127.06
454.192	137.06
454.412	148.06
454.633	136.06
454.853	134.06
455.073	116.06
455.294	119.06
455.514	124.06
455.734	117.06
455.955	141.06
456.175	121.06
456.395	114.06
456.616	125.06
456.836	128.06
457.056	128.06
457.276	125.06
457.497	130.06
457.717	118.06
457.937	127.06
458.157	124.06
458.377	118.06
458.598	124.06
458.818	130.06
459.038	135.06
459.258	142.06
459.478	126.06
459.698	153.06
459.918	148.06
460.138	128.06
460.358	136.06
460.578	137.06
460.798	135.06
461.018	131.06
461.238	127.06
461.458	128.06
461.678	125.06
461.898	138.06
462.118	133.06
462.338	133.06
462.558	136.06
462.777	144.06
462.997	157.06
463.217	138.06
463.437	153.06
463.657	148.06
463.876	122.06
464.096	134.06
464.316	146.06
464.536	149.06
464.755	165.06
464.975	157.06
465.195	136.06
465.414	153.06
465.634	138.06
465.854	139.06
466.073	140.06
466.293	132.06
466.512	135.06
466.732	134.06
466.951	156.06
467.171	130.06
467.391	134.06
467.61	137.06
467.829	138.06
468.049	145.06
468.268	132.06
468.488	128.06
468.707	143.06
468.927	141.06
469.146	161.06
469.365	137.06
469.585	133.06
469.804	137.06
470.023	154.06
470.243	112.06
470.462	153.06
470.681	138.06
470.901	137.06
471.12	151.06
471.339	152.06
471.558	128.06
471.777	121.06
471.997	149.06
472.216	162.06
472.435	155.06
472.654	156.06
472.873	138.06
473.092	129.06
473.311	143.06
473.53	140.06
473.749	130.06
473.968	150.06
474.187	154.06
474.406	142.06
474.625	123.06
474.844	145.06
475.063	161.06
475.282	143.06
475.501	166.06
475.72	188.06
475.939	160.06
476.158	161.06
476.377	191.06
476.596	192.06
476.814	188.06
477.033	180.06
477.252	137.06
477.471	134.06
477.69	142.06
477.908	148.06
478.127	166.06
478.346	170.06
478.564	184.06
478.783	158.06
479.002	166.06
479.22	168.06
479.439	168.06
479.658	161.06
479.876	147.06
480.095	154.06
480.313	175.06
480.532	155.06
480.751	165.06
480.969	158.06
481.188	160.06
481.406	184.06
481.624	156.06
481.843	158.06
482.061	151.06
482.28	167.06
482.498	198.06
482.717	197.06
482.935	163.06
483.153	149.06
483.372	145.06
483.59	154.06
483.808	130.06
484.027	151.06
484.245	129.06
484.463	131.06
484.681	149.06
484.9	155.06
485.118	159.06
485.336	155.06
485.554	137.06
485.772	151.06
485.99	159.06
486.209	168.06
486.427	149.06
486.645	165.06
486.863	148.06
487.081	165.06
487.299	192.06
487.517	169.06
487.735	161.06
487.953	167.06
488.171	154.06
488.389	158.06
488.607	147.06
488.825	169.06
489.043	169.06
489.261	197.06
489.479	202.06
489.696	180.06
489.914	174.06
490.132	138.06
490.35	139.06
490.568	146.06
490.786	168.06
491.003	140.06
491.221	168.06
491.439	166.06
491.657	142.06
491.874	163.06
492.092	206.06
492.31	207.06
492.527	206.06
492.745	182.06
492.963	156.06
493.18	161.06
493.398	167.06
493.615	164.06
493.833	161.06
494.05	172.06
494.268	151.06
494.485	146.06
494.703	150.06
494.92	159.06
495.138	151.06
495.355	155.06
495.573	162.06
495.79	180.06
496.008	228.06
496.225	189.06
496.442	165.06
496.66	170.06
496.877	181.06
497.094	175.06
497.312	178.06
497.529	164.06
497.746	166.06
497.963	165.06
498.181	184.06
498.398	159.06
498.615	200.06
498.832	194.06
499.049	184.06
499.267	178.06
499.484	184.06
499.701	184.06
499.918	220.06
500.135	216.06
500.352	205.06
500.569	209.06
500.786	229.06
501.003	252.06
501.22	221.06
501.437	198.06
501.654	206.06
501.871	194.06
502.088	182.06
502.305	186.06
502.522	178.06
502.739	177.06
502.956	169.06
503.172	179.06
503.389	168.06
503.606	164.06
503.823	161.06
504.04	183.06
504.256	177.06
504.473	174.06
504.69	163.06
504.907	170.06
505.123	173.06
505.34	181.06
505.557	183.06
505.773	153.06
505.99	158.06
506.207	165.06
506.423	160.06
506.64	152.06
506.856	167.06
507.073	180.06
507.289	157.06
507.506	162.06
507.722	168.06
507.939	180.06
508.155	206.06
508.372	177.06
508.588	165.06
508.805	144.06
509.021	155.06
509.238	163.06
509.454	159.06
509.67	156.06
509.887	167.06
510.103	172.06
510.319	174.06
510.536	149.06
510.752	157.06
510.968	165.06
511.184	152.06
511.401	144.06
511.617	148.06
511.833	142.06
512.049	151.06
512.265	160.06
512.481	162.06
512.698	138.06
512.914	177.06
513.13	162.06
513.346	140.06
513.562	147.06
513.778	153.06
513.994	177.06
514.21	163.06
514.426	163.06
514.642	147.06
514.858	144.06
515.074	167.06
515.29	157.06
515.506	177.06
515.721	174.06
515.937	161.06
516.153	156.06
516.369	185.06
516.585	180.06
516.801	183.06
517.016	206.06
517.232	191.06
517.448	191.06
517.664	184.06
517.879	164.06
518.095	168.06
518.311	154.06
518.527	173.06
518.742	169.06
518.958	189.06
519.173	194.06
519.389	182.06
519.605	199.06
519.82	190.06
520.036	199.06
520.251	186.06
520.467	223.06
520.682	342.06
520.898	395.06
521.113	384.06
521.329	232.06
521.544	200.06
521.76	186.06
521.975	177.06
522.19	167.06
522.406	190.06
522.621	197.06
522.836	183.06
523.052	193.06
523.267	167.06
523.482	188.06
523.698	185.06
523.913	152.06
524.128	159.06
524.343	146.06
524.559	163.06
524.774	166.06
524.989	178.06
525.204	158.06
525.419	166.06
525.634	166.06
525.849	182.06
526.064	174.06
526.28	177.06
526.495	201.06
526.71	215.06
526.925	196.06
527.14	188.06
527.355	194.06
527.57	174.06
527.785	180.06
527.999	173.06
528.214	145.06
528.429	143.06
528.644	158.06
528.859	132.06
529.074	143.06
529.289	158.06
529.503	162.06
529.718	160.06
529.933	213.06
530.148	208.06
530.363	170.06
530.577	143.06
530.792	153.06
531.007	140.06
531.221	142.06
531.436	150.06
531.651	151.06
531.865	142.06
532.08	153.06
532.295	132.06
532.509	162.06
532.724	162.06
532.938	189.06
533.153	229.06
533.367	176.06
533.582	161.06
533.796	163.06
534.011	170.06
534.225	184.06
534.44	149.06
534.654	169.06
534.868	185.06
535.083	175.06
535.297	158.06
535.511	160.06
535.726	136.06
535.94	153.06
536.154	146.06
536.369	152.06
536.583	150.06
536.797	149.06
537.011	169.06
537.225	176.06
537.44	183.06
537.654	160.06
537.868	158.06
538.082	152.06
538.296	150.06
538.51	155.06
538.724	160.06
538.938	156.06
539.153	149.06
539.367	145.06
539.581	157.06
539.795	168.06
540.009	165.06
540.222	167.06
540.436	168.06
540.65	165.06
540.864	184.06
541.078	180.06
541.292	208.06
541.506	151.06
541.72	149.06
541.934	159.06
542.147	160.06
542.361	162.06
542.575	166.06
542.789	156.06
543.002	145.06
543.216	156.06
543.43	130.06
543.644	164.06
543.857	145.06
544.071	155.06
544.285	161.06
544.498	146.06
544.712	152.06
544.925	150.06
545.139	144.06
545.352	144.06
545.566	152.06
545.779	163.06
545.993	132.06
546.206	142.06
546.42	150.06
546.633	134.06
546.847	136.06
547.06	127.06
547.274	134.06
547.487	156.06
547.7	134.06
547.914	145.06
548.127	147.06
548.34	142.06
548.554	166.06
548.767	159.06
548.98	150.06
549.193	146.06
549.407	137.06
549.62	159.06
549.833	166.06
550.046	159.06
550.259	150.06
550.473	158.06
550.686	149.06
550.899	139.06
551.112	172.06
551.325	152.06
551.538	144.06
551.751	128.06
551.964	152.06
552.177	135.06
552.39	129.06
552.603	152.06
552.816	147.06
553.029	131.06
553.242	137.06
553.455	156.06
553.667	136.06
553.88	151.06
554.093	150.06
554.306	137.06
554.519	145.06
554.732	124.06
554.944	138.06
555.157	142.06
555.37	147.06
555.583	106.06
555.795	133.06
556.008	138.06
556.221	141.06
556.433	122.06
556.646	138.06
556.859	126.06
557.071	133.06
557.284	141.06
557.496	126.06
557.709	127.06
557.921	131.06
558.134	119.06
558.346	130.06
558.559	120.06
558.771	130.06
558.984	134.06
559.196	134.06
559.409	124.06
559.621	117.06
559.833	134.06
560.046	122.06
560.258	125.06
560.47	136.06
560.683	130.06
560.895	106.06
561.107	120.06
561.32	137.06
561.532	124.06
561.744	132.06
561.956	140.06
562.168	117.06
562.381	118.06
562.593	138.06
562.805	125.06
563.017	120.06
563.229	113.06
563.441	118.06
563.653	119.06
563.865	126.06
564.077	133.06
564.289	124.06
564.501	114.06
564.713	113.06
564.925	144.06
565.137	130.06
565.349	142.06
565.561	127.06
565.773	128.06
565.985	125.06
566.197	124.06
566.408	137.06
566.62	136.06
566.832	134.06
567.044	142.06
567.255	146.06
567.467	136.06
567.679	137.06
567.891	142.06
568.102	133.06
568.314	129.06
568.526	131.06
568.737	130.06
568.949	133.06
569.161	136.06
569.372	118.06
569.584	125.06
569.795	128.06
570.007	135.06
570.218	149.06
570.43	121.06
570.641	121.06
570.853	120.06
571.064	113.06
571.276	119.06
571.487	128.06
571.698	126.06
571.91	119.06
572.121	125.06
572.333	124.06
572.544	126.06
572.755	122.06
572.966	117.06
573.178	117.06
573.389	104.06
573.6	122.06
573.811	124.06
574.023	118.06
574.234	121.06
574.445	116.06
574.656	116.06
574.867	117.06
575.078	109.06
575.289	115.06
575.501	124.06
575.712	110.06
575.923	117.06
576.134	114.06
576.345	111.06
576.556	118.06
576.767	118.06
576.978	112.06
577.188	115.06
577.399	118.06
577.61	120.06
577.821	111.06
578.032	133.06
578.243	129.06
578.454	117.06
578.665	124.06
578.875	134.06
579.086	133.06
579.297	136.06
579.508	130.06
579.718	134.06
579.929	109.06
580.14	117.06
580.35	112.06
580.561	119.06
580.772	105.06
580.982	112.06
581.193	101.06
581.403	118.06
581.614	108.06
581.825	106.06
582.035	120.06
582.246	103.06
582.456	107.06
582.667	122.06
582.877	109.06
583.087	116.06
583.298	110.06
583.508	127.06
583.719	117.06
583.929	117.06
584.139	102.06
584.35	111.06
584.56	114.06
584.77	123.06
584.981	92.06
585.191	117.06
585.401	110.06
585.611	115.06
585.821	112.06
586.032	108.06
586.242	92.06
586.452	113.06
586.662	110.06
586.872	112.06
587.082	101.06
587.292	116.06
587.502	89.06
587.713	102.06
587.923	106.06
588.133	104.06
588.343	108.06
588.553	96.06
588.762	119.06
588.972	120.06
589.182	125.06
589.392	114.06
589.602	119.06
589.812	117.06
590.022	114.06
590.232	111.06
590.441	106.06
590.651	110.06
590.861	118.06
591.071	116.06
591.281	124.06
591.49	101.06
591.7	111.06
591.91	111.06
592.119	113.06
592.329	98.06
592.539	100.06
592.748	112.06
592.958	98.06
593.167	123.06
593.377	112.06
593.587	109.06
593.796	108.06
594.006	118.06
594.215	111.06
594.424	111.06
594.634	109.06
594.843	114.06
595.053	105.06
595.262	113.06
595.472	100.06
595.681	109.06
595.89	110.06
596.1	118.06
596.309	97.06
596.518	109.06
596.727	118.06
596.937	113.06
597.146	120.06
597.355	93.06
597.564	110.06
597.774	106.06
597.983	92.06
598.192	98.06
598.401	108.06
598.61	101.06
598.819	105.06
599.028	103.06
599.237	92.06
599.446	99.06
599.655	112.06
599.864	98.06
600.073	109.06
600.282	92.06
600.491	101.06
600.7	95.06
600.909	99.06
601.118	110.06
601.327	116.06
601.536	113.06
601.745	111.06
601.953	116.06
602.162	99.06
602.371	102.06
602.58	120.06
602.789	112.06
602.997	109.06
603.206	100.06
603.415	113.06
603.623	111.06
603.832	95.06
604.041	99.06
604.249	88.06
604.458	106.06
604.666	98.06
604.875	96.06
605.084	98.06
605.292	97.06
605.501	112.06
605.709	98.06
605.918	88.06
606.126	90.06
606.334	89.06
606.543	97.06
606.751	110.06
606.96	104.06
607.168	85.06
607.376	94.06
607.585	101.06
607.793	103.06
608.001	106.06
608.21	97.06
608.418	105.06
608.626	94.06
608.834	107.06
609.043	96.06
609.251	98.06
609.459	95.06
609.667	85.06
609.875	103.06
610.083	113.06
610.291	96.06
610.499	106.06
610.707	106.06
610.916	98.06
611.124	97.06
611.332	95.06
611.54	85.06
611.748	108.06
611.955	97.06
612.163	110.06
612.371	92.06
612.579	99.06
612.787	89.06
612.995	90.06
613.203	100.06
613.411	95.06
613.618	102.06
613.826	110.06
614.034	96.06
614.242	108.06
614.449	108.06
614.657	89.06
614.865	114.06
615.072	96.06
615.28	97.06
615.488	93.06
615.695	88.06
615.903	95.06
616.111	102.06
616.318	106.06
616.526	109.06
616.733	101.06
616.941	100.06
617.148	114.06
617.356	99.06
617.563	111.06
617.771	101.06
617.978	84.06
618.185	84.06
618.393	92.06
618.6	97.06
618.807	97.06
619.015	97.06
619.222	99.06
619.429	95.06
619.637	101.06
619.844	103.06
620.051	106.06
620.258	99.06
620.466	86.06
620.673	93.06
620.88	104.06
621.087	113.06
621.294	108.06
621.501	100.06
621.708	97.06
621.915	92.06
622.122	104.06
622.329	103.06
622.536	86.06
622.743	87.06
622.95	89.06
623.157	111.06
623.364	103.06
623.571	103.06
623.778	81.06
623.985	87.06
624.192	87.06
624.399	101.06
624.606	99.06
624.812	105.06
625.019	88.06
625.226	92.06
625.433	84.06
625.639	88.06
625.846	94.06
626.053	83.06
626.259	79.06
626.466	89.06
626.673	88.06
626.879	84.06
627.086	95.06
627.293	102.06
627.499	100.06
627.706	91.06
627.912	101.06
628.119	94.06
628.325	90.06
628.532	70.06
628.738	79.06
628.945	97.06
629.151	82.06
629.357	93.06
629.564	99.06
629.77	84.06
629.976	95.06
630.183	100.06
630.389	85.06
630.595	92.06
630.802	97.06
631.008	96.06
631.214	95.06
631.42	81.06
631.627	91.06
631.833	84.06
632.039	81.06
632.245	88.06
632.451	112.06
632.657	81.06
632.863	95.06
633.069	93.06
633.275	92.06
633.481	94.06
633.688	109.06
633.893	96.06
634.099	108.06
634.305	89.06
634.511	99.06
634.717	99.06
634.923	80.06
635.129	101.06
635.335	107.06
635.541	85.06
635.747	100.06
635.952	92.06
636.158	95.06
636.364	93.06
636.57	89.06
636.775	83.06
636.981	76.06
637.187	68.06
637.392	94.06
637.598	92.06
637.804	89.06
638.009	102.06
638.215	92.06
638.421	103.06
638.626	87.06
638.832	93.06
639.037	80.06
639.243	83.06
639.448	98.06
639.654	94.06
639.859	100.06
640.065	94.06
640.27	98.06
640.475	100.06
640.681	73.06
640.886	95.06
641.091	74.06
641.297	96.06
641.502	85.06
641.707	85.06
641.913	105.06
642.118	89.06
642.323	76.06
642.528	83.06
642.733	79.06
642.939	89.06
643.144	86.06
643.349	84.06
643.554	87.06
643.759	94.06
643.964	84.06
644.169	93.06
644.374	101.06
644.579	81.06
644.784	99.06
644.989	97.06
645.194	104.06
645.399	85.06
645.604	80.06
645.809	92.06
646.014	92.06
646.219	88.06
646.423	83.06
646.628	103.06
646.833	84.06
647.038	84.06
647.243	78.06
647.447	71.06
647.652	92.06
647.857	105.06
648.062	87.06
648.266	84.06
648.471	99.06
648.676	95.06
648.88	87.06
649.085	83.06
649.289	91.06
649.494	99.06
649.698	87.06
649.903	86.06
650.107	79.06
650.312	92.06
650.516	99.06
650.721	86.06
650.925	81.06
651.13	83.06
651.334	95.06
651.539	102.06
651.743	90.06
651.947	74.06
652.152	86.06
652.356	95.06
652.56	73.06
652.764	93.06
652.969	90.06
653.173	83.06
653.377	94.06
653.581	77.06
653.785	76.06
653.99	85.06
654.194	84.06
654.398	87.06
654.602	73.06
654.806	96.06
655.01	74.06
655.214	88.06
655.418	92.06
655.622	88.06
655.826	82.06
656.03	86.06
656.234	97.06
656.438	92.06
656.642	71.06
656.846	77.06
657.049	84.06
657.253	100.06
657.457	88.06
657.661	88.06
657.865	80.06
658.068	81.06
658.272	78.06
658.476	87.06
658.68	75.06
658.883	82.06
659.087	77.06
659.291	100.06
659.494	93.06
659.698	79.06
659.901	83.06
660.105	97.06
660.309	82.06
660.512	69.06
660.716	86.06
660.919	71.06
661.123	79.06
661.326	68.06
661.53	71.06
661.733	80.06
661.936	75.06
662.14	91.06
662.343	87.06
662.546	81.06
662.75	77.06
662.953	68.06
663.156	84.06
663.36	75.06
663.563	80.06
663.766	92.06
663.969	101.06
664.173	93.06
664.376	81.06
664.579	77.06
664.782	78.06
664.985	75.06
665.188	85.06
665.391	84.06
665.594	88.06
665.797	89.06
666	68.06
666.203	83.06
666.406	68.06
666.609	76.06
666.812	84.06
667.015	87.06
667.218	89.06
667.421	84.06
667.624	93.06
667.827	92.06
668.03	81.06
668.232	73.06
668.435	95.06
668.638	77.06
668.841	80.06
669.043	77.06
669.246	76.06
669.449	75.06
669.651	84.06
669.854	68.06
670.057	71.06
670.259	76.06
670.462	73.06
670.665	83.06
670.867	82.06
671.07	66.06
671.272	90.06
671.475	70.06
671.677	81.06
671.88	78.06
672.082	75.06
672.284	78.06
672.487	80.06
672.689	95.06
672.892	86.06
