Data from NickelSpatula.Lamp.E10.P2_HRD10591_11-58-11-529.txt Node
Date: Tue Jul 23 11:58:11 EDT 2019
User: cochatt
Spectrometer: HR+D1059
Trigger mode: 1
Integration Time (sec): 1.000000E-1
Scans to average: 1
Electric dark correction enabled: true
Nonlinearity correction enabled: false
Boxcar width: 0
XAxis mode: Wavelengths
Number of Pixels in Spectrum: 2048
>>>>>Begin Spectral Data<<<<<
223.165	-19.62
223.4	-19.62
223.635	-19.62
223.869	-19.62
224.104	-12.62
224.338	-10.62
224.573	-2.62
224.808	-16.62
225.042	-7.62
225.277	-1.62
225.511	4.38
225.746	8.38
225.98	3.38
226.215	-9.62
226.449	13.38
226.683	27.38
226.918	27.38
227.152	16.38
227.387	46.38
227.621	34.38
227.856	46.38
228.09	28.38
228.324	22.38
228.559	45.38
228.793	86.38
229.027	145.38
229.262	140.38
229.496	157.38
229.73	158.38
229.964	180.38
230.199	223.38
230.433	217.38
230.667	190.38
230.901	206.38
231.136	185.38
231.37	205.38
231.604	223.38
231.838	233.38
232.072	248.38
232.306	243.38
232.541	230.38
232.775	255.38
233.009	258.38
233.243	287.38
233.477	309.38
233.711	333.38
233.945	328.38
234.179	313.38
234.413	340.38
234.647	394.38
234.881	462.38
235.115	409.38
235.349	397.38
235.583	365.38
235.817	350.38
236.051	370.38
236.285	420.38
236.519	477.38
236.753	426.38
236.987	438.38
237.221	398.38
237.455	414.38
237.689	428.38
237.922	452.38
238.156	483.38
238.39	552.38
238.624	669.38
238.858	575.38
239.091	520.38
239.325	487.38
239.559	473.38
239.793	541.38
240.027	668.38
240.26	611.38
240.494	572.38
240.728	568.38
240.961	677.38
241.195	635.38
241.429	642.38
241.662	632.38
241.896	534.38
242.13	492.38
242.363	446.38
242.597	470.38
242.83	542.38
243.064	546.38
243.298	599.38
243.531	609.38
243.765	633.38
243.998	621.38
244.232	595.38
244.465	610.38
244.699	619.38
244.932	666.38
245.166	636.38
245.399	557.38
245.633	530.38
245.866	586.38
246.099	627.38
246.333	694.38
246.566	789.38
246.8	781.38
247.033	757.38
247.266	704.38
247.5	684.38
247.733	704.38
247.966	657.38
248.2	696.38
248.433	772.38
248.666	850.38
248.899	849.38
249.133	870.38
249.366	1016.38
249.599	1061.38
249.832	955.38
250.066	812.38
250.299	853.38
250.532	842.38
250.765	810.38
250.998	728.38
251.231	717.38
251.465	766.38
251.698	828.38
251.931	784.38
252.164	833.38
252.397	938.38
252.63	1059.38
252.863	1148.38
253.096	1226.38
253.329	1136.38
253.562	1093.38
253.795	1227.38
254.028	1374.38
254.261	1405.38
254.494	1254.38
254.727	1130.38
254.96	1130.38
255.193	1212.38
255.426	1152.38
255.659	849.38
255.892	805.38
256.124	852.38
256.357	1016.38
256.59	1190.38
256.823	1194.38
257.056	994.38
257.289	898.38
257.521	971.38
257.754	1115.38
257.987	1304.38
258.22	1098.38
258.452	1018.38
258.685	1152.38
258.918	1301.38
259.151	1274.38
259.383	1298.38
259.616	1492.38
259.849	1586.38
260.081	1726.38
260.314	1890.38
260.547	1479.38
260.779	1526.38
261.012	1734.38
261.244	1641.38
261.477	1683.38
261.71	1548.38
261.942	1309.38
262.175	1279.38
262.407	1269.38
262.64	1272.38
262.872	1517.38
263.105	1652.38
263.337	1709.38
263.57	1554.38
263.802	1024.38
264.035	904.38
264.267	849.38
264.499	751.38
264.732	695.38
264.964	696.38
265.197	708.38
265.429	792.38
265.661	801.38
265.894	831.38
266.126	948.38
266.358	1033.38
266.591	1240.38
266.823	1494.38
267.055	1398.38
267.287	1248.38
267.52	1284.38
267.752	1321.38
267.984	1450.38
268.216	1368.38
268.448	1128.38
268.681	1118.38
268.913	1220.38
269.145	1252.38
269.377	1294.38
269.609	1329.38
269.841	1211.38
270.073	1298.38
270.306	1376.38
270.538	1374.38
270.77	1407.38
271.002	1448.38
271.234	1469.38
271.466	1494.38
271.698	1438.38
271.93	1413.38
272.162	1410.38
272.394	1414.38
272.626	1426.38
272.858	1468.38
273.09	1496.38
273.322	1317.38
273.553	1295.38
273.785	1536.38
274.017	2012.38
274.249	2501.38
274.481	2592.38
274.713	2774.38
274.945	3190.38
275.176	3277.38
275.408	2890.38
275.64	2628.38
275.872	2685.38
276.104	2196.38
276.335	1910.38
276.567	1898.38
276.799	1935.38
277.031	2061.38
277.262	1607.38
277.494	1243.38
277.726	1239.38
277.957	1322.38
278.189	1484.38
278.421	1477.38
278.652	1450.38
278.884	1344.38
279.115	1252.38
279.347	1194.38
279.579	1218.38
279.81	1190.38
280.042	1207.38
280.273	1252.38
280.505	1131.38
280.736	1004.38
280.968	992.38
281.199	1092.38
281.431	1262.38
281.662	1219.38
281.894	1181.38
282.125	1286.38
282.356	1360.38
282.588	1410.38
282.819	1251.38
283.051	1374.38
283.282	1680.38
283.513	1969.38
283.745	2174.38
283.976	2156.38
284.207	2010.38
284.439	2147.38
284.67	2058.38
284.901	1788.38
285.132	1908.38
285.364	1987.38
285.595	1813.38
285.826	1968.38
286.057	2018.38
286.288	1987.38
286.52	2003.38
286.751	2115.38
286.982	2130.38
287.213	1810.38
287.444	1761.38
287.675	1834.38
287.906	1805.38
288.138	1507.38
288.369	1405.38
288.6	1275.38
288.831	1333.38
289.062	1577.38
289.293	1723.38
289.524	1584.38
289.755	1646.38
289.986	1642.38
290.217	1422.38
290.448	1129.38
290.679	965.38
290.91	916.38
291.141	938.38
291.371	975.38
291.602	977.38
291.833	972.38
292.064	1057.38
292.295	1200.38
292.526	1378.38
292.757	1412.38
292.987	1546.38
293.218	1535.38
293.449	1570.38
293.68	1692.38
293.91	1587.38
294.141	1636.38
294.372	1491.38
294.603	1420.38
294.833	1610.38
295.064	1827.38
295.295	1725.38
295.525	1337.38
295.756	1173.38
295.987	1028.38
296.217	1006.38
296.448	1042.38
296.679	1122.38
296.909	1214.38
297.14	1308.38
297.37	1461.38
297.601	1363.38
297.831	1189.38
298.062	1276.38
298.292	1427.38
298.523	1576.38
298.753	1786.38
298.984	1576.38
299.214	1260.38
299.445	1088.38
299.675	1045.38
299.905	1016.38
300.136	1049.38
300.366	1160.38
300.597	1140.38
300.827	988.38
301.057	966.38
301.288	1037.38
301.518	1099.38
301.748	1211.38
301.979	1337.38
302.209	1428.38
302.439	1444.38
302.669	1255.38
302.9	1214.38
303.13	1178.38
303.36	1076.38
303.59	1072.38
303.82	1114.38
304.051	1260.38
304.281	1318.38
304.511	1250.38
304.741	1112.38
304.971	1186.38
305.201	1280.38
305.431	1183.38
305.661	1061.38
305.891	1072.38
306.121	1086.38
306.352	948.38
306.582	847.38
306.812	836.38
307.042	876.38
307.272	832.38
307.502	810.38
307.731	854.38
307.961	934.38
308.191	862.38
308.421	808.38
308.651	808.38
308.881	773.38
309.111	781.38
309.341	827.38
309.571	893.38
309.8	928.38
310.03	919.38
310.26	976.38
310.49	946.38
310.72	865.38
310.949	851.38
311.179	882.38
311.409	928.38
311.639	1083.38
311.868	1388.38
312.098	1798.38
312.328	1962.38
312.557	1851.38
312.787	1862.38
313.017	1680.38
313.246	1794.38
313.476	1947.38
313.706	1638.38
313.935	1277.38
314.165	1037.38
314.394	953.38
314.624	940.38
314.853	993.38
315.083	1041.38
315.312	971.38
315.542	1009.38
315.771	953.38
316.001	850.38
316.23	836.38
316.46	835.38
316.689	851.38
316.919	892.38
317.148	893.38
317.377	866.38
317.607	891.38
317.836	965.38
318.065	1100.38
318.295	1225.38
318.524	1151.38
318.753	956.38
318.983	926.38
319.212	921.38
319.441	974.38
319.67	1116.38
319.9	1213.38
320.129	1141.38
320.358	969.38
320.587	933.38
320.816	1009.38
321.046	1179.38
321.275	1330.38
321.504	1329.38
321.733	1277.38
321.962	1242.38
322.191	1144.38
322.42	1112.38
322.649	1092.38
322.878	1192.38
323.108	1186.38
323.337	1084.38
323.566	1105.38
323.795	1051.38
324.024	985.38
324.253	967.38
324.482	964.38
324.71	1081.38
324.939	1201.38
325.168	1125.38
325.397	925.38
325.626	920.38
325.855	937.38
326.084	909.38
326.313	877.38
326.542	825.38
326.77	883.38
326.999	904.38
327.228	968.38
327.457	994.38
327.686	1000.38
327.914	869.38
328.143	829.38
328.372	825.38
328.6	859.38
328.829	854.38
329.058	886.38
329.287	898.38
329.515	892.38
329.744	868.38
329.972	836.38
330.201	798.38
330.43	819.38
330.658	933.38
330.887	1078.38
331.115	1040.38
331.344	966.38
331.572	972.38
331.801	892.38
332.03	844.38
332.258	890.38
332.486	960.38
332.715	966.38
332.943	931.38
333.172	897.38
333.4	933.38
333.629	1025.38
333.857	1103.38
334.085	1084.38
334.314	1088.38
334.542	1042.38
334.771	960.38
334.999	932.38
335.227	914.38
335.455	918.38
335.684	1045.38
335.912	1219.38
336.14	1361.38
336.369	1249.38
336.597	1203.38
336.825	1374.38
337.053	1556.38
337.281	1250.38
337.51	999.38
337.738	972.38
337.966	1062.38
338.194	1187.38
338.422	1115.38
338.65	954.38
338.878	870.38
339.106	904.38
339.334	999.38
339.562	1044.38
339.79	1002.38
340.018	974.38
340.246	1054.38
340.474	1218.38
340.702	1261.38
340.93	1327.38
341.158	1302.38
341.386	1106.38
341.614	1102.38
341.842	1131.38
342.07	1147.38
342.298	1331.38
342.526	1389.38
342.754	1204.38
342.981	1107.38
343.209	1052.38
343.437	1146.38
343.665	1167.38
343.893	1171.38
344.12	1385.38
344.348	1571.38
344.576	1472.38
344.804	1201.38
345.031	1028.38
345.259	966.38
345.487	980.38
345.714	1006.38
345.942	1091.38
346.17	1196.38
346.397	1115.38
346.625	978.38
346.853	989.38
347.08	960.38
347.308	980.38
347.535	1106.38
347.763	1136.38
347.99	980.38
348.218	924.38
348.445	1003.38
348.673	966.38
348.9	989.38
349.128	1030.38
349.355	1089.38
349.583	1054.38
349.81	1028.38
350.037	950.38
350.265	820.38
350.492	772.38
350.72	803.38
350.947	831.38
351.174	861.38
351.402	946.38
351.629	979.38
351.856	950.38
352.083	888.38
352.311	985.38
352.538	1083.38
352.765	1125.38
352.992	1036.38
353.22	961.38
353.447	960.38
353.674	928.38
353.901	962.38
354.128	986.38
354.355	976.38
354.583	979.38
354.81	989.38
355.037	1017.38
355.264	978.38
355.491	1075.38
355.718	1191.38
355.945	1121.38
356.172	1103.38
356.399	1081.38
356.626	1327.38
356.853	1604.38
357.08	1728.38
357.307	1745.38
357.534	1350.38
357.761	1386.38
357.988	1740.38
358.215	2081.38
358.441	1922.38
358.668	1626.38
358.895	1491.38
359.122	1207.38
359.349	1200.38
359.576	1305.38
359.802	1074.38
360.029	939.38
360.256	1024.38
360.483	1272.38
360.709	1605.38
360.936	1656.38
361.163	1445.38
361.39	1083.38
361.616	1046.38
361.843	1234.38
362.07	1503.38
362.296	1364.38
362.523	1056.38
362.749	916.38
362.976	979.38
363.203	1182.38
363.429	1341.38
363.656	1065.38
363.882	984.38
364.109	988.38
364.335	976.38
364.562	975.38
364.788	1098.38
365.015	1297.38
365.241	1187.38
365.468	930.38
365.694	850.38
365.92	814.38
366.147	802.38
366.373	788.38
366.599	788.38
366.826	795.38
367.052	812.38
367.278	837.38
367.505	820.38
367.731	889.38
367.957	1004.38
368.184	1036.38
368.41	985.38
368.636	1014.38
368.862	1037.38
369.089	995.38
369.315	918.38
369.541	865.38
369.767	872.38
369.993	858.38
370.219	841.38
370.445	900.38
370.672	1003.38
370.898	1102.38
371.124	1075.38
371.35	934.38
371.576	891.38
371.802	982.38
372.028	1162.38
372.254	1332.38
372.48	1154.38
372.706	1023.38
372.932	1089.38
373.158	1098.38
373.384	1327.38
373.61	1809.38
373.835	1830.38
374.061	1362.38
374.287	1177.38
374.513	1387.38
374.739	1646.38
374.965	1719.38
375.191	1647.38
375.416	1160.38
375.642	1030.38
375.868	1159.38
376.094	1348.38
376.319	1159.38
376.545	1305.38
376.771	1377.38
376.997	1148.38
377.222	846.38
377.448	728.38
377.674	732.38
377.899	750.38
378.125	744.38
378.35	742.38
378.576	790.38
378.802	844.38
379.027	912.38
379.253	881.38
379.478	923.38
379.704	1028.38
379.929	1112.38
380.155	1075.38
380.38	932.38
380.606	1018.38
380.831	1124.38
381.057	1020.38
381.282	964.38
381.507	1182.38
381.733	1453.38
381.958	1514.38
382.184	1642.38
382.409	1707.38
382.634	1661.38
382.86	1742.38
383.085	1410.38
383.31	1150.38
383.535	1212.38
383.761	1201.38
383.986	1182.38
384.211	1413.38
384.436	1346.38
384.662	1026.38
384.887	978.38
385.112	1028.38
385.337	1014.38
385.562	979.38
385.787	1047.38
386.013	1208.38
386.238	1276.38
386.463	1051.38
386.688	1003.38
386.913	916.38
387.138	865.38
387.363	938.38
387.588	969.38
387.813	968.38
388.038	1083.38
388.263	977.38
388.488	927.38
388.713	1097.38
388.938	1208.38
389.163	1022.38
389.387	911.38
389.612	915.38
389.837	959.38
390.062	978.38
390.287	997.38
390.512	1017.38
390.736	931.38
390.961	878.38
391.186	858.38
391.411	829.38
391.636	841.38
391.86	930.38
392.085	1013.38
392.31	995.38
392.534	947.38
392.759	929.38
392.984	989.38
393.208	973.38
393.433	847.38
393.658	803.38
393.882	756.38
394.107	774.38
394.331	794.38
394.556	800.38
394.78	803.38
395.005	859.38
395.229	865.38
395.454	867.38
395.678	889.38
395.903	886.38
396.127	872.38
396.352	881.38
396.576	969.38
396.801	988.38
397.025	1100.38
397.249	1146.38
397.474	941.38
397.698	914.38
397.922	976.38
398.147	920.38
398.371	914.38
398.595	977.38
398.82	934.38
399.044	925.38
399.268	1030.38
399.492	1041.38
399.717	1024.38
399.941	1102.38
400.165	1021.38
400.389	1038.38
400.613	1046.38
400.837	1028.38
401.062	933.38
401.286	908.38
401.51	912.38
401.734	898.38
401.958	917.38
402.182	865.38
402.406	892.38
402.63	899.38
402.854	930.38
403.078	1049.38
403.302	1305.38
403.526	1334.38
403.75	1194.38
403.974	1056.38
404.198	1065.38
404.422	1244.38
404.645	1454.38
404.869	1576.38
405.093	1169.38
405.317	1009.38
405.541	972.38
405.765	1024.38
405.988	998.38
406.212	1043.38
406.436	1272.38
406.66	1467.38
406.883	1143.38
407.107	1164.38
407.331	1341.38
407.555	1313.38
407.778	1097.38
408.002	1034.38
408.226	1027.38
408.449	1059.38
408.673	1027.38
408.896	929.38
409.12	909.38
409.344	917.38
409.567	881.38
409.791	906.38
410.014	887.38
410.238	874.38
410.461	877.38
410.685	887.38
410.908	913.38
411.132	947.38
411.355	956.38
411.578	947.38
411.802	902.38
412.025	969.38
412.249	979.38
412.472	935.38
412.695	962.38
412.919	961.38
413.142	965.38
413.365	1080.38
413.589	1057.38
413.812	973.38
414.035	920.38
414.258	932.38
414.482	1034.38
414.705	1067.38
414.928	890.38
415.151	884.38
415.374	873.38
415.597	900.38
415.821	893.38
416.044	886.38
416.267	886.38
416.49	867.38
416.713	845.38
416.936	858.38
417.159	848.38
417.382	863.38
417.605	909.38
417.828	906.38
418.051	901.38
418.274	930.38
418.497	915.38
418.72	952.38
418.943	965.38
419.166	998.38
419.389	1027.38
419.611	988.38
419.834	1023.38
420.057	1112.38
420.28	1099.38
420.503	1037.38
420.726	917.38
420.948	876.38
421.171	856.38
421.394	860.38
421.617	866.38
421.839	880.38
422.062	908.38
422.285	930.38
422.507	960.38
422.73	945.38
422.953	973.38
423.175	958.38
423.398	945.38
423.621	1043.38
423.843	1073.38
424.066	1005.38
424.288	936.38
424.511	908.38
424.733	908.38
424.956	956.38
425.178	1099.38
425.401	1208.38
425.623	1388.38
425.846	1149.38
426.068	1021.38
426.291	1109.38
426.513	1032.38
426.735	960.38
426.958	995.38
427.18	1178.38
427.402	1465.38
427.625	1475.38
427.847	1208.38
428.069	918.38
428.292	909.38
428.514	886.38
428.736	840.38
428.958	957.38
429.181	1123.38
429.403	984.38
429.625	861.38
429.847	863.38
430.069	889.38
430.292	921.38
430.514	888.38
430.736	968.38
430.958	1220.38
431.18	1075.38
431.402	852.38
431.624	818.38
431.846	817.38
432.068	784.38
432.29	816.38
432.512	934.38
432.734	1220.38
432.956	1116.38
433.178	885.38
433.4	840.38
433.622	853.38
433.844	892.38
434.066	933.38
434.287	914.38
434.509	887.38
434.731	940.38
434.953	873.38
435.175	922.38
435.397	1041.38
435.618	896.38
435.84	842.38
436.062	833.38
436.284	837.38
436.505	770.38
436.727	818.38
436.949	800.38
437.17	840.38
437.392	849.38
437.614	842.38
437.835	854.38
438.057	839.38
438.278	968.38
438.5	1398.38
438.721	1364.38
438.943	949.38
439.165	808.38
439.386	786.38
439.608	817.38
439.829	748.38
440.05	786.38
440.272	850.38
440.493	1003.38
440.715	1232.38
440.936	990.38
441.158	863.38
441.379	862.38
441.6	965.38
441.822	1020.38
442.043	852.38
442.264	861.38
442.486	885.38
442.707	851.38
442.928	859.38
443.149	877.38
443.371	884.38
443.592	922.38
443.813	940.38
444.034	893.38
444.255	926.38
444.476	958.38
444.698	905.38
444.919	945.38
445.14	1030.38
445.361	1038.38
445.582	949.38
445.803	963.38
446.024	956.38
446.245	902.38
446.466	933.38
446.687	869.38
446.908	895.38
447.129	846.38
447.35	786.38
447.571	803.38
447.792	800.38
448.013	790.38
448.234	779.38
448.455	773.38
448.675	788.38
448.896	821.38
449.117	814.38
449.338	810.38
449.559	813.38
449.779	877.38
450	875.38
450.221	849.38
450.442	783.38
450.662	789.38
450.883	805.38
451.104	801.38
451.324	800.38
451.545	806.38
451.766	802.38
451.986	802.38
452.207	779.38
452.428	784.38
452.648	777.38
452.869	797.38
453.089	840.38
453.31	845.38
453.53	761.38
453.751	742.38
453.971	760.38
454.192	770.38
454.412	805.38
454.633	747.38
454.853	734.38
455.073	760.38
455.294	728.38
455.514	730.38
455.734	765.38
455.955	780.38
456.175	840.38
456.395	714.38
456.616	702.38
456.836	673.38
457.056	714.38
457.276	684.38
457.497	717.38
457.717	730.38
457.937	719.38
458.157	732.38
458.377	726.38
458.598	747.38
458.818	751.38
459.038	804.38
459.258	813.38
459.478	843.38
459.698	899.38
459.918	876.38
460.138	885.38
460.358	876.38
460.578	854.38
460.798	868.38
461.018	906.38
461.238	874.38
461.458	855.38
461.678	916.38
461.898	942.38
462.118	923.38
462.338	944.38
462.558	982.38
462.777	965.38
462.997	1033.38
463.217	1008.38
463.437	1029.38
463.657	1022.38
463.876	970.38
464.096	960.38
464.316	974.38
464.536	984.38
464.755	1001.38
464.975	1033.38
465.195	960.38
465.414	974.38
465.634	956.38
465.854	933.38
466.073	868.38
466.293	874.38
466.512	932.38
466.732	1044.38
466.951	1049.38
467.171	950.38
467.391	885.38
467.61	882.38
467.829	912.38
468.049	927.38
468.268	885.38
468.488	861.38
468.707	913.38
468.927	1055.38
469.146	1182.38
469.365	1038.38
469.585	948.38
469.804	1030.38
470.023	1122.38
470.243	965.38
470.462	893.38
470.681	936.38
470.901	920.38
471.12	971.38
471.339	966.38
471.558	911.38
471.777	914.38
471.997	991.38
472.216	1132.38
472.435	1091.38
472.654	981.38
472.873	962.38
473.092	1021.38
473.311	1047.38
473.53	952.38
473.749	944.38
473.968	987.38
474.187	967.38
474.406	925.38
474.625	898.38
474.844	948.38
475.063	1032.38
475.282	1040.38
475.501	1065.38
475.72	1105.38
475.939	1090.38
476.158	1110.38
476.377	1241.38
476.596	1464.38
476.814	1507.38
477.033	1260.38
477.252	1046.38
477.471	1001.38
477.69	1022.38
477.908	1128.38
478.127	1136.38
478.346	1013.38
478.564	1138.38
478.783	1093.38
479.002	1128.38
479.22	1324.38
479.439	1404.38
479.658	1228.38
479.876	1108.38
480.095	1217.38
480.313	1236.38
480.532	1107.38
480.751	1103.38
480.969	1165.38
481.188	1292.38
481.406	1303.38
481.624	1237.38
481.843	1146.38
482.061	1076.38
482.28	1230.38
482.498	1486.38
482.717	1382.38
482.935	1220.38
483.153	1130.38
483.372	1088.38
483.59	1091.38
483.808	1055.38
484.027	1040.38
484.245	1001.38
484.463	991.38
484.681	1047.38
484.9	1085.38
485.118	1201.38
485.336	1086.38
485.554	1038.38
485.772	1084.38
485.99	1120.38
486.209	1228.38
486.427	1204.38
486.645	1191.38
486.863	1209.38
487.081	1252.38
487.299	1362.38
487.517	1337.38
487.735	1204.38
487.953	1251.38
488.171	1264.38
488.389	1200.38
488.607	1123.38
488.825	1192.38
489.043	1272.38
489.261	1498.38
489.479	1581.38
489.696	1344.38
489.914	1177.38
490.132	1101.38
490.35	1115.38
490.568	1125.38
490.786	1116.38
491.003	1162.38
491.221	1170.38
491.439	1135.38
491.657	1160.38
491.874	1268.38
492.092	1492.38
492.31	1742.38
492.527	1761.38
492.745	1486.38
492.963	1337.38
493.18	1294.38
493.398	1324.38
493.615	1311.38
493.833	1287.38
494.05	1259.38
494.268	1225.38
494.485	1232.38
494.703	1200.38
494.92	1228.38
495.138	1197.38
495.355	1250.38
495.573	1260.38
495.79	1404.38
496.008	1802.38
496.225	1587.38
496.442	1371.38
496.66	1349.38
496.877	1440.38
497.094	1425.38
497.312	1319.38
497.529	1316.38
497.746	1342.38
497.963	1388.38
498.181	1500.38
498.398	1608.38
498.615	1625.38
498.832	1707.38
499.049	1716.38
499.267	1558.38
499.484	1561.38
499.701	1646.38
499.918	1732.38
500.135	1877.38
500.352	1903.38
500.569	1986.38
500.786	2059.38
501.003	2049.38
501.22	1838.38
501.437	1706.38
501.654	1682.38
501.871	1622.38
502.088	1666.38
502.305	1507.38
502.522	1556.38
502.739	1478.38
502.956	1371.38
503.172	1360.38
503.389	1322.38
503.606	1273.38
503.823	1298.38
504.04	1337.38
504.256	1316.38
504.473	1354.38
504.69	1375.38
504.907	1375.38
505.123	1348.38
505.34	1450.38
505.557	1403.38
505.773	1346.38
505.99	1306.38
506.207	1368.38
506.423	1261.38
506.64	1216.38
506.856	1261.38
507.073	1334.38
507.289	1330.38
507.506	1336.38
507.722	1451.38
507.939	1450.38
508.155	1432.38
508.372	1317.38
508.588	1304.38
508.805	1247.38
509.021	1217.38
509.238	1163.38
509.454	1176.38
509.67	1163.38
509.887	1213.38
510.103	1315.38
510.319	1333.38
510.536	1224.38
510.752	1092.38
510.968	1057.38
511.184	989.38
511.401	1065.38
511.617	1002.38
511.833	1068.38
512.049	1066.38
512.265	1103.38
512.481	1122.38
512.698	1265.38
512.914	1384.38
513.13	1232.38
513.346	1116.38
513.562	1173.38
513.778	1196.38
513.994	1144.38
514.21	1235.38
514.426	1188.38
514.642	1164.38
514.858	1119.38
515.074	1197.38
515.29	1273.38
515.506	1442.38
515.721	1322.38
515.937	1228.38
516.153	1165.38
516.369	1200.38
516.585	1228.38
516.801	1389.38
517.016	1611.38
517.232	1540.38
517.448	1567.38
517.664	1355.38
517.879	1272.38
518.095	1278.38
518.311	1264.38
518.527	1337.38
518.742	1386.38
518.958	1479.38
519.173	1374.38
519.389	1372.38
519.605	1393.38
519.82	1510.38
520.036	1750.38
520.251	1717.38
520.467	1578.38
520.682	2368.38
520.898	2876.38
521.113	2742.38
521.329	1761.38
521.544	1492.38
521.76	1532.38
521.975	1370.38
522.19	1301.38
522.406	1323.38
522.621	1465.38
522.836	1516.38
523.052	1584.38
523.267	1311.38
523.482	1328.38
523.698	1385.38
523.913	1304.38
524.128	1232.38
524.343	1170.38
524.559	1196.38
524.774	1150.38
524.989	1152.38
525.204	1174.38
525.419	1339.38
525.634	1233.38
525.849	1222.38
526.064	1256.38
526.28	1301.38
526.495	1490.38
526.71	1532.38
526.925	1351.38
527.14	1406.38
527.355	1356.38
527.57	1152.38
527.785	1179.38
527.999	1137.38
528.214	1078.38
528.429	1087.38
528.644	1079.38
528.859	1047.38
529.074	991.38
529.289	1002.38
529.503	1024.38
529.718	1029.38
529.933	1151.38
530.148	1194.38
530.363	1028.38
530.577	1030.38
530.792	1023.38
531.007	1010.38
531.221	949.38
531.436	952.38
531.651	986.38
531.865	985.38
532.08	1035.38
532.295	1000.38
532.509	1019.38
532.724	1165.38
532.938	1282.38
533.153	1491.38
533.367	1236.38
533.582	1177.38
533.796	1085.38
534.011	1023.38
534.225	1050.38
534.44	1075.38
534.654	1085.38
534.868	1240.38
535.083	1116.38
535.297	995.38
535.511	1013.38
535.726	1135.38
535.94	1069.38
536.154	1016.38
536.369	1002.38
536.583	1021.38
536.797	1030.38
537.011	1033.38
537.225	1114.38
537.44	1195.38
537.654	1000.38
537.868	1003.38
538.082	1038.38
538.296	1004.38
538.51	1078.38
538.724	1088.38
538.938	1055.38
539.153	995.38
539.367	981.38
539.581	980.38
539.795	1081.38
540.009	1138.38
540.222	1054.38
540.436	1054.38
540.65	1135.38
540.864	1196.38
541.078	1196.38
541.292	1340.38
541.506	1138.38
541.72	1078.38
541.934	1034.38
542.147	1048.38
542.361	1032.38
542.575	1084.38
542.789	1044.38
543.002	960.38
543.216	1070.38
543.43	931.38
543.644	966.38
543.857	948.38
544.071	942.38
544.285	928.38
544.498	890.38
544.712	937.38
544.925	1022.38
545.139	965.38
545.352	918.38
545.566	938.38
545.779	1068.38
545.993	963.38
546.206	894.38
546.42	906.38
546.633	884.38
546.847	860.38
547.06	870.38
547.274	880.38
547.487	882.38
547.7	963.38
547.914	1020.38
548.127	1132.38
548.34	1108.38
548.554	997.38
548.767	969.38
548.98	1077.38
549.193	1000.38
549.407	1004.38
549.62	1184.38
549.833	1114.38
550.046	1158.38
550.259	1169.38
550.473	1017.38
550.686	1007.38
550.899	1014.38
551.112	969.38
551.325	1052.38
551.538	1066.38
551.751	924.38
551.964	901.38
552.177	902.38
552.39	886.38
552.603	898.38
552.816	955.38
553.029	879.38
553.242	860.38
553.455	941.38
553.667	1010.38
553.88	1003.38
554.093	892.38
554.306	874.38
554.519	803.38
554.732	786.38
554.944	818.38
555.157	784.38
555.37	777.38
555.583	764.38
555.795	770.38
556.008	821.38
556.221	819.38
556.433	810.38
556.646	760.38
556.859	806.38
557.071	820.38
557.284	829.38
557.496	842.38
557.709	801.38
557.921	816.38
558.134	751.38
558.346	734.38
558.559	722.38
558.771	750.38
558.984	824.38
559.196	760.38
559.409	724.38
559.621	706.38
559.833	726.38
560.046	720.38
560.258	726.38
560.47	734.38
560.683	667.38
560.895	682.38
561.107	690.38
561.32	672.38
561.532	680.38
561.744	757.38
561.956	805.38
562.168	697.38
562.381	711.38
562.593	717.38
562.805	760.38
563.017	710.38
563.229	667.38
563.441	681.38
563.653	697.38
563.865	688.38
564.077	683.38
564.289	676.38
564.501	725.38
564.713	762.38
564.925	749.38
565.137	698.38
565.349	682.38
565.561	702.38
565.773	720.38
565.985	733.38
566.197	780.38
566.408	844.38
566.62	840.38
566.832	831.38
567.044	859.38
567.255	888.38
567.467	957.38
567.679	877.38
567.891	880.38
568.102	885.38
568.314	907.38
568.526	851.38
568.737	826.38
568.949	880.38
569.161	746.38
569.372	708.38
569.584	717.38
569.795	653.38
570.007	671.38
570.218	744.38
570.43	714.38
570.641	713.38
570.853	683.38
571.064	668.38
571.276	688.38
571.487	714.38
571.698	680.38
571.91	687.38
572.121	670.38
572.333	626.38
572.544	632.38
572.755	646.38
572.966	608.38
573.178	629.38
573.389	656.38
573.6	650.38
573.811	632.38
574.023	582.38
574.234	589.38
574.445	586.38
574.656	567.38
574.867	593.38
575.078	570.38
575.289	585.38
575.501	639.38
575.712	597.38
575.923	565.38
576.134	532.38
576.345	545.38
576.556	559.38
576.767	520.38
576.978	532.38
577.188	520.38
577.399	508.38
577.61	527.38
577.821	533.38
578.032	564.38
578.243	560.38
578.454	565.38
578.665	579.38
578.875	555.38
579.086	541.38
579.297	569.38
579.508	573.38
579.718	558.38
579.929	569.38
580.14	552.38
580.35	516.38
580.561	495.38
580.772	484.38
580.982	493.38
581.193	484.38
581.403	482.38
581.614	456.38
581.825	456.38
582.035	468.38
582.246	465.38
582.456	479.38
582.667	480.38
582.877	460.38
583.087	454.38
583.298	453.38
583.508	436.38
583.719	449.38
583.929	462.38
584.139	478.38
584.35	448.38
584.56	502.38
584.77	489.38
584.981	467.38
585.191	449.38
585.401	469.38
585.611	466.38
585.821	518.38
586.032	506.38
586.242	466.38
586.452	470.38
586.662	475.38
586.872	488.38
587.082	465.38
587.292	481.38
587.502	459.38
587.713	469.38
587.923	474.38
588.133	482.38
588.343	472.38
588.553	463.38
588.762	452.38
588.972	474.38
589.182	466.38
589.392	442.38
589.602	452.38
589.812	462.38
590.022	506.38
590.232	526.38
590.441	482.38
590.651	462.38
590.861	450.38
591.071	459.38
591.281	447.38
591.49	448.38
591.7	430.38
591.91	473.38
592.119	451.38
592.329	459.38
592.539	446.38
592.748	469.38
592.958	466.38
593.167	460.38
593.377	477.38
593.587	482.38
593.796	476.38
594.006	488.38
594.215	460.38
594.424	492.38
594.634	494.38
594.843	462.38
595.053	457.38
595.262	440.38
595.472	448.38
595.681	429.38
595.89	427.38
596.1	440.38
596.309	449.38
596.518	422.38
596.727	424.38
596.937	434.38
597.146	456.38
597.355	480.38
597.564	442.38
597.774	415.38
597.983	418.38
598.192	411.38
598.401	387.38
598.61	394.38
598.819	392.38
599.028	379.38
599.237	385.38
599.446	389.38
599.655	369.38
599.864	380.38
600.073	362.38
600.282	373.38
600.491	380.38
600.7	405.38
600.909	380.38
601.118	386.38
601.327	386.38
601.536	377.38
601.745	366.38
601.953	397.38
602.162	389.38
602.371	394.38
602.58	398.38
602.789	379.38
602.997	361.38
603.206	369.38
603.415	370.38
603.623	361.38
603.832	345.38
604.041	370.38
604.249	360.38
604.458	405.38
604.666	369.38
604.875	345.38
605.084	346.38
605.292	351.38
605.501	366.38
605.709	359.38
605.918	357.38
606.126	359.38
606.334	353.38
606.543	360.38
606.751	363.38
606.96	369.38
607.168	346.38
607.376	333.38
607.585	334.38
607.793	358.38
608.001	354.38
608.21	367.38
608.418	353.38
608.626	353.38
608.834	318.38
609.043	342.38
609.251	318.38
609.459	345.38
609.667	346.38
609.875	338.38
610.083	348.38
610.291	360.38
610.499	362.38
610.707	354.38
610.916	347.38
611.124	323.38
611.332	335.38
611.54	342.38
611.748	339.38
611.955	326.38
612.163	335.38
612.371	345.38
612.579	338.38
612.787	337.38
612.995	338.38
613.203	324.38
613.411	316.38
613.618	336.38
613.826	355.38
614.034	345.38
614.242	325.38
614.449	306.38
614.657	346.38
614.865	323.38
615.072	325.38
615.28	325.38
615.488	318.38
615.695	323.38
615.903	323.38
616.111	314.38
616.318	328.38
616.526	325.38
616.733	324.38
616.941	306.38
617.148	333.38
617.356	313.38
617.563	317.38
617.771	335.38
617.978	331.38
618.185	300.38
618.393	292.38
618.6	316.38
618.807	332.38
619.015	314.38
619.222	305.38
619.429	308.38
619.637	325.38
619.844	288.38
620.051	311.38
620.258	313.38
620.466	300.38
620.673	305.38
620.88	288.38
621.087	293.38
621.294	293.38
621.501	288.38
621.708	294.38
621.915	298.38
622.122	298.38
622.329	282.38
622.536	282.38
622.743	296.38
622.95	309.38
623.157	274.38
623.364	306.38
623.571	314.38
623.778	308.38
623.985	302.38
624.192	302.38
624.399	314.38
624.606	284.38
624.812	272.38
625.019	310.38
625.226	327.38
625.433	298.38
625.639	291.38
625.846	276.38
626.053	272.38
626.259	286.38
626.466	290.38
626.673	300.38
626.879	283.38
627.086	283.38
627.293	274.38
627.499	275.38
627.706	288.38
627.912	269.38
628.119	266.38
628.325	276.38
628.532	254.38
628.738	257.38
628.945	267.38
629.151	261.38
629.357	267.38
629.564	274.38
629.77	262.38
629.976	263.38
630.183	250.38
630.389	276.38
630.595	262.38
630.802	238.38
631.008	249.38
631.214	248.38
631.42	251.38
631.627	261.38
631.833	242.38
632.039	248.38
632.245	238.38
632.451	233.38
632.657	256.38
632.863	221.38
633.069	239.38
633.275	244.38
633.481	245.38
633.688	252.38
633.893	226.38
634.099	240.38
634.305	242.38
634.511	237.38
634.717	241.38
634.923	221.38
635.129	222.38
635.335	232.38
635.541	242.38
635.747	222.38
635.952	228.38
636.158	234.38
636.364	234.38
636.57	225.38
636.775	218.38
636.981	219.38
637.187	225.38
637.392	228.38
637.598	229.38
637.804	232.38
638.009	227.38
638.215	236.38
638.421	212.38
638.626	210.38
638.832	234.38
639.037	220.38
639.243	215.38
639.448	228.38
639.654	235.38
639.859	206.38
640.065	208.38
640.27	220.38
640.475	222.38
640.681	218.38
640.886	217.38
641.091	222.38
641.297	248.38
641.502	225.38
641.707	216.38
641.913	221.38
642.118	222.38
642.323	213.38
642.528	218.38
642.733	225.38
642.939	220.38
643.144	210.38
643.349	216.38
643.554	206.38
643.759	216.38
643.964	224.38
644.169	218.38
644.374	210.38
644.579	208.38
644.784	196.38
644.989	211.38
645.194	217.38
645.399	200.38
645.604	207.38
645.809	203.38
646.014	225.38
646.219	205.38
646.423	188.38
646.628	208.38
646.833	217.38
647.038	206.38
647.243	218.38
647.447	211.38
647.652	199.38
647.857	191.38
648.062	210.38
648.266	205.38
648.471	205.38
648.676	214.38
648.88	203.38
649.085	204.38
649.289	214.38
649.494	209.38
649.698	220.38
649.903	196.38
650.107	198.38
650.312	201.38
650.516	200.38
650.721	187.38
650.925	171.38
651.13	184.38
651.334	204.38
651.539	178.38
651.743	192.38
651.947	175.38
652.152	169.38
652.356	169.38
652.56	182.38
652.764	165.38
652.969	172.38
653.173	164.38
653.377	177.38
653.581	165.38
653.785	170.38
653.99	189.38
654.194	164.38
654.398	157.38
654.602	164.38
654.806	160.38
655.01	158.38
655.214	152.38
655.418	147.38
655.622	155.38
655.826	147.38
656.03	150.38
656.234	185.38
656.438	167.38
656.642	158.38
656.846	154.38
657.049	168.38
657.253	128.38
657.457	152.38
657.661	133.38
657.865	128.38
658.068	137.38
658.272	131.38
658.476	122.38
658.68	108.38
658.883	114.38
659.087	107.38
659.291	132.38
659.494	116.38
659.698	98.38
659.901	111.38
660.105	92.38
660.309	112.38
660.512	100.38
660.716	105.38
660.919	83.38
661.123	111.38
661.326	93.38
661.53	85.38
661.733	82.38
661.936	92.38
662.14	85.38
662.343	77.38
662.546	69.38
662.75	78.38
662.953	89.38
663.156	82.38
663.36	86.38
663.563	70.38
663.766	83.38
663.969	83.38
664.173	77.38
664.376	79.38
664.579	88.38
664.782	78.38
664.985	86.38
665.188	78.38
665.391	74.38
665.594	74.38
665.797	77.38
666	75.38
666.203	73.38
666.406	87.38
666.609	88.38
666.812	66.38
667.015	63.38
667.218	78.38
667.421	93.38
667.624	88.38
667.827	91.38
668.03	94.38
668.232	66.38
668.435	73.38
668.638	61.38
668.841	86.38
669.043	67.38
669.246	84.38
669.449	78.38
669.651	86.38
669.854	74.38
670.057	81.38
670.259	65.38
670.462	79.38
670.665	79.38
670.867	83.38
671.07	74.38
671.272	81.38
671.475	84.38
671.677	75.38
671.88	83.38
672.082	77.38
672.284	71.38
672.487	83.38
672.689	84.38
672.892	89.38
