Data from NickelSpatula.Lamp.E10.P2_HRD10591_11-57-52-530.txt Node
Date: Tue Jul 23 11:57:52 EDT 2019
User: cochatt
Spectrometer: HR+D1059
Trigger mode: 1
Integration Time (sec): 1.000000E-1
Scans to average: 1
Electric dark correction enabled: true
Nonlinearity correction enabled: false
Boxcar width: 0
XAxis mode: Wavelengths
Number of Pixels in Spectrum: 2048
>>>>>Begin Spectral Data<<<<<
223.165	-1.44
223.4	-1.44
223.635	-1.44
223.869	-13.44
224.104	-17.44
224.338	-13.44
224.573	-16.44
224.808	-14.44
225.042	-15.44
225.277	5.56
225.511	-4.44
225.746	8.56
225.98	12.56
226.215	9.56
226.449	7.56
226.683	11.56
226.918	11.56
227.152	29.56
227.387	22.56
227.621	33.56
227.856	44.56
228.09	47.56
228.324	50.56
228.559	53.56
228.793	86.56
229.027	156.56
229.262	145.56
229.496	162.56
229.73	174.56
229.964	198.56
230.199	210.56
230.433	208.56
230.667	199.56
230.901	196.56
231.136	186.56
231.37	195.56
231.604	220.56
231.838	243.56
232.072	241.56
232.306	247.56
232.541	242.56
232.775	242.56
233.009	264.56
233.243	291.56
233.477	319.56
233.711	349.56
233.945	317.56
234.179	314.56
234.413	359.56
234.647	385.56
234.881	442.56
235.115	437.56
235.349	408.56
235.583	352.56
235.817	353.56
236.051	362.56
236.285	409.56
236.519	470.56
236.753	443.56
236.987	417.56
237.221	388.56
237.455	406.56
237.689	416.56
237.922	450.56
238.156	462.56
238.39	541.56
238.624	645.56
238.858	573.56
239.091	496.56
239.325	525.56
239.559	478.56
239.793	521.56
240.027	641.56
240.26	599.56
240.494	588.56
240.728	586.56
240.961	650.56
241.195	635.56
241.429	629.56
241.662	603.56
241.896	511.56
242.13	487.56
242.363	447.56
242.597	470.56
242.83	535.56
243.064	521.56
243.298	598.56
243.531	629.56
243.765	626.56
243.998	625.56
244.232	586.56
244.465	578.56
244.699	561.56
244.932	644.56
245.166	623.56
245.399	549.56
245.633	507.56
245.866	559.56
246.099	615.56
246.333	707.56
246.566	770.56
246.8	771.56
247.033	714.56
247.266	661.56
247.5	680.56
247.733	657.56
247.966	638.56
248.2	693.56
248.433	775.56
248.666	830.56
248.899	837.56
249.133	877.56
249.366	998.56
249.599	1052.56
249.832	931.56
250.066	811.56
250.299	857.56
250.532	835.56
250.765	833.56
250.998	738.56
251.231	686.56
251.465	773.56
251.698	818.56
251.931	783.56
252.164	837.56
252.397	931.56
252.63	1046.56
252.863	1174.56
253.096	1172.56
253.329	1133.56
253.562	1093.56
253.795	1226.56
254.028	1355.56
254.261	1376.56
254.494	1237.56
254.727	1145.56
254.96	1099.56
255.193	1143.56
255.426	1102.56
255.659	862.56
255.892	822.56
256.124	854.56
256.357	1031.56
256.59	1185.56
256.823	1136.56
257.056	944.56
257.289	882.56
257.521	932.56
257.754	1120.56
257.987	1270.56
258.22	1113.56
258.452	999.56
258.685	1121.56
258.918	1264.56
259.151	1261.56
259.383	1297.56
259.616	1472.56
259.849	1541.56
260.081	1703.56
260.314	1873.56
260.547	1499.56
260.779	1458.56
261.012	1714.56
261.244	1585.56
261.477	1633.56
261.71	1507.56
261.942	1281.56
262.175	1265.56
262.407	1230.56
262.64	1289.56
262.872	1486.56
263.105	1598.56
263.337	1698.56
263.57	1505.56
263.802	1054.56
264.035	889.56
264.267	877.56
264.499	784.56
264.732	712.56
264.964	694.56
265.197	719.56
265.429	761.56
265.661	804.56
265.894	853.56
266.126	913.56
266.358	1018.56
266.591	1248.56
266.823	1482.56
267.055	1375.56
267.287	1202.56
267.52	1239.56
267.752	1318.56
267.984	1431.56
268.216	1373.56
268.448	1087.56
268.681	1116.56
268.913	1187.56
269.145	1261.56
269.377	1289.56
269.609	1291.56
269.841	1199.56
270.073	1322.56
270.306	1370.56
270.538	1376.56
270.77	1386.56
271.002	1390.56
271.234	1443.56
271.466	1498.56
271.698	1433.56
271.93	1403.56
272.162	1387.56
272.394	1389.56
272.626	1399.56
272.858	1417.56
273.09	1466.56
273.322	1301.56
273.553	1254.56
273.785	1491.56
274.017	1970.56
274.249	2413.56
274.481	2501.56
274.713	2692.56
274.945	3130.56
275.176	3234.56
275.408	2834.56
275.64	2580.56
275.872	2609.56
276.104	2198.56
276.335	1898.56
276.567	1917.56
276.799	1944.56
277.031	2082.56
277.262	1589.56
277.494	1249.56
277.726	1182.56
277.957	1315.56
278.189	1475.56
278.421	1441.56
278.652	1399.56
278.884	1350.56
279.115	1247.56
279.347	1183.56
279.579	1176.56
279.81	1195.56
280.042	1201.56
280.273	1245.56
280.505	1109.56
280.736	991.56
280.968	1005.56
281.199	1115.56
281.431	1201.56
281.662	1207.56
281.894	1154.56
282.125	1224.56
282.356	1352.56
282.588	1372.56
282.819	1210.56
283.051	1383.56
283.282	1667.56
283.513	1927.56
283.745	2183.56
283.976	2121.56
284.207	1969.56
284.439	2093.56
284.67	2004.56
284.901	1779.56
285.132	1880.56
285.364	1965.56
285.595	1859.56
285.826	1925.56
286.057	2025.56
286.288	1924.56
286.52	1949.56
286.751	2040.56
286.982	2037.56
287.213	1788.56
287.444	1763.56
287.675	1838.56
287.906	1783.56
288.138	1533.56
288.369	1347.56
288.6	1275.56
288.831	1307.56
289.062	1553.56
289.293	1647.56
289.524	1570.56
289.755	1586.56
289.986	1606.56
290.217	1409.56
290.448	1110.56
290.679	977.56
290.91	903.56
291.141	941.56
291.371	966.56
291.602	952.56
291.833	962.56
292.064	1037.56
292.295	1182.56
292.526	1352.56
292.757	1402.56
292.987	1555.56
293.218	1544.56
293.449	1574.56
293.68	1658.56
293.91	1558.56
294.141	1583.56
294.372	1476.56
294.603	1407.56
294.833	1563.56
295.064	1803.56
295.295	1738.56
295.525	1298.56
295.756	1133.56
295.987	997.56
296.217	992.56
296.448	1029.56
296.679	1058.56
296.909	1175.56
297.14	1295.56
297.37	1430.56
297.601	1343.56
297.831	1163.56
298.062	1229.56
298.292	1417.56
298.523	1505.56
298.753	1777.56
298.984	1587.56
299.214	1244.56
299.445	1073.56
299.675	1032.56
299.905	999.56
300.136	1060.56
300.366	1139.56
300.597	1109.56
300.827	975.56
301.057	971.56
301.288	997.56
301.518	1051.56
301.748	1167.56
301.979	1277.56
302.209	1376.56
302.439	1395.56
302.669	1179.56
302.9	1201.56
303.13	1147.56
303.36	1076.56
303.59	1015.56
303.82	1104.56
304.051	1194.56
304.281	1298.56
304.511	1269.56
304.741	1058.56
304.971	1187.56
305.201	1258.56
305.431	1181.56
305.661	1052.56
305.891	1024.56
306.121	1031.56
306.352	954.56
306.582	841.56
306.812	826.56
307.042	831.56
307.272	763.56
307.502	792.56
307.731	842.56
307.961	913.56
308.191	814.56
308.421	777.56
308.651	785.56
308.881	753.56
309.111	754.56
309.341	784.56
309.571	878.56
309.8	875.56
310.03	920.56
310.26	991.56
310.49	915.56
310.72	838.56
310.949	860.56
311.179	870.56
311.409	925.56
311.639	1070.56
311.868	1369.56
312.098	1730.56
312.328	1937.56
312.557	1813.56
312.787	1887.56
313.017	1659.56
313.246	1763.56
313.476	1929.56
313.706	1587.56
313.935	1254.56
314.165	1045.56
314.394	955.56
314.624	945.56
314.853	979.56
315.083	1030.56
315.312	967.56
315.542	981.56
315.771	923.56
316.001	848.56
316.23	816.56
316.46	838.56
316.689	840.56
316.919	826.56
317.148	886.56
317.377	855.56
317.607	866.56
317.836	923.56
318.065	1083.56
318.295	1231.56
318.524	1142.56
318.753	947.56
318.983	927.56
319.212	914.56
319.441	986.56
319.67	1109.56
319.9	1168.56
320.129	1091.56
320.358	943.56
320.587	903.56
320.816	1010.56
321.046	1147.56
321.275	1296.56
321.504	1277.56
321.733	1245.56
321.962	1215.56
322.191	1133.56
322.42	1109.56
322.649	1108.56
322.878	1169.56
323.108	1161.56
323.337	1094.56
323.566	1060.56
323.795	1037.56
324.024	993.56
324.253	967.56
324.482	979.56
324.71	1054.56
324.939	1156.56
325.168	1094.56
325.397	929.56
325.626	886.56
325.855	893.56
326.084	893.56
326.313	879.56
326.542	798.56
326.77	866.56
326.999	878.56
327.228	945.56
327.457	992.56
327.686	969.56
327.914	831.56
328.143	816.56
328.372	816.56
328.6	827.56
328.829	857.56
329.058	836.56
329.287	874.56
329.515	892.56
329.744	864.56
329.972	809.56
330.201	794.56
330.43	821.56
330.658	931.56
330.887	1060.56
331.115	998.56
331.344	988.56
331.572	946.56
331.801	881.56
332.03	862.56
332.258	848.56
332.486	947.56
332.715	966.56
332.943	882.56
333.172	893.56
333.4	907.56
333.629	1027.56
333.857	1097.56
334.085	1073.56
334.314	1072.56
334.542	1030.56
334.771	945.56
334.999	932.56
335.227	913.56
335.455	925.56
335.684	1025.56
335.912	1165.56
336.14	1289.56
336.369	1255.56
336.597	1194.56
336.825	1345.56
337.053	1500.56
337.281	1184.56
337.51	968.56
337.738	949.56
337.966	1053.56
338.194	1171.56
338.422	1087.56
338.65	918.56
338.878	873.56
339.106	891.56
339.334	983.56
339.562	1055.56
339.79	979.56
340.018	926.56
340.246	1009.56
340.474	1159.56
340.702	1228.56
340.93	1284.56
341.158	1303.56
341.386	1105.56
341.614	1086.56
341.842	1065.56
342.07	1133.56
342.298	1286.56
342.526	1335.56
342.754	1145.56
342.981	1098.56
343.209	1021.56
343.437	1104.56
343.665	1185.56
343.893	1149.56
344.12	1307.56
344.348	1559.56
344.576	1401.56
344.804	1159.56
345.031	1000.56
345.259	957.56
345.487	965.56
345.714	1002.56
345.942	1067.56
346.17	1138.56
346.397	1096.56
346.625	976.56
346.853	945.56
347.08	902.56
347.308	976.56
347.535	1073.56
347.763	1125.56
347.99	949.56
348.218	881.56
348.445	934.56
348.673	972.56
348.9	950.56
349.128	1025.56
349.355	1061.56
349.583	1027.56
349.81	982.56
350.037	940.56
350.265	817.56
350.492	753.56
350.72	784.56
350.947	806.56
351.174	851.56
351.402	917.56
351.629	941.56
351.856	905.56
352.083	881.56
352.311	918.56
352.538	1027.56
352.765	1090.56
352.992	998.56
353.22	937.56
353.447	945.56
353.674	938.56
353.901	961.56
354.128	949.56
354.355	979.56
354.583	945.56
354.81	970.56
355.037	959.56
355.264	980.56
355.491	1056.56
355.718	1117.56
355.945	1101.56
356.172	1062.56
356.399	1057.56
356.626	1280.56
356.853	1554.56
357.08	1620.56
357.307	1649.56
357.534	1305.56
357.761	1387.56
357.988	1672.56
358.215	1999.56
358.441	1886.56
358.668	1574.56
358.895	1416.56
359.122	1161.56
359.349	1169.56
359.576	1255.56
359.802	1063.56
360.029	920.56
360.256	985.56
360.483	1231.56
360.709	1552.56
360.936	1569.56
361.163	1376.56
361.39	1095.56
361.616	1005.56
361.843	1190.56
362.07	1487.56
362.296	1310.56
362.523	1053.56
362.749	903.56
362.976	962.56
363.203	1177.56
363.429	1247.56
363.656	1047.56
363.882	942.56
364.109	973.56
364.335	962.56
364.562	961.56
364.788	1086.56
365.015	1265.56
365.241	1129.56
365.468	926.56
365.694	856.56
365.92	796.56
366.147	769.56
366.373	780.56
366.599	783.56
366.826	793.56
367.052	783.56
367.278	823.56
367.505	799.56
367.731	853.56
367.957	974.56
368.184	1009.56
368.41	999.56
368.636	985.56
368.862	1021.56
369.089	979.56
369.315	888.56
369.541	856.56
369.767	844.56
369.993	827.56
370.219	840.56
370.445	890.56
370.672	996.56
370.898	1058.56
371.124	1055.56
371.35	927.56
371.576	867.56
371.802	915.56
372.028	1112.56
372.254	1254.56
372.48	1107.56
372.706	975.56
372.932	1041.56
373.158	1093.56
373.384	1320.56
373.61	1736.56
373.835	1771.56
374.061	1290.56
374.287	1116.56
374.513	1306.56
374.739	1588.56
374.965	1621.56
375.191	1592.56
375.416	1137.56
375.642	995.56
375.868	1177.56
376.094	1292.56
376.319	1101.56
376.545	1235.56
376.771	1326.56
376.997	1096.56
377.222	848.56
377.448	737.56
377.674	730.56
377.899	744.56
378.125	735.56
378.35	751.56
378.576	767.56
378.802	831.56
379.027	901.56
379.253	854.56
379.478	908.56
379.704	1002.56
379.929	1057.56
380.155	1055.56
380.38	903.56
380.606	951.56
380.831	1105.56
381.057	1027.56
381.282	962.56
381.507	1142.56
381.733	1414.56
381.958	1480.56
382.184	1558.56
382.409	1634.56
382.634	1595.56
382.86	1668.56
383.085	1383.56
383.31	1105.56
383.535	1197.56
383.761	1178.56
383.986	1113.56
384.211	1335.56
384.436	1297.56
384.662	1007.56
384.887	988.56
385.112	994.56
385.337	1021.56
385.562	974.56
385.787	1050.56
386.013	1170.56
386.238	1219.56
386.463	989.56
386.688	975.56
386.913	920.56
387.138	890.56
387.363	945.56
387.588	965.56
387.813	967.56
388.038	1078.56
388.263	953.56
388.488	930.56
388.713	1100.56
388.938	1172.56
389.163	985.56
389.387	882.56
389.612	905.56
389.837	912.56
390.062	906.56
390.287	971.56
390.512	981.56
390.736	943.56
390.961	870.56
391.186	841.56
391.411	831.56
391.636	862.56
391.86	926.56
392.085	984.56
392.31	974.56
392.534	933.56
392.759	929.56
392.984	963.56
393.208	961.56
393.433	829.56
393.658	785.56
393.882	780.56
394.107	765.56
394.331	802.56
394.556	781.56
394.78	810.56
395.005	810.56
395.229	834.56
395.454	858.56
395.678	882.56
395.903	897.56
396.127	850.56
396.352	853.56
396.576	971.56
396.801	962.56
397.025	1078.56
397.249	1105.56
397.474	902.56
397.698	901.56
397.922	933.56
398.147	908.56
398.371	888.56
398.595	928.56
398.82	949.56
399.044	943.56
399.268	982.56
399.492	1009.56
399.717	1018.56
399.941	1094.56
400.165	1069.56
400.389	1029.56
400.613	1023.56
400.837	1022.56
401.062	909.56
401.286	892.56
401.51	881.56
401.734	882.56
401.958	901.56
402.182	864.56
402.406	910.56
402.63	885.56
402.854	949.56
403.078	1030.56
403.302	1254.56
403.526	1323.56
403.75	1175.56
403.974	1031.56
404.198	1063.56
404.422	1203.56
404.645	1369.56
404.869	1506.56
405.093	1169.56
405.317	996.56
405.541	935.56
405.765	1013.56
405.988	1009.56
406.212	1074.56
406.436	1247.56
406.66	1393.56
406.883	1095.56
407.107	1139.56
407.331	1343.56
407.555	1249.56
407.778	1064.56
408.002	1027.56
408.226	1039.56
408.449	1015.56
408.673	1027.56
408.896	915.56
409.12	894.56
409.344	928.56
409.567	875.56
409.791	889.56
410.014	906.56
410.238	893.56
410.461	862.56
410.685	865.56
410.908	899.56
411.132	921.56
411.355	926.56
411.578	965.56
411.802	914.56
412.025	977.56
412.249	997.56
412.472	921.56
412.695	942.56
412.919	921.56
413.142	920.56
413.365	1010.56
413.589	1047.56
413.812	924.56
414.035	899.56
414.258	914.56
414.482	1028.56
414.705	1074.56
414.928	897.56
415.151	892.56
415.374	854.56
415.597	897.56
415.821	887.56
416.044	883.56
416.267	862.56
416.49	858.56
416.713	863.56
416.936	829.56
417.159	819.56
417.382	893.56
417.605	877.56
417.828	889.56
418.051	915.56
418.274	925.56
418.497	929.56
418.72	927.56
418.943	930.56
419.166	986.56
419.389	986.56
419.611	958.56
419.834	1007.56
420.057	1066.56
420.28	1090.56
420.503	1001.56
420.726	890.56
420.948	871.56
421.171	875.56
421.394	862.56
421.617	844.56
421.839	857.56
422.062	911.56
422.285	909.56
422.507	907.56
422.73	939.56
422.953	948.56
423.175	923.56
423.398	899.56
423.621	977.56
423.843	1002.56
424.066	972.56
424.288	927.56
424.511	920.56
424.733	895.56
424.956	965.56
425.178	1015.56
425.401	1190.56
425.623	1378.56
425.846	1109.56
426.068	1005.56
426.291	1125.56
426.513	1033.56
426.735	931.56
426.958	971.56
427.18	1127.56
427.402	1448.56
427.625	1411.56
427.847	1134.56
428.069	897.56
428.292	877.56
428.514	901.56
428.736	858.56
428.958	941.56
429.181	1093.56
429.403	976.56
429.625	871.56
429.847	871.56
430.069	897.56
430.292	923.56
430.514	848.56
430.736	945.56
430.958	1136.56
431.18	1049.56
431.402	847.56
431.624	795.56
431.846	807.56
432.068	768.56
432.29	829.56
432.512	903.56
432.734	1171.56
432.956	1112.56
433.178	860.56
433.4	838.56
433.622	842.56
433.844	876.56
434.066	925.56
434.287	916.56
434.509	855.56
434.731	934.56
434.953	848.56
435.175	897.56
435.397	1023.56
435.618	891.56
435.84	846.56
436.062	832.56
436.284	808.56
436.505	801.56
436.727	769.56
436.949	779.56
437.17	817.56
437.392	850.56
437.614	847.56
437.835	831.56
438.057	839.56
438.278	975.56
438.5	1342.56
438.721	1315.56
438.943	936.56
439.165	797.56
439.386	765.56
439.608	786.56
439.829	759.56
440.05	785.56
440.272	834.56
440.493	970.56
440.715	1207.56
440.936	949.56
441.158	830.56
441.379	845.56
441.6	972.56
441.822	994.56
442.043	873.56
442.264	863.56
442.486	853.56
442.707	859.56
442.928	867.56
443.149	875.56
443.371	899.56
443.592	947.56
443.813	916.56
444.034	869.56
444.255	923.56
444.476	945.56
444.698	944.56
444.919	935.56
445.14	1048.56
445.361	1002.56
445.582	949.56
445.803	938.56
446.024	914.56
446.245	911.56
446.466	894.56
446.687	855.56
446.908	877.56
447.129	829.56
447.35	811.56
447.571	819.56
447.792	770.56
448.013	779.56
448.234	789.56
448.455	783.56
448.675	757.56
448.896	801.56
449.117	781.56
449.338	822.56
449.559	851.56
449.779	857.56
450	860.56
450.221	834.56
450.442	813.56
450.662	785.56
450.883	805.56
451.104	810.56
451.324	793.56
451.545	795.56
451.766	810.56
451.986	784.56
452.207	745.56
452.428	761.56
452.648	753.56
452.869	798.56
453.089	843.56
453.31	824.56
453.53	727.56
453.751	732.56
453.971	728.56
454.192	758.56
454.412	787.56
454.633	752.56
454.853	755.56
455.073	730.56
455.294	726.56
455.514	744.56
455.734	769.56
455.955	817.56
456.175	842.56
456.395	720.56
456.616	715.56
456.836	694.56
457.056	703.56
457.276	693.56
457.497	704.56
457.717	734.56
457.937	707.56
458.157	709.56
458.377	707.56
458.598	758.56
458.818	776.56
459.038	792.56
459.258	832.56
459.478	851.56
459.698	892.56
459.918	871.56
460.138	873.56
460.358	889.56
460.578	874.56
460.798	892.56
461.018	927.56
461.238	846.56
461.458	859.56
461.678	887.56
461.898	915.56
462.118	900.56
462.338	933.56
462.558	939.56
462.777	968.56
462.997	996.56
463.217	1008.56
463.437	1029.56
463.657	989.56
463.876	955.56
464.096	947.56
464.316	937.56
464.536	998.56
464.755	1017.56
464.975	1013.56
465.195	947.56
465.414	982.56
465.634	944.56
465.854	911.56
466.073	857.56
466.293	849.56
466.512	933.56
466.732	1041.56
466.951	1039.56
467.171	877.56
467.391	855.56
467.61	865.56
467.829	903.56
468.049	931.56
468.268	844.56
468.488	877.56
468.707	895.56
468.927	1049.56
469.146	1130.56
469.365	1015.56
469.585	926.56
469.804	976.56
470.023	1089.56
470.243	954.56
470.462	882.56
470.681	911.56
470.901	946.56
471.12	980.56
471.339	967.56
471.558	886.56
471.777	929.56
471.997	981.56
472.216	1097.56
472.435	1073.56
472.654	977.56
472.873	924.56
473.092	1023.56
473.311	1019.56
473.53	941.56
473.749	917.56
473.968	978.56
474.187	965.56
474.406	931.56
474.625	871.56
474.844	948.56
475.063	1004.56
475.282	1008.56
475.501	1071.56
475.72	1101.56
475.939	1077.56
476.158	1086.56
476.377	1215.56
476.596	1453.56
476.814	1469.56
477.033	1234.56
477.252	1057.56
477.471	979.56
477.69	1034.56
477.908	1081.56
478.127	1122.56
478.346	1049.56
478.564	1153.56
478.783	1067.56
479.002	1110.56
479.22	1286.56
479.439	1428.56
479.658	1192.56
479.876	1104.56
480.095	1189.56
480.313	1241.56
480.532	1110.56
480.751	1071.56
480.969	1107.56
481.188	1252.56
481.406	1320.56
481.624	1234.56
481.843	1087.56
482.061	1071.56
482.28	1168.56
482.498	1462.56
482.717	1397.56
482.935	1205.56
483.153	1104.56
483.372	1069.56
483.59	1069.56
483.808	1040.56
484.027	1027.56
484.245	991.56
484.463	980.56
484.681	1010.56
484.9	1089.56
485.118	1201.56
485.336	1077.56
485.554	1045.56
485.772	1074.56
485.99	1159.56
486.209	1211.56
486.427	1191.56
486.645	1171.56
486.863	1230.56
487.081	1210.56
487.299	1332.56
487.517	1299.56
487.735	1186.56
487.953	1231.56
488.171	1236.56
488.389	1165.56
488.607	1081.56
488.825	1134.56
489.043	1221.56
489.261	1417.56
489.479	1508.56
489.696	1259.56
489.914	1196.56
490.132	1106.56
490.35	1105.56
490.568	1094.56
490.786	1103.56
491.003	1113.56
491.221	1163.56
491.439	1117.56
491.657	1151.56
491.874	1241.56
492.092	1471.56
492.31	1739.56
492.527	1724.56
492.745	1455.56
492.963	1291.56
493.18	1287.56
493.398	1299.56
493.615	1272.56
493.833	1235.56
494.05	1210.56
494.268	1232.56
494.485	1231.56
494.703	1169.56
494.92	1199.56
495.138	1186.56
495.355	1215.56
495.573	1238.56
495.79	1384.56
496.008	1747.56
496.225	1543.56
496.442	1377.56
496.66	1327.56
496.877	1410.56
497.094	1369.56
497.312	1301.56
497.529	1282.56
497.746	1317.56
497.963	1349.56
498.181	1478.56
498.398	1544.56
498.615	1594.56
498.832	1697.56
499.049	1686.56
499.267	1516.56
499.484	1527.56
499.701	1619.56
499.918	1747.56
500.135	1836.56
500.352	1881.56
500.569	1956.56
500.786	1993.56
501.003	1993.56
501.22	1804.56
501.437	1681.56
501.654	1669.56
501.871	1642.56
502.088	1654.56
502.305	1491.56
502.522	1509.56
502.739	1474.56
502.956	1378.56
503.172	1343.56
503.389	1289.56
503.606	1255.56
503.823	1288.56
504.04	1309.56
504.256	1309.56
504.473	1330.56
504.69	1357.56
504.907	1362.56
505.123	1328.56
505.34	1463.56
505.557	1379.56
505.773	1296.56
505.99	1302.56
506.207	1364.56
506.423	1243.56
506.64	1186.56
506.856	1226.56
507.073	1342.56
507.289	1322.56
507.506	1295.56
507.722	1367.56
507.939	1412.56
508.155	1437.56
508.372	1263.56
508.588	1242.56
508.805	1220.56
509.021	1210.56
509.238	1166.56
509.454	1158.56
509.67	1143.56
509.887	1183.56
510.103	1332.56
510.319	1291.56
510.536	1157.56
510.752	1072.56
510.968	1040.56
511.184	1011.56
511.401	1014.56
511.617	1037.56
511.833	1064.56
512.049	1047.56
512.265	1039.56
512.481	1114.56
512.698	1227.56
512.914	1367.56
513.13	1235.56
513.346	1118.56
513.562	1187.56
513.778	1176.56
513.994	1135.56
514.21	1234.56
514.426	1203.56
514.642	1139.56
514.858	1122.56
515.074	1175.56
515.29	1289.56
515.506	1431.56
515.721	1347.56
515.937	1238.56
516.153	1158.56
516.369	1127.56
516.585	1197.56
516.801	1384.56
517.016	1561.56
517.232	1530.56
517.448	1510.56
517.664	1367.56
517.879	1275.56
518.095	1241.56
518.311	1242.56
518.527	1297.56
518.742	1399.56
518.958	1456.56
519.173	1373.56
519.389	1369.56
519.605	1381.56
519.82	1483.56
520.036	1739.56
520.251	1682.56
520.467	1557.56
520.682	2370.56
520.898	2809.56
521.113	2628.56
521.329	1668.56
521.544	1502.56
521.76	1519.56
521.975	1337.56
522.19	1290.56
522.406	1293.56
522.621	1424.56
522.836	1504.56
523.052	1496.56
523.267	1296.56
523.482	1289.56
523.698	1366.56
523.913	1299.56
524.128	1185.56
524.343	1152.56
524.559	1190.56
524.774	1139.56
524.989	1157.56
525.204	1190.56
525.419	1315.56
525.634	1192.56
525.849	1215.56
526.064	1254.56
526.28	1244.56
526.495	1480.56
526.71	1504.56
526.925	1334.56
527.14	1379.56
527.355	1335.56
527.57	1130.56
527.785	1188.56
527.999	1102.56
528.214	1045.56
528.429	1048.56
528.644	1054.56
528.859	994.56
529.074	978.56
529.289	970.56
529.503	986.56
529.718	998.56
529.933	1136.56
530.148	1179.56
530.363	1046.56
530.577	1002.56
530.792	985.56
531.007	998.56
531.221	980.56
531.436	970.56
531.651	948.56
531.865	977.56
532.08	1029.56
532.295	983.56
532.509	1013.56
532.724	1166.56
532.938	1289.56
533.153	1495.56
533.367	1229.56
533.582	1169.56
533.796	1069.56
534.011	1031.56
534.225	1063.56
534.44	1039.56
534.654	1066.56
534.868	1227.56
535.083	1122.56
535.297	1011.56
535.511	1015.56
535.726	1146.56
535.94	1064.56
536.154	1007.56
536.369	993.56
536.583	963.56
536.797	991.56
537.011	1011.56
537.225	1133.56
537.44	1123.56
537.654	1025.56
537.868	1002.56
538.082	1031.56
538.296	986.56
538.51	1064.56
538.724	1054.56
538.938	1053.56
539.153	979.56
539.367	963.56
539.581	996.56
539.795	1007.56
540.009	1140.56
540.222	1017.56
540.436	1050.56
540.65	1130.56
540.864	1121.56
541.078	1197.56
541.292	1343.56
541.506	1105.56
541.72	1065.56
541.934	1035.56
542.147	1039.56
542.361	1045.56
542.575	1050.56
542.789	988.56
543.002	945.56
543.216	1053.56
543.43	933.56
543.644	943.56
543.857	933.56
544.071	934.56
544.285	938.56
544.498	901.56
544.712	901.56
544.925	994.56
545.139	938.56
545.352	898.56
545.566	931.56
545.779	1037.56
545.993	947.56
546.206	880.56
546.42	882.56
546.633	894.56
546.847	862.56
547.06	843.56
547.274	852.56
547.487	900.56
547.7	969.56
547.914	1007.56
548.127	1101.56
548.34	1043.56
548.554	957.56
548.767	995.56
548.98	1049.56
549.193	979.56
549.407	1010.56
549.62	1169.56
549.833	1090.56
550.046	1111.56
550.259	1167.56
550.473	1036.56
550.686	961.56
550.899	999.56
551.112	968.56
551.325	1037.56
551.538	1075.56
551.751	906.56
551.964	907.56
552.177	891.56
552.39	864.56
552.603	875.56
552.816	955.56
553.029	855.56
553.242	842.56
553.455	924.56
553.667	1039.56
553.88	950.56
554.093	887.56
554.306	834.56
554.519	795.56
554.732	802.56
554.944	773.56
555.157	771.56
555.37	770.56
555.583	770.56
555.795	778.56
556.008	779.56
556.221	793.56
556.433	771.56
556.646	775.56
556.859	754.56
557.071	809.56
557.284	840.56
557.496	834.56
557.709	793.56
557.921	779.56
558.134	734.56
558.346	703.56
558.559	702.56
558.771	759.56
558.984	817.56
559.196	781.56
559.409	740.56
559.621	701.56
559.833	691.56
560.046	709.56
560.258	686.56
560.47	761.56
560.683	723.56
560.895	697.56
561.107	667.56
561.32	671.56
561.532	670.56
561.744	743.56
561.956	762.56
562.168	689.56
562.381	683.56
562.593	722.56
562.805	743.56
563.017	685.56
563.229	662.56
563.441	657.56
563.653	659.56
563.865	677.56
564.077	700.56
564.289	677.56
564.501	679.56
564.713	740.56
564.925	738.56
565.137	688.56
565.349	690.56
565.561	697.56
565.773	704.56
565.985	733.56
566.197	773.56
566.408	821.56
566.62	850.56
566.832	835.56
567.044	811.56
567.255	884.56
567.467	951.56
567.679	862.56
567.891	874.56
568.102	893.56
568.314	903.56
568.526	847.56
568.737	813.56
568.949	865.56
569.161	757.56
569.372	687.56
569.584	713.56
569.795	669.56
570.007	681.56
570.218	742.56
570.43	735.56
570.641	700.56
570.853	651.56
571.064	660.56
571.276	663.56
571.487	703.56
571.698	655.56
571.91	661.56
572.121	650.56
572.333	622.56
572.544	610.56
572.755	622.56
572.966	613.56
573.178	622.56
573.389	628.56
573.6	629.56
573.811	628.56
574.023	581.56
574.234	565.56
574.445	567.56
574.656	569.56
574.867	573.56
575.078	564.56
575.289	563.56
575.501	614.56
575.712	602.56
575.923	558.56
576.134	545.56
576.345	552.56
576.556	544.56
576.767	523.56
576.978	519.56
577.188	514.56
577.399	519.56
577.61	529.56
577.821	545.56
578.032	542.56
578.243	577.56
578.454	561.56
578.665	545.56
578.875	549.56
579.086	553.56
579.297	568.56
579.508	559.56
579.718	528.56
579.929	546.56
580.14	531.56
580.35	529.56
580.561	488.56
580.772	490.56
580.982	485.56
581.193	467.56
581.403	467.56
581.614	467.56
581.825	466.56
582.035	461.56
582.246	467.56
582.456	449.56
582.667	465.56
582.877	458.56
583.087	449.56
583.298	461.56
583.508	456.56
583.719	453.56
583.929	438.56
584.139	462.56
584.35	476.56
584.56	487.56
584.77	472.56
584.981	475.56
585.191	462.56
585.401	447.56
585.611	471.56
585.821	478.56
586.032	491.56
586.242	457.56
586.452	462.56
586.662	467.56
586.872	487.56
587.082	486.56
587.292	476.56
587.502	451.56
587.713	449.56
587.923	459.56
588.133	489.56
588.343	469.56
588.553	451.56
588.762	449.56
588.972	459.56
589.182	457.56
589.392	431.56
589.602	425.56
589.812	459.56
590.022	505.56
590.232	519.56
590.441	466.56
590.651	458.56
590.861	441.56
591.071	459.56
591.281	429.56
591.49	458.56
591.7	435.56
591.91	453.56
592.119	448.56
592.329	434.56
592.539	493.56
592.748	463.56
592.958	455.56
593.167	485.56
593.377	471.56
593.587	481.56
593.796	481.56
594.006	458.56
594.215	487.56
594.424	492.56
594.634	505.56
594.843	475.56
595.053	468.56
595.262	446.56
595.472	437.56
595.681	411.56
595.89	442.56
596.1	428.56
596.309	420.56
596.518	419.56
596.727	413.56
596.937	413.56
597.146	433.56
597.355	463.56
597.564	426.56
597.774	410.56
597.983	394.56
598.192	407.56
598.401	391.56
598.61	391.56
598.819	401.56
599.028	392.56
599.237	377.56
599.446	376.56
599.655	374.56
599.864	351.56
600.073	382.56
600.282	363.56
600.491	406.56
600.7	379.56
600.909	390.56
601.118	379.56
601.327	392.56
601.536	391.56
601.745	395.56
601.953	400.56
602.162	371.56
602.371	397.56
602.58	404.56
602.789	367.56
602.997	378.56
603.206	373.56
603.415	376.56
603.623	357.56
603.832	365.56
604.041	359.56
604.249	361.56
604.458	375.56
604.666	344.56
604.875	351.56
605.084	367.56
605.292	365.56
605.501	383.56
605.709	389.56
605.918	356.56
606.126	352.56
606.334	358.56
606.543	340.56
606.751	343.56
606.96	357.56
607.168	338.56
607.376	367.56
607.585	358.56
607.793	360.56
608.001	345.56
608.21	362.56
608.418	360.56
608.626	346.56
608.834	339.56
609.043	342.56
609.251	339.56
609.459	330.56
609.667	347.56
609.875	335.56
610.083	352.56
610.291	345.56
610.499	342.56
610.707	345.56
610.916	339.56
611.124	359.56
611.332	346.56
611.54	332.56
611.748	341.56
611.955	337.56
612.163	330.56
612.371	327.56
612.579	323.56
612.787	314.56
612.995	326.56
613.203	335.56
613.411	326.56
613.618	328.56
613.826	333.56
614.034	335.56
614.242	343.56
614.449	307.56
614.657	331.56
614.865	314.56
615.072	304.56
615.28	318.56
615.488	322.56
615.695	330.56
615.903	337.56
616.111	319.56
616.318	316.56
616.526	337.56
616.733	323.56
616.941	319.56
617.148	327.56
617.356	311.56
617.563	312.56
617.771	321.56
617.978	305.56
618.185	320.56
618.393	321.56
618.6	303.56
618.807	303.56
619.015	315.56
619.222	315.56
619.429	315.56
619.637	298.56
619.844	311.56
620.051	316.56
620.258	283.56
620.466	325.56
620.673	291.56
620.88	292.56
621.087	293.56
621.294	305.56
621.501	301.56
621.708	290.56
621.915	305.56
622.122	293.56
622.329	278.56
622.536	285.56
622.743	282.56
622.95	295.56
623.157	282.56
623.364	305.56
623.571	291.56
623.778	302.56
623.985	313.56
624.192	311.56
624.399	310.56
624.606	289.56
624.812	297.56
625.019	290.56
625.226	298.56
625.433	302.56
625.639	288.56
625.846	287.56
626.053	269.56
626.259	276.56
626.466	288.56
626.673	296.56
626.879	287.56
627.086	291.56
627.293	274.56
627.499	258.56
627.706	267.56
627.912	269.56
628.119	281.56
628.325	279.56
628.532	264.56
628.738	255.56
628.945	260.56
629.151	257.56
629.357	254.56
629.564	242.56
629.77	239.56
629.976	241.56
630.183	264.56
630.389	253.56
630.595	247.56
630.802	263.56
631.008	263.56
631.214	242.56
631.42	254.56
631.627	270.56
631.833	253.56
632.039	246.56
632.245	245.56
632.451	226.56
632.657	239.56
632.863	249.56
633.069	251.56
633.275	242.56
633.481	229.56
633.688	245.56
633.893	237.56
634.099	237.56
634.305	230.56
634.511	245.56
634.717	244.56
634.923	244.56
635.129	250.56
635.335	232.56
635.541	227.56
635.747	227.56
635.952	225.56
636.158	238.56
636.364	237.56
636.57	217.56
636.775	231.56
636.981	230.56
637.187	221.56
637.392	225.56
637.598	217.56
637.804	225.56
638.009	230.56
638.215	225.56
638.421	212.56
638.626	215.56
638.832	233.56
639.037	217.56
639.243	226.56
639.448	222.56
639.654	237.56
639.859	221.56
640.065	222.56
640.27	238.56
640.475	232.56
640.681	205.56
640.886	225.56
641.091	213.56
641.297	239.56
641.502	224.56
641.707	228.56
641.913	222.56
642.118	215.56
642.323	213.56
642.528	219.56
642.733	225.56
642.939	211.56
643.144	212.56
643.349	221.56
643.554	202.56
643.759	203.56
643.964	203.56
644.169	213.56
644.374	221.56
644.579	222.56
644.784	203.56
644.989	202.56
645.194	207.56
645.399	216.56
645.604	186.56
645.809	222.56
646.014	220.56
646.219	203.56
646.423	198.56
646.628	200.56
646.833	207.56
647.038	210.56
647.243	201.56
647.447	189.56
647.652	227.56
647.857	210.56
648.062	200.56
648.266	201.56
648.471	205.56
648.676	208.56
648.88	212.56
649.085	228.56
649.289	216.56
649.494	211.56
649.698	229.56
649.903	222.56
650.107	195.56
650.312	215.56
650.516	197.56
650.721	181.56
650.925	181.56
651.13	190.56
651.334	178.56
651.539	197.56
651.743	186.56
651.947	191.56
652.152	192.56
652.356	171.56
652.56	164.56
652.764	194.56
652.969	179.56
653.173	173.56
653.377	180.56
653.581	165.56
653.785	164.56
653.99	160.56
654.194	156.56
654.398	182.56
654.602	166.56
654.806	156.56
655.01	179.56
655.214	153.56
655.418	167.56
655.622	169.56
655.826	164.56
656.03	152.56
656.234	165.56
656.438	157.56
656.642	158.56
656.846	144.56
657.049	153.56
657.253	151.56
657.457	143.56
657.661	139.56
657.865	123.56
658.068	127.56
658.272	126.56
658.476	133.56
658.68	127.56
658.883	126.56
659.087	119.56
659.291	111.56
659.494	110.56
659.698	101.56
659.901	106.56
660.105	106.56
660.309	110.56
660.512	111.56
660.716	82.56
660.919	97.56
661.123	104.56
661.326	82.56
661.53	106.56
661.733	89.56
661.936	83.56
662.14	85.56
662.343	104.56
662.546	85.56
662.75	93.56
662.953	95.56
663.156	80.56
663.36	95.56
663.563	83.56
663.766	81.56
663.969	98.56
664.173	78.56
664.376	79.56
664.579	87.56
664.782	81.56
664.985	77.56
665.188	83.56
665.391	83.56
665.594	73.56
665.797	90.56
666	88.56
666.203	86.56
666.406	81.56
666.609	89.56
666.812	93.56
667.015	81.56
667.218	81.56
667.421	83.56
667.624	84.56
667.827	84.56
668.03	90.56
668.232	94.56
668.435	80.56
668.638	87.56
668.841	90.56
669.043	77.56
669.246	83.56
669.449	85.56
669.651	86.56
669.854	74.56
670.057	94.56
670.259	96.56
670.462	93.56
670.665	96.56
670.867	73.56
671.07	90.56
671.272	82.56
671.475	79.56
671.677	83.56
671.88	77.56
672.082	79.56
672.284	74.56
672.487	69.56
672.689	98.56
672.892	83.56
