Data from NickelSpatula.Lamp.E5.5.P2_HRD10591_11-51-16-562.txt Node
Date: Tue Jul 23 11:51:16 EDT 2019
User: cochatt
Spectrometer: HR+D1059
Trigger mode: 1
Integration Time (sec): 1.000000E-1
Scans to average: 1
Electric dark correction enabled: true
Nonlinearity correction enabled: false
Boxcar width: 0
XAxis mode: Wavelengths
Number of Pixels in Spectrum: 2048
>>>>>Begin Spectral Data<<<<<
223.165	-5.94
223.4	-5.94
223.635	-5.94
223.869	-19.94
224.104	-23.94
224.338	-18.94
224.573	-12.94
224.808	-9.94
225.042	6.06
225.277	5.06
225.511	-12.94
225.746	18.06
225.98	-3.94
226.215	8.06
226.449	19.06
226.683	19.06
226.918	19.06
227.152	14.06
227.387	25.06
227.621	30.06
227.856	36.06
228.09	46.06
228.324	53.06
228.559	39.06
228.793	61.06
229.027	64.06
229.262	72.06
229.496	69.06
229.73	87.06
229.964	78.06
230.199	96.06
230.433	92.06
230.667	94.06
230.901	93.06
231.136	95.06
231.37	82.06
231.604	86.06
231.838	101.06
232.072	102.06
232.306	90.06
232.541	94.06
232.775	100.06
233.009	86.06
233.243	106.06
233.477	98.06
233.711	111.06
233.945	119.06
234.179	121.06
234.413	101.06
234.647	132.06
234.881	133.06
235.115	118.06
235.349	120.06
235.583	109.06
235.817	102.06
236.051	117.06
236.285	127.06
236.519	125.06
236.753	121.06
236.987	130.06
237.221	127.06
237.455	127.06
237.689	119.06
237.922	125.06
238.156	117.06
238.39	148.06
238.624	161.06
238.858	155.06
239.091	129.06
239.325	130.06
239.559	127.06
239.793	151.06
240.027	157.06
240.26	160.06
240.494	157.06
240.728	150.06
240.961	162.06
241.195	165.06
241.429	161.06
241.662	163.06
241.896	145.06
242.13	117.06
242.363	119.06
242.597	127.06
242.83	146.06
243.064	129.06
243.298	158.06
243.531	148.06
243.765	162.06
243.998	165.06
244.232	146.06
244.465	151.06
244.699	146.06
244.932	174.06
245.166	163.06
245.399	136.06
245.633	134.06
245.866	143.06
246.099	161.06
246.333	172.06
246.566	186.06
246.8	178.06
247.033	173.06
247.266	157.06
247.5	154.06
247.733	173.06
247.966	157.06
248.2	167.06
248.433	176.06
248.666	183.06
248.899	187.06
249.133	190.06
249.366	187.06
249.599	219.06
249.832	204.06
250.066	169.06
250.299	183.06
250.532	177.06
250.765	180.06
250.998	165.06
251.231	158.06
251.465	182.06
251.698	169.06
251.931	178.06
252.164	200.06
252.397	197.06
252.63	230.06
252.863	227.06
253.096	247.06
253.329	240.06
253.562	230.06
253.795	257.06
254.028	275.06
254.261	261.06
254.494	244.06
254.727	226.06
254.96	221.06
255.193	241.06
255.426	227.06
255.659	183.06
255.892	197.06
256.124	191.06
256.357	208.06
256.59	255.06
256.823	249.06
257.056	194.06
257.289	209.06
257.521	214.06
257.754	236.06
257.987	277.06
258.22	257.06
258.452	221.06
258.685	233.06
258.918	255.06
259.151	260.06
259.383	278.06
259.616	300.06
259.849	325.06
260.081	337.06
260.314	368.06
260.547	301.06
260.779	289.06
261.012	327.06
261.244	317.06
261.477	327.06
261.71	316.06
261.942	272.06
262.175	263.06
262.407	250.06
262.64	239.06
262.872	295.06
263.105	329.06
263.337	335.06
263.57	304.06
263.802	243.06
264.035	188.06
264.267	196.06
264.499	185.06
264.732	155.06
264.964	162.06
265.197	177.06
265.429	189.06
265.661	190.06
265.894	198.06
266.126	205.06
266.358	211.06
266.591	257.06
266.823	290.06
267.055	295.06
267.287	240.06
267.52	245.06
267.752	274.06
267.984	301.06
268.216	273.06
268.448	228.06
268.681	238.06
268.913	262.06
269.145	254.06
269.377	263.06
269.609	272.06
269.841	247.06
270.073	272.06
270.306	281.06
270.538	277.06
270.77	303.06
271.002	296.06
271.234	303.06
271.466	305.06
271.698	271.06
271.93	288.06
272.162	282.06
272.394	273.06
272.626	269.06
272.858	277.06
273.09	266.06
273.322	247.06
273.553	248.06
273.785	270.06
274.017	347.06
274.249	433.06
274.481	429.06
274.713	466.06
274.945	533.06
275.176	559.06
275.408	491.06
275.64	469.06
275.872	453.06
276.104	408.06
276.335	360.06
276.567	361.06
276.799	359.06
277.031	385.06
277.262	319.06
277.494	241.06
277.726	244.06
277.957	262.06
278.189	291.06
278.421	267.06
278.652	284.06
278.884	284.06
279.115	262.06
279.347	266.06
279.579	249.06
279.81	267.06
280.042	256.06
280.273	254.06
280.505	266.06
280.736	212.06
280.968	228.06
281.199	222.06
281.431	257.06
281.662	249.06
281.894	253.06
282.125	250.06
282.356	271.06
282.588	285.06
282.819	259.06
283.051	273.06
283.282	324.06
283.513	361.06
283.745	401.06
283.976	394.06
284.207	366.06
284.439	384.06
284.67	376.06
284.901	341.06
285.132	359.06
285.364	373.06
285.595	332.06
285.826	363.06
286.057	403.06
286.288	364.06
286.52	370.06
286.751	381.06
286.982	387.06
287.213	332.06
287.444	319.06
287.675	340.06
287.906	351.06
288.138	290.06
288.369	269.06
288.6	251.06
288.831	278.06
289.062	324.06
289.293	329.06
289.524	327.06
289.755	305.06
289.986	333.06
290.217	291.06
290.448	237.06
290.679	230.06
290.91	223.06
291.141	220.06
291.371	227.06
291.602	201.06
291.833	219.06
292.064	229.06
292.295	247.06
292.526	275.06
292.757	291.06
292.987	320.06
293.218	312.06
293.449	334.06
293.68	343.06
293.91	313.06
294.141	342.06
294.372	299.06
294.603	309.06
294.833	309.06
295.064	372.06
295.295	343.06
295.525	286.06
295.756	231.06
295.987	215.06
296.217	197.06
296.448	208.06
296.679	246.06
296.909	260.06
297.14	255.06
297.37	280.06
297.601	252.06
297.831	234.06
298.062	258.06
298.292	281.06
298.523	289.06
298.753	332.06
298.984	311.06
299.214	240.06
299.445	233.06
299.675	215.06
299.905	220.06
300.136	209.06
300.366	220.06
300.597	234.06
300.827	229.06
301.057	221.06
301.288	222.06
301.518	220.06
301.748	266.06
301.979	283.06
302.209	307.06
302.439	292.06
302.669	260.06
302.9	254.06
303.13	237.06
303.36	240.06
303.59	243.06
303.82	250.06
304.051	258.06
304.281	259.06
304.511	268.06
304.741	253.06
304.971	250.06
305.201	263.06
305.431	268.06
305.661	224.06
305.891	222.06
306.121	224.06
306.352	213.06
306.582	196.06
306.812	197.06
307.042	197.06
307.272	186.06
307.502	190.06
307.731	217.06
307.961	197.06
308.191	193.06
308.421	194.06
308.651	179.06
308.881	186.06
309.111	179.06
309.341	179.06
309.571	197.06
309.8	206.06
310.03	209.06
310.26	205.06
310.49	206.06
310.72	180.06
310.949	182.06
311.179	203.06
311.409	200.06
311.639	234.06
311.868	261.06
312.098	327.06
312.328	355.06
312.557	347.06
312.787	359.06
313.017	298.06
313.246	339.06
313.476	360.06
313.706	303.06
313.935	269.06
314.165	225.06
314.394	229.06
314.624	222.06
314.853	220.06
315.083	219.06
315.312	225.06
315.542	208.06
315.771	197.06
316.001	181.06
316.23	199.06
316.46	183.06
316.689	184.06
316.919	196.06
317.148	203.06
317.377	188.06
317.607	198.06
317.836	213.06
318.065	214.06
318.295	255.06
318.524	227.06
318.753	218.06
318.983	199.06
319.212	192.06
319.441	212.06
319.67	235.06
319.9	253.06
320.129	229.06
320.358	196.06
320.587	209.06
320.816	213.06
321.046	244.06
321.275	246.06
321.504	257.06
321.733	257.06
321.962	235.06
322.191	233.06
322.42	226.06
322.649	232.06
322.878	235.06
323.108	240.06
323.337	233.06
323.566	233.06
323.795	234.06
324.024	222.06
324.253	215.06
324.482	210.06
324.71	228.06
324.939	249.06
325.168	224.06
325.397	215.06
325.626	211.06
325.855	197.06
326.084	203.06
326.313	223.06
326.542	197.06
326.77	217.06
326.999	191.06
327.228	209.06
327.457	220.06
327.686	200.06
327.914	205.06
328.143	206.06
328.372	190.06
328.6	196.06
328.829	194.06
329.058	196.06
329.287	193.06
329.515	193.06
329.744	209.06
329.972	197.06
330.201	189.06
330.43	191.06
330.658	210.06
330.887	224.06
331.115	217.06
331.344	225.06
331.572	228.06
331.801	198.06
332.03	206.06
332.258	209.06
332.486	212.06
332.715	218.06
332.943	203.06
333.172	222.06
333.4	219.06
333.629	234.06
333.857	254.06
334.085	246.06
334.314	237.06
334.542	255.06
334.771	217.06
334.999	207.06
335.227	218.06
335.455	213.06
335.684	236.06
335.912	258.06
336.14	257.06
336.369	237.06
336.597	262.06
336.825	259.06
337.053	305.06
337.281	255.06
337.51	218.06
337.738	239.06
337.966	221.06
338.194	255.06
338.422	233.06
338.65	225.06
338.878	209.06
339.106	198.06
339.334	225.06
339.562	227.06
339.79	220.06
340.018	213.06
340.246	202.06
340.474	253.06
340.702	253.06
340.93	255.06
341.158	254.06
341.386	241.06
341.614	240.06
341.842	227.06
342.07	242.06
342.298	256.06
342.526	262.06
342.754	245.06
342.981	231.06
343.209	217.06
343.437	247.06
343.665	254.06
343.893	282.06
344.12	293.06
344.348	331.06
344.576	292.06
344.804	272.06
345.031	223.06
345.259	202.06
345.487	199.06
345.714	213.06
345.942	222.06
346.17	253.06
346.397	245.06
346.625	214.06
346.853	212.06
347.08	204.06
347.308	210.06
347.535	234.06
347.763	242.06
347.99	230.06
348.218	213.06
348.445	205.06
348.673	213.06
348.9	210.06
349.128	237.06
349.355	244.06
349.583	236.06
349.81	221.06
350.037	221.06
350.265	191.06
350.492	190.06
350.72	186.06
350.947	188.06
351.174	204.06
351.402	195.06
351.629	213.06
351.856	212.06
352.083	210.06
352.311	226.06
352.538	227.06
352.765	253.06
352.992	216.06
353.22	221.06
353.447	223.06
353.674	210.06
353.901	204.06
354.128	207.06
354.355	213.06
354.583	208.06
354.81	213.06
355.037	238.06
355.264	223.06
355.491	214.06
355.718	224.06
355.945	230.06
356.172	243.06
356.399	233.06
356.626	256.06
356.853	294.06
357.08	301.06
357.307	343.06
357.534	281.06
357.761	289.06
357.988	346.06
358.215	388.06
358.441	343.06
358.668	318.06
358.895	278.06
359.122	242.06
359.349	263.06
359.576	293.06
359.802	273.06
360.029	212.06
360.256	221.06
360.483	272.06
360.709	305.06
360.936	321.06
361.163	281.06
361.39	228.06
361.616	214.06
361.843	257.06
362.07	282.06
362.296	285.06
362.523	234.06
362.749	202.06
362.976	217.06
363.203	237.06
363.429	260.06
363.656	219.06
363.882	209.06
364.109	212.06
364.335	229.06
364.562	230.06
364.788	225.06
365.015	259.06
365.241	234.06
365.468	219.06
365.694	195.06
365.92	206.06
366.147	184.06
366.373	190.06
366.599	190.06
366.826	191.06
367.052	199.06
367.278	180.06
367.505	190.06
367.731	195.06
367.957	217.06
368.184	234.06
368.41	218.06
368.636	214.06
368.862	227.06
369.089	219.06
369.315	209.06
369.541	199.06
369.767	193.06
369.993	201.06
370.219	190.06
370.445	216.06
370.672	226.06
370.898	235.06
371.124	220.06
371.35	206.06
371.576	207.06
371.802	238.06
372.028	244.06
372.254	265.06
372.48	243.06
372.706	217.06
372.932	245.06
373.158	229.06
373.384	257.06
373.61	327.06
373.835	348.06
374.061	283.06
374.287	254.06
374.513	282.06
374.739	324.06
374.965	341.06
375.191	323.06
375.416	252.06
375.642	233.06
375.868	261.06
376.094	289.06
376.319	247.06
376.545	263.06
376.771	272.06
376.997	239.06
377.222	189.06
377.448	190.06
377.674	181.06
377.899	190.06
378.125	194.06
378.35	201.06
378.576	199.06
378.802	205.06
379.027	195.06
379.253	203.06
379.478	209.06
379.704	233.06
379.929	234.06
380.155	238.06
380.38	222.06
380.606	211.06
380.831	234.06
381.057	235.06
381.282	235.06
381.507	266.06
381.733	291.06
381.958	283.06
382.184	322.06
382.409	325.06
382.634	334.06
382.86	323.06
383.085	277.06
383.31	241.06
383.535	276.06
383.761	268.06
383.986	251.06
384.211	278.06
384.436	261.06
384.662	220.06
384.887	225.06
385.112	229.06
385.337	250.06
385.562	227.06
385.787	255.06
386.013	283.06
386.238	267.06
386.463	223.06
386.688	242.06
386.913	222.06
387.138	198.06
387.363	220.06
387.588	237.06
387.813	224.06
388.038	263.06
388.263	241.06
388.488	209.06
388.713	259.06
388.938	269.06
389.163	236.06
389.387	206.06
389.612	213.06
389.837	214.06
390.062	222.06
390.287	239.06
390.512	216.06
390.736	210.06
390.961	217.06
391.186	217.06
391.411	204.06
391.636	218.06
391.86	230.06
392.085	243.06
392.31	253.06
392.534	226.06
392.759	212.06
392.984	235.06
393.208	241.06
393.433	205.06
393.658	199.06
393.882	204.06
394.107	205.06
394.331	203.06
394.556	192.06
394.78	193.06
395.005	202.06
395.229	196.06
395.454	209.06
395.678	205.06
395.903	228.06
396.127	211.06
396.352	230.06
396.576	217.06
396.801	233.06
397.025	237.06
397.249	243.06
397.474	223.06
397.698	232.06
397.922	231.06
398.147	213.06
398.371	216.06
398.595	235.06
398.82	223.06
399.044	210.06
399.268	263.06
399.492	288.06
399.717	273.06
399.941	275.06
400.165	259.06
400.389	260.06
400.613	241.06
400.837	238.06
401.062	209.06
401.286	217.06
401.51	230.06
401.734	227.06
401.958	221.06
402.182	231.06
402.406	250.06
402.63	221.06
402.854	234.06
403.078	277.06
403.302	348.06
403.526	370.06
403.75	311.06
403.974	269.06
404.198	272.06
404.422	297.06
404.645	305.06
404.869	310.06
405.093	296.06
405.317	251.06
405.541	252.06
405.765	252.06
405.988	260.06
406.212	273.06
406.436	302.06
406.66	302.06
406.883	271.06
407.107	266.06
407.331	293.06
407.555	305.06
407.778	279.06
408.002	252.06
408.226	271.06
408.449	263.06
408.673	265.06
408.896	238.06
409.12	228.06
409.344	239.06
409.567	225.06
409.791	239.06
410.014	253.06
410.238	239.06
410.461	238.06
410.685	239.06
410.908	206.06
411.132	230.06
411.355	230.06
411.578	240.06
411.802	226.06
412.025	234.06
412.249	247.06
412.472	240.06
412.695	237.06
412.919	235.06
413.142	225.06
413.365	249.06
413.589	221.06
413.812	228.06
414.035	223.06
414.258	234.06
414.482	245.06
414.705	253.06
414.928	234.06
415.151	245.06
415.374	228.06
415.597	234.06
415.821	230.06
416.044	234.06
416.267	221.06
416.49	204.06
416.713	210.06
416.936	228.06
417.159	218.06
417.382	229.06
417.605	218.06
417.828	235.06
418.051	223.06
418.274	223.06
418.497	237.06
418.72	217.06
418.943	238.06
419.166	233.06
419.389	274.06
419.611	242.06
419.834	243.06
420.057	270.06
420.28	268.06
420.503	258.06
420.726	218.06
420.948	222.06
421.171	216.06
421.394	212.06
421.617	216.06
421.839	213.06
422.062	231.06
422.285	219.06
422.507	229.06
422.73	241.06
422.953	241.06
423.175	230.06
423.398	258.06
423.621	264.06
423.843	295.06
424.066	239.06
424.288	256.06
424.511	235.06
424.733	237.06
424.956	236.06
425.178	264.06
425.401	291.06
425.623	340.06
425.846	292.06
426.068	260.06
426.291	248.06
426.513	264.06
426.735	235.06
426.958	226.06
427.18	261.06
427.402	317.06
427.625	348.06
427.847	287.06
428.069	245.06
428.292	227.06
428.514	228.06
428.736	233.06
428.958	229.06
429.181	281.06
429.403	256.06
429.625	236.06
429.847	226.06
430.069	209.06
430.292	221.06
430.514	221.06
430.736	234.06
430.958	243.06
431.18	261.06
431.402	212.06
431.624	206.06
431.846	206.06
432.068	199.06
432.29	205.06
432.512	224.06
432.734	266.06
432.956	239.06
433.178	234.06
433.4	205.06
433.622	227.06
433.844	230.06
434.066	233.06
434.287	238.06
434.509	222.06
434.731	231.06
434.953	216.06
435.175	237.06
435.397	277.06
435.618	218.06
435.84	202.06
436.062	209.06
436.284	208.06
436.505	204.06
436.727	206.06
436.949	210.06
437.17	217.06
437.392	226.06
437.614	222.06
437.835	215.06
438.057	203.06
438.278	235.06
438.5	297.06
438.721	302.06
438.943	240.06
439.165	195.06
439.386	205.06
439.608	205.06
439.829	209.06
440.05	204.06
440.272	223.06
440.493	243.06
440.715	279.06
440.936	234.06
441.158	228.06
441.379	229.06
441.6	247.06
441.822	254.06
442.043	233.06
442.264	225.06
442.486	227.06
442.707	218.06
442.928	242.06
443.149	215.06
443.371	219.06
443.592	230.06
443.813	240.06
444.034	225.06
444.255	247.06
444.476	227.06
444.698	251.06
444.919	266.06
445.14	357.06
445.361	286.06
445.582	244.06
445.803	234.06
446.024	231.06
446.245	242.06
446.466	243.06
446.687	231.06
446.908	207.06
447.129	203.06
447.35	223.06
447.571	196.06
447.792	206.06
448.013	212.06
448.234	211.06
448.455	194.06
448.675	208.06
448.896	196.06
449.117	210.06
449.338	204.06
449.559	209.06
449.779	219.06
450	220.06
450.221	223.06
450.442	205.06
450.662	207.06
450.883	211.06
451.104	187.06
451.324	226.06
451.545	218.06
451.766	219.06
451.986	205.06
452.207	195.06
452.428	194.06
452.648	208.06
452.869	219.06
453.089	213.06
453.31	223.06
453.53	199.06
453.751	194.06
453.971	223.06
454.192	218.06
454.412	200.06
454.633	199.06
454.853	205.06
455.073	205.06
455.294	206.06
455.514	191.06
455.734	194.06
455.955	209.06
456.175	201.06
456.395	207.06
456.616	183.06
456.836	202.06
457.056	206.06
457.276	169.06
457.497	176.06
457.717	180.06
457.937	180.06
458.157	197.06
458.377	189.06
458.598	199.06
458.818	188.06
459.038	221.06
459.258	214.06
459.478	213.06
459.698	230.06
459.918	227.06
460.138	233.06
460.358	235.06
460.578	227.06
460.798	246.06
461.018	236.06
461.238	235.06
461.458	237.06
461.678	228.06
461.898	261.06
462.118	249.06
462.338	253.06
462.558	267.06
462.777	259.06
462.997	273.06
463.217	283.06
463.437	297.06
463.657	283.06
463.876	250.06
464.096	256.06
464.316	257.06
464.536	264.06
464.755	254.06
464.975	256.06
465.195	243.06
465.414	258.06
465.634	240.06
465.854	239.06
466.073	231.06
466.293	198.06
466.512	244.06
466.732	254.06
466.951	247.06
467.171	225.06
467.391	217.06
467.61	199.06
467.829	229.06
468.049	228.06
468.268	199.06
468.488	214.06
468.707	230.06
468.927	242.06
469.146	245.06
469.365	237.06
469.585	236.06
469.804	237.06
470.023	250.06
470.243	229.06
470.462	219.06
470.681	237.06
470.901	202.06
471.12	213.06
471.339	232.06
471.558	225.06
471.777	219.06
471.997	239.06
472.216	256.06
472.435	239.06
472.654	239.06
472.873	233.06
473.092	240.06
473.311	241.06
473.53	236.06
473.749	219.06
473.968	213.06
474.187	222.06
474.406	212.06
474.625	229.06
474.844	227.06
475.063	246.06
475.282	249.06
475.501	249.06
475.72	276.06
475.939	273.06
476.158	260.06
476.377	303.06
476.596	335.06
476.814	332.06
477.033	283.06
477.252	263.06
477.471	246.06
477.69	234.06
477.908	262.06
478.127	277.06
478.346	230.06
478.564	271.06
478.783	264.06
479.002	277.06
479.22	290.06
479.439	321.06
479.658	286.06
479.876	269.06
480.095	261.06
480.313	287.06
480.532	293.06
480.751	276.06
480.969	283.06
481.188	294.06
481.406	301.06
481.624	297.06
481.843	246.06
482.061	239.06
482.28	273.06
482.498	315.06
482.717	304.06
482.935	268.06
483.153	271.06
483.372	252.06
483.59	253.06
483.808	256.06
484.027	230.06
484.245	247.06
484.463	259.06
484.681	267.06
484.9	250.06
485.118	279.06
485.336	258.06
485.554	238.06
485.772	240.06
485.99	279.06
486.209	271.06
486.427	266.06
486.645	276.06
486.863	279.06
487.081	267.06
487.299	294.06
487.517	311.06
487.735	267.06
487.953	285.06
488.171	285.06
488.389	258.06
488.607	256.06
488.825	293.06
489.043	274.06
489.261	317.06
489.479	322.06
489.696	286.06
489.914	262.06
490.132	226.06
490.35	258.06
490.568	263.06
490.786	268.06
491.003	257.06
491.221	269.06
491.439	257.06
491.657	268.06
491.874	277.06
492.092	311.06
492.31	334.06
492.527	340.06
492.745	295.06
492.963	285.06
493.18	275.06
493.398	286.06
493.615	295.06
493.833	279.06
494.05	262.06
494.268	281.06
494.485	283.06
494.703	267.06
494.92	280.06
495.138	271.06
495.355	281.06
495.573	273.06
495.79	305.06
496.008	361.06
496.225	306.06
496.442	302.06
496.66	285.06
496.877	299.06
497.094	308.06
497.312	272.06
497.529	304.06
497.746	297.06
497.963	279.06
498.181	321.06
498.398	319.06
498.615	341.06
498.832	376.06
499.049	375.06
499.267	371.06
499.484	373.06
499.701	400.06
499.918	427.06
500.135	470.06
500.352	506.06
500.569	517.06
500.786	531.06
501.003	527.06
501.22	473.06
501.437	417.06
501.654	397.06
501.871	379.06
502.088	348.06
502.305	320.06
502.522	336.06
502.739	341.06
502.956	310.06
503.172	298.06
503.389	299.06
503.606	287.06
503.823	303.06
504.04	292.06
504.256	307.06
504.473	299.06
504.69	312.06
504.907	322.06
505.123	298.06
505.34	319.06
505.557	304.06
505.773	285.06
505.99	273.06
506.207	281.06
506.423	284.06
506.64	260.06
506.856	272.06
507.073	293.06
507.289	290.06
507.506	284.06
507.722	303.06
507.939	294.06
508.155	318.06
508.372	274.06
508.588	269.06
508.805	267.06
509.021	259.06
509.238	272.06
509.454	262.06
509.67	251.06
509.887	257.06
510.103	277.06
510.319	286.06
510.536	268.06
510.752	249.06
510.968	261.06
511.184	248.06
511.401	260.06
511.617	256.06
511.833	243.06
512.049	240.06
512.265	265.06
512.481	256.06
512.698	274.06
512.914	302.06
513.13	270.06
513.346	266.06
513.562	263.06
513.778	266.06
513.994	257.06
514.21	263.06
514.426	267.06
514.642	269.06
514.858	253.06
515.074	257.06
515.29	276.06
515.506	309.06
515.721	287.06
515.937	293.06
516.153	283.06
516.369	249.06
516.585	269.06
516.801	295.06
517.016	349.06
517.232	345.06
517.448	363.06
517.664	310.06
517.879	317.06
518.095	310.06
518.311	318.06
518.527	318.06
518.742	303.06
518.958	328.06
519.173	337.06
519.389	303.06
519.605	301.06
519.82	309.06
520.036	365.06
520.251	350.06
520.467	357.06
520.682	530.06
520.898	678.06
521.113	637.06
521.329	395.06
521.544	320.06
521.76	318.06
521.975	304.06
522.19	277.06
522.406	308.06
522.621	313.06
522.836	331.06
523.052	318.06
523.267	299.06
523.482	269.06
523.698	307.06
523.913	293.06
524.128	255.06
524.343	252.06
524.559	259.06
524.774	246.06
524.989	265.06
525.204	255.06
525.419	289.06
525.634	264.06
525.849	260.06
526.064	283.06
526.28	292.06
526.495	332.06
526.71	347.06
526.925	317.06
527.14	289.06
527.355	278.06
527.57	264.06
527.785	282.06
527.999	257.06
528.214	229.06
528.429	245.06
528.644	259.06
528.859	261.06
529.074	257.06
529.289	231.06
529.503	235.06
529.718	245.06
529.933	294.06
530.148	293.06
530.363	261.06
530.577	241.06
530.792	236.06
531.007	227.06
531.221	228.06
531.436	237.06
531.651	257.06
531.865	255.06
532.08	259.06
532.295	262.06
532.509	239.06
532.724	260.06
532.938	312.06
533.153	333.06
533.367	287.06
533.582	279.06
533.796	255.06
534.011	249.06
534.225	244.06
534.44	256.06
534.654	256.06
534.868	308.06
535.083	291.06
535.297	265.06
535.511	257.06
535.726	267.06
535.94	274.06
536.154	245.06
536.369	246.06
536.583	253.06
536.797	259.06
537.011	268.06
537.225	241.06
537.44	273.06
537.654	258.06
537.868	244.06
538.082	236.06
538.296	245.06
538.51	246.06
538.724	248.06
538.938	240.06
539.153	205.06
539.367	239.06
539.581	233.06
539.795	231.06
540.009	277.06
540.222	234.06
540.436	257.06
540.65	266.06
540.864	272.06
541.078	271.06
541.292	303.06
541.506	273.06
541.72	242.06
541.934	241.06
542.147	251.06
542.361	242.06
542.575	261.06
542.789	248.06
543.002	220.06
543.216	250.06
543.43	228.06
543.644	227.06
543.857	223.06
544.071	231.06
544.285	217.06
544.498	210.06
544.712	220.06
544.925	243.06
545.139	222.06
545.352	223.06
545.566	233.06
545.779	255.06
545.993	239.06
546.206	223.06
546.42	207.06
546.633	206.06
546.847	217.06
547.06	225.06
547.274	219.06
547.487	200.06
547.7	230.06
547.914	247.06
548.127	234.06
548.34	254.06
548.554	237.06
548.767	236.06
548.98	260.06
549.193	238.06
549.407	244.06
549.62	263.06
549.833	250.06
550.046	275.06
550.259	271.06
550.473	232.06
550.686	225.06
550.899	233.06
551.112	237.06
551.325	269.06
551.538	268.06
551.751	218.06
551.964	221.06
552.177	220.06
552.39	217.06
552.603	220.06
552.816	254.06
553.029	229.06
553.242	226.06
553.455	236.06
553.667	267.06
553.88	233.06
554.093	225.06
554.306	213.06
554.519	196.06
554.732	207.06
554.944	205.06
555.157	202.06
555.37	197.06
555.583	204.06
555.795	189.06
556.008	202.06
556.221	209.06
556.433	187.06
556.646	216.06
556.859	200.06
557.071	212.06
557.284	207.06
557.496	213.06
557.709	216.06
557.921	194.06
558.134	211.06
558.346	185.06
558.559	193.06
558.771	198.06
558.984	205.06
559.196	195.06
559.409	181.06
559.621	188.06
559.833	198.06
560.046	190.06
560.258	188.06
560.47	182.06
560.683	212.06
560.895	194.06
561.107	181.06
561.32	182.06
561.532	199.06
561.744	196.06
561.956	205.06
562.168	201.06
562.381	194.06
562.593	194.06
562.805	193.06
563.017	210.06
563.229	194.06
563.441	187.06
563.653	194.06
563.865	187.06
564.077	193.06
564.289	206.06
564.501	195.06
564.713	220.06
564.925	206.06
565.137	188.06
565.349	197.06
565.561	201.06
565.773	212.06
565.985	212.06
566.197	224.06
566.408	230.06
566.62	263.06
566.832	253.06
567.044	270.06
567.255	262.06
567.467	272.06
567.679	275.06
567.891	269.06
568.102	299.06
568.314	280.06
568.526	253.06
568.737	237.06
568.949	247.06
569.161	221.06
569.372	206.06
569.584	195.06
569.795	202.06
570.007	212.06
570.218	208.06
570.43	187.06
570.641	195.06
570.853	198.06
571.064	198.06
571.276	197.06
571.487	194.06
571.698	194.06
571.91	190.06
572.121	164.06
572.333	193.06
572.544	171.06
572.755	179.06
572.966	194.06
573.178	204.06
573.389	191.06
573.6	192.06
573.811	196.06
574.023	176.06
574.234	178.06
574.445	188.06
574.656	169.06
574.867	152.06
575.078	156.06
575.289	169.06
575.501	205.06
575.712	163.06
575.923	174.06
576.134	192.06
576.345	154.06
576.556	167.06
576.767	165.06
576.978	185.06
577.188	182.06
577.399	166.06
577.61	154.06
577.821	175.06
578.032	177.06
578.243	155.06
578.454	171.06
578.665	195.06
578.875	173.06
579.086	163.06
579.297	178.06
579.508	171.06
579.718	157.06
579.929	174.06
580.14	186.06
580.35	166.06
580.561	161.06
580.772	155.06
580.982	156.06
581.193	161.06
581.403	162.06
581.614	167.06
581.825	153.06
582.035	146.06
582.246	143.06
582.456	161.06
582.667	162.06
582.877	162.06
583.087	155.06
583.298	155.06
583.508	154.06
583.719	159.06
583.929	149.06
584.139	153.06
584.35	145.06
584.56	157.06
584.77	163.06
584.981	147.06
585.191	150.06
585.401	174.06
585.611	155.06
585.821	155.06
586.032	145.06
586.242	161.06
586.452	169.06
586.662	161.06
586.872	161.06
587.082	158.06
587.292	163.06
587.502	149.06
587.713	155.06
587.923	147.06
588.133	166.06
588.343	157.06
588.553	159.06
588.762	162.06
588.972	161.06
589.182	163.06
589.392	152.06
589.602	131.06
589.812	171.06
590.022	171.06
590.232	175.06
590.441	157.06
590.651	157.06
590.861	141.06
591.071	152.06
591.281	161.06
591.49	162.06
591.7	155.06
591.91	164.06
592.119	161.06
592.329	146.06
592.539	161.06
592.748	148.06
592.958	155.06
593.167	143.06
593.377	175.06
593.587	174.06
593.796	185.06
594.006	166.06
594.215	187.06
594.424	189.06
594.634	180.06
594.843	176.06
595.053	155.06
595.262	167.06
595.472	160.06
595.681	166.06
595.89	150.06
596.1	158.06
596.309	176.06
596.518	155.06
596.727	153.06
596.937	152.06
597.146	149.06
597.355	130.06
597.564	155.06
597.774	157.06
597.983	149.06
598.192	143.06
598.401	147.06
598.61	142.06
598.819	143.06
599.028	140.06
599.237	131.06
599.446	129.06
599.655	133.06
599.864	146.06
600.073	131.06
600.282	143.06
600.491	127.06
600.7	139.06
600.909	138.06
601.118	144.06
601.327	135.06
601.536	155.06
601.745	149.06
601.953	147.06
602.162	148.06
602.371	139.06
602.58	154.06
602.789	128.06
602.997	135.06
603.206	133.06
603.415	142.06
603.623	141.06
603.832	137.06
604.041	144.06
604.249	148.06
604.458	137.06
604.666	134.06
604.875	133.06
605.084	126.06
605.292	131.06
605.501	141.06
605.709	135.06
605.918	147.06
606.126	154.06
606.334	129.06
606.543	145.06
606.751	153.06
606.96	128.06
607.168	135.06
607.376	137.06
607.585	135.06
607.793	144.06
608.001	139.06
608.21	144.06
608.418	140.06
608.626	132.06
608.834	134.06
609.043	126.06
609.251	119.06
609.459	144.06
609.667	121.06
609.875	136.06
610.083	141.06
610.291	137.06
610.499	142.06
610.707	132.06
610.916	125.06
611.124	132.06
611.332	119.06
611.54	129.06
611.748	121.06
611.955	126.06
612.163	131.06
612.371	145.06
612.579	129.06
612.787	117.06
612.995	126.06
613.203	128.06
613.411	133.06
613.618	118.06
613.826	135.06
614.034	140.06
614.242	126.06
614.449	127.06
614.657	121.06
614.865	126.06
615.072	126.06
615.28	118.06
615.488	137.06
615.695	127.06
615.903	118.06
616.111	133.06
616.318	126.06
616.526	132.06
616.733	125.06
616.941	127.06
617.148	132.06
617.356	136.06
617.563	129.06
617.771	123.06
617.978	124.06
618.185	118.06
618.393	129.06
618.6	127.06
618.807	121.06
619.015	136.06
619.222	135.06
619.429	129.06
619.637	127.06
619.844	119.06
620.051	129.06
620.258	141.06
620.466	129.06
620.673	121.06
620.88	121.06
621.087	122.06
621.294	128.06
621.501	122.06
621.708	127.06
621.915	123.06
622.122	121.06
622.329	121.06
622.536	134.06
622.743	126.06
622.95	115.06
623.157	120.06
623.364	125.06
623.571	118.06
623.778	113.06
623.985	120.06
624.192	117.06
624.399	125.06
624.606	120.06
624.812	125.06
625.019	121.06
625.226	124.06
625.433	113.06
625.639	117.06
625.846	111.06
626.053	132.06
626.259	123.06
626.466	123.06
626.673	123.06
626.879	136.06
627.086	118.06
627.293	106.06
627.499	133.06
627.706	121.06
627.912	121.06
628.119	118.06
628.325	127.06
628.532	131.06
628.738	101.06
628.945	121.06
629.151	117.06
629.357	131.06
629.564	112.06
629.77	114.06
629.976	110.06
630.183	107.06
630.389	111.06
630.595	115.06
630.802	127.06
631.008	115.06
631.214	125.06
631.42	118.06
631.627	106.06
631.833	111.06
632.039	100.06
632.245	118.06
632.451	119.06
632.657	110.06
632.863	121.06
633.069	116.06
633.275	95.06
633.481	98.06
633.688	99.06
633.893	116.06
634.099	117.06
634.305	109.06
634.511	119.06
634.717	114.06
634.923	108.06
635.129	117.06
635.335	118.06
635.541	110.06
635.747	99.06
635.952	112.06
636.158	109.06
636.364	112.06
636.57	117.06
636.775	90.06
636.981	114.06
637.187	123.06
637.392	115.06
637.598	97.06
637.804	115.06
638.009	103.06
638.215	118.06
638.421	114.06
638.626	111.06
638.832	104.06
639.037	116.06
639.243	95.06
639.448	103.06
639.654	101.06
639.859	119.06
640.065	113.06
640.27	108.06
640.475	113.06
640.681	117.06
640.886	112.06
641.091	114.06
641.297	109.06
641.502	113.06
641.707	109.06
641.913	109.06
642.118	111.06
642.323	108.06
642.528	106.06
642.733	103.06
642.939	103.06
643.144	110.06
643.349	113.06
643.554	119.06
643.759	107.06
643.964	119.06
644.169	103.06
644.374	111.06
644.579	112.06
644.784	110.06
644.989	102.06
645.194	102.06
645.399	103.06
645.604	101.06
645.809	117.06
646.014	125.06
646.219	94.06
646.423	87.06
646.628	115.06
646.833	117.06
647.038	108.06
647.243	107.06
647.447	100.06
647.652	99.06
647.857	96.06
648.062	101.06
648.266	112.06
648.471	111.06
648.676	107.06
648.88	106.06
649.085	114.06
649.289	109.06
649.494	100.06
649.698	118.06
649.903	98.06
650.107	111.06
650.312	100.06
650.516	103.06
650.721	101.06
650.925	93.06
651.13	89.06
651.334	114.06
651.539	113.06
651.743	103.06
651.947	104.06
652.152	105.06
652.356	84.06
652.56	97.06
652.764	82.06
652.969	106.06
653.173	105.06
653.377	91.06
653.581	90.06
653.785	94.06
653.99	92.06
654.194	90.06
654.398	105.06
654.602	103.06
654.806	99.06
655.01	100.06
655.214	94.06
655.418	94.06
655.622	92.06
655.826	84.06
656.03	81.06
656.234	110.06
656.438	98.06
656.642	91.06
656.846	87.06
657.049	97.06
657.253	102.06
657.457	90.06
657.661	98.06
657.865	91.06
658.068	77.06
658.272	87.06
658.476	82.06
658.68	79.06
658.883	76.06
659.087	93.06
659.291	83.06
659.494	77.06
659.698	75.06
659.901	88.06
660.105	71.06
660.309	81.06
660.512	82.06
660.716	82.06
660.919	86.06
661.123	82.06
661.326	78.06
661.53	96.06
661.733	93.06
661.936	69.06
662.14	77.06
662.343	80.06
662.546	80.06
662.75	78.06
662.953	83.06
663.156	99.06
663.36	95.06
663.563	81.06
663.766	75.06
663.969	69.06
664.173	88.06
664.376	95.06
664.579	74.06
664.782	71.06
664.985	80.06
665.188	69.06
665.391	79.06
665.594	80.06
665.797	74.06
666	87.06
666.203	71.06
666.406	82.06
666.609	85.06
666.812	87.06
667.015	69.06
667.218	72.06
667.421	84.06
667.624	78.06
667.827	84.06
668.03	68.06
668.232	78.06
668.435	76.06
668.638	81.06
668.841	80.06
669.043	80.06
669.246	81.06
669.449	84.06
669.651	75.06
669.854	67.06
670.057	78.06
670.259	88.06
670.462	80.06
670.665	77.06
670.867	70.06
671.07	75.06
671.272	77.06
671.475	93.06
671.677	82.06
671.88	65.06
672.082	73.06
672.284	93.06
672.487	93.06
672.689	77.06
672.892	91.06
