Data from NickelSpatula.Lamp.E10.P2_HRD10591_11-58-45-527.txt Node
Date: Tue Jul 23 11:58:45 EDT 2019
User: cochatt
Spectrometer: HR+D1059
Trigger mode: 1
Integration Time (sec): 1.000000E-1
Scans to average: 1
Electric dark correction enabled: true
Nonlinearity correction enabled: false
Boxcar width: 0
XAxis mode: Wavelengths
Number of Pixels in Spectrum: 2048
>>>>>Begin Spectral Data<<<<<
223.165	-14.06
223.4	-14.06
223.635	-14.06
223.869	-22.06
224.104	-18.06
224.338	-19.06
224.573	-7.06
224.808	-6.06
225.042	-1.06
225.277	13.94
225.511	-8.06
225.746	4.94
225.98	8.94
226.215	-7.06
226.449	1.94
226.683	12.94
226.918	23.94
227.152	35.94
227.387	49.94
227.621	40.94
227.856	38.94
228.09	45.94
228.324	39.94
228.559	48.94
228.793	96.94
229.027	133.94
229.262	153.94
229.496	154.94
229.73	178.94
229.964	203.94
230.199	203.94
230.433	222.94
230.667	208.94
230.901	190.94
231.136	194.94
231.37	207.94
231.604	226.94
231.838	234.94
232.072	261.94
232.306	246.94
232.541	256.94
232.775	262.94
233.009	265.94
233.243	293.94
233.477	305.94
233.711	342.94
233.945	348.94
234.179	320.94
234.413	331.94
234.647	375.94
234.881	464.94
235.115	414.94
235.349	395.94
235.583	351.94
235.817	346.94
236.051	380.94
236.285	426.94
236.519	468.94
236.753	430.94
236.987	443.94
237.221	409.94
237.455	405.94
237.689	436.94
237.922	463.94
238.156	471.94
238.39	542.94
238.624	670.94
238.858	569.94
239.091	480.94
239.325	540.94
239.559	497.94
239.793	544.94
240.027	641.94
240.26	596.94
240.494	558.94
240.728	581.94
240.961	677.94
241.195	649.94
241.429	614.94
241.662	626.94
241.896	517.94
242.13	487.94
242.363	449.94
242.597	468.94
242.83	546.94
243.064	550.94
243.298	574.94
243.531	601.94
243.765	634.94
243.998	646.94
244.232	601.94
244.465	596.94
244.699	565.94
244.932	679.94
245.166	624.94
245.399	557.94
245.633	544.94
245.866	545.94
246.099	611.94
246.333	722.94
246.566	771.94
246.8	767.94
247.033	759.94
247.266	663.94
247.5	682.94
247.733	679.94
247.966	658.94
248.2	700.94
248.433	765.94
248.666	822.94
248.899	846.94
249.133	880.94
249.366	998.94
249.599	1061.94
249.832	955.94
250.066	800.94
250.299	859.94
250.532	834.94
250.765	791.94
250.998	744.94
251.231	686.94
251.465	778.94
251.698	848.94
251.931	806.94
252.164	853.94
252.397	922.94
252.63	1084.94
252.863	1170.94
253.096	1174.94
253.329	1146.94
253.562	1082.94
253.795	1223.94
254.028	1370.94
254.261	1359.94
254.494	1250.94
254.727	1137.94
254.96	1117.94
255.193	1177.94
255.426	1114.94
255.659	863.94
255.892	771.94
256.124	880.94
256.357	1024.94
256.59	1190.94
256.823	1137.94
257.056	965.94
257.289	916.94
257.521	985.94
257.754	1134.94
257.987	1287.94
258.22	1106.94
258.452	1004.94
258.685	1141.94
258.918	1255.94
259.151	1235.94
259.383	1336.94
259.616	1509.94
259.849	1545.94
260.081	1718.94
260.314	1896.94
260.547	1453.94
260.779	1478.94
261.012	1713.94
261.244	1580.94
261.477	1598.94
261.71	1512.94
261.942	1273.94
262.175	1278.94
262.407	1243.94
262.64	1237.94
262.872	1507.94
263.105	1643.94
263.337	1699.94
263.57	1508.94
263.802	1006.94
264.035	903.94
264.267	884.94
264.499	774.94
264.732	695.94
264.964	680.94
265.197	713.94
265.429	752.94
265.661	808.94
265.894	857.94
266.126	925.94
266.358	1005.94
266.591	1253.94
266.823	1520.94
267.055	1383.94
267.287	1260.94
267.52	1253.94
267.752	1349.94
267.984	1419.94
268.216	1351.94
268.448	1127.94
268.681	1105.94
268.913	1191.94
269.145	1254.94
269.377	1312.94
269.609	1296.94
269.841	1218.94
270.073	1298.94
270.306	1368.94
270.538	1358.94
270.77	1397.94
271.002	1419.94
271.234	1433.94
271.466	1513.94
271.698	1446.94
271.93	1414.94
272.162	1448.94
272.394	1408.94
272.626	1407.94
272.858	1472.94
273.09	1478.94
273.322	1314.94
273.553	1298.94
273.785	1518.94
274.017	1976.94
274.249	2464.94
274.481	2513.94
274.713	2735.94
274.945	3130.94
275.176	3213.94
275.408	2869.94
275.64	2611.94
275.872	2583.94
276.104	2192.94
276.335	1911.94
276.567	1830.94
276.799	1959.94
277.031	2066.94
277.262	1618.94
277.494	1237.94
277.726	1181.94
277.957	1342.94
278.189	1454.94
278.421	1465.94
278.652	1414.94
278.884	1325.94
279.115	1271.94
279.347	1198.94
279.579	1220.94
279.81	1189.94
280.042	1226.94
280.273	1210.94
280.505	1152.94
280.736	1014.94
280.968	1011.94
281.199	1096.94
281.431	1228.94
281.662	1179.94
281.894	1168.94
282.125	1265.94
282.356	1341.94
282.588	1377.94
282.819	1290.94
283.051	1360.94
283.282	1680.94
283.513	1928.94
283.745	2177.94
283.976	2167.94
284.207	2006.94
284.439	2092.94
284.67	2019.94
284.901	1773.94
285.132	1908.94
285.364	1964.94
285.595	1825.94
285.826	1981.94
286.057	2030.94
286.288	1973.94
286.52	1989.94
286.751	2110.94
286.982	2101.94
287.213	1785.94
287.444	1754.94
287.675	1801.94
287.906	1821.94
288.138	1552.94
288.369	1383.94
288.6	1267.94
288.831	1302.94
289.062	1532.94
289.293	1697.94
289.524	1569.94
289.755	1558.94
289.986	1603.94
290.217	1425.94
290.448	1132.94
290.679	968.94
290.91	908.94
291.141	933.94
291.371	986.94
291.602	967.94
291.833	978.94
292.064	1059.94
292.295	1183.94
292.526	1360.94
292.757	1444.94
292.987	1572.94
293.218	1560.94
293.449	1582.94
293.68	1694.94
293.91	1578.94
294.141	1613.94
294.372	1487.94
294.603	1416.94
294.833	1588.94
295.064	1798.94
295.295	1705.94
295.525	1308.94
295.756	1128.94
295.987	1021.94
296.217	1020.94
296.448	1055.94
296.679	1128.94
296.909	1242.94
297.14	1327.94
297.37	1425.94
297.601	1365.94
297.831	1150.94
298.062	1251.94
298.292	1429.94
298.523	1608.94
298.753	1769.94
298.984	1570.94
299.214	1274.94
299.445	1079.94
299.675	1046.94
299.905	1043.94
300.136	1098.94
300.366	1172.94
300.597	1160.94
300.827	1030.94
301.057	998.94
301.288	1030.94
301.518	1082.94
301.748	1199.94
301.979	1320.94
302.209	1443.94
302.439	1466.94
302.669	1250.94
302.9	1243.94
303.13	1135.94
303.36	1095.94
303.59	1055.94
303.82	1120.94
304.051	1243.94
304.281	1354.94
304.511	1313.94
304.741	1135.94
304.971	1188.94
305.201	1280.94
305.431	1217.94
305.661	1084.94
305.891	1104.94
306.121	1096.94
306.352	969.94
306.582	892.94
306.812	864.94
307.042	860.94
307.272	793.94
307.502	822.94
307.731	878.94
307.961	902.94
308.191	879.94
308.421	812.94
308.651	809.94
308.881	770.94
309.111	749.94
309.341	820.94
309.571	908.94
309.8	920.94
310.03	944.94
310.26	1020.94
310.49	982.94
310.72	894.94
310.949	848.94
311.179	855.94
311.409	909.94
311.639	1087.94
311.868	1412.94
312.098	1779.94
312.328	1953.94
312.557	1873.94
312.787	1887.94
313.017	1679.94
313.246	1805.94
313.476	1946.94
313.706	1613.94
313.935	1290.94
314.165	1056.94
314.394	933.94
314.624	955.94
314.853	984.94
315.083	1026.94
315.312	1014.94
315.542	1000.94
315.771	957.94
316.001	858.94
316.23	841.94
316.46	842.94
316.689	893.94
316.919	877.94
317.148	886.94
317.377	872.94
317.607	885.94
317.836	951.94
318.065	1114.94
318.295	1221.94
318.524	1143.94
318.753	976.94
318.983	933.94
319.212	938.94
319.441	966.94
319.67	1129.94
319.9	1236.94
320.129	1120.94
320.358	970.94
320.587	947.94
320.816	1032.94
321.046	1167.94
321.275	1351.94
321.504	1357.94
321.733	1281.94
321.962	1235.94
322.191	1168.94
322.42	1120.94
322.649	1145.94
322.878	1208.94
323.108	1231.94
323.337	1126.94
323.566	1124.94
323.795	1068.94
324.024	1017.94
324.253	997.94
324.482	972.94
324.71	1075.94
324.939	1261.94
325.168	1128.94
325.397	941.94
325.626	889.94
325.855	905.94
326.084	929.94
326.313	882.94
326.542	839.94
326.77	892.94
326.999	900.94
327.228	968.94
327.457	996.94
327.686	1030.94
327.914	892.94
328.143	835.94
328.372	828.94
328.6	833.94
328.829	846.94
329.058	894.94
329.287	892.94
329.515	912.94
329.744	862.94
329.972	834.94
330.201	807.94
330.43	846.94
330.658	934.94
330.887	1098.94
331.115	1063.94
331.344	1012.94
331.572	958.94
331.801	910.94
332.03	863.94
332.258	904.94
332.486	962.94
332.715	945.94
332.943	900.94
333.172	892.94
333.4	923.94
333.629	1002.94
333.857	1092.94
334.085	1125.94
334.314	1111.94
334.542	1034.94
334.771	955.94
334.999	919.94
335.227	918.94
335.455	943.94
335.684	1018.94
335.912	1204.94
336.14	1272.94
336.369	1261.94
336.597	1182.94
336.825	1390.94
337.053	1534.94
337.281	1233.94
337.51	999.94
337.738	965.94
337.966	1052.94
338.194	1180.94
338.422	1124.94
338.65	974.94
338.878	888.94
339.106	924.94
339.334	1033.94
339.562	1085.94
339.79	1012.94
340.018	955.94
340.246	1048.94
340.474	1222.94
340.702	1278.94
340.93	1310.94
341.158	1326.94
341.386	1150.94
341.614	1106.94
341.842	1123.94
342.07	1160.94
342.298	1323.94
342.526	1388.94
342.754	1208.94
342.981	1132.94
343.209	1070.94
343.437	1150.94
343.665	1234.94
343.893	1191.94
344.12	1370.94
344.348	1609.94
344.576	1427.94
344.804	1202.94
345.031	1039.94
345.259	994.94
345.487	963.94
345.714	1060.94
345.942	1098.94
346.17	1197.94
346.397	1159.94
346.625	1022.94
346.853	992.94
347.08	956.94
347.308	1011.94
347.535	1128.94
347.763	1125.94
347.99	986.94
348.218	901.94
348.445	958.94
348.673	950.94
348.9	994.94
349.128	1064.94
349.355	1076.94
349.583	1054.94
349.81	1021.94
350.037	936.94
350.265	842.94
350.492	808.94
350.72	784.94
350.947	832.94
351.174	892.94
351.402	933.94
351.629	988.94
351.856	936.94
352.083	880.94
352.311	987.94
352.538	1091.94
352.765	1170.94
352.992	1052.94
353.22	975.94
353.447	978.94
353.674	952.94
353.901	940.94
354.128	962.94
354.355	1002.94
354.583	989.94
354.81	980.94
355.037	1024.94
355.264	1020.94
355.491	1086.94
355.718	1175.94
355.945	1158.94
356.172	1126.94
356.399	1126.94
356.626	1345.94
356.853	1650.94
357.08	1746.94
357.307	1777.94
357.534	1393.94
357.761	1440.94
357.988	1745.94
358.215	2064.94
358.441	2015.94
358.668	1663.94
358.895	1482.94
359.122	1212.94
359.349	1204.94
359.576	1342.94
359.802	1113.94
360.029	958.94
360.256	1064.94
360.483	1331.94
360.709	1658.94
360.936	1701.94
361.163	1484.94
361.39	1144.94
361.616	1094.94
361.843	1244.94
362.07	1539.94
362.296	1410.94
362.523	1093.94
362.749	930.94
362.976	988.94
363.203	1232.94
363.429	1400.94
363.656	1106.94
363.882	1024.94
364.109	1002.94
364.335	981.94
364.562	969.94
364.788	1144.94
365.015	1323.94
365.241	1180.94
365.468	973.94
365.694	855.94
365.92	797.94
366.147	792.94
366.373	792.94
366.599	777.94
366.826	800.94
367.052	824.94
367.278	869.94
367.505	839.94
367.731	895.94
367.957	998.94
368.184	1059.94
368.41	1001.94
368.636	1038.94
368.862	1062.94
369.089	1025.94
369.315	895.94
369.541	904.94
369.767	882.94
369.993	850.94
370.219	878.94
370.445	934.94
370.672	1024.94
370.898	1123.94
371.124	1123.94
371.35	945.94
371.576	884.94
371.802	998.94
372.028	1225.94
372.254	1353.94
372.48	1123.94
372.706	1028.94
372.932	1092.94
373.158	1103.94
373.384	1376.94
373.61	1881.94
373.835	1891.94
374.061	1423.94
374.287	1188.94
374.513	1437.94
374.739	1669.94
374.965	1732.94
375.191	1710.94
375.416	1161.94
375.642	1012.94
375.868	1208.94
376.094	1374.94
376.319	1214.94
376.545	1346.94
376.771	1383.94
376.997	1151.94
377.222	890.94
377.448	794.94
377.674	742.94
377.899	742.94
378.125	748.94
378.35	752.94
378.576	784.94
378.802	860.94
379.027	926.94
379.253	880.94
379.478	950.94
379.704	1059.94
379.929	1118.94
380.155	1104.94
380.38	975.94
380.606	1003.94
380.831	1116.94
381.057	1025.94
381.282	1006.94
381.507	1176.94
381.733	1484.94
381.958	1555.94
382.184	1673.94
382.409	1746.94
382.634	1681.94
382.86	1764.94
383.085	1462.94
383.31	1127.94
383.535	1231.94
383.761	1225.94
383.986	1168.94
384.211	1454.94
384.436	1400.94
384.662	1040.94
384.887	995.94
385.112	1008.94
385.337	1029.94
385.562	985.94
385.787	1123.94
386.013	1253.94
386.238	1278.94
386.463	1024.94
386.688	964.94
386.913	963.94
387.138	898.94
387.363	978.94
387.588	1012.94
387.813	980.94
388.038	1128.94
388.263	981.94
388.488	958.94
388.713	1145.94
388.938	1240.94
389.163	1023.94
389.387	916.94
389.612	953.94
389.837	956.94
390.062	962.94
390.287	998.94
390.512	1031.94
390.736	944.94
390.961	897.94
391.186	851.94
391.411	862.94
391.636	865.94
391.86	953.94
392.085	1043.94
392.31	1022.94
392.534	945.94
392.759	946.94
392.984	991.94
393.208	1007.94
393.433	871.94
393.658	829.94
393.882	779.94
394.107	779.94
394.331	778.94
394.556	816.94
394.78	821.94
395.005	867.94
395.229	877.94
395.454	865.94
395.678	912.94
395.903	937.94
396.127	863.94
396.352	902.94
396.576	985.94
396.801	1033.94
397.025	1097.94
397.249	1151.94
397.474	951.94
397.698	932.94
397.922	1008.94
398.147	896.94
398.371	933.94
398.595	964.94
398.82	945.94
399.044	924.94
399.268	1027.94
399.492	1056.94
399.717	1048.94
399.941	1103.94
400.165	1079.94
400.389	1039.94
400.613	1061.94
400.837	1043.94
401.062	930.94
401.286	889.94
401.51	921.94
401.734	887.94
401.958	927.94
402.182	883.94
402.406	922.94
402.63	921.94
402.854	959.94
403.078	1053.94
403.302	1333.94
403.526	1362.94
403.75	1206.94
403.974	1034.94
404.198	1093.94
404.422	1253.94
404.645	1465.94
404.869	1598.94
405.093	1182.94
405.317	1017.94
405.541	961.94
405.765	1006.94
405.988	1034.94
406.212	1102.94
406.436	1333.94
406.66	1453.94
406.883	1160.94
407.107	1176.94
407.331	1402.94
407.555	1319.94
407.778	1123.94
408.002	1064.94
408.226	1045.94
408.449	1050.94
408.673	1049.94
408.896	948.94
409.12	915.94
409.344	908.94
409.567	880.94
409.791	889.94
410.014	890.94
410.238	872.94
410.461	877.94
410.685	879.94
410.908	890.94
411.132	941.94
411.355	914.94
411.578	953.94
411.802	933.94
412.025	998.94
412.249	999.94
412.472	971.94
412.695	970.94
412.919	973.94
413.142	996.94
413.365	1064.94
413.589	1036.94
413.812	958.94
414.035	928.94
414.258	952.94
414.482	1050.94
414.705	1119.94
414.928	923.94
415.151	905.94
415.374	924.94
415.597	906.94
415.821	905.94
416.044	904.94
416.267	848.94
416.49	884.94
416.713	857.94
416.936	841.94
417.159	885.94
417.382	894.94
417.605	898.94
417.828	904.94
418.051	935.94
418.274	918.94
418.497	924.94
418.72	942.94
418.943	940.94
419.166	994.94
419.389	1032.94
419.611	1025.94
419.834	1019.94
420.057	1152.94
420.28	1124.94
420.503	1049.94
420.726	912.94
420.948	868.94
421.171	910.94
421.394	868.94
421.617	875.94
421.839	872.94
422.062	947.94
422.285	932.94
422.507	934.94
422.73	940.94
422.953	976.94
423.175	959.94
423.398	947.94
423.621	1039.94
423.843	1028.94
424.066	996.94
424.288	916.94
424.511	909.94
424.733	905.94
424.956	950.94
425.178	1069.94
425.401	1199.94
425.623	1409.94
425.846	1136.94
426.068	1023.94
426.291	1139.94
426.513	1047.94
426.735	953.94
426.958	983.94
427.18	1149.94
427.402	1525.94
427.625	1489.94
427.847	1216.94
428.069	923.94
428.292	903.94
428.514	893.94
428.736	853.94
428.958	962.94
429.181	1143.94
429.403	980.94
429.625	896.94
429.847	894.94
430.069	896.94
430.292	937.94
430.514	894.94
430.736	920.94
430.958	1202.94
431.18	1122.94
431.402	854.94
431.624	803.94
431.846	824.94
432.068	790.94
432.29	810.94
432.512	895.94
432.734	1259.94
432.956	1128.94
433.178	894.94
433.4	830.94
433.622	845.94
433.844	871.94
434.066	951.94
434.287	921.94
434.509	899.94
434.731	933.94
434.953	858.94
435.175	930.94
435.397	1027.94
435.618	923.94
435.84	834.94
436.062	824.94
436.284	853.94
436.505	821.94
436.727	773.94
436.949	776.94
437.17	853.94
437.392	856.94
437.614	838.94
437.835	830.94
438.057	867.94
438.278	991.94
438.5	1418.94
438.721	1409.94
438.943	939.94
439.165	792.94
439.386	772.94
439.608	771.94
439.829	778.94
440.05	792.94
440.272	841.94
440.493	992.94
440.715	1246.94
440.936	985.94
441.158	883.94
441.379	850.94
441.6	986.94
441.822	1039.94
442.043	886.94
442.264	879.94
442.486	868.94
442.707	872.94
442.928	881.94
443.149	910.94
443.371	903.94
443.592	913.94
443.813	916.94
444.034	898.94
444.255	893.94
444.476	945.94
444.698	937.94
444.919	932.94
445.14	1097.94
445.361	1020.94
445.582	995.94
445.803	924.94
446.024	945.94
446.245	940.94
446.466	912.94
446.687	864.94
446.908	893.94
447.129	851.94
447.35	839.94
447.571	786.94
447.792	798.94
448.013	801.94
448.234	786.94
448.455	793.94
448.675	813.94
448.896	798.94
449.117	817.94
449.338	822.94
449.559	812.94
449.779	870.94
450	850.94
450.221	853.94
450.442	829.94
450.662	816.94
450.883	816.94
451.104	813.94
451.324	814.94
451.545	825.94
451.766	819.94
451.986	790.94
452.207	775.94
452.428	770.94
452.648	776.94
452.869	820.94
453.089	838.94
453.31	836.94
453.53	729.94
453.751	734.94
453.971	748.94
454.192	761.94
454.412	801.94
454.633	751.94
454.853	761.94
455.073	737.94
455.294	740.94
455.514	773.94
455.734	792.94
455.955	798.94
456.175	837.94
456.395	768.94
456.616	708.94
456.836	718.94
457.056	704.94
457.276	690.94
457.497	719.94
457.717	725.94
457.937	737.94
458.157	726.94
458.377	727.94
458.598	760.94
458.818	788.94
459.038	808.94
459.258	834.94
459.478	866.94
459.698	906.94
459.918	907.94
460.138	878.94
460.358	917.94
460.578	885.94
460.798	881.94
461.018	897.94
461.238	862.94
461.458	872.94
461.678	872.94
461.898	934.94
462.118	904.94
462.338	917.94
462.558	964.94
462.777	1021.94
462.997	1025.94
463.217	998.94
463.437	1024.94
463.657	1034.94
463.876	974.94
464.096	938.94
464.316	972.94
464.536	983.94
464.755	993.94
464.975	1023.94
465.195	931.94
465.414	982.94
465.634	953.94
465.854	933.94
466.073	862.94
466.293	873.94
466.512	941.94
466.732	1038.94
466.951	1050.94
467.171	930.94
467.391	865.94
467.61	888.94
467.829	940.94
468.049	941.94
468.268	884.94
468.488	855.94
468.707	932.94
468.927	1064.94
469.146	1152.94
469.365	1064.94
469.585	960.94
469.804	1004.94
470.023	1122.94
470.243	984.94
470.462	922.94
470.681	915.94
470.901	936.94
471.12	952.94
471.339	992.94
471.558	924.94
471.777	921.94
471.997	1009.94
472.216	1118.94
472.435	1080.94
472.654	990.94
472.873	952.94
473.092	1028.94
473.311	1047.94
473.53	963.94
473.749	921.94
473.968	965.94
474.187	950.94
474.406	969.94
474.625	924.94
474.844	926.94
475.063	1025.94
475.282	1004.94
475.501	1057.94
475.72	1124.94
475.939	1137.94
476.158	1097.94
476.377	1242.94
476.596	1462.94
476.814	1500.94
477.033	1229.94
477.252	1043.94
477.471	1030.94
477.69	1026.94
477.908	1088.94
478.127	1161.94
478.346	1070.94
478.564	1146.94
478.783	1098.94
479.002	1129.94
479.22	1272.94
479.439	1469.94
479.658	1223.94
479.876	1117.94
480.095	1205.94
480.313	1203.94
480.532	1110.94
480.751	1091.94
480.969	1098.94
481.188	1271.94
481.406	1276.94
481.624	1250.94
481.843	1109.94
482.061	1032.94
482.28	1203.94
482.498	1455.94
482.717	1376.94
482.935	1192.94
483.153	1156.94
483.372	1058.94
483.59	1048.94
483.808	1065.94
484.027	1036.94
484.245	986.94
484.463	1016.94
484.681	1032.94
484.9	1083.94
485.118	1184.94
485.336	1096.94
485.554	999.94
485.772	1094.94
485.99	1184.94
486.209	1248.94
486.427	1246.94
486.645	1206.94
486.863	1255.94
487.081	1242.94
487.299	1393.94
487.517	1352.94
487.735	1238.94
487.953	1262.94
488.171	1311.94
488.389	1222.94
488.607	1116.94
488.825	1170.94
489.043	1266.94
489.261	1410.94
489.479	1541.94
489.696	1282.94
489.914	1184.94
490.132	1136.94
490.35	1135.94
490.568	1130.94
490.786	1114.94
491.003	1135.94
491.221	1145.94
491.439	1153.94
491.657	1130.94
491.874	1225.94
492.092	1524.94
492.31	1810.94
492.527	1756.94
492.745	1498.94
492.963	1314.94
493.18	1280.94
493.398	1328.94
493.615	1318.94
493.833	1245.94
494.05	1265.94
494.268	1263.94
494.485	1234.94
494.703	1208.94
494.92	1243.94
495.138	1218.94
495.355	1205.94
495.573	1244.94
495.79	1402.94
496.008	1890.94
496.225	1610.94
496.442	1352.94
496.66	1342.94
496.877	1427.94
497.094	1414.94
497.312	1320.94
497.529	1302.94
497.746	1324.94
497.963	1381.94
498.181	1505.94
498.398	1612.94
498.615	1666.94
498.832	1695.94
499.049	1672.94
499.267	1527.94
499.484	1554.94
499.701	1627.94
499.918	1718.94
500.135	1882.94
500.352	1920.94
500.569	1986.94
500.786	2019.94
501.003	2049.94
501.22	1850.94
501.437	1757.94
501.654	1692.94
501.871	1621.94
502.088	1657.94
502.305	1494.94
502.522	1513.94
502.739	1510.94
502.956	1387.94
503.172	1384.94
503.389	1306.94
503.606	1278.94
503.823	1297.94
504.04	1287.94
504.256	1348.94
504.473	1354.94
504.69	1351.94
504.907	1378.94
505.123	1360.94
505.34	1456.94
505.557	1425.94
505.773	1339.94
505.99	1306.94
506.207	1366.94
506.423	1269.94
506.64	1176.94
506.856	1260.94
507.073	1381.94
507.289	1340.94
507.506	1347.94
507.722	1409.94
507.939	1456.94
508.155	1467.94
508.372	1304.94
508.588	1289.94
508.805	1234.94
509.021	1208.94
509.238	1206.94
509.454	1184.94
509.67	1188.94
509.887	1220.94
510.103	1339.94
510.319	1328.94
510.536	1216.94
510.752	1110.94
510.968	1054.94
511.184	1027.94
511.401	1055.94
511.617	1020.94
511.833	1045.94
512.049	1073.94
512.265	1083.94
512.481	1140.94
512.698	1241.94
512.914	1331.94
513.13	1232.94
513.346	1154.94
513.562	1198.94
513.778	1180.94
513.994	1162.94
514.21	1266.94
514.426	1220.94
514.642	1128.94
514.858	1128.94
515.074	1234.94
515.29	1291.94
515.506	1436.94
515.721	1334.94
515.937	1242.94
516.153	1170.94
516.369	1158.94
516.585	1275.94
516.801	1409.94
517.016	1606.94
517.232	1585.94
517.448	1564.94
517.664	1372.94
517.879	1301.94
518.095	1320.94
518.311	1273.94
518.527	1320.94
518.742	1403.94
518.958	1457.94
519.173	1386.94
519.389	1398.94
519.605	1422.94
519.82	1534.94
520.036	1735.94
520.251	1728.94
520.467	1617.94
520.682	2440.94
520.898	2925.94
521.113	2776.94
521.329	1730.94
521.544	1549.94
521.76	1518.94
521.975	1364.94
522.19	1286.94
522.406	1344.94
522.621	1487.94
522.836	1509.94
523.052	1589.94
523.267	1296.94
523.482	1300.94
523.698	1359.94
523.913	1349.94
524.128	1199.94
524.343	1176.94
524.559	1178.94
524.774	1152.94
524.989	1167.94
525.204	1184.94
525.419	1330.94
525.634	1216.94
525.849	1241.94
526.064	1289.94
526.28	1255.94
526.495	1460.94
526.71	1553.94
526.925	1350.94
527.14	1448.94
527.355	1375.94
527.57	1142.94
527.785	1178.94
527.999	1145.94
528.214	1098.94
528.429	1055.94
528.644	1093.94
528.859	1022.94
529.074	980.94
529.289	996.94
529.503	967.94
529.718	1005.94
529.933	1198.94
530.148	1194.94
530.363	1068.94
530.577	1028.94
530.792	996.94
531.007	1009.94
531.221	974.94
531.436	1004.94
531.651	997.94
531.865	1002.94
532.08	1031.94
532.295	1015.94
532.509	1049.94
532.724	1220.94
532.938	1294.94
533.153	1519.94
533.367	1262.94
533.582	1198.94
533.796	1116.94
534.011	1034.94
534.225	1045.94
534.44	1072.94
534.654	1095.94
534.868	1252.94
535.083	1122.94
535.297	1016.94
535.511	1032.94
535.726	1149.94
535.94	1068.94
536.154	1000.94
536.369	1012.94
536.583	977.94
536.797	1017.94
537.011	1040.94
537.225	1111.94
537.44	1186.94
537.654	1028.94
537.868	1020.94
538.082	1013.94
538.296	999.94
538.51	1096.94
538.724	1108.94
538.938	1067.94
539.153	994.94
539.367	967.94
539.581	1006.94
539.795	1061.94
540.009	1152.94
540.222	1065.94
540.436	1062.94
540.65	1145.94
540.864	1156.94
541.078	1178.94
541.292	1352.94
541.506	1104.94
541.72	1085.94
541.934	1038.94
542.147	1028.94
542.361	1040.94
542.575	1061.94
542.789	1028.94
543.002	984.94
543.216	1087.94
543.43	965.94
543.644	933.94
543.857	913.94
544.071	974.94
544.285	954.94
544.498	930.94
544.712	917.94
544.925	987.94
545.139	950.94
545.352	892.94
545.566	930.94
545.779	1037.94
545.993	951.94
546.206	872.94
546.42	906.94
546.633	889.94
546.847	861.94
547.06	881.94
547.274	865.94
547.487	881.94
547.7	978.94
547.914	991.94
548.127	1104.94
548.34	1090.94
548.554	963.94
548.767	984.94
548.98	1088.94
549.193	1008.94
549.407	1000.94
549.62	1184.94
549.833	1089.94
550.046	1137.94
550.259	1158.94
550.473	992.94
550.686	1000.94
550.899	1011.94
551.112	964.94
551.325	1044.94
551.538	1110.94
551.751	963.94
551.964	926.94
552.177	900.94
552.39	850.94
552.603	878.94
552.816	916.94
553.029	860.94
553.242	871.94
553.455	956.94
553.667	990.94
553.88	967.94
554.093	906.94
554.306	833.94
554.519	802.94
554.732	807.94
554.944	763.94
555.157	778.94
555.37	791.94
555.583	792.94
555.795	814.94
556.008	813.94
556.221	786.94
556.433	789.94
556.646	770.94
556.859	782.94
557.071	821.94
557.284	831.94
557.496	838.94
557.709	843.94
557.921	795.94
558.134	759.94
558.346	740.94
558.559	737.94
558.771	753.94
558.984	824.94
559.196	798.94
559.409	780.94
559.621	703.94
559.833	708.94
560.046	735.94
560.258	694.94
560.47	739.94
560.683	701.94
560.895	707.94
561.107	680.94
561.32	699.94
561.532	695.94
561.744	767.94
561.956	782.94
562.168	705.94
562.381	694.94
562.593	756.94
562.805	732.94
563.017	692.94
563.229	678.94
563.441	672.94
563.653	680.94
563.865	670.94
564.077	668.94
564.289	665.94
564.501	683.94
564.713	765.94
564.925	725.94
565.137	677.94
565.349	691.94
565.561	679.94
565.773	700.94
565.985	727.94
566.197	768.94
566.408	854.94
566.62	847.94
566.832	824.94
567.044	864.94
567.255	912.94
567.467	956.94
567.679	890.94
567.891	873.94
568.102	905.94
568.314	920.94
568.526	852.94
568.737	822.94
568.949	869.94
569.161	766.94
569.372	714.94
569.584	680.94
569.795	671.94
570.007	695.94
570.218	772.94
570.43	743.94
570.641	696.94
570.853	660.94
571.064	648.94
571.276	676.94
571.487	698.94
571.698	692.94
571.91	666.94
572.121	669.94
572.333	614.94
572.544	629.94
572.755	635.94
572.966	622.94
573.178	621.94
573.389	659.94
573.6	647.94
573.811	644.94
574.023	564.94
574.234	574.94
574.445	578.94
574.656	564.94
574.867	577.94
575.078	596.94
575.289	603.94
575.501	645.94
575.712	588.94
575.923	556.94
576.134	556.94
576.345	570.94
576.556	557.94
576.767	548.94
576.978	518.94
577.188	517.94
577.399	511.94
577.61	532.94
577.821	530.94
578.032	569.94
578.243	573.94
578.454	572.94
578.665	567.94
578.875	546.94
579.086	580.94
579.297	564.94
579.508	577.94
579.718	573.94
579.929	562.94
580.14	550.94
580.35	495.94
580.561	496.94
580.772	493.94
580.982	487.94
581.193	468.94
581.403	471.94
581.614	487.94
581.825	461.94
582.035	478.94
582.246	456.94
582.456	498.94
582.667	484.94
582.877	477.94
583.087	457.94
583.298	446.94
583.508	440.94
583.719	459.94
583.929	505.94
584.139	459.94
584.35	452.94
584.56	480.94
584.77	494.94
584.981	469.94
585.191	469.94
585.401	460.94
585.611	467.94
585.821	507.94
586.032	482.94
586.242	496.94
586.452	457.94
586.662	476.94
586.872	497.94
587.082	485.94
587.292	489.94
587.502	468.94
587.713	459.94
587.923	494.94
588.133	509.94
588.343	496.94
588.553	456.94
588.762	456.94
588.972	453.94
589.182	463.94
589.392	432.94
589.602	435.94
589.812	476.94
590.022	508.94
590.232	490.94
590.441	490.94
590.651	459.94
590.861	460.94
591.071	471.94
591.281	444.94
591.49	465.94
591.7	464.94
591.91	448.94
592.119	462.94
592.329	452.94
592.539	468.94
592.748	481.94
592.958	474.94
593.167	472.94
593.377	477.94
593.587	492.94
593.796	485.94
594.006	483.94
594.215	485.94
594.424	503.94
594.634	501.94
594.843	492.94
595.053	446.94
595.262	438.94
595.472	452.94
595.681	439.94
595.89	447.94
596.1	470.94
596.309	452.94
596.518	420.94
596.727	429.94
596.937	443.94
597.146	429.94
597.355	473.94
597.564	422.94
597.774	412.94
597.983	401.94
598.192	404.94
598.401	416.94
598.61	396.94
598.819	391.94
599.028	395.94
599.237	400.94
599.446	385.94
599.655	380.94
599.864	375.94
600.073	362.94
600.282	374.94
600.491	387.94
600.7	384.94
600.909	377.94
601.118	393.94
601.327	374.94
601.536	384.94
601.745	388.94
601.953	410.94
602.162	388.94
602.371	387.94
602.58	392.94
602.789	360.94
602.997	391.94
603.206	386.94
603.415	384.94
603.623	368.94
603.832	359.94
604.041	372.94
604.249	375.94
604.458	394.94
604.666	357.94
604.875	343.94
605.084	354.94
605.292	353.94
605.501	385.94
605.709	365.94
605.918	351.94
606.126	364.94
606.334	348.94
606.543	350.94
606.751	371.94
606.96	363.94
607.168	338.94
607.376	338.94
607.585	358.94
607.793	373.94
608.001	367.94
608.21	358.94
608.418	353.94
608.626	365.94
608.834	341.94
609.043	360.94
609.251	339.94
609.459	322.94
609.667	328.94
609.875	333.94
610.083	360.94
610.291	367.94
610.499	363.94
610.707	326.94
610.916	313.94
611.124	333.94
611.332	336.94
611.54	330.94
611.748	342.94
611.955	342.94
612.163	334.94
612.371	330.94
612.579	350.94
612.787	335.94
612.995	340.94
613.203	336.94
613.411	331.94
613.618	354.94
613.826	362.94
614.034	377.94
614.242	321.94
614.449	323.94
614.657	324.94
614.865	329.94
615.072	334.94
615.28	316.94
615.488	334.94
615.695	326.94
615.903	329.94
616.111	333.94
616.318	324.94
616.526	318.94
616.733	324.94
616.941	312.94
617.148	324.94
617.356	326.94
617.563	306.94
617.771	322.94
617.978	313.94
618.185	320.94
618.393	308.94
618.6	325.94
618.807	309.94
619.015	311.94
619.222	329.94
619.429	329.94
619.637	318.94
619.844	308.94
620.051	310.94
620.258	300.94
620.466	299.94
620.673	313.94
620.88	302.94
621.087	288.94
621.294	288.94
621.501	288.94
621.708	309.94
621.915	289.94
622.122	293.94
622.329	297.94
622.536	278.94
622.743	283.94
622.95	286.94
623.157	306.94
623.364	309.94
623.571	296.94
623.778	304.94
623.985	307.94
624.192	298.94
624.399	318.94
624.606	309.94
624.812	292.94
625.019	297.94
625.226	308.94
625.433	310.94
625.639	292.94
625.846	276.94
626.053	283.94
626.259	270.94
626.466	270.94
626.673	280.94
626.879	272.94
627.086	281.94
627.293	265.94
627.499	269.94
627.706	285.94
627.912	274.94
628.119	289.94
628.325	262.94
628.532	266.94
628.738	250.94
628.945	269.94
629.151	276.94
629.357	255.94
629.564	276.94
629.77	256.94
629.976	242.94
630.183	259.94
630.389	268.94
630.595	270.94
630.802	261.94
631.008	254.94
631.214	246.94
631.42	260.94
631.627	255.94
631.833	264.94
632.039	243.94
632.245	257.94
632.451	249.94
632.657	258.94
632.863	249.94
633.069	245.94
633.275	232.94
633.481	239.94
633.688	238.94
633.893	253.94
634.099	256.94
634.305	256.94
634.511	229.94
634.717	263.94
634.923	225.94
635.129	225.94
635.335	227.94
635.541	244.94
635.747	230.94
635.952	225.94
636.158	255.94
636.364	236.94
636.57	237.94
636.775	238.94
636.981	230.94
637.187	221.94
637.392	220.94
637.598	245.94
637.804	222.94
638.009	216.94
638.215	241.94
638.421	224.94
638.626	228.94
638.832	244.94
639.037	235.94
639.243	222.94
639.448	229.94
639.654	254.94
639.859	231.94
640.065	223.94
640.27	254.94
640.475	234.94
640.681	231.94
640.886	236.94
641.091	220.94
641.297	214.94
641.502	238.94
641.707	199.94
641.913	222.94
642.118	218.94
642.323	221.94
642.528	246.94
642.733	225.94
642.939	211.94
643.144	208.94
643.349	230.94
643.554	217.94
643.759	213.94
643.964	219.94
644.169	216.94
644.374	211.94
644.579	212.94
644.784	232.94
644.989	204.94
645.194	214.94
645.399	203.94
645.604	199.94
645.809	225.94
646.014	209.94
646.219	221.94
646.423	196.94
646.628	207.94
646.833	206.94
647.038	202.94
647.243	213.94
647.447	202.94
647.652	223.94
647.857	213.94
648.062	206.94
648.266	207.94
648.471	211.94
648.676	224.94
648.88	208.94
649.085	225.94
649.289	202.94
649.494	208.94
649.698	208.94
649.903	200.94
650.107	207.94
650.312	202.94
650.516	175.94
650.721	196.94
650.925	193.94
651.13	179.94
651.334	179.94
651.539	178.94
651.743	188.94
651.947	188.94
652.152	179.94
652.356	196.94
652.56	191.94
652.764	177.94
652.969	172.94
653.173	175.94
653.377	159.94
653.581	147.94
653.785	162.94
653.99	154.94
654.194	169.94
654.398	164.94
654.602	159.94
654.806	164.94
655.01	165.94
655.214	157.94
655.418	164.94
655.622	167.94
655.826	167.94
656.03	161.94
656.234	183.94
656.438	157.94
656.642	181.94
656.846	166.94
657.049	150.94
657.253	144.94
657.457	142.94
657.661	129.94
657.865	139.94
658.068	141.94
658.272	122.94
658.476	125.94
658.68	122.94
658.883	112.94
659.087	115.94
659.291	119.94
659.494	116.94
659.698	100.94
659.901	110.94
660.105	110.94
660.309	101.94
660.512	112.94
660.716	114.94
660.919	98.94
661.123	102.94
661.326	89.94
661.53	72.94
661.733	110.94
661.936	95.94
662.14	84.94
662.343	87.94
662.546	77.94
662.75	96.94
662.953	94.94
663.156	78.94
663.36	97.94
663.563	74.94
663.766	101.94
663.969	78.94
664.173	97.94
664.376	85.94
664.579	78.94
664.782	94.94
664.985	83.94
665.188	77.94
665.391	80.94
665.594	68.94
665.797	81.94
666	80.94
666.203	78.94
666.406	76.94
666.609	76.94
666.812	73.94
667.015	71.94
667.218	82.94
667.421	80.94
667.624	82.94
667.827	74.94
668.03	75.94
668.232	71.94
668.435	93.94
668.638	84.94
668.841	90.94
669.043	81.94
669.246	84.94
669.449	90.94
669.651	85.94
669.854	87.94
670.057	92.94
670.259	80.94
670.462	74.94
670.665	76.94
670.867	75.94
671.07	92.94
671.272	95.94
671.475	73.94
671.677	66.94
671.88	88.94
672.082	81.94
672.284	92.94
672.487	76.94
672.689	80.94
672.892	82.94
