Data from NickelSpatula.Lamp.E10.P2_HRD10591_11-58-31-528.txt Node
Date: Tue Jul 23 11:58:31 EDT 2019
User: cochatt
Spectrometer: HR+D1059
Trigger mode: 1
Integration Time (sec): 1.000000E-1
Scans to average: 1
Electric dark correction enabled: true
Nonlinearity correction enabled: false
Boxcar width: 0
XAxis mode: Wavelengths
Number of Pixels in Spectrum: 2048
>>>>>Begin Spectral Data<<<<<
223.165	-23.12
223.4	-23.12
223.635	-23.12
223.869	-2.12
224.104	-18.12
224.338	-21.12
224.573	-16.12
224.808	-9.12
225.042	-6.12
225.277	-2.12
225.511	-10.12
225.746	-3.12
225.98	13.88
226.215	8.88
226.449	19.88
226.683	14.88
226.918	13.88
227.152	39.88
227.387	30.88
227.621	35.88
227.856	42.88
228.09	46.88
228.324	46.88
228.559	51.88
228.793	77.88
229.027	139.88
229.262	150.88
229.496	145.88
229.73	158.88
229.964	173.88
230.199	194.88
230.433	197.88
230.667	193.88
230.901	182.88
231.136	182.88
231.37	206.88
231.604	212.88
231.838	227.88
232.072	246.88
232.306	257.88
232.541	258.88
232.775	228.88
233.009	248.88
233.243	284.88
233.477	286.88
233.711	327.88
233.945	300.88
234.179	316.88
234.413	329.88
234.647	368.88
234.881	425.88
235.115	402.88
235.349	406.88
235.583	340.88
235.817	318.88
236.051	350.88
236.285	393.88
236.519	455.88
236.753	414.88
236.987	397.88
237.221	396.88
237.455	391.88
237.689	429.88
237.922	447.88
238.156	466.88
238.39	524.88
238.624	630.88
238.858	595.88
239.091	467.88
239.325	477.88
239.559	452.88
239.793	527.88
240.027	621.88
240.26	564.88
240.494	550.88
240.728	594.88
240.961	675.88
241.195	630.88
241.429	614.88
241.662	596.88
241.896	508.88
242.13	450.88
242.363	438.88
242.597	441.88
242.83	512.88
243.064	517.88
243.298	559.88
243.531	602.88
243.765	646.88
243.998	603.88
244.232	582.88
244.465	580.88
244.699	557.88
244.932	613.88
245.166	589.88
245.399	534.88
245.633	533.88
245.866	545.88
246.099	607.88
246.333	684.88
246.566	718.88
246.8	717.88
247.033	707.88
247.266	637.88
247.5	660.88
247.733	649.88
247.966	631.88
248.2	652.88
248.433	731.88
248.666	800.88
248.899	821.88
249.133	811.88
249.366	964.88
249.599	995.88
249.832	909.88
250.066	784.88
250.299	813.88
250.532	768.88
250.765	781.88
250.998	701.88
251.231	687.88
251.465	774.88
251.698	785.88
251.931	770.88
252.164	800.88
252.397	918.88
252.63	1009.88
252.863	1103.88
253.096	1153.88
253.329	1091.88
253.562	1070.88
253.795	1191.88
254.028	1280.88
254.261	1323.88
254.494	1205.88
254.727	1098.88
254.96	1071.88
255.193	1122.88
255.426	1086.88
255.659	824.88
255.892	770.88
256.124	825.88
256.357	974.88
256.59	1134.88
256.823	1077.88
257.056	945.88
257.289	861.88
257.521	897.88
257.754	1094.88
257.987	1247.88
258.22	1048.88
258.452	963.88
258.685	1098.88
258.918	1185.88
259.151	1167.88
259.383	1245.88
259.616	1441.88
259.849	1476.88
260.081	1617.88
260.314	1817.88
260.547	1405.88
260.779	1424.88
261.012	1676.88
261.244	1522.88
261.477	1587.88
261.71	1475.88
261.942	1227.88
262.175	1234.88
262.407	1186.88
262.64	1227.88
262.872	1397.88
263.105	1551.88
263.337	1652.88
263.57	1434.88
263.802	975.88
264.035	861.88
264.267	837.88
264.499	769.88
264.732	671.88
264.964	671.88
265.197	678.88
265.429	741.88
265.661	786.88
265.894	803.88
266.126	886.88
266.358	988.88
266.591	1193.88
266.823	1405.88
267.055	1367.88
267.287	1169.88
267.52	1182.88
267.752	1252.88
267.984	1413.88
268.216	1314.88
268.448	1077.88
268.681	1050.88
268.913	1167.88
269.145	1207.88
269.377	1259.88
269.609	1263.88
269.841	1177.88
270.073	1251.88
270.306	1325.88
270.538	1314.88
270.77	1351.88
271.002	1337.88
271.234	1387.88
271.466	1433.88
271.698	1402.88
271.93	1367.88
272.162	1411.88
272.394	1374.88
272.626	1316.88
272.858	1389.88
273.09	1443.88
273.322	1266.88
273.553	1219.88
273.785	1445.88
274.017	1864.88
274.249	2308.88
274.481	2379.88
274.713	2640.88
274.945	2979.88
275.176	3079.88
275.408	2756.88
275.64	2563.88
275.872	2479.88
276.104	2129.88
276.335	1794.88
276.567	1813.88
276.799	1927.88
277.031	1965.88
277.262	1504.88
277.494	1209.88
277.726	1174.88
277.957	1285.88
278.189	1435.88
278.421	1393.88
278.652	1395.88
278.884	1327.88
279.115	1221.88
279.347	1132.88
279.579	1161.88
279.81	1173.88
280.042	1167.88
280.273	1202.88
280.505	1121.88
280.736	982.88
280.968	950.88
281.199	1061.88
281.431	1178.88
281.662	1181.88
281.894	1156.88
282.125	1230.88
282.356	1282.88
282.588	1354.88
282.819	1206.88
283.051	1307.88
283.282	1592.88
283.513	1885.88
283.745	2101.88
283.976	2063.88
284.207	1904.88
284.439	2027.88
284.67	1938.88
284.901	1663.88
285.132	1847.88
285.364	1984.88
285.595	1775.88
285.826	1873.88
286.057	1957.88
286.288	1869.88
286.52	1906.88
286.751	2006.88
286.982	1991.88
287.213	1746.88
287.444	1661.88
287.675	1783.88
287.906	1771.88
288.138	1467.88
288.369	1318.88
288.6	1224.88
288.831	1276.88
289.062	1481.88
289.293	1641.88
289.524	1551.88
289.755	1528.88
289.986	1571.88
290.217	1385.88
290.448	1083.88
290.679	947.88
290.91	859.88
291.141	901.88
291.371	945.88
291.602	948.88
291.833	934.88
292.064	1031.88
292.295	1171.88
292.526	1325.88
292.757	1391.88
292.987	1505.88
293.218	1531.88
293.449	1539.88
293.68	1604.88
293.91	1530.88
294.141	1577.88
294.372	1460.88
294.603	1353.88
294.833	1500.88
295.064	1747.88
295.295	1654.88
295.525	1244.88
295.756	1112.88
295.987	969.88
296.217	984.88
296.448	975.88
296.679	1062.88
296.909	1145.88
297.14	1259.88
297.37	1369.88
297.601	1291.88
297.831	1131.88
298.062	1188.88
298.292	1379.88
298.523	1481.88
298.753	1721.88
298.984	1537.88
299.214	1201.88
299.445	1044.88
299.675	1006.88
299.905	981.88
300.136	1029.88
300.366	1138.88
300.597	1070.88
300.827	959.88
301.057	954.88
301.288	988.88
301.518	1023.88
301.748	1155.88
301.979	1269.88
302.209	1381.88
302.439	1340.88
302.669	1222.88
302.9	1177.88
303.13	1083.88
303.36	1045.88
303.59	988.88
303.82	1067.88
304.051	1207.88
304.281	1293.88
304.511	1235.88
304.741	1081.88
304.971	1139.88
305.201	1232.88
305.431	1148.88
305.661	1025.88
305.891	1039.88
306.121	1030.88
306.352	911.88
306.582	821.88
306.812	823.88
307.042	832.88
307.272	774.88
307.502	779.88
307.731	858.88
307.961	875.88
308.191	840.88
308.421	764.88
308.651	774.88
308.881	736.88
309.111	763.88
309.341	809.88
309.571	866.88
309.8	905.88
310.03	903.88
310.26	948.88
310.49	933.88
310.72	825.88
310.949	852.88
311.179	868.88
311.409	906.88
311.639	1042.88
311.868	1372.88
312.098	1697.88
312.328	1879.88
312.557	1750.88
312.787	1789.88
313.017	1591.88
313.246	1752.88
313.476	1849.88
313.706	1552.88
313.935	1241.88
314.165	1029.88
314.394	909.88
314.624	958.88
314.853	974.88
315.083	1000.88
315.312	986.88
315.542	955.88
315.771	907.88
316.001	822.88
316.23	813.88
316.46	813.88
316.689	833.88
316.919	860.88
317.148	852.88
317.377	850.88
317.607	811.88
317.836	924.88
318.065	1089.88
318.295	1201.88
318.524	1122.88
318.753	961.88
318.983	911.88
319.212	899.88
319.441	967.88
319.67	1084.88
319.9	1138.88
320.129	1083.88
320.358	947.88
320.587	899.88
320.816	982.88
321.046	1133.88
321.275	1238.88
321.504	1233.88
321.733	1225.88
321.962	1181.88
322.191	1118.88
322.42	1069.88
322.649	1082.88
322.878	1209.88
323.108	1131.88
323.337	1084.88
323.566	1013.88
323.795	1005.88
324.024	974.88
324.253	946.88
324.482	941.88
324.71	1033.88
324.939	1133.88
325.168	1059.88
325.397	881.88
325.626	861.88
325.855	885.88
326.084	919.88
326.313	854.88
326.542	819.88
326.77	835.88
326.999	858.88
327.228	915.88
327.457	972.88
327.686	943.88
327.914	845.88
328.143	791.88
328.372	809.88
328.6	825.88
328.829	862.88
329.058	877.88
329.287	854.88
329.515	841.88
329.744	847.88
329.972	806.88
330.201	781.88
330.43	809.88
330.658	895.88
330.887	1044.88
331.115	978.88
331.344	968.88
331.572	921.88
331.801	859.88
332.03	814.88
332.258	845.88
332.486	898.88
332.715	960.88
332.943	873.88
333.172	877.88
333.4	903.88
333.629	1002.88
333.857	1051.88
334.085	1060.88
334.314	1067.88
334.542	1027.88
334.771	927.88
334.999	893.88
335.227	892.88
335.455	908.88
335.684	979.88
335.912	1158.88
336.14	1234.88
336.369	1217.88
336.597	1197.88
336.825	1323.88
337.053	1451.88
337.281	1191.88
337.51	948.88
337.738	967.88
337.966	1052.88
338.194	1133.88
338.422	1029.88
338.65	903.88
338.878	853.88
339.106	903.88
339.334	986.88
339.562	1048.88
339.79	956.88
340.018	927.88
340.246	1003.88
340.474	1136.88
340.702	1217.88
340.93	1276.88
341.158	1241.88
341.386	1047.88
341.614	1055.88
341.842	1051.88
342.07	1095.88
342.298	1281.88
342.526	1322.88
342.754	1179.88
342.981	1076.88
343.209	1019.88
343.437	1080.88
343.665	1133.88
343.893	1142.88
344.12	1325.88
344.348	1510.88
344.576	1377.88
344.804	1143.88
345.031	1015.88
345.259	931.88
345.487	957.88
345.714	979.88
345.942	1047.88
346.17	1138.88
346.397	1077.88
346.625	966.88
346.853	948.88
347.08	937.88
347.308	953.88
347.535	1072.88
347.763	1085.88
347.99	935.88
348.218	900.88
348.445	949.88
348.673	949.88
348.9	922.88
349.128	969.88
349.355	1012.88
349.583	1015.88
349.81	957.88
350.037	897.88
350.265	816.88
350.492	771.88
350.72	764.88
350.947	799.88
351.174	837.88
351.402	892.88
351.629	923.88
351.856	905.88
352.083	845.88
352.311	933.88
352.538	1025.88
352.765	1091.88
352.992	1002.88
353.22	937.88
353.447	972.88
353.674	914.88
353.901	933.88
354.128	947.88
354.355	975.88
354.583	917.88
354.81	947.88
355.037	941.88
355.264	957.88
355.491	1030.88
355.718	1094.88
355.945	1086.88
356.172	1019.88
356.399	1058.88
356.626	1263.88
356.853	1505.88
357.08	1613.88
357.307	1684.88
357.534	1293.88
357.761	1383.88
357.988	1652.88
358.215	1973.88
358.441	1811.88
358.668	1562.88
358.895	1406.88
359.122	1105.88
359.349	1133.88
359.576	1253.88
359.802	1057.88
360.029	913.88
360.256	983.88
360.483	1235.88
360.709	1477.88
360.936	1529.88
361.163	1335.88
361.39	1096.88
361.616	1003.88
361.843	1173.88
362.07	1436.88
362.296	1287.88
362.523	1037.88
362.749	883.88
362.976	950.88
363.203	1159.88
363.429	1279.88
363.656	991.88
363.882	945.88
364.109	957.88
364.335	964.88
364.562	937.88
364.788	1058.88
365.015	1230.88
365.241	1089.88
365.468	915.88
365.694	813.88
365.92	775.88
366.147	777.88
366.373	737.88
366.599	780.88
366.826	781.88
367.052	801.88
367.278	787.88
367.505	800.88
367.731	893.88
367.957	971.88
368.184	993.88
368.41	976.88
368.636	964.88
368.862	995.88
369.089	983.88
369.315	869.88
369.541	839.88
369.767	810.88
369.993	827.88
370.219	811.88
370.445	888.88
370.672	957.88
370.898	1009.88
371.124	1031.88
371.35	894.88
371.576	876.88
371.802	922.88
372.028	1108.88
372.254	1239.88
372.48	1078.88
372.706	983.88
372.932	1045.88
373.158	1080.88
373.384	1291.88
373.61	1686.88
373.835	1737.88
374.061	1272.88
374.287	1113.88
374.513	1311.88
374.739	1546.88
374.965	1608.88
375.191	1538.88
375.416	1115.88
375.642	988.88
375.868	1153.88
376.094	1306.88
376.319	1117.88
376.545	1246.88
376.771	1246.88
376.997	1103.88
377.222	852.88
377.448	727.88
377.674	721.88
377.899	730.88
378.125	726.88
378.35	733.88
378.576	762.88
378.802	821.88
379.027	878.88
379.253	857.88
379.478	867.88
379.704	975.88
379.929	1039.88
380.155	1005.88
380.38	887.88
380.606	929.88
380.831	1062.88
381.057	969.88
381.282	911.88
381.507	1122.88
381.733	1316.88
381.958	1457.88
382.184	1529.88
382.409	1606.88
382.634	1539.88
382.86	1648.88
383.085	1347.88
383.31	1081.88
383.535	1158.88
383.761	1165.88
383.986	1118.88
384.211	1364.88
384.436	1308.88
384.662	1007.88
384.887	968.88
385.112	1017.88
385.337	990.88
385.562	949.88
385.787	1041.88
386.013	1166.88
386.238	1205.88
386.463	967.88
386.688	939.88
386.913	897.88
387.138	844.88
387.363	945.88
387.588	925.88
387.813	945.88
388.038	1053.88
388.263	979.88
388.488	902.88
388.713	1071.88
388.938	1128.88
389.163	981.88
389.387	895.88
389.612	884.88
389.837	912.88
390.062	912.88
390.287	980.88
390.512	961.88
390.736	911.88
390.961	838.88
391.186	837.88
391.411	790.88
391.636	825.88
391.86	871.88
392.085	952.88
392.31	927.88
392.534	896.88
392.759	879.88
392.984	947.88
393.208	891.88
393.433	839.88
393.658	790.88
393.882	768.88
394.107	768.88
394.331	807.88
394.556	796.88
394.78	791.88
395.005	809.88
395.229	841.88
395.454	834.88
395.678	861.88
395.903	903.88
396.127	860.88
396.352	866.88
396.576	917.88
396.801	941.88
397.025	1086.88
397.249	1087.88
397.474	899.88
397.698	885.88
397.922	959.88
398.147	864.88
398.371	887.88
398.595	921.88
398.82	901.88
399.044	933.88
399.268	980.88
399.492	1018.88
399.717	1021.88
399.941	1082.88
400.165	1030.88
400.389	997.88
400.613	1013.88
400.837	993.88
401.062	873.88
401.286	848.88
401.51	885.88
401.734	899.88
401.958	889.88
402.182	883.88
402.406	901.88
402.63	901.88
402.854	920.88
403.078	995.88
403.302	1246.88
403.526	1253.88
403.75	1159.88
403.974	1026.88
404.198	1057.88
404.422	1174.88
404.645	1343.88
404.869	1485.88
405.093	1167.88
405.317	983.88
405.541	956.88
405.765	987.88
405.988	964.88
406.212	1035.88
406.436	1238.88
406.66	1345.88
406.883	1106.88
407.107	1110.88
407.331	1307.88
407.555	1229.88
407.778	1062.88
408.002	1023.88
408.226	1009.88
408.449	1037.88
408.673	980.88
408.896	915.88
409.12	913.88
409.344	892.88
409.567	833.88
409.791	871.88
410.014	873.88
410.238	849.88
410.461	836.88
410.685	844.88
410.908	879.88
411.132	897.88
411.355	902.88
411.578	934.88
411.802	890.88
412.025	945.88
412.249	961.88
412.472	935.88
412.695	907.88
412.919	942.88
413.142	927.88
413.365	987.88
413.589	983.88
413.812	927.88
414.035	865.88
414.258	875.88
414.482	1004.88
414.705	1021.88
414.928	874.88
415.151	850.88
415.374	866.88
415.597	869.88
415.821	870.88
416.044	843.88
416.267	853.88
416.49	835.88
416.713	845.88
416.936	839.88
417.159	823.88
417.382	844.88
417.605	879.88
417.828	885.88
418.051	884.88
418.274	905.88
418.497	906.88
418.72	918.88
418.943	902.88
419.166	956.88
419.389	1013.88
419.611	979.88
419.834	1014.88
420.057	1073.88
420.28	1031.88
420.503	1017.88
420.726	876.88
420.948	855.88
421.171	871.88
421.394	865.88
421.617	840.88
421.839	866.88
422.062	893.88
422.285	891.88
422.507	901.88
422.73	906.88
422.953	932.88
423.175	915.88
423.398	904.88
423.621	945.88
423.843	1013.88
424.066	937.88
424.288	927.88
424.511	882.88
424.733	879.88
424.956	927.88
425.178	1060.88
425.401	1190.88
425.623	1344.88
425.846	1123.88
426.068	980.88
426.291	1059.88
426.513	977.88
426.735	930.88
426.958	951.88
427.18	1137.88
427.402	1437.88
427.625	1411.88
427.847	1143.88
428.069	870.88
428.292	863.88
428.514	894.88
428.736	821.88
428.958	960.88
429.181	1085.88
429.403	909.88
429.625	875.88
429.847	815.88
430.069	889.88
430.292	901.88
430.514	847.88
430.736	913.88
430.958	1135.88
431.18	1037.88
431.402	812.88
431.624	774.88
431.846	796.88
432.068	785.88
432.29	819.88
432.512	887.88
432.734	1198.88
432.956	1107.88
433.178	874.88
433.4	850.88
433.622	827.88
433.844	865.88
434.066	892.88
434.287	845.88
434.509	833.88
434.731	877.88
434.953	841.88
435.175	885.88
435.397	989.88
435.618	863.88
435.84	829.88
436.062	812.88
436.284	818.88
436.505	798.88
436.727	757.88
436.949	783.88
437.17	835.88
437.392	841.88
437.614	833.88
437.835	765.88
438.057	804.88
438.278	916.88
438.5	1351.88
438.721	1315.88
438.943	920.88
439.165	766.88
439.386	752.88
439.608	763.88
439.829	769.88
440.05	769.88
440.272	821.88
440.493	947.88
440.715	1151.88
440.936	949.88
441.158	858.88
441.379	856.88
441.6	954.88
441.822	981.88
442.043	852.88
442.264	852.88
442.486	851.88
442.707	835.88
442.928	813.88
443.149	869.88
443.371	871.88
443.592	908.88
443.813	866.88
444.034	857.88
444.255	878.88
444.476	917.88
444.698	903.88
444.919	917.88
445.14	1021.88
445.361	1000.88
445.582	937.88
445.803	907.88
446.024	913.88
446.245	905.88
446.466	905.88
446.687	868.88
446.908	843.88
447.129	835.88
447.35	830.88
447.571	769.88
447.792	755.88
448.013	794.88
448.234	765.88
448.455	777.88
448.675	769.88
448.896	752.88
449.117	772.88
449.338	757.88
449.559	797.88
449.779	838.88
450	850.88
450.221	830.88
450.442	797.88
450.662	742.88
450.883	757.88
451.104	774.88
451.324	752.88
451.545	765.88
451.766	762.88
451.986	755.88
452.207	746.88
452.428	747.88
452.648	745.88
452.869	810.88
453.089	818.88
453.31	801.88
453.53	711.88
453.751	717.88
453.971	725.88
454.192	725.88
454.412	781.88
454.633	724.88
454.853	740.88
455.073	712.88
455.294	701.88
455.514	707.88
455.734	772.88
455.955	785.88
456.175	784.88
456.395	725.88
456.616	687.88
456.836	707.88
457.056	685.88
457.276	673.88
457.497	707.88
457.717	684.88
457.937	693.88
458.157	674.88
458.377	712.88
458.598	725.88
458.818	755.88
459.038	787.88
459.258	810.88
459.478	821.88
459.698	870.88
459.918	843.88
460.138	846.88
460.358	853.88
460.578	837.88
460.798	868.88
461.018	854.88
461.238	826.88
461.458	866.88
461.678	879.88
461.898	894.88
462.118	899.88
462.338	911.88
462.558	950.88
462.777	954.88
462.997	1015.88
463.217	996.88
463.437	1004.88
463.657	987.88
463.876	909.88
464.096	931.88
464.316	946.88
464.536	953.88
464.755	977.88
464.975	972.88
465.195	938.88
465.414	981.88
465.634	918.88
465.854	916.88
466.073	875.88
466.293	825.88
466.512	896.88
466.732	966.88
466.951	1013.88
467.171	905.88
467.391	859.88
467.61	849.88
467.829	907.88
468.049	877.88
468.268	828.88
468.488	838.88
468.707	895.88
468.927	1030.88
469.146	1124.88
469.365	1016.88
469.585	901.88
469.804	963.88
470.023	1072.88
470.243	929.88
470.462	879.88
470.681	879.88
470.901	904.88
471.12	946.88
471.339	936.88
471.558	876.88
471.777	873.88
471.997	969.88
472.216	1092.88
472.435	1060.88
472.654	963.88
472.873	915.88
473.092	968.88
473.311	995.88
473.53	919.88
473.749	886.88
473.968	971.88
474.187	945.88
474.406	930.88
474.625	887.88
474.844	907.88
475.063	1001.88
475.282	1018.88
475.501	1060.88
475.72	1089.88
475.939	1077.88
476.158	1080.88
476.377	1195.88
476.596	1355.88
476.814	1439.88
477.033	1204.88
477.252	1019.88
477.471	979.88
477.69	965.88
477.908	1081.88
478.127	1144.88
478.346	1029.88
478.564	1129.88
478.783	1029.88
479.002	1078.88
479.22	1234.88
479.439	1393.88
479.658	1209.88
479.876	1054.88
480.095	1142.88
480.313	1194.88
480.532	1053.88
480.751	1052.88
480.969	1075.88
481.188	1225.88
481.406	1247.88
481.624	1197.88
481.843	1117.88
482.061	1065.88
482.28	1160.88
482.498	1392.88
482.717	1336.88
482.935	1158.88
483.153	1103.88
483.372	1045.88
483.59	1038.88
483.808	1020.88
484.027	1024.88
484.245	985.88
484.463	960.88
484.681	992.88
484.9	1083.88
485.118	1155.88
485.336	1075.88
485.554	1009.88
485.772	1040.88
485.99	1149.88
486.209	1185.88
486.427	1211.88
486.645	1142.88
486.863	1209.88
487.081	1216.88
487.299	1338.88
487.517	1303.88
487.735	1196.88
487.953	1188.88
488.171	1223.88
488.389	1130.88
488.607	1109.88
488.825	1101.88
489.043	1243.88
489.261	1409.88
489.479	1478.88
489.696	1261.88
489.914	1130.88
490.132	1097.88
490.35	1065.88
490.568	1125.88
490.786	1081.88
491.003	1081.88
491.221	1110.88
491.439	1086.88
491.657	1075.88
491.874	1199.88
492.092	1419.88
492.31	1685.88
492.527	1683.88
492.745	1494.88
492.963	1323.88
493.18	1294.88
493.398	1306.88
493.615	1219.88
493.833	1255.88
494.05	1185.88
494.268	1181.88
494.485	1206.88
494.703	1149.88
494.92	1204.88
495.138	1165.88
495.355	1179.88
495.573	1177.88
495.79	1332.88
496.008	1757.88
496.225	1517.88
496.442	1321.88
496.66	1318.88
496.877	1387.88
497.094	1353.88
497.312	1282.88
497.529	1245.88
497.746	1270.88
497.963	1346.88
498.181	1397.88
498.398	1543.88
498.615	1577.88
498.832	1617.88
499.049	1628.88
499.267	1453.88
499.484	1518.88
499.701	1571.88
499.918	1706.88
500.135	1796.88
500.352	1829.88
500.569	1917.88
500.786	2003.88
501.003	1940.88
501.22	1773.88
501.437	1681.88
501.654	1595.88
501.871	1551.88
502.088	1561.88
502.305	1435.88
502.522	1467.88
502.739	1460.88
502.956	1341.88
503.172	1322.88
503.389	1289.88
503.606	1232.88
503.823	1240.88
504.04	1278.88
504.256	1280.88
504.473	1317.88
504.69	1315.88
504.907	1327.88
505.123	1341.88
505.34	1389.88
505.557	1381.88
505.773	1301.88
505.99	1246.88
506.207	1303.88
506.423	1215.88
506.64	1167.88
506.856	1219.88
507.073	1310.88
507.289	1279.88
507.506	1305.88
507.722	1373.88
507.939	1396.88
508.155	1415.88
508.372	1253.88
508.588	1257.88
508.805	1238.88
509.021	1175.88
509.238	1145.88
509.454	1143.88
509.67	1145.88
509.887	1150.88
510.103	1268.88
510.319	1225.88
510.536	1159.88
510.752	1019.88
510.968	1021.88
511.184	1004.88
511.401	982.88
511.617	998.88
511.833	1030.88
512.049	1021.88
512.265	1056.88
512.481	1126.88
512.698	1214.88
512.914	1305.88
513.13	1170.88
513.346	1089.88
513.562	1134.88
513.778	1113.88
513.994	1106.88
514.21	1181.88
514.426	1150.88
514.642	1111.88
514.858	1093.88
515.074	1141.88
515.29	1260.88
515.506	1371.88
515.721	1297.88
515.937	1198.88
516.153	1121.88
516.369	1149.88
516.585	1166.88
516.801	1354.88
517.016	1526.88
517.232	1461.88
517.448	1476.88
517.664	1292.88
517.879	1253.88
518.095	1238.88
518.311	1193.88
518.527	1286.88
518.742	1363.88
518.958	1405.88
519.173	1351.88
519.389	1332.88
519.605	1352.88
519.82	1431.88
520.036	1665.88
520.251	1652.88
520.467	1509.88
520.682	2293.88
520.898	2735.88
521.113	2621.88
521.329	1660.88
521.544	1473.88
521.76	1405.88
521.975	1292.88
522.19	1213.88
522.406	1238.88
522.621	1410.88
522.836	1489.88
523.052	1520.88
523.267	1237.88
523.482	1251.88
523.698	1335.88
523.913	1311.88
524.128	1165.88
524.343	1138.88
524.559	1142.88
524.774	1094.88
524.989	1129.88
525.204	1168.88
525.419	1249.88
525.634	1174.88
525.849	1216.88
526.064	1195.88
526.28	1237.88
526.495	1439.88
526.71	1459.88
526.925	1305.88
527.14	1353.88
527.355	1317.88
527.57	1091.88
527.785	1151.88
527.999	1083.88
528.214	1045.88
528.429	1043.88
528.644	1050.88
528.859	995.88
529.074	980.88
529.289	948.88
529.503	943.88
529.718	1020.88
529.933	1147.88
530.148	1161.88
530.363	997.88
530.577	983.88
530.792	933.88
531.007	955.88
531.221	933.88
531.436	964.88
531.651	976.88
531.865	968.88
532.08	1007.88
532.295	956.88
532.509	1010.88
532.724	1114.88
532.938	1274.88
533.153	1444.88
533.367	1176.88
533.582	1134.88
533.796	1080.88
534.011	1012.88
534.225	1048.88
534.44	1008.88
534.654	1047.88
534.868	1224.88
535.083	1089.88
535.297	967.88
535.511	994.88
535.726	1116.88
535.94	1028.88
536.154	995.88
536.369	983.88
536.583	957.88
536.797	976.88
537.011	1008.88
537.225	1094.88
537.44	1124.88
537.654	978.88
537.868	975.88
538.082	1001.88
538.296	986.88
538.51	1041.88
538.724	1023.88
538.938	1042.88
539.153	951.88
539.367	923.88
539.581	943.88
539.795	1012.88
540.009	1109.88
540.222	1029.88
540.436	1007.88
540.65	1124.88
540.864	1129.88
541.078	1155.88
541.292	1279.88
541.506	1069.88
541.72	1056.88
541.934	1021.88
542.147	1008.88
542.361	1031.88
542.575	1013.88
542.789	974.88
543.002	907.88
543.216	1001.88
543.43	955.88
543.644	900.88
543.857	897.88
544.071	898.88
544.285	926.88
544.498	909.88
544.712	901.88
544.925	977.88
545.139	919.88
545.352	879.88
545.566	888.88
545.779	1019.88
545.993	937.88
546.206	858.88
546.42	838.88
546.633	873.88
546.847	850.88
547.06	825.88
547.274	831.88
547.487	876.88
547.7	933.88
547.914	977.88
548.127	1054.88
548.34	1055.88
548.554	942.88
548.767	955.88
548.98	1017.88
549.193	955.88
549.407	974.88
549.62	1165.88
549.833	1089.88
550.046	1137.88
550.259	1129.88
550.473	1000.88
550.686	933.88
550.899	978.88
551.112	951.88
551.325	1016.88
551.538	1030.88
551.751	916.88
551.964	871.88
552.177	876.88
552.39	821.88
552.603	867.88
552.816	913.88
553.029	863.88
553.242	813.88
553.455	894.88
553.667	1004.88
553.88	944.88
554.093	884.88
554.306	817.88
554.519	785.88
554.732	779.88
554.944	769.88
555.157	740.88
555.37	749.88
555.583	753.88
555.795	767.88
556.008	778.88
556.221	765.88
556.433	795.88
556.646	774.88
556.859	746.88
557.071	788.88
557.284	790.88
557.496	834.88
557.709	796.88
557.921	770.88
558.134	726.88
558.346	683.88
558.559	691.88
558.771	737.88
558.984	762.88
559.196	718.88
559.409	728.88
559.621	700.88
559.833	701.88
560.046	703.88
560.258	710.88
560.47	741.88
560.683	685.88
560.895	667.88
561.107	649.88
561.32	657.88
561.532	655.88
561.744	719.88
561.956	750.88
562.168	689.88
562.381	688.88
562.593	683.88
562.805	730.88
563.017	696.88
563.229	657.88
563.441	672.88
563.653	651.88
563.865	691.88
564.077	692.88
564.289	654.88
564.501	690.88
564.713	743.88
564.925	685.88
565.137	664.88
565.349	691.88
565.561	665.88
565.773	687.88
565.985	726.88
566.197	753.88
566.408	817.88
566.62	837.88
566.832	842.88
567.044	824.88
567.255	895.88
567.467	936.88
567.679	890.88
567.891	860.88
568.102	861.88
568.314	863.88
568.526	811.88
568.737	790.88
568.949	837.88
569.161	727.88
569.372	689.88
569.584	674.88
569.795	668.88
570.007	673.88
570.218	721.88
570.43	697.88
570.641	693.88
570.853	629.88
571.064	644.88
571.276	663.88
571.487	693.88
571.698	659.88
571.91	645.88
572.121	649.88
572.333	595.88
572.544	587.88
572.755	614.88
572.966	587.88
573.178	617.88
573.389	637.88
573.6	623.88
573.811	588.88
574.023	561.88
574.234	541.88
574.445	566.88
574.656	542.88
574.867	568.88
575.078	557.88
575.289	572.88
575.501	597.88
575.712	559.88
575.923	536.88
576.134	534.88
576.345	520.88
576.556	533.88
576.767	510.88
576.978	508.88
577.188	494.88
577.399	506.88
577.61	493.88
577.821	522.88
578.032	529.88
578.243	578.88
578.454	549.88
578.665	559.88
578.875	513.88
579.086	534.88
579.297	545.88
579.508	561.88
579.718	528.88
579.929	545.88
580.14	516.88
580.35	490.88
580.561	472.88
580.772	482.88
580.982	455.88
581.193	461.88
581.403	439.88
581.614	449.88
581.825	442.88
582.035	461.88
582.246	452.88
582.456	455.88
582.667	449.88
582.877	439.88
583.087	470.88
583.298	448.88
583.508	459.88
583.719	454.88
583.929	436.88
584.139	442.88
584.35	453.88
584.56	466.88
584.77	445.88
584.981	463.88
585.191	452.88
585.401	443.88
585.611	443.88
585.821	463.88
586.032	459.88
586.242	449.88
586.452	438.88
586.662	450.88
586.872	496.88
587.082	477.88
587.292	484.88
587.502	433.88
587.713	448.88
587.923	464.88
588.133	464.88
588.343	428.88
588.553	437.88
588.762	438.88
588.972	402.88
589.182	461.88
589.392	445.88
589.602	438.88
589.812	477.88
590.022	494.88
590.232	461.88
590.441	455.88
590.651	432.88
590.861	448.88
591.071	429.88
591.281	432.88
591.49	449.88
591.7	462.88
591.91	453.88
592.119	441.88
592.329	434.88
592.539	446.88
592.748	444.88
592.958	446.88
593.167	432.88
593.377	474.88
593.587	465.88
593.796	463.88
594.006	458.88
594.215	467.88
594.424	477.88
594.634	477.88
594.843	446.88
595.053	447.88
595.262	452.88
595.472	432.88
595.681	405.88
595.89	421.88
596.1	417.88
596.309	430.88
596.518	423.88
596.727	407.88
596.937	395.88
597.146	422.88
597.355	460.88
597.564	434.88
597.774	392.88
597.983	373.88
598.192	394.88
598.401	382.88
598.61	379.88
598.819	379.88
599.028	396.88
599.237	379.88
599.446	380.88
599.655	364.88
599.864	365.88
600.073	366.88
600.282	361.88
600.491	363.88
600.7	380.88
600.909	389.88
601.118	370.88
601.327	359.88
601.536	373.88
601.745	377.88
601.953	393.88
602.162	396.88
602.371	386.88
602.58	390.88
602.789	386.88
602.997	370.88
603.206	369.88
603.415	361.88
603.623	358.88
603.832	349.88
604.041	369.88
604.249	379.88
604.458	385.88
604.666	351.88
604.875	341.88
605.084	349.88
605.292	330.88
605.501	366.88
605.709	352.88
605.918	363.88
606.126	365.88
606.334	348.88
606.543	359.88
606.751	349.88
606.96	334.88
607.168	356.88
607.376	327.88
607.585	331.88
607.793	350.88
608.001	342.88
608.21	323.88
608.418	319.88
608.626	344.88
608.834	325.88
609.043	327.88
609.251	323.88
609.459	333.88
609.667	341.88
609.875	328.88
610.083	334.88
610.291	343.88
610.499	348.88
610.707	326.88
610.916	316.88
611.124	312.88
611.332	310.88
611.54	333.88
611.748	325.88
611.955	328.88
612.163	332.88
612.371	337.88
612.579	330.88
612.787	324.88
612.995	312.88
613.203	319.88
613.411	315.88
613.618	325.88
613.826	338.88
614.034	336.88
614.242	298.88
614.449	317.88
614.657	303.88
614.865	329.88
615.072	308.88
615.28	327.88
615.488	318.88
615.695	306.88
615.903	310.88
616.111	316.88
616.318	318.88
616.526	305.88
616.733	304.88
616.941	291.88
617.148	317.88
617.356	315.88
617.563	315.88
617.771	322.88
617.978	310.88
618.185	302.88
618.393	313.88
618.6	313.88
618.807	318.88
619.015	321.88
619.222	298.88
619.429	319.88
619.637	296.88
619.844	302.88
620.051	299.88
620.258	311.88
620.466	294.88
620.673	291.88
620.88	276.88
621.087	262.88
621.294	283.88
621.501	283.88
621.708	287.88
621.915	292.88
622.122	304.88
622.329	279.88
622.536	286.88
622.743	284.88
622.95	276.88
623.157	267.88
623.364	283.88
623.571	291.88
623.778	291.88
623.985	308.88
624.192	286.88
624.399	303.88
624.606	300.88
624.812	304.88
625.019	298.88
625.226	310.88
625.433	282.88
625.639	253.88
625.846	279.88
626.053	281.88
626.259	261.88
626.466	259.88
626.673	287.88
626.879	263.88
627.086	254.88
627.293	280.88
627.499	275.88
627.706	279.88
627.912	252.88
628.119	255.88
628.325	258.88
628.532	264.88
628.738	246.88
628.945	255.88
629.151	236.88
629.357	251.88
629.564	257.88
629.77	263.88
629.976	244.88
630.183	261.88
630.389	242.88
630.595	249.88
630.802	253.88
631.008	239.88
631.214	228.88
631.42	240.88
631.627	248.88
631.833	216.88
632.039	264.88
632.245	249.88
632.451	233.88
632.657	227.88
632.863	235.88
633.069	232.88
633.275	224.88
633.481	229.88
633.688	229.88
633.893	227.88
634.099	226.88
634.305	234.88
634.511	226.88
634.717	217.88
634.923	218.88
635.129	214.88
635.335	233.88
635.541	235.88
635.747	214.88
635.952	241.88
636.158	235.88
636.364	214.88
636.57	233.88
636.775	223.88
636.981	224.88
637.187	222.88
637.392	218.88
637.598	220.88
637.804	218.88
638.009	223.88
638.215	214.88
638.421	230.88
638.626	215.88
638.832	234.88
639.037	233.88
639.243	243.88
639.448	221.88
639.654	198.88
639.859	219.88
640.065	194.88
640.27	223.88
640.475	237.88
640.681	214.88
640.886	214.88
641.091	212.88
641.297	224.88
641.502	210.88
641.707	207.88
641.913	201.88
642.118	228.88
642.323	212.88
642.528	223.88
642.733	220.88
642.939	227.88
643.144	216.88
643.349	199.88
643.554	197.88
643.759	206.88
643.964	207.88
644.169	203.88
644.374	211.88
644.579	208.88
644.784	201.88
644.989	195.88
645.194	194.88
645.399	197.88
645.604	202.88
645.809	207.88
646.014	199.88
646.219	197.88
646.423	203.88
646.628	218.88
646.833	195.88
647.038	202.88
647.243	203.88
647.447	201.88
647.652	194.88
647.857	199.88
648.062	202.88
648.266	206.88
648.471	201.88
648.676	198.88
648.88	208.88
649.085	191.88
649.289	202.88
649.494	203.88
649.698	225.88
649.903	204.88
650.107	197.88
650.312	183.88
650.516	197.88
650.721	191.88
650.925	207.88
651.13	192.88
651.334	179.88
651.539	179.88
651.743	170.88
651.947	195.88
652.152	183.88
652.356	180.88
652.56	177.88
652.764	173.88
652.969	179.88
653.173	156.88
653.377	169.88
653.581	154.88
653.785	148.88
653.99	159.88
654.194	161.88
654.398	151.88
654.602	163.88
654.806	165.88
655.01	175.88
655.214	147.88
655.418	163.88
655.622	158.88
655.826	156.88
656.03	175.88
656.234	155.88
656.438	136.88
656.642	157.88
656.846	152.88
657.049	159.88
657.253	143.88
657.457	141.88
657.661	133.88
657.865	123.88
658.068	130.88
658.272	131.88
658.476	117.88
658.68	117.88
658.883	112.88
659.087	103.88
659.291	118.88
659.494	111.88
659.698	101.88
659.901	121.88
660.105	101.88
660.309	93.88
660.512	91.88
660.716	115.88
660.919	86.88
661.123	91.88
661.326	87.88
661.53	77.88
661.733	98.88
661.936	81.88
662.14	85.88
662.343	89.88
662.546	85.88
662.75	93.88
662.953	92.88
663.156	89.88
663.36	85.88
663.563	83.88
663.766	68.88
663.969	87.88
664.173	88.88
664.376	88.88
664.579	87.88
664.782	84.88
664.985	89.88
665.188	74.88
665.391	78.88
665.594	83.88
665.797	83.88
666	89.88
666.203	81.88
666.406	78.88
666.609	92.88
666.812	71.88
667.015	69.88
667.218	94.88
667.421	72.88
667.624	87.88
667.827	79.88
668.03	90.88
668.232	70.88
668.435	79.88
668.638	87.88
668.841	74.88
669.043	81.88
669.246	68.88
669.449	90.88
669.651	70.88
669.854	83.88
670.057	79.88
670.259	93.88
670.462	90.88
670.665	83.88
670.867	69.88
671.07	54.88
671.272	70.88
671.475	85.88
671.677	85.88
671.88	79.88
672.082	71.88
672.284	82.88
672.487	71.88
672.689	76.88
672.892	73.88
