Data from NickelSpatula.Lamp.E5.5.P2_HRD10591_11-51-51-558.txt Node
Date: Tue Jul 23 11:51:51 EDT 2019
User: cochatt
Spectrometer: HR+D1059
Trigger mode: 1
Integration Time (sec): 1.000000E-1
Scans to average: 1
Electric dark correction enabled: true
Nonlinearity correction enabled: false
Boxcar width: 0
XAxis mode: Wavelengths
Number of Pixels in Spectrum: 2048
>>>>>Begin Spectral Data<<<<<
223.165	-10.94
223.4	-10.94
223.635	-10.94
223.869	-8.94
224.104	-27.94
224.338	-15.94
224.573	-13.94
224.808	-13.94
225.042	-2.94
225.277	-9.94
225.511	4.06
225.746	-13.94
225.98	14.06
226.215	17.06
226.449	23.06
226.683	9.06
226.918	21.06
227.152	30.06
227.387	33.06
227.621	36.06
227.856	42.06
228.09	46.06
228.324	44.06
228.559	57.06
228.793	67.06
229.027	65.06
229.262	82.06
229.496	79.06
229.73	85.06
229.964	100.06
230.199	92.06
230.433	96.06
230.667	96.06
230.901	105.06
231.136	101.06
231.37	83.06
231.604	99.06
231.838	99.06
232.072	117.06
232.306	106.06
232.541	120.06
232.775	99.06
233.009	98.06
233.243	109.06
233.477	127.06
233.711	133.06
233.945	124.06
234.179	130.06
234.413	118.06
234.647	127.06
234.881	157.06
235.115	129.06
235.349	127.06
235.583	129.06
235.817	105.06
236.051	121.06
236.285	117.06
236.519	138.06
236.753	140.06
236.987	131.06
237.221	141.06
237.455	131.06
237.689	136.06
237.922	121.06
238.156	138.06
238.39	151.06
238.624	183.06
238.858	164.06
239.091	137.06
239.325	150.06
239.559	139.06
239.793	158.06
240.027	166.06
240.26	152.06
240.494	161.06
240.728	167.06
240.961	168.06
241.195	170.06
241.429	181.06
241.662	168.06
241.896	165.06
242.13	150.06
242.363	129.06
242.597	135.06
242.83	147.06
243.064	148.06
243.298	167.06
243.531	169.06
243.765	162.06
243.998	168.06
244.232	177.06
244.465	164.06
244.699	178.06
244.932	185.06
245.166	168.06
245.399	161.06
245.633	161.06
245.866	174.06
246.099	159.06
246.333	185.06
246.566	204.06
246.8	187.06
247.033	189.06
247.266	177.06
247.5	173.06
247.733	164.06
247.966	163.06
248.2	183.06
248.433	193.06
248.666	194.06
248.899	202.06
249.133	201.06
249.366	225.06
249.599	239.06
249.832	232.06
250.066	209.06
250.299	221.06
250.532	213.06
250.765	198.06
250.998	206.06
251.231	178.06
251.465	226.06
251.698	203.06
251.931	201.06
252.164	221.06
252.397	222.06
252.63	230.06
252.863	258.06
253.096	267.06
253.329	275.06
253.562	247.06
253.795	282.06
254.028	308.06
254.261	320.06
254.494	273.06
254.727	266.06
254.96	239.06
255.193	273.06
255.426	258.06
255.659	223.06
255.892	197.06
256.124	226.06
256.357	242.06
256.59	277.06
256.823	254.06
257.056	239.06
257.289	229.06
257.521	230.06
257.754	282.06
257.987	292.06
258.22	284.06
258.452	238.06
258.685	262.06
258.918	299.06
259.151	282.06
259.383	295.06
259.616	320.06
259.849	342.06
260.081	363.06
260.314	404.06
260.547	326.06
260.779	340.06
261.012	376.06
261.244	358.06
261.477	358.06
261.71	350.06
261.942	298.06
262.175	311.06
262.407	268.06
262.64	295.06
262.872	351.06
263.105	372.06
263.337	387.06
263.57	353.06
263.802	242.06
264.035	222.06
264.267	240.06
264.499	202.06
264.732	189.06
264.964	176.06
265.197	167.06
265.429	201.06
265.661	199.06
265.894	208.06
266.126	227.06
266.358	252.06
266.591	283.06
266.823	309.06
267.055	303.06
267.287	281.06
267.52	281.06
267.752	319.06
267.984	323.06
268.216	313.06
268.448	235.06
268.681	237.06
268.913	275.06
269.145	288.06
269.377	293.06
269.609	289.06
269.841	285.06
270.073	299.06
270.306	319.06
270.538	311.06
270.77	317.06
271.002	318.06
271.234	331.06
271.466	330.06
271.698	321.06
271.93	311.06
272.162	296.06
272.394	313.06
272.626	301.06
272.858	306.06
273.09	327.06
273.322	289.06
273.553	274.06
273.785	302.06
274.017	394.06
274.249	487.06
274.481	507.06
274.713	532.06
274.945	598.06
275.176	614.06
275.408	538.06
275.64	517.06
275.872	542.06
276.104	455.06
276.335	390.06
276.567	384.06
276.799	412.06
277.031	423.06
277.262	353.06
277.494	277.06
277.726	266.06
277.957	279.06
278.189	314.06
278.421	315.06
278.652	307.06
278.884	298.06
279.115	259.06
279.347	295.06
279.579	266.06
279.81	275.06
280.042	289.06
280.273	283.06
280.505	255.06
280.736	233.06
280.968	241.06
281.199	246.06
281.431	290.06
281.662	290.06
281.894	266.06
282.125	289.06
282.356	307.06
282.588	305.06
282.819	259.06
283.051	283.06
283.282	357.06
283.513	397.06
283.745	454.06
283.976	458.06
284.207	394.06
284.439	437.06
284.67	393.06
284.901	362.06
285.132	406.06
285.364	419.06
285.595	387.06
285.826	410.06
286.057	414.06
286.288	398.06
286.52	431.06
286.751	422.06
286.982	439.06
287.213	380.06
287.444	376.06
287.675	375.06
287.906	393.06
288.138	335.06
288.369	305.06
288.6	289.06
288.831	304.06
289.062	365.06
289.293	373.06
289.524	357.06
289.755	332.06
289.986	360.06
290.217	329.06
290.448	267.06
290.679	220.06
290.91	228.06
291.141	231.06
291.371	249.06
291.602	222.06
291.833	224.06
292.064	246.06
292.295	273.06
292.526	311.06
292.757	328.06
292.987	341.06
293.218	351.06
293.449	365.06
293.68	391.06
293.91	361.06
294.141	376.06
294.372	363.06
294.603	307.06
294.833	341.06
295.064	410.06
295.295	401.06
295.525	299.06
295.756	269.06
295.987	254.06
296.217	225.06
296.448	235.06
296.679	229.06
296.909	274.06
297.14	284.06
297.37	317.06
297.601	311.06
297.831	259.06
298.062	269.06
298.292	331.06
298.523	332.06
298.753	377.06
298.984	338.06
299.214	273.06
299.445	238.06
299.675	234.06
299.905	244.06
300.136	243.06
300.366	249.06
300.597	269.06
300.827	227.06
301.057	230.06
301.288	237.06
301.518	266.06
301.748	286.06
301.979	290.06
302.209	319.06
302.439	304.06
302.669	296.06
302.9	282.06
303.13	279.06
303.36	246.06
303.59	258.06
303.82	267.06
304.051	280.06
304.281	307.06
304.511	293.06
304.741	276.06
304.971	276.06
305.201	290.06
305.431	286.06
305.661	248.06
305.891	242.06
306.121	237.06
306.352	207.06
306.582	216.06
306.812	210.06
307.042	195.06
307.272	201.06
307.502	193.06
307.731	215.06
307.961	231.06
308.191	216.06
308.421	209.06
308.651	185.06
308.881	210.06
309.111	189.06
309.341	200.06
309.571	214.06
309.8	215.06
310.03	219.06
310.26	228.06
310.49	221.06
310.72	206.06
310.949	225.06
311.179	202.06
311.409	208.06
311.639	239.06
311.868	303.06
312.098	358.06
312.328	392.06
312.557	381.06
312.787	378.06
313.017	367.06
313.246	378.06
313.476	415.06
313.706	324.06
313.935	288.06
314.165	240.06
314.394	217.06
314.624	219.06
314.853	231.06
315.083	231.06
315.312	238.06
315.542	234.06
315.771	231.06
316.001	220.06
316.23	210.06
316.46	217.06
316.689	199.06
316.919	202.06
317.148	202.06
317.377	215.06
317.607	209.06
317.836	226.06
318.065	262.06
318.295	268.06
318.524	259.06
318.753	237.06
318.983	223.06
319.212	223.06
319.441	234.06
319.67	219.06
319.9	267.06
320.129	252.06
320.358	206.06
320.587	211.06
320.816	216.06
321.046	257.06
321.275	285.06
321.504	279.06
321.733	276.06
321.962	280.06
322.191	245.06
322.42	253.06
322.649	257.06
322.878	248.06
323.108	242.06
323.337	251.06
323.566	245.06
323.795	223.06
324.024	257.06
324.253	226.06
324.482	223.06
324.71	235.06
324.939	285.06
325.168	245.06
325.397	222.06
325.626	219.06
325.855	208.06
326.084	223.06
326.313	198.06
326.542	222.06
326.77	232.06
326.999	206.06
327.228	213.06
327.457	236.06
327.686	234.06
327.914	216.06
328.143	203.06
328.372	199.06
328.6	206.06
328.829	207.06
329.058	218.06
329.287	202.06
329.515	190.06
329.744	226.06
329.972	217.06
330.201	203.06
330.43	209.06
330.658	203.06
330.887	233.06
331.115	224.06
331.344	249.06
331.572	237.06
331.801	217.06
332.03	211.06
332.258	205.06
332.486	226.06
332.715	237.06
332.943	224.06
333.172	228.06
333.4	230.06
333.629	247.06
333.857	245.06
334.085	240.06
334.314	257.06
334.542	256.06
334.771	222.06
334.999	239.06
335.227	225.06
335.455	214.06
335.684	252.06
335.912	272.06
336.14	278.06
336.369	276.06
336.597	270.06
336.825	314.06
337.053	317.06
337.281	278.06
337.51	227.06
337.738	232.06
337.966	257.06
338.194	263.06
338.422	246.06
338.65	214.06
338.878	212.06
339.106	209.06
339.334	237.06
339.562	243.06
339.79	237.06
340.018	213.06
340.246	225.06
340.474	267.06
340.702	287.06
340.93	283.06
341.158	284.06
341.386	269.06
341.614	247.06
341.842	245.06
342.07	250.06
342.298	279.06
342.526	288.06
342.754	270.06
342.981	247.06
343.209	250.06
343.437	276.06
343.665	274.06
343.893	285.06
344.12	325.06
344.348	350.06
344.576	331.06
344.804	262.06
345.031	241.06
345.259	237.06
345.487	232.06
345.714	236.06
345.942	247.06
346.17	279.06
346.397	264.06
346.625	230.06
346.853	231.06
347.08	245.06
347.308	222.06
347.535	248.06
347.763	279.06
347.99	231.06
348.218	227.06
348.445	234.06
348.673	235.06
348.9	242.06
349.128	240.06
349.355	233.06
349.583	235.06
349.81	230.06
350.037	222.06
350.265	208.06
350.492	191.06
350.72	185.06
350.947	212.06
351.174	215.06
351.402	216.06
351.629	222.06
351.856	217.06
352.083	215.06
352.311	219.06
352.538	244.06
352.765	261.06
352.992	234.06
353.22	226.06
353.447	230.06
353.674	234.06
353.901	213.06
354.128	219.06
354.355	214.06
354.583	219.06
354.81	222.06
355.037	239.06
355.264	246.06
355.491	251.06
355.718	267.06
355.945	251.06
356.172	262.06
356.399	262.06
356.626	294.06
356.853	350.06
357.08	344.06
357.307	374.06
357.534	299.06
357.761	321.06
357.988	381.06
358.215	409.06
358.441	379.06
358.668	334.06
358.895	319.06
359.122	273.06
359.349	292.06
359.576	323.06
359.802	259.06
360.029	224.06
360.256	242.06
360.483	281.06
360.709	347.06
360.936	356.06
361.163	301.06
361.39	260.06
361.616	224.06
361.843	259.06
362.07	305.06
362.296	293.06
362.523	232.06
362.749	215.06
362.976	221.06
363.203	274.06
363.429	284.06
363.656	234.06
363.882	239.06
364.109	230.06
364.335	241.06
364.562	220.06
364.788	276.06
365.015	286.06
365.241	245.06
365.468	216.06
365.694	215.06
365.92	218.06
366.147	189.06
366.373	202.06
366.599	195.06
366.826	208.06
367.052	189.06
367.278	212.06
367.505	202.06
367.731	194.06
367.957	231.06
368.184	249.06
368.41	242.06
368.636	228.06
368.862	238.06
369.089	218.06
369.315	211.06
369.541	222.06
369.767	205.06
369.993	211.06
370.219	217.06
370.445	221.06
370.672	218.06
370.898	238.06
371.124	263.06
371.35	241.06
371.576	212.06
371.802	234.06
372.028	254.06
372.254	300.06
372.48	263.06
372.706	243.06
372.932	240.06
373.158	259.06
373.384	295.06
373.61	365.06
373.835	377.06
374.061	318.06
374.287	267.06
374.513	310.06
374.739	357.06
374.965	355.06
375.191	351.06
375.416	253.06
375.642	251.06
375.868	275.06
376.094	310.06
376.319	255.06
376.545	288.06
376.771	292.06
376.997	270.06
377.222	226.06
377.448	211.06
377.674	192.06
377.899	194.06
378.125	198.06
378.35	178.06
378.576	192.06
378.802	200.06
379.027	231.06
379.253	214.06
379.478	225.06
379.704	257.06
379.929	239.06
380.155	249.06
380.38	218.06
380.606	216.06
380.831	256.06
381.057	254.06
381.282	233.06
381.507	265.06
381.733	306.06
381.958	317.06
382.184	335.06
382.409	341.06
382.634	354.06
382.86	361.06
383.085	314.06
383.31	270.06
383.535	293.06
383.761	274.06
383.986	273.06
384.211	287.06
384.436	314.06
384.662	257.06
384.887	241.06
385.112	263.06
385.337	254.06
385.562	250.06
385.787	270.06
386.013	301.06
386.238	299.06
386.463	240.06
386.688	242.06
386.913	225.06
387.138	226.06
387.363	240.06
387.588	223.06
387.813	229.06
388.038	271.06
388.263	259.06
388.488	218.06
388.713	256.06
388.938	277.06
389.163	257.06
389.387	217.06
389.612	231.06
389.837	227.06
390.062	247.06
390.287	234.06
390.512	227.06
390.736	231.06
390.961	219.06
391.186	207.06
391.411	206.06
391.636	231.06
391.86	227.06
392.085	234.06
392.31	255.06
392.534	240.06
392.759	225.06
392.984	259.06
393.208	234.06
393.433	222.06
393.658	226.06
393.882	210.06
394.107	233.06
394.331	211.06
394.556	217.06
394.78	210.06
395.005	232.06
395.229	222.06
395.454	217.06
395.678	222.06
395.903	230.06
396.127	227.06
396.352	217.06
396.576	233.06
396.801	241.06
397.025	259.06
397.249	264.06
397.474	233.06
397.698	240.06
397.922	241.06
398.147	237.06
398.371	238.06
398.595	252.06
398.82	230.06
399.044	253.06
399.268	254.06
399.492	276.06
399.717	297.06
399.941	294.06
400.165	290.06
400.389	264.06
400.613	252.06
400.837	243.06
401.062	215.06
401.286	223.06
401.51	219.06
401.734	218.06
401.958	234.06
402.182	234.06
402.406	229.06
402.63	239.06
402.854	251.06
403.078	301.06
403.302	367.06
403.526	381.06
403.75	349.06
403.974	301.06
404.198	301.06
404.422	304.06
404.645	329.06
404.869	368.06
405.093	293.06
405.317	259.06
405.541	259.06
405.765	277.06
405.988	271.06
406.212	275.06
406.436	298.06
406.66	322.06
406.883	281.06
407.107	283.06
407.331	315.06
407.555	307.06
407.778	271.06
408.002	284.06
408.226	286.06
408.449	270.06
408.673	259.06
408.896	247.06
409.12	234.06
409.344	249.06
409.567	250.06
409.791	243.06
410.014	235.06
410.238	239.06
410.461	248.06
410.685	226.06
410.908	228.06
411.132	248.06
411.355	234.06
411.578	256.06
411.802	244.06
412.025	247.06
412.249	230.06
412.472	266.06
412.695	240.06
412.919	247.06
413.142	225.06
413.365	258.06
413.589	249.06
413.812	231.06
414.035	241.06
414.258	230.06
414.482	255.06
414.705	263.06
414.928	239.06
415.151	242.06
415.374	223.06
415.597	237.06
415.821	244.06
416.044	219.06
416.267	230.06
416.49	209.06
416.713	213.06
416.936	221.06
417.159	218.06
417.382	222.06
417.605	228.06
417.828	228.06
418.051	239.06
418.274	233.06
418.497	233.06
418.72	251.06
418.943	240.06
419.166	234.06
419.389	277.06
419.611	260.06
419.834	279.06
420.057	249.06
420.28	264.06
420.503	264.06
420.726	246.06
420.948	228.06
421.171	224.06
421.394	253.06
421.617	246.06
421.839	223.06
422.062	233.06
422.285	238.06
422.507	234.06
422.73	229.06
422.953	247.06
423.175	238.06
423.398	264.06
423.621	259.06
423.843	288.06
424.066	256.06
424.288	252.06
424.511	235.06
424.733	230.06
424.956	253.06
425.178	273.06
425.401	320.06
425.623	366.06
425.846	303.06
426.068	265.06
426.291	276.06
426.513	263.06
426.735	242.06
426.958	249.06
427.18	275.06
427.402	354.06
427.625	353.06
427.847	310.06
428.069	254.06
428.292	257.06
428.514	247.06
428.736	229.06
428.958	266.06
429.181	323.06
429.403	270.06
429.625	237.06
429.847	242.06
430.069	230.06
430.292	207.06
430.514	223.06
430.736	238.06
430.958	282.06
431.18	255.06
431.402	230.06
431.624	220.06
431.846	219.06
432.068	218.06
432.29	213.06
432.512	230.06
432.734	281.06
432.956	278.06
433.178	226.06
433.4	221.06
433.622	223.06
433.844	237.06
434.066	259.06
434.287	230.06
434.509	234.06
434.731	245.06
434.953	226.06
435.175	267.06
435.397	269.06
435.618	239.06
435.84	221.06
436.062	238.06
436.284	223.06
436.505	217.06
436.727	213.06
436.949	211.06
437.17	213.06
437.392	223.06
437.614	210.06
437.835	206.06
438.057	218.06
438.278	249.06
438.5	311.06
438.721	331.06
438.943	250.06
439.165	212.06
439.386	226.06
439.608	213.06
439.829	229.06
440.05	222.06
440.272	233.06
440.493	247.06
440.715	291.06
440.936	251.06
441.158	226.06
441.379	230.06
441.6	259.06
441.822	249.06
442.043	230.06
442.264	226.06
442.486	240.06
442.707	257.06
442.928	240.06
443.149	219.06
443.371	239.06
443.592	257.06
443.813	238.06
444.034	237.06
444.255	229.06
444.476	265.06
444.698	242.06
444.919	245.06
445.14	354.06
445.361	315.06
445.582	257.06
445.803	247.06
446.024	254.06
446.245	250.06
446.466	240.06
446.687	247.06
446.908	231.06
447.129	211.06
447.35	229.06
447.571	207.06
447.792	199.06
448.013	218.06
448.234	226.06
448.455	224.06
448.675	221.06
448.896	212.06
449.117	227.06
449.338	225.06
449.559	211.06
449.779	221.06
450	218.06
450.221	222.06
450.442	208.06
450.662	224.06
450.883	227.06
451.104	230.06
451.324	212.06
451.545	216.06
451.766	213.06
451.986	214.06
452.207	220.06
452.428	210.06
452.648	210.06
452.869	213.06
453.089	216.06
453.31	222.06
453.53	201.06
453.751	220.06
453.971	226.06
454.192	207.06
454.412	223.06
454.633	210.06
454.853	206.06
455.073	203.06
455.294	203.06
455.514	205.06
455.734	206.06
455.955	223.06
456.175	222.06
456.395	198.06
456.616	186.06
456.836	201.06
457.056	189.06
457.276	186.06
457.497	188.06
457.717	191.06
457.937	193.06
458.157	190.06
458.377	197.06
458.598	197.06
458.818	221.06
459.038	222.06
459.258	218.06
459.478	227.06
459.698	223.06
459.918	232.06
460.138	246.06
460.358	260.06
460.578	244.06
460.798	262.06
461.018	259.06
461.238	233.06
461.458	227.06
461.678	245.06
461.898	250.06
462.118	260.06
462.338	250.06
462.558	253.06
462.777	245.06
462.997	279.06
463.217	297.06
463.437	304.06
463.657	249.06
463.876	275.06
464.096	273.06
464.316	244.06
464.536	261.06
464.755	281.06
464.975	266.06
465.195	275.06
465.414	268.06
465.634	271.06
465.854	245.06
466.073	230.06
466.293	243.06
466.512	223.06
466.732	259.06
466.951	251.06
467.171	238.06
467.391	232.06
467.61	247.06
467.829	228.06
468.049	232.06
468.268	224.06
468.488	217.06
468.707	214.06
468.927	258.06
469.146	278.06
469.365	262.06
469.585	227.06
469.804	275.06
470.023	282.06
470.243	263.06
470.462	226.06
470.681	222.06
470.901	242.06
471.12	245.06
471.339	244.06
471.558	242.06
471.777	249.06
471.997	252.06
472.216	261.06
472.435	251.06
472.654	257.06
472.873	255.06
473.092	239.06
473.311	244.06
473.53	215.06
473.749	245.06
473.968	244.06
474.187	243.06
474.406	224.06
474.625	240.06
474.844	238.06
475.063	253.06
475.282	236.06
475.501	263.06
475.72	280.06
475.939	270.06
476.158	269.06
476.377	303.06
476.596	335.06
476.814	362.06
477.033	289.06
477.252	259.06
477.471	246.06
477.69	245.06
477.908	262.06
478.127	267.06
478.346	267.06
478.564	289.06
478.783	265.06
479.002	272.06
479.22	330.06
479.439	343.06
479.658	305.06
479.876	274.06
480.095	295.06
480.313	301.06
480.532	298.06
480.751	293.06
480.969	270.06
481.188	309.06
481.406	310.06
481.624	288.06
481.843	289.06
482.061	266.06
482.28	283.06
482.498	360.06
482.717	325.06
482.935	262.06
483.153	276.06
483.372	261.06
483.59	281.06
483.808	260.06
484.027	259.06
484.245	261.06
484.463	235.06
484.681	253.06
484.9	259.06
485.118	300.06
485.336	275.06
485.554	256.06
485.772	260.06
485.99	285.06
486.209	294.06
486.427	314.06
486.645	284.06
486.863	285.06
487.081	284.06
487.299	326.06
487.517	303.06
487.735	288.06
487.953	308.06
488.171	304.06
488.389	273.06
488.607	267.06
488.825	281.06
489.043	298.06
489.261	339.06
489.479	341.06
489.696	310.06
489.914	304.06
490.132	261.06
490.35	260.06
490.568	284.06
490.786	279.06
491.003	299.06
491.221	277.06
491.439	258.06
491.657	274.06
491.874	279.06
492.092	308.06
492.31	365.06
492.527	389.06
492.745	322.06
492.963	305.06
493.18	296.06
493.398	299.06
493.615	297.06
493.833	298.06
494.05	303.06
494.268	298.06
494.485	293.06
494.703	292.06
494.92	283.06
495.138	282.06
495.355	283.06
495.573	263.06
495.79	320.06
496.008	374.06
496.225	327.06
496.442	305.06
496.66	308.06
496.877	323.06
497.094	313.06
497.312	298.06
497.529	311.06
497.746	294.06
497.963	311.06
498.181	323.06
498.398	347.06
498.615	372.06
498.832	377.06
499.049	399.06
499.267	388.06
499.484	378.06
499.701	418.06
499.918	456.06
500.135	485.06
500.352	521.06
500.569	552.06
500.786	557.06
501.003	532.06
501.22	487.06
501.437	446.06
501.654	417.06
501.871	390.06
502.088	353.06
502.305	350.06
502.522	349.06
502.739	358.06
502.956	322.06
503.172	320.06
503.389	307.06
503.606	298.06
503.823	293.06
504.04	294.06
504.256	297.06
504.473	307.06
504.69	332.06
504.907	307.06
505.123	314.06
505.34	328.06
505.557	335.06
505.773	305.06
505.99	302.06
506.207	311.06
506.423	298.06
506.64	290.06
506.856	306.06
507.073	319.06
507.289	295.06
507.506	309.06
507.722	324.06
507.939	313.06
508.155	336.06
508.372	311.06
508.588	299.06
508.805	264.06
509.021	293.06
509.238	282.06
509.454	284.06
509.67	277.06
509.887	286.06
510.103	305.06
510.319	305.06
510.536	265.06
510.752	268.06
510.968	273.06
511.184	234.06
511.401	268.06
511.617	259.06
511.833	251.06
512.049	259.06
512.265	241.06
512.481	262.06
512.698	302.06
512.914	315.06
513.13	280.06
513.346	277.06
513.562	291.06
513.778	255.06
513.994	289.06
514.21	296.06
514.426	279.06
514.642	269.06
514.858	244.06
515.074	278.06
515.29	304.06
515.506	323.06
515.721	307.06
515.937	291.06
516.153	296.06
516.369	281.06
516.585	308.06
516.801	326.06
517.016	374.06
517.232	347.06
517.448	379.06
517.664	335.06
517.879	337.06
518.095	322.06
518.311	330.06
518.527	330.06
518.742	330.06
518.958	375.06
519.173	322.06
519.389	313.06
519.605	299.06
519.82	344.06
520.036	375.06
520.251	389.06
520.467	362.06
520.682	582.06
520.898	741.06
521.113	676.06
521.329	407.06
521.544	330.06
521.76	341.06
521.975	325.06
522.19	306.06
522.406	305.06
522.621	341.06
522.836	346.06
523.052	340.06
523.267	292.06
523.482	301.06
523.698	315.06
523.913	312.06
524.128	273.06
524.343	263.06
524.559	285.06
524.774	275.06
524.989	283.06
525.204	278.06
525.419	302.06
525.634	296.06
525.849	284.06
526.064	284.06
526.28	310.06
526.495	351.06
526.71	343.06
526.925	302.06
527.14	341.06
527.355	313.06
527.57	279.06
527.785	315.06
527.999	276.06
528.214	262.06
528.429	258.06
528.644	276.06
528.859	241.06
529.074	259.06
529.289	243.06
529.503	237.06
529.718	266.06
529.933	317.06
530.148	309.06
530.363	263.06
530.577	239.06
530.792	259.06
531.007	259.06
531.221	256.06
531.436	260.06
531.651	261.06
531.865	246.06
532.08	272.06
532.295	257.06
532.509	262.06
532.724	281.06
532.938	305.06
533.153	352.06
533.367	278.06
533.582	294.06
533.796	267.06
534.011	239.06
534.225	277.06
534.44	280.06
534.654	264.06
534.868	337.06
535.083	289.06
535.297	276.06
535.511	261.06
535.726	262.06
535.94	253.06
536.154	242.06
536.369	248.06
536.583	251.06
536.797	251.06
537.011	264.06
537.225	270.06
537.44	309.06
537.654	259.06
537.868	257.06
538.082	263.06
538.296	247.06
538.51	271.06
538.724	286.06
538.938	267.06
539.153	240.06
539.367	251.06
539.581	230.06
539.795	251.06
540.009	285.06
540.222	261.06
540.436	250.06
540.65	275.06
540.864	282.06
541.078	286.06
541.292	338.06
541.506	291.06
541.72	276.06
541.934	256.06
542.147	253.06
542.361	260.06
542.575	270.06
542.789	249.06
543.002	242.06
543.216	247.06
543.43	250.06
543.644	244.06
543.857	235.06
544.071	233.06
544.285	245.06
544.498	232.06
544.712	233.06
544.925	245.06
545.139	241.06
545.352	238.06
545.566	240.06
545.779	265.06
545.993	244.06
546.206	238.06
546.42	244.06
546.633	238.06
546.847	222.06
547.06	216.06
547.274	206.06
547.487	237.06
547.7	223.06
547.914	257.06
548.127	261.06
548.34	281.06
548.554	244.06
548.767	251.06
548.98	267.06
549.193	235.06
549.407	254.06
549.62	289.06
549.833	278.06
550.046	283.06
550.259	288.06
550.473	282.06
550.686	244.06
550.899	256.06
551.112	262.06
551.325	254.06
551.538	272.06
551.751	263.06
551.964	249.06
552.177	239.06
552.39	238.06
552.603	240.06
552.816	245.06
553.029	234.06
553.242	237.06
553.455	231.06
553.667	268.06
553.88	260.06
554.093	224.06
554.306	224.06
554.519	216.06
554.732	204.06
554.944	245.06
555.157	212.06
555.37	196.06
555.583	217.06
555.795	222.06
556.008	216.06
556.221	232.06
556.433	207.06
556.646	201.06
556.859	212.06
557.071	226.06
557.284	209.06
557.496	231.06
557.709	201.06
557.921	209.06
558.134	225.06
558.346	192.06
558.559	187.06
558.771	224.06
558.984	211.06
559.196	210.06
559.409	210.06
559.621	208.06
559.833	194.06
560.046	208.06
560.258	191.06
560.47	213.06
560.683	203.06
560.895	202.06
561.107	192.06
561.32	208.06
561.532	180.06
561.744	198.06
561.956	222.06
562.168	197.06
562.381	190.06
562.593	203.06
562.805	203.06
563.017	184.06
563.229	195.06
563.441	199.06
563.653	210.06
563.865	194.06
564.077	203.06
564.289	189.06
564.501	207.06
564.713	197.06
564.925	202.06
565.137	216.06
565.349	211.06
565.561	218.06
565.773	221.06
565.985	222.06
566.197	237.06
566.408	233.06
566.62	270.06
566.832	270.06
567.044	241.06
567.255	247.06
567.467	278.06
567.679	283.06
567.891	296.06
568.102	280.06
568.314	271.06
568.526	260.06
568.737	245.06
568.949	251.06
569.161	225.06
569.372	221.06
569.584	207.06
569.795	207.06
570.007	211.06
570.218	226.06
570.43	200.06
570.641	201.06
570.853	198.06
571.064	187.06
571.276	213.06
571.487	214.06
571.698	197.06
571.91	207.06
572.121	197.06
572.333	181.06
572.544	182.06
572.755	200.06
572.966	193.06
573.178	187.06
573.389	212.06
573.6	201.06
573.811	198.06
574.023	192.06
574.234	183.06
574.445	170.06
574.656	173.06
574.867	189.06
575.078	185.06
575.289	180.06
575.501	212.06
575.712	177.06
575.923	193.06
576.134	162.06
576.345	175.06
576.556	189.06
576.767	177.06
576.978	194.06
577.188	163.06
577.399	170.06
577.61	177.06
577.821	177.06
578.032	198.06
578.243	182.06
578.454	189.06
578.665	186.06
578.875	171.06
579.086	183.06
579.297	189.06
579.508	186.06
579.718	174.06
579.929	171.06
580.14	175.06
580.35	174.06
580.561	166.06
580.772	160.06
580.982	151.06
581.193	165.06
581.403	157.06
581.614	155.06
581.825	169.06
582.035	155.06
582.246	157.06
582.456	169.06
582.667	179.06
582.877	161.06
583.087	162.06
583.298	169.06
583.508	167.06
583.719	162.06
583.929	152.06
584.139	154.06
584.35	161.06
584.56	173.06
584.77	168.06
584.981	166.06
585.191	177.06
585.401	185.06
585.611	165.06
585.821	173.06
586.032	166.06
586.242	165.06
586.452	155.06
586.662	165.06
586.872	187.06
587.082	177.06
587.292	149.06
587.502	164.06
587.713	158.06
587.923	163.06
588.133	184.06
588.343	173.06
588.553	145.06
588.762	145.06
588.972	160.06
589.182	159.06
589.392	165.06
589.602	152.06
589.812	153.06
590.022	177.06
590.232	174.06
590.441	151.06
590.651	149.06
590.861	157.06
591.071	181.06
591.281	147.06
591.49	146.06
591.7	147.06
591.91	166.06
592.119	150.06
592.329	161.06
592.539	162.06
592.748	171.06
592.958	177.06
593.167	177.06
593.377	164.06
593.587	193.06
593.796	173.06
594.006	182.06
594.215	187.06
594.424	178.06
594.634	179.06
594.843	173.06
595.053	143.06
595.262	154.06
595.472	159.06
595.681	160.06
595.89	161.06
596.1	153.06
596.309	150.06
596.518	151.06
596.727	147.06
596.937	159.06
597.146	140.06
597.355	151.06
597.564	153.06
597.774	157.06
597.983	153.06
598.192	137.06
598.401	155.06
598.61	143.06
598.819	132.06
599.028	137.06
599.237	143.06
599.446	155.06
599.655	140.06
599.864	137.06
600.073	147.06
600.282	157.06
600.491	135.06
600.7	127.06
600.909	136.06
601.118	149.06
601.327	154.06
601.536	141.06
601.745	151.06
601.953	145.06
602.162	157.06
602.371	146.06
602.58	158.06
602.789	139.06
602.997	158.06
603.206	151.06
603.415	135.06
603.623	134.06
603.832	142.06
604.041	142.06
604.249	141.06
604.458	146.06
604.666	140.06
604.875	139.06
605.084	140.06
605.292	157.06
605.501	137.06
605.709	140.06
605.918	141.06
606.126	132.06
606.334	117.06
606.543	130.06
606.751	124.06
606.96	143.06
607.168	138.06
607.376	121.06
607.585	142.06
607.793	140.06
608.001	134.06
608.21	144.06
608.418	136.06
608.626	149.06
608.834	129.06
609.043	143.06
609.251	123.06
609.459	137.06
609.667	132.06
609.875	134.06
610.083	128.06
610.291	138.06
610.499	127.06
610.707	137.06
610.916	134.06
611.124	139.06
611.332	135.06
611.54	141.06
611.748	146.06
611.955	129.06
612.163	125.06
612.371	140.06
612.579	131.06
612.787	157.06
612.995	151.06
613.203	120.06
613.411	130.06
613.618	139.06
613.826	154.06
614.034	136.06
614.242	123.06
614.449	144.06
614.657	123.06
614.865	123.06
615.072	115.06
615.28	130.06
615.488	135.06
615.695	139.06
615.903	123.06
616.111	132.06
616.318	130.06
616.526	131.06
616.733	144.06
616.941	138.06
617.148	129.06
617.356	126.06
617.563	137.06
617.771	123.06
617.978	136.06
618.185	122.06
618.393	130.06
618.6	136.06
618.807	129.06
619.015	139.06
619.222	127.06
619.429	141.06
619.637	137.06
619.844	118.06
620.051	124.06
620.258	137.06
620.466	138.06
620.673	139.06
620.88	127.06
621.087	120.06
621.294	132.06
621.501	129.06
621.708	142.06
621.915	120.06
622.122	122.06
622.329	139.06
622.536	132.06
622.743	121.06
622.95	125.06
623.157	143.06
623.364	108.06
623.571	120.06
623.778	127.06
623.985	144.06
624.192	130.06
624.399	123.06
624.606	143.06
624.812	117.06
625.019	126.06
625.226	133.06
625.433	121.06
625.639	119.06
625.846	131.06
626.053	128.06
626.259	137.06
626.466	129.06
626.673	129.06
626.879	123.06
627.086	119.06
627.293	125.06
627.499	133.06
627.706	140.06
627.912	117.06
628.119	120.06
628.325	101.06
628.532	121.06
628.738	111.06
628.945	140.06
629.151	123.06
629.357	125.06
629.564	121.06
629.77	117.06
629.976	134.06
630.183	121.06
630.389	127.06
630.595	130.06
630.802	125.06
631.008	119.06
631.214	131.06
631.42	135.06
631.627	124.06
631.833	113.06
632.039	115.06
632.245	118.06
632.451	109.06
632.657	126.06
632.863	116.06
633.069	107.06
633.275	117.06
633.481	117.06
633.688	117.06
633.893	120.06
634.099	125.06
634.305	123.06
634.511	121.06
634.717	119.06
634.923	106.06
635.129	107.06
635.335	117.06
635.541	117.06
635.747	110.06
635.952	122.06
636.158	124.06
636.364	121.06
636.57	119.06
636.775	130.06
636.981	118.06
637.187	100.06
637.392	111.06
637.598	117.06
637.804	121.06
638.009	112.06
638.215	118.06
638.421	105.06
638.626	111.06
638.832	115.06
639.037	110.06
639.243	113.06
639.448	116.06
639.654	106.06
639.859	109.06
640.065	113.06
640.27	122.06
640.475	116.06
640.681	115.06
640.886	107.06
641.091	99.06
641.297	114.06
641.502	105.06
641.707	106.06
641.913	122.06
642.118	117.06
642.323	117.06
642.528	133.06
642.733	102.06
642.939	87.06
643.144	103.06
643.349	110.06
643.554	113.06
643.759	111.06
643.964	119.06
644.169	112.06
644.374	110.06
644.579	113.06
644.784	111.06
644.989	127.06
645.194	114.06
645.399	111.06
645.604	107.06
645.809	106.06
646.014	114.06
646.219	103.06
646.423	106.06
646.628	107.06
646.833	99.06
647.038	115.06
647.243	121.06
647.447	126.06
647.652	113.06
647.857	104.06
648.062	111.06
648.266	123.06
648.471	107.06
648.676	107.06
648.88	97.06
649.085	109.06
649.289	117.06
649.494	121.06
649.698	120.06
649.903	115.06
650.107	120.06
650.312	109.06
650.516	96.06
650.721	108.06
650.925	102.06
651.13	115.06
651.334	121.06
651.539	99.06
651.743	103.06
651.947	103.06
652.152	117.06
652.356	104.06
652.56	95.06
652.764	107.06
652.969	120.06
653.173	102.06
653.377	95.06
653.581	96.06
653.785	103.06
653.99	105.06
654.194	113.06
654.398	97.06
654.602	91.06
654.806	89.06
655.01	100.06
655.214	105.06
655.418	95.06
655.622	102.06
655.826	99.06
656.03	94.06
656.234	105.06
656.438	93.06
656.642	99.06
656.846	116.06
657.049	93.06
657.253	106.06
657.457	95.06
657.661	96.06
657.865	94.06
658.068	101.06
658.272	95.06
658.476	103.06
658.68	89.06
658.883	79.06
659.087	90.06
659.291	82.06
659.494	89.06
659.698	82.06
659.901	83.06
660.105	91.06
660.309	80.06
660.512	91.06
660.716	93.06
660.919	83.06
661.123	99.06
661.326	86.06
661.53	84.06
661.733	93.06
661.936	78.06
662.14	97.06
662.343	76.06
662.546	93.06
662.75	83.06
662.953	91.06
663.156	88.06
663.36	87.06
663.563	86.06
663.766	80.06
663.969	83.06
664.173	78.06
664.376	91.06
664.579	103.06
664.782	91.06
664.985	71.06
665.188	87.06
665.391	86.06
665.594	84.06
665.797	89.06
666	86.06
666.203	64.06
666.406	91.06
666.609	79.06
666.812	73.06
667.015	78.06
667.218	88.06
667.421	72.06
667.624	77.06
667.827	82.06
668.03	87.06
668.232	62.06
668.435	94.06
668.638	77.06
668.841	85.06
669.043	83.06
669.246	85.06
669.449	74.06
669.651	86.06
669.854	78.06
670.057	82.06
670.259	83.06
670.462	81.06
670.665	80.06
670.867	89.06
671.07	78.06
671.272	77.06
671.475	87.06
671.677	87.06
671.88	72.06
672.082	89.06
672.284	89.06
672.487	93.06
672.689	87.06
672.892	84.06
