Data from NickelSpatula.Lamp.E10.P2_HRD10591_11-58-04-530.txt Node
Date: Tue Jul 23 11:58:04 EDT 2019
User: cochatt
Spectrometer: HR+D1059
Trigger mode: 1
Integration Time (sec): 1.000000E-1
Scans to average: 1
Electric dark correction enabled: true
Nonlinearity correction enabled: false
Boxcar width: 0
XAxis mode: Wavelengths
Number of Pixels in Spectrum: 2048
>>>>>Begin Spectral Data<<<<<
223.165	-10.94
223.4	-10.94
223.635	-10.94
223.869	-19.94
224.104	-26.94
224.338	-20.94
224.573	-0.94
224.808	-16.94
225.042	-16.94
225.277	-12.94
225.511	4.06
225.746	-3.94
225.98	16.06
226.215	9.06
226.449	29.06
226.683	26.06
226.918	16.06
227.152	30.06
227.387	30.06
227.621	12.06
227.856	37.06
228.09	37.06
228.324	46.06
228.559	53.06
228.793	64.06
229.027	135.06
229.262	144.06
229.496	142.06
229.73	169.06
229.964	193.06
230.199	204.06
230.433	210.06
230.667	212.06
230.901	204.06
231.136	197.06
231.37	212.06
231.604	214.06
231.838	242.06
232.072	258.06
232.306	223.06
232.541	267.06
232.775	236.06
233.009	271.06
233.243	282.06
233.477	306.06
233.711	329.06
233.945	324.06
234.179	309.06
234.413	344.06
234.647	373.06
234.881	449.06
235.115	413.06
235.349	408.06
235.583	341.06
235.817	336.06
236.051	370.06
236.285	410.06
236.519	451.06
236.753	440.06
236.987	417.06
237.221	388.06
237.455	389.06
237.689	428.06
237.922	451.06
238.156	461.06
238.39	558.06
238.624	634.06
238.858	575.06
239.091	490.06
239.325	496.06
239.559	489.06
239.793	508.06
240.027	605.06
240.26	577.06
240.494	596.06
240.728	589.06
240.961	666.06
241.195	629.06
241.429	625.06
241.662	624.06
241.896	484.06
242.13	462.06
242.363	438.06
242.597	448.06
242.83	493.06
243.064	549.06
243.298	586.06
243.531	577.06
243.765	619.06
243.998	604.06
244.232	603.06
244.465	599.06
244.699	587.06
244.932	653.06
245.166	620.06
245.399	557.06
245.633	546.06
245.866	560.06
246.099	614.06
246.333	702.06
246.566	780.06
246.8	736.06
247.033	737.06
247.266	684.06
247.5	679.06
247.733	687.06
247.966	633.06
248.2	659.06
248.433	757.06
248.666	794.06
248.899	806.06
249.133	857.06
249.366	993.06
249.599	1063.06
249.832	956.06
250.066	804.06
250.299	820.06
250.532	792.06
250.765	786.06
250.998	734.06
251.231	727.06
251.465	765.06
251.698	830.06
251.931	778.06
252.164	847.06
252.397	922.06
252.63	1033.06
252.863	1121.06
253.096	1184.06
253.329	1108.06
253.562	1061.06
253.795	1158.06
254.028	1338.06
254.261	1349.06
254.494	1206.06
254.727	1121.06
254.96	1096.06
255.193	1159.06
255.426	1093.06
255.659	835.06
255.892	767.06
256.124	830.06
256.357	983.06
256.59	1146.06
256.823	1101.06
257.056	972.06
257.289	904.06
257.521	957.06
257.754	1120.06
257.987	1269.06
258.22	1104.06
258.452	992.06
258.685	1149.06
258.918	1281.06
259.151	1228.06
259.383	1285.06
259.616	1478.06
259.849	1542.06
260.081	1706.06
260.314	1818.06
260.547	1426.06
260.779	1454.06
261.012	1695.06
261.244	1585.06
261.477	1604.06
261.71	1487.06
261.942	1287.06
262.175	1229.06
262.407	1188.06
262.64	1237.06
262.872	1482.06
263.105	1597.06
263.337	1710.06
263.57	1522.06
263.802	995.06
264.035	906.06
264.267	860.06
264.499	766.06
264.732	702.06
264.964	674.06
265.197	711.06
265.429	776.06
265.661	822.06
265.894	869.06
266.126	902.06
266.358	1002.06
266.591	1232.06
266.823	1462.06
267.055	1391.06
267.287	1210.06
267.52	1246.06
267.752	1252.06
267.984	1430.06
268.216	1355.06
268.448	1104.06
268.681	1091.06
268.913	1179.06
269.145	1225.06
269.377	1259.06
269.609	1261.06
269.841	1182.06
270.073	1267.06
270.306	1327.06
270.538	1342.06
270.77	1348.06
271.002	1355.06
271.234	1435.06
271.466	1479.06
271.698	1441.06
271.93	1376.06
272.162	1388.06
272.394	1381.06
272.626	1362.06
272.858	1422.06
273.09	1438.06
273.322	1265.06
273.553	1239.06
273.785	1448.06
274.017	1916.06
274.249	2395.06
274.481	2498.06
274.713	2680.06
274.945	3052.06
275.176	3215.06
275.408	2815.06
275.64	2609.06
275.872	2532.06
276.104	2147.06
276.335	1886.06
276.567	1846.06
276.799	1904.06
277.031	2022.06
277.262	1574.06
277.494	1213.06
277.726	1203.06
277.957	1312.06
278.189	1483.06
278.421	1448.06
278.652	1367.06
278.884	1357.06
279.115	1234.06
279.347	1164.06
279.579	1175.06
279.81	1200.06
280.042	1170.06
280.273	1223.06
280.505	1112.06
280.736	993.06
280.968	981.06
281.199	1063.06
281.431	1235.06
281.662	1205.06
281.894	1162.06
282.125	1240.06
282.356	1327.06
282.588	1389.06
282.819	1255.06
283.051	1338.06
283.282	1632.06
283.513	1918.06
283.745	2151.06
283.976	2130.06
284.207	1938.06
284.439	2068.06
284.67	1977.06
284.901	1751.06
285.132	1878.06
285.364	1980.06
285.595	1841.06
285.826	1970.06
286.057	1954.06
286.288	1932.06
286.52	1987.06
286.751	2034.06
286.982	2051.06
287.213	1770.06
287.444	1705.06
287.675	1838.06
287.906	1779.06
288.138	1509.06
288.369	1322.06
288.6	1257.06
288.831	1311.06
289.062	1514.06
289.293	1694.06
289.524	1611.06
289.755	1582.06
289.986	1641.06
290.217	1396.06
290.448	1084.06
290.679	950.06
290.91	908.06
291.141	898.06
291.371	938.06
291.602	932.06
291.833	979.06
292.064	1047.06
292.295	1196.06
292.526	1392.06
292.757	1422.06
292.987	1518.06
293.218	1525.06
293.449	1530.06
293.68	1628.06
293.91	1584.06
294.141	1573.06
294.372	1468.06
294.603	1385.06
294.833	1545.06
295.064	1806.06
295.295	1714.06
295.525	1263.06
295.756	1114.06
295.987	983.06
296.217	988.06
296.448	1029.06
296.679	1072.06
296.909	1176.06
297.14	1299.06
297.37	1394.06
297.601	1334.06
297.831	1159.06
298.062	1219.06
298.292	1423.06
298.523	1544.06
298.753	1720.06
298.984	1552.06
299.214	1259.06
299.445	1078.06
299.675	1022.06
299.905	981.06
300.136	1020.06
300.366	1166.06
300.597	1113.06
300.827	997.06
301.057	971.06
301.288	1000.06
301.518	1071.06
301.748	1200.06
301.979	1287.06
302.209	1426.06
302.439	1404.06
302.669	1240.06
302.9	1206.06
303.13	1119.06
303.36	1062.06
303.59	1016.06
303.82	1069.06
304.051	1234.06
304.281	1282.06
304.511	1234.06
304.741	1112.06
304.971	1175.06
305.201	1268.06
305.431	1179.06
305.661	1024.06
305.891	1019.06
306.121	1021.06
306.352	919.06
306.582	875.06
306.812	844.06
307.042	856.06
307.272	791.06
307.502	790.06
307.731	848.06
307.961	892.06
308.191	868.06
308.421	793.06
308.651	798.06
308.881	762.06
309.111	770.06
309.341	810.06
309.571	848.06
309.8	911.06
310.03	915.06
310.26	973.06
310.49	948.06
310.72	846.06
310.949	848.06
311.179	839.06
311.409	902.06
311.639	1077.06
311.868	1371.06
312.098	1759.06
312.328	1904.06
312.557	1832.06
312.787	1865.06
313.017	1587.06
313.246	1775.06
313.476	1919.06
313.706	1579.06
313.935	1249.06
314.165	1008.06
314.394	922.06
314.624	909.06
314.853	1017.06
315.083	1039.06
315.312	1008.06
315.542	988.06
315.771	928.06
316.001	837.06
316.23	799.06
316.46	813.06
316.689	858.06
316.919	854.06
317.148	871.06
317.377	874.06
317.607	898.06
317.836	926.06
318.065	1069.06
318.295	1188.06
318.524	1126.06
318.753	951.06
318.983	910.06
319.212	923.06
319.441	1002.06
319.67	1105.06
319.9	1156.06
320.129	1132.06
320.358	955.06
320.587	910.06
320.816	993.06
321.046	1138.06
321.275	1304.06
321.504	1258.06
321.733	1245.06
321.962	1179.06
322.191	1123.06
322.42	1072.06
322.649	1076.06
322.878	1170.06
323.108	1180.06
323.337	1056.06
323.566	1059.06
323.795	1045.06
324.024	997.06
324.253	954.06
324.482	959.06
324.71	1072.06
324.939	1179.06
325.168	1081.06
325.397	906.06
325.626	898.06
325.855	909.06
326.084	903.06
326.313	855.06
326.542	846.06
326.77	879.06
326.999	863.06
327.228	954.06
327.457	1002.06
327.686	1000.06
327.914	871.06
328.143	815.06
328.372	812.06
328.6	838.06
328.829	875.06
329.058	871.06
329.287	874.06
329.515	884.06
329.744	880.06
329.972	814.06
330.201	808.06
330.43	856.06
330.658	907.06
330.887	1063.06
331.115	1027.06
331.344	989.06
331.572	972.06
331.801	866.06
332.03	860.06
332.258	863.06
332.486	914.06
332.715	951.06
332.943	894.06
333.172	905.06
333.4	914.06
333.629	1005.06
333.857	1083.06
334.085	1092.06
334.314	1063.06
334.542	1007.06
334.771	934.06
334.999	927.06
335.227	915.06
335.455	915.06
335.684	1004.06
335.912	1158.06
336.14	1278.06
336.369	1240.06
336.597	1200.06
336.825	1345.06
337.053	1490.06
337.281	1214.06
337.51	928.06
337.738	960.06
337.966	1011.06
338.194	1154.06
338.422	1121.06
338.65	927.06
338.878	866.06
339.106	862.06
339.334	1000.06
339.562	1056.06
339.79	987.06
340.018	949.06
340.246	1032.06
340.474	1180.06
340.702	1238.06
340.93	1266.06
341.158	1262.06
341.386	1072.06
341.614	1062.06
341.842	1069.06
342.07	1125.06
342.298	1330.06
342.526	1344.06
342.754	1165.06
342.981	1076.06
343.209	1059.06
343.437	1114.06
343.665	1126.06
343.893	1139.06
344.12	1328.06
344.348	1545.06
344.576	1375.06
344.804	1150.06
345.031	1018.06
345.259	934.06
345.487	958.06
345.714	996.06
345.942	1066.06
346.17	1162.06
346.397	1095.06
346.625	954.06
346.853	968.06
347.08	958.06
347.308	1008.06
347.535	1078.06
347.763	1109.06
347.99	948.06
348.218	908.06
348.445	942.06
348.673	948.06
348.9	948.06
349.128	1063.06
349.355	1070.06
349.583	1037.06
349.81	1013.06
350.037	915.06
350.265	828.06
350.492	788.06
350.72	760.06
350.947	834.06
351.174	859.06
351.402	901.06
351.629	940.06
351.856	892.06
352.083	881.06
352.311	961.06
352.538	1030.06
352.765	1107.06
352.992	1029.06
353.22	940.06
353.447	961.06
353.674	958.06
353.901	944.06
354.128	963.06
354.355	977.06
354.583	938.06
354.81	950.06
355.037	993.06
355.264	983.06
355.491	1047.06
355.718	1123.06
355.945	1111.06
356.172	1050.06
356.399	1088.06
356.626	1291.06
356.853	1554.06
357.08	1655.06
357.307	1677.06
357.534	1332.06
357.761	1359.06
357.988	1707.06
358.215	1966.06
358.441	1858.06
358.668	1559.06
358.895	1456.06
359.122	1166.06
359.349	1160.06
359.576	1290.06
359.802	1060.06
360.029	906.06
360.256	987.06
360.483	1222.06
360.709	1557.06
360.936	1631.06
361.163	1398.06
361.39	1105.06
361.616	1016.06
361.843	1180.06
362.07	1406.06
362.296	1341.06
362.523	1078.06
362.749	933.06
362.976	952.06
363.203	1174.06
363.429	1331.06
363.656	1031.06
363.882	972.06
364.109	979.06
364.335	952.06
364.562	966.06
364.788	1048.06
365.015	1243.06
365.241	1154.06
365.468	926.06
365.694	837.06
365.92	777.06
366.147	772.06
366.373	760.06
366.599	782.06
366.826	790.06
367.052	809.06
367.278	835.06
367.505	801.06
367.731	881.06
367.957	979.06
368.184	1017.06
368.41	978.06
368.636	1017.06
368.862	1010.06
369.089	964.06
369.315	897.06
369.541	838.06
369.767	844.06
369.993	822.06
370.219	840.06
370.445	860.06
370.672	974.06
370.898	1055.06
371.124	1039.06
371.35	923.06
371.576	874.06
371.802	939.06
372.028	1122.06
372.254	1282.06
372.48	1091.06
372.706	1007.06
372.932	1051.06
373.158	1118.06
373.384	1355.06
373.61	1748.06
373.835	1797.06
374.061	1356.06
374.287	1148.06
374.513	1319.06
374.739	1574.06
374.965	1662.06
375.191	1624.06
375.416	1148.06
375.642	999.06
375.868	1165.06
376.094	1310.06
376.319	1134.06
376.545	1236.06
376.771	1324.06
376.997	1140.06
377.222	836.06
377.448	766.06
377.674	734.06
377.899	742.06
378.125	746.06
378.35	747.06
378.576	778.06
378.802	830.06
379.027	889.06
379.253	847.06
379.478	904.06
379.704	997.06
379.929	1022.06
380.155	1020.06
380.38	949.06
380.606	966.06
380.831	1072.06
381.057	973.06
381.282	941.06
381.507	1121.06
381.733	1408.06
381.958	1466.06
382.184	1622.06
382.409	1645.06
382.634	1597.06
382.86	1667.06
383.085	1375.06
383.31	1088.06
383.535	1178.06
383.761	1189.06
383.986	1148.06
384.211	1371.06
384.436	1290.06
384.662	1032.06
384.887	984.06
385.112	1028.06
385.337	1024.06
385.562	990.06
385.787	1096.06
386.013	1178.06
386.238	1255.06
386.463	1012.06
386.688	958.06
386.913	942.06
387.138	877.06
387.363	919.06
387.588	959.06
387.813	964.06
388.038	1067.06
388.263	946.06
388.488	945.06
388.713	1105.06
388.938	1176.06
389.163	1025.06
389.387	908.06
389.612	908.06
389.837	934.06
390.062	955.06
390.287	982.06
390.512	981.06
390.736	937.06
390.961	876.06
391.186	848.06
391.411	835.06
391.636	839.06
391.86	912.06
392.085	975.06
392.31	986.06
392.534	906.06
392.759	931.06
392.984	949.06
393.208	935.06
393.433	857.06
393.658	787.06
393.882	776.06
394.107	772.06
394.331	795.06
394.556	772.06
394.78	803.06
395.005	820.06
395.229	864.06
395.454	875.06
395.678	860.06
395.903	880.06
396.127	856.06
396.352	854.06
396.576	922.06
396.801	981.06
397.025	1103.06
397.249	1126.06
397.474	940.06
397.698	896.06
397.922	953.06
398.147	892.06
398.371	891.06
398.595	963.06
398.82	906.06
399.044	943.06
399.268	991.06
399.492	1050.06
399.717	1070.06
399.941	1095.06
400.165	1015.06
400.389	1021.06
400.613	1036.06
400.837	1003.06
401.062	911.06
401.286	879.06
401.51	897.06
401.734	914.06
401.958	890.06
402.182	890.06
402.406	896.06
402.63	902.06
402.854	956.06
403.078	1068.06
403.302	1261.06
403.526	1320.06
403.75	1204.06
403.974	1032.06
404.198	1068.06
404.422	1219.06
404.645	1392.06
404.869	1542.06
405.093	1143.06
405.317	1003.06
405.541	965.06
405.765	1004.06
405.988	982.06
406.212	1095.06
406.436	1282.06
406.66	1398.06
406.883	1107.06
407.107	1146.06
407.331	1342.06
407.555	1276.06
407.778	1064.06
408.002	1023.06
408.226	1045.06
408.449	1031.06
408.673	991.06
408.896	947.06
409.12	908.06
409.344	901.06
409.567	880.06
409.791	878.06
410.014	890.06
410.238	868.06
410.461	876.06
410.685	865.06
410.908	906.06
411.132	917.06
411.355	934.06
411.578	938.06
411.802	938.06
412.025	963.06
412.249	966.06
412.472	926.06
412.695	932.06
412.919	956.06
413.142	988.06
413.365	1042.06
413.589	1038.06
413.812	964.06
414.035	892.06
414.258	939.06
414.482	1013.06
414.705	1071.06
414.928	892.06
415.151	861.06
415.374	850.06
415.597	900.06
415.821	890.06
416.044	852.06
416.267	862.06
416.49	862.06
416.713	827.06
416.936	862.06
417.159	874.06
417.382	888.06
417.605	863.06
417.828	933.06
418.051	909.06
418.274	911.06
418.497	926.06
418.72	903.06
418.943	944.06
419.166	984.06
419.389	1018.06
419.611	978.06
419.834	1023.06
420.057	1114.06
420.28	1099.06
420.503	994.06
420.726	900.06
420.948	862.06
421.171	914.06
421.394	881.06
421.617	849.06
421.839	878.06
422.062	913.06
422.285	919.06
422.507	927.06
422.73	935.06
422.953	949.06
423.175	927.06
423.398	934.06
423.621	1007.06
423.843	1057.06
424.066	992.06
424.288	940.06
424.511	902.06
424.733	875.06
424.956	946.06
425.178	1053.06
425.401	1218.06
425.623	1363.06
425.846	1126.06
426.068	978.06
426.291	1103.06
426.513	1005.06
426.735	926.06
426.958	974.06
427.18	1145.06
427.402	1488.06
427.625	1426.06
427.847	1178.06
428.069	898.06
428.292	905.06
428.514	900.06
428.736	835.06
428.958	963.06
429.181	1088.06
429.403	963.06
429.625	895.06
429.847	850.06
430.069	900.06
430.292	902.06
430.514	855.06
430.736	960.06
430.958	1180.06
431.18	1083.06
431.402	842.06
431.624	800.06
431.846	801.06
432.068	784.06
432.29	817.06
432.512	896.06
432.734	1196.06
432.956	1111.06
433.178	863.06
433.4	831.06
433.622	859.06
433.844	844.06
434.066	910.06
434.287	912.06
434.509	855.06
434.731	902.06
434.953	846.06
435.175	884.06
435.397	1037.06
435.618	869.06
435.84	841.06
436.062	832.06
436.284	831.06
436.505	781.06
436.727	786.06
436.949	809.06
437.17	825.06
437.392	840.06
437.614	823.06
437.835	797.06
438.057	851.06
438.278	978.06
438.5	1354.06
438.721	1369.06
438.943	923.06
439.165	790.06
439.386	778.06
439.608	786.06
439.829	807.06
440.05	776.06
440.272	861.06
440.493	966.06
440.715	1200.06
440.936	998.06
441.158	840.06
441.379	845.06
441.6	972.06
441.822	1031.06
442.043	885.06
442.264	868.06
442.486	860.06
442.707	882.06
442.928	854.06
443.149	876.06
443.371	882.06
443.592	924.06
443.813	928.06
444.034	894.06
444.255	891.06
444.476	942.06
444.698	897.06
444.919	912.06
445.14	1047.06
445.361	992.06
445.582	950.06
445.803	930.06
446.024	934.06
446.245	903.06
446.466	904.06
446.687	869.06
446.908	869.06
447.129	831.06
447.35	790.06
447.571	789.06
447.792	801.06
448.013	782.06
448.234	770.06
448.455	770.06
448.675	785.06
448.896	802.06
449.117	795.06
449.338	789.06
449.559	803.06
449.779	861.06
450	856.06
450.221	851.06
450.442	819.06
450.662	779.06
450.883	788.06
451.104	840.06
451.324	783.06
451.545	819.06
451.766	802.06
451.986	787.06
452.207	746.06
452.428	748.06
452.648	784.06
452.869	832.06
453.089	837.06
453.31	832.06
453.53	751.06
453.751	750.06
453.971	708.06
454.192	772.06
454.412	771.06
454.633	731.06
454.853	732.06
455.073	746.06
455.294	689.06
455.514	761.06
455.734	766.06
455.955	777.06
456.175	833.06
456.395	753.06
456.616	719.06
456.836	712.06
457.056	717.06
457.276	707.06
457.497	700.06
457.717	731.06
457.937	714.06
458.157	703.06
458.377	718.06
458.598	741.06
458.818	750.06
459.038	800.06
459.258	828.06
459.478	846.06
459.698	912.06
459.918	887.06
460.138	888.06
460.358	895.06
460.578	824.06
460.798	881.06
461.018	895.06
461.238	858.06
461.458	832.06
461.678	876.06
461.898	914.06
462.118	889.06
462.338	914.06
462.558	950.06
462.777	988.06
462.997	1008.06
463.217	990.06
463.437	1002.06
463.657	1009.06
463.876	942.06
464.096	967.06
464.316	945.06
464.536	935.06
464.755	978.06
464.975	1004.06
465.195	918.06
465.414	973.06
465.634	951.06
465.854	919.06
466.073	871.06
466.293	879.06
466.512	929.06
466.732	1008.06
466.951	1023.06
467.171	910.06
467.391	842.06
467.61	867.06
467.829	899.06
468.049	921.06
468.268	880.06
468.488	890.06
468.707	919.06
468.927	1047.06
469.146	1102.06
469.365	1024.06
469.585	934.06
469.804	981.06
470.023	1090.06
470.243	967.06
470.462	891.06
470.681	888.06
470.901	921.06
471.12	942.06
471.339	965.06
471.558	919.06
471.777	918.06
471.997	973.06
472.216	1114.06
472.435	1052.06
472.654	950.06
472.873	922.06
473.092	979.06
473.311	1023.06
473.53	966.06
473.749	942.06
473.968	984.06
474.187	963.06
474.406	940.06
474.625	894.06
474.844	938.06
475.063	1006.06
475.282	1000.06
475.501	1070.06
475.72	1100.06
475.939	1077.06
476.158	1083.06
476.377	1239.06
476.596	1450.06
476.814	1480.06
477.033	1223.06
477.252	1063.06
477.471	980.06
477.69	984.06
477.908	1117.06
478.127	1110.06
478.346	1042.06
478.564	1138.06
478.783	1088.06
479.002	1104.06
479.22	1252.06
479.439	1383.06
479.658	1214.06
479.876	1108.06
480.095	1188.06
480.313	1198.06
480.532	1080.06
480.751	1069.06
480.969	1091.06
481.188	1251.06
481.406	1298.06
481.624	1236.06
481.843	1154.06
482.061	1052.06
482.28	1162.06
482.498	1454.06
482.717	1330.06
482.935	1185.06
483.153	1144.06
483.372	1032.06
483.59	1062.06
483.808	1056.06
484.027	1021.06
484.245	974.06
484.463	976.06
484.681	999.06
484.9	1102.06
485.118	1166.06
485.336	1109.06
485.554	1038.06
485.772	1074.06
485.99	1180.06
486.209	1203.06
486.427	1219.06
486.645	1188.06
486.863	1250.06
487.081	1239.06
487.299	1359.06
487.517	1310.06
487.735	1187.06
487.953	1213.06
488.171	1252.06
488.389	1182.06
488.607	1090.06
488.825	1161.06
489.043	1249.06
489.261	1406.06
489.479	1540.06
489.696	1265.06
489.914	1189.06
490.132	1108.06
490.35	1099.06
490.568	1130.06
490.786	1124.06
491.003	1158.06
491.221	1157.06
491.439	1140.06
491.657	1130.06
491.874	1236.06
492.092	1491.06
492.31	1715.06
492.527	1715.06
492.745	1473.06
492.963	1312.06
493.18	1278.06
493.398	1266.06
493.615	1275.06
493.833	1244.06
494.05	1218.06
494.268	1245.06
494.485	1231.06
494.703	1205.06
494.92	1212.06
495.138	1224.06
495.355	1195.06
495.573	1215.06
495.79	1363.06
496.008	1737.06
496.225	1503.06
496.442	1367.06
496.66	1310.06
496.877	1382.06
497.094	1407.06
497.312	1310.06
497.529	1321.06
497.746	1324.06
497.963	1368.06
498.181	1440.06
498.398	1547.06
498.615	1652.06
498.832	1710.06
499.049	1716.06
499.267	1545.06
499.484	1537.06
499.701	1599.06
499.918	1746.06
500.135	1867.06
500.352	1866.06
500.569	1996.06
500.786	2011.06
501.003	1985.06
501.22	1836.06
501.437	1712.06
501.654	1643.06
501.871	1600.06
502.088	1657.06
502.305	1486.06
502.522	1472.06
502.739	1460.06
502.956	1374.06
503.172	1357.06
503.389	1299.06
503.606	1283.06
503.823	1275.06
504.04	1310.06
504.256	1294.06
504.473	1303.06
504.69	1351.06
504.907	1362.06
505.123	1349.06
505.34	1406.06
505.557	1408.06
505.773	1325.06
505.99	1263.06
506.207	1356.06
506.423	1263.06
506.64	1228.06
506.856	1208.06
507.073	1349.06
507.289	1327.06
507.506	1323.06
507.722	1428.06
507.939	1401.06
508.155	1434.06
508.372	1308.06
508.588	1274.06
508.805	1200.06
509.021	1196.06
509.238	1181.06
509.454	1180.06
509.67	1181.06
509.887	1183.06
510.103	1279.06
510.319	1297.06
510.536	1176.06
510.752	1056.06
510.968	1021.06
511.184	1020.06
511.401	1004.06
511.617	1028.06
511.833	1019.06
512.049	1033.06
512.265	1078.06
512.481	1128.06
512.698	1266.06
512.914	1331.06
513.13	1234.06
513.346	1116.06
513.562	1168.06
513.778	1150.06
513.994	1140.06
514.21	1232.06
514.426	1182.06
514.642	1125.06
514.858	1106.06
515.074	1179.06
515.29	1254.06
515.506	1418.06
515.721	1338.06
515.937	1244.06
516.153	1126.06
516.369	1173.06
516.585	1194.06
516.801	1374.06
517.016	1606.06
517.232	1551.06
517.448	1507.06
517.664	1309.06
517.879	1300.06
518.095	1262.06
518.311	1294.06
518.527	1319.06
518.742	1403.06
518.958	1457.06
519.173	1359.06
519.389	1332.06
519.605	1370.06
519.82	1445.06
520.036	1720.06
520.251	1682.06
520.467	1538.06
520.682	2298.06
520.898	2770.06
521.113	2675.06
521.329	1665.06
521.544	1510.06
521.76	1477.06
521.975	1326.06
522.19	1263.06
522.406	1330.06
522.621	1440.06
522.836	1502.06
523.052	1527.06
523.267	1266.06
523.482	1296.06
523.698	1352.06
523.913	1343.06
524.128	1212.06
524.343	1134.06
524.559	1185.06
524.774	1092.06
524.989	1128.06
525.204	1162.06
525.419	1307.06
525.634	1212.06
525.849	1243.06
526.064	1250.06
526.28	1236.06
526.495	1454.06
526.71	1500.06
526.925	1285.06
527.14	1391.06
527.355	1358.06
527.57	1131.06
527.785	1189.06
527.999	1111.06
528.214	1071.06
528.429	1058.06
528.644	1039.06
528.859	1007.06
529.074	987.06
529.289	995.06
529.503	1006.06
529.718	986.06
529.933	1150.06
530.148	1168.06
530.363	1026.06
530.577	979.06
530.792	978.06
531.007	964.06
531.221	966.06
531.436	960.06
531.651	999.06
531.865	1016.06
532.08	1013.06
532.295	991.06
532.509	992.06
532.724	1187.06
532.938	1289.06
533.153	1490.06
533.367	1191.06
533.582	1169.06
533.796	1083.06
534.011	1036.06
534.225	1052.06
534.44	1028.06
534.654	1083.06
534.868	1200.06
535.083	1109.06
535.297	990.06
535.511	1028.06
535.726	1142.06
535.94	1044.06
536.154	999.06
536.369	1002.06
536.583	982.06
536.797	1004.06
537.011	1036.06
537.225	1088.06
537.44	1134.06
537.654	1020.06
537.868	1003.06
538.082	1005.06
538.296	991.06
538.51	1033.06
538.724	1078.06
538.938	1038.06
539.153	979.06
539.367	967.06
539.581	994.06
539.795	1028.06
540.009	1119.06
540.222	1032.06
540.436	1040.06
540.65	1116.06
540.864	1177.06
541.078	1212.06
541.292	1324.06
541.506	1074.06
541.72	1052.06
541.934	1053.06
542.147	1032.06
542.361	1018.06
542.575	1073.06
542.789	1020.06
543.002	954.06
543.216	1047.06
543.43	936.06
543.644	924.06
543.857	902.06
544.071	944.06
544.285	925.06
544.498	930.06
544.712	905.06
544.925	980.06
545.139	931.06
545.352	923.06
545.566	900.06
545.779	1049.06
545.993	946.06
546.206	861.06
546.42	879.06
546.633	874.06
546.847	834.06
547.06	861.06
547.274	860.06
547.487	887.06
547.7	964.06
547.914	1013.06
548.127	1116.06
548.34	1055.06
548.554	959.06
548.767	1008.06
548.98	1029.06
549.193	976.06
549.407	996.06
549.62	1140.06
549.833	1094.06
550.046	1132.06
550.259	1160.06
550.473	1022.06
550.686	958.06
550.899	958.06
551.112	984.06
551.325	1060.06
551.538	1108.06
551.751	922.06
551.964	858.06
552.177	885.06
552.39	886.06
552.603	885.06
552.816	915.06
553.029	876.06
553.242	862.06
553.455	932.06
553.667	1015.06
553.88	970.06
554.093	896.06
554.306	851.06
554.519	822.06
554.732	780.06
554.944	774.06
555.157	779.06
555.37	762.06
555.583	746.06
555.795	794.06
556.008	799.06
556.221	811.06
556.433	807.06
556.646	776.06
556.859	782.06
557.071	819.06
557.284	798.06
557.496	806.06
557.709	790.06
557.921	732.06
558.134	746.06
558.346	721.06
558.559	722.06
558.771	765.06
558.984	818.06
559.196	764.06
559.409	734.06
559.621	682.06
559.833	726.06
560.046	722.06
560.258	711.06
560.47	723.06
560.683	720.06
560.895	703.06
561.107	669.06
561.32	666.06
561.532	686.06
561.744	761.06
561.956	782.06
562.168	688.06
562.381	700.06
562.593	716.06
562.805	716.06
563.017	680.06
563.229	649.06
563.441	671.06
563.653	689.06
563.865	684.06
564.077	694.06
564.289	659.06
564.501	708.06
564.713	736.06
564.925	724.06
565.137	660.06
565.349	677.06
565.561	694.06
565.773	700.06
565.985	701.06
566.197	803.06
566.408	822.06
566.62	863.06
566.832	843.06
567.044	810.06
567.255	910.06
567.467	986.06
567.679	889.06
567.891	876.06
568.102	875.06
568.314	889.06
568.526	831.06
568.737	826.06
568.949	864.06
569.161	772.06
569.372	702.06
569.584	693.06
569.795	658.06
570.007	710.06
570.218	740.06
570.43	703.06
570.641	700.06
570.853	638.06
571.064	658.06
571.276	689.06
571.487	696.06
571.698	657.06
571.91	674.06
572.121	672.06
572.333	613.06
572.544	603.06
572.755	608.06
572.966	591.06
573.178	601.06
573.389	608.06
573.6	643.06
573.811	624.06
574.023	572.06
574.234	562.06
574.445	591.06
574.656	564.06
574.867	568.06
575.078	553.06
575.289	561.06
575.501	640.06
575.712	590.06
575.923	552.06
576.134	549.06
576.345	564.06
576.556	557.06
576.767	550.06
576.978	494.06
577.188	516.06
577.399	522.06
577.61	519.06
577.821	528.06
578.032	513.06
578.243	549.06
578.454	565.06
578.665	553.06
578.875	546.06
579.086	541.06
579.297	559.06
579.508	546.06
579.718	540.06
579.929	541.06
580.14	517.06
580.35	521.06
580.561	471.06
580.772	462.06
580.982	455.06
581.193	472.06
581.403	469.06
581.614	477.06
581.825	452.06
582.035	479.06
582.246	449.06
582.456	466.06
582.667	485.06
582.877	458.06
583.087	454.06
583.298	448.06
583.508	439.06
583.719	446.06
583.929	461.06
584.139	437.06
584.35	462.06
584.56	466.06
584.77	474.06
584.981	477.06
585.191	484.06
585.401	465.06
585.611	469.06
585.821	485.06
586.032	491.06
586.242	456.06
586.452	478.06
586.662	479.06
586.872	473.06
587.082	504.06
587.292	501.06
587.502	459.06
587.713	454.06
587.923	454.06
588.133	507.06
588.343	474.06
588.553	460.06
588.762	459.06
588.972	474.06
589.182	450.06
589.392	460.06
589.602	440.06
589.812	481.06
590.022	512.06
590.232	496.06
590.441	445.06
590.651	434.06
590.861	442.06
591.071	456.06
591.281	450.06
591.49	442.06
591.7	451.06
591.91	453.06
592.119	443.06
592.329	466.06
592.539	474.06
592.748	482.06
592.958	443.06
593.167	463.06
593.377	484.06
593.587	494.06
593.796	478.06
594.006	456.06
594.215	494.06
594.424	480.06
594.634	486.06
594.843	478.06
595.053	446.06
595.262	458.06
595.472	442.06
595.681	438.06
595.89	424.06
596.1	443.06
596.309	441.06
596.518	434.06
596.727	412.06
596.937	419.06
597.146	433.06
597.355	478.06
597.564	420.06
597.774	422.06
597.983	406.06
598.192	408.06
598.401	406.06
598.61	396.06
598.819	391.06
599.028	386.06
599.237	405.06
599.446	389.06
599.655	377.06
599.864	362.06
600.073	399.06
600.282	372.06
600.491	359.06
600.7	380.06
600.909	395.06
601.118	385.06
601.327	374.06
601.536	380.06
601.745	388.06
601.953	367.06
602.162	386.06
602.371	399.06
602.58	384.06
602.789	371.06
602.997	359.06
603.206	376.06
603.415	364.06
603.623	354.06
603.832	356.06
604.041	355.06
604.249	341.06
604.458	373.06
604.666	355.06
604.875	338.06
605.084	348.06
605.292	355.06
605.501	356.06
605.709	357.06
605.918	363.06
606.126	365.06
606.334	351.06
606.543	349.06
606.751	368.06
606.96	359.06
607.168	342.06
607.376	347.06
607.585	342.06
607.793	335.06
608.001	350.06
608.21	359.06
608.418	358.06
608.626	342.06
608.834	349.06
609.043	341.06
609.251	347.06
609.459	333.06
609.667	329.06
609.875	321.06
610.083	343.06
610.291	357.06
610.499	350.06
610.707	328.06
610.916	325.06
611.124	326.06
611.332	325.06
611.54	335.06
611.748	329.06
611.955	311.06
612.163	320.06
612.371	331.06
612.579	314.06
612.787	341.06
612.995	300.06
613.203	343.06
613.411	312.06
613.618	328.06
613.826	326.06
614.034	346.06
614.242	318.06
614.449	326.06
614.657	323.06
614.865	314.06
615.072	302.06
615.28	317.06
615.488	302.06
615.695	311.06
615.903	324.06
616.111	327.06
616.318	325.06
616.526	323.06
616.733	338.06
616.941	327.06
617.148	316.06
617.356	324.06
617.563	305.06
617.771	312.06
617.978	316.06
618.185	312.06
618.393	299.06
618.6	324.06
618.807	291.06
619.015	319.06
619.222	303.06
619.429	332.06
619.637	303.06
619.844	304.06
620.051	295.06
620.258	313.06
620.466	285.06
620.673	300.06
620.88	282.06
621.087	276.06
621.294	304.06
621.501	284.06
621.708	280.06
621.915	283.06
622.122	290.06
622.329	292.06
622.536	303.06
622.743	278.06
622.95	282.06
623.157	279.06
623.364	292.06
623.571	291.06
623.778	276.06
623.985	308.06
624.192	298.06
624.399	282.06
624.606	295.06
624.812	277.06
625.019	303.06
625.226	304.06
625.433	322.06
625.639	287.06
625.846	271.06
626.053	269.06
626.259	264.06
626.466	293.06
626.673	289.06
626.879	284.06
627.086	278.06
627.293	259.06
627.499	282.06
627.706	268.06
627.912	252.06
628.119	274.06
628.325	263.06
628.532	260.06
628.738	264.06
628.945	263.06
629.151	255.06
629.357	259.06
629.564	257.06
629.77	262.06
629.976	251.06
630.183	257.06
630.389	265.06
630.595	268.06
630.802	264.06
631.008	243.06
631.214	252.06
631.42	248.06
631.627	252.06
631.833	260.06
632.039	246.06
632.245	234.06
632.451	250.06
632.657	257.06
632.863	248.06
633.069	224.06
633.275	232.06
633.481	226.06
633.688	237.06
633.893	248.06
634.099	241.06
634.305	213.06
634.511	252.06
634.717	244.06
634.923	242.06
635.129	229.06
635.335	230.06
635.541	207.06
635.747	237.06
635.952	239.06
636.158	237.06
636.364	250.06
636.57	218.06
636.775	224.06
636.981	220.06
637.187	220.06
637.392	235.06
637.598	203.06
637.804	222.06
638.009	230.06
638.215	244.06
638.421	208.06
638.626	215.06
638.832	218.06
639.037	221.06
639.243	210.06
639.448	238.06
639.654	224.06
639.859	222.06
640.065	226.06
640.27	229.06
640.475	220.06
640.681	203.06
640.886	229.06
641.091	244.06
641.297	210.06
641.502	219.06
641.707	220.06
641.913	222.06
642.118	211.06
642.323	233.06
642.528	219.06
642.733	221.06
642.939	212.06
643.144	215.06
643.349	219.06
643.554	211.06
643.759	219.06
643.964	204.06
644.169	201.06
644.374	210.06
644.579	219.06
644.784	197.06
644.989	227.06
645.194	207.06
645.399	196.06
645.604	197.06
645.809	207.06
646.014	214.06
646.219	192.06
646.423	204.06
646.628	206.06
646.833	220.06
647.038	207.06
647.243	204.06
647.447	218.06
647.652	209.06
647.857	191.06
648.062	206.06
648.266	204.06
648.471	192.06
648.676	202.06
648.88	200.06
649.085	211.06
649.289	206.06
649.494	213.06
649.698	230.06
649.903	213.06
650.107	197.06
650.312	210.06
650.516	181.06
650.721	178.06
650.925	185.06
651.13	164.06
651.334	185.06
651.539	178.06
651.743	182.06
651.947	188.06
652.152	172.06
652.356	196.06
652.56	186.06
652.764	167.06
652.969	158.06
653.173	175.06
653.377	156.06
653.581	160.06
653.785	149.06
653.99	170.06
654.194	163.06
654.398	144.06
654.602	155.06
654.806	145.06
655.01	163.06
655.214	160.06
655.418	156.06
655.622	155.06
655.826	150.06
656.03	168.06
656.234	169.06
656.438	165.06
656.642	163.06
656.846	159.06
657.049	137.06
657.253	156.06
657.457	144.06
657.661	129.06
657.865	142.06
658.068	122.06
658.272	122.06
658.476	119.06
658.68	114.06
658.883	108.06
659.087	113.06
659.291	114.06
659.494	116.06
659.698	125.06
659.901	112.06
660.105	106.06
660.309	85.06
660.512	100.06
660.716	98.06
660.919	97.06
661.123	99.06
661.326	87.06
661.53	86.06
661.733	90.06
661.936	91.06
662.14	78.06
662.343	100.06
662.546	85.06
662.75	89.06
662.953	80.06
663.156	88.06
663.36	80.06
663.563	93.06
663.766	73.06
663.969	80.06
664.173	81.06
664.376	83.06
664.579	70.06
664.782	97.06
664.985	81.06
665.188	71.06
665.391	81.06
665.594	80.06
665.797	81.06
666	81.06
666.203	75.06
666.406	81.06
666.609	89.06
666.812	72.06
667.015	83.06
667.218	75.06
667.421	74.06
667.624	88.06
667.827	82.06
668.03	72.06
668.232	87.06
668.435	82.06
668.638	70.06
668.841	84.06
669.043	86.06
669.246	71.06
669.449	72.06
669.651	81.06
669.854	80.06
670.057	79.06
670.259	76.06
670.462	76.06
670.665	85.06
670.867	92.06
671.07	81.06
671.272	64.06
671.475	68.06
671.677	84.06
671.88	88.06
672.082	74.06
672.284	88.06
672.487	79.06
672.689	106.06
672.892	78.06
