Data from NickelSpatula.Lamp.E10.P2_HRD10591_11-59-23-525.txt Node
Date: Tue Jul 23 11:59:23 EDT 2019
User: cochatt
Spectrometer: HR+D1059
Trigger mode: 1
Integration Time (sec): 1.000000E-1
Scans to average: 1
Electric dark correction enabled: true
Nonlinearity correction enabled: false
Boxcar width: 0
XAxis mode: Wavelengths
Number of Pixels in Spectrum: 2048
>>>>>Begin Spectral Data<<<<<
223.165	-12.12
223.4	-12.12
223.635	-12.12
223.869	-12.12
224.104	-19.12
224.338	-8.12
224.573	-8.12
224.808	-3.12
225.042	-9.12
225.277	-3.12
225.511	-10.12
225.746	-9.12
225.98	16.88
226.215	3.88
226.449	7.88
226.683	20.88
226.918	23.88
227.152	20.88
227.387	30.88
227.621	44.88
227.856	43.88
228.09	51.88
228.324	45.88
228.559	56.88
228.793	85.88
229.027	137.88
229.262	150.88
229.496	163.88
229.73	164.88
229.964	194.88
230.199	219.88
230.433	222.88
230.667	217.88
230.901	211.88
231.136	205.88
231.37	217.88
231.604	224.88
231.838	252.88
232.072	245.88
232.306	240.88
232.541	263.88
232.775	253.88
233.009	266.88
233.243	311.88
233.477	321.88
233.711	349.88
233.945	345.88
234.179	324.88
234.413	339.88
234.647	389.88
234.881	455.88
235.115	432.88
235.349	420.88
235.583	359.88
235.817	370.88
236.051	384.88
236.285	407.88
236.519	492.88
236.753	451.88
236.987	451.88
237.221	420.88
237.455	418.88
237.689	444.88
237.922	469.88
238.156	481.88
238.39	550.88
238.624	677.88
238.858	599.88
239.091	508.88
239.325	519.88
239.559	488.88
239.793	547.88
240.027	648.88
240.26	612.88
240.494	581.88
240.728	588.88
240.961	691.88
241.195	657.88
241.429	642.88
241.662	635.88
241.896	551.88
242.13	487.88
242.363	460.88
242.597	461.88
242.83	544.88
243.064	515.88
243.298	620.88
243.531	656.88
243.765	654.88
243.998	633.88
244.232	600.88
244.465	605.88
244.699	593.88
244.932	681.88
245.166	636.88
245.399	583.88
245.633	526.88
245.866	593.88
246.099	618.88
246.333	726.88
246.566	776.88
246.8	821.88
247.033	754.88
247.266	683.88
247.5	715.88
247.733	671.88
247.966	703.88
248.2	717.88
248.433	775.88
248.666	860.88
248.899	864.88
249.133	858.88
249.366	1013.88
249.599	1100.88
249.832	967.88
250.066	808.88
250.299	868.88
250.532	819.88
250.765	806.88
250.998	766.88
251.231	726.88
251.465	790.88
251.698	831.88
251.931	828.88
252.164	859.88
252.397	934.88
252.63	1092.88
252.863	1186.88
253.096	1243.88
253.329	1155.88
253.562	1119.88
253.795	1249.88
254.028	1425.88
254.261	1418.88
254.494	1261.88
254.727	1163.88
254.96	1131.88
255.193	1200.88
255.426	1145.88
255.659	873.88
255.892	828.88
256.124	877.88
256.357	1019.88
256.59	1244.88
256.823	1166.88
257.056	953.88
257.289	927.88
257.521	1003.88
257.754	1127.88
257.987	1302.88
258.22	1111.88
258.452	1025.88
258.685	1169.88
258.918	1270.88
259.151	1274.88
259.383	1304.88
259.616	1492.88
259.849	1585.88
260.081	1719.88
260.314	1941.88
260.547	1474.88
260.779	1487.88
261.012	1734.88
261.244	1644.88
261.477	1611.88
261.71	1551.88
261.942	1329.88
262.175	1297.88
262.407	1270.88
262.64	1292.88
262.872	1549.88
263.105	1659.88
263.337	1792.88
263.57	1572.88
263.802	1041.88
264.035	908.88
264.267	871.88
264.499	767.88
264.732	711.88
264.964	693.88
265.197	721.88
265.429	783.88
265.661	817.88
265.894	863.88
266.126	918.88
266.358	1042.88
266.591	1240.88
266.823	1504.88
267.055	1384.88
267.287	1263.88
267.52	1247.88
267.752	1308.88
267.984	1454.88
268.216	1379.88
268.448	1119.88
268.681	1111.88
268.913	1197.88
269.145	1294.88
269.377	1288.88
269.609	1308.88
269.841	1245.88
270.073	1279.88
270.306	1319.88
270.538	1380.88
270.77	1425.88
271.002	1407.88
271.234	1449.88
271.466	1497.88
271.698	1447.88
271.93	1436.88
272.162	1459.88
272.394	1415.88
272.626	1457.88
272.858	1497.88
273.09	1514.88
273.322	1361.88
273.553	1273.88
273.785	1536.88
274.017	2016.88
274.249	2526.88
274.481	2566.88
274.713	2766.88
274.945	3202.88
275.176	3343.88
275.408	2906.88
275.64	2687.88
275.872	2624.88
276.104	2217.88
276.335	1924.88
276.567	1918.88
276.799	2019.88
277.031	2061.88
277.262	1639.88
277.494	1275.88
277.726	1211.88
277.957	1329.88
278.189	1493.88
278.421	1488.88
278.652	1438.88
278.884	1419.88
279.115	1279.88
279.347	1225.88
279.579	1207.88
279.81	1231.88
280.042	1213.88
280.273	1279.88
280.505	1170.88
280.736	998.88
280.968	1009.88
281.199	1104.88
281.431	1245.88
281.662	1224.88
281.894	1183.88
282.125	1249.88
282.356	1363.88
282.588	1380.88
282.819	1243.88
283.051	1375.88
283.282	1691.88
283.513	1922.88
283.745	2192.88
283.976	2187.88
284.207	1987.88
284.439	2127.88
284.67	1987.88
284.901	1807.88
285.132	1947.88
285.364	2012.88
285.595	1849.88
285.826	1958.88
286.057	2086.88
286.288	1941.88
286.52	2033.88
286.751	2142.88
286.982	2145.88
287.213	1838.88
287.444	1757.88
287.675	1871.88
287.906	1836.88
288.138	1560.88
288.369	1376.88
288.6	1293.88
288.831	1341.88
289.062	1580.88
289.293	1722.88
289.524	1605.88
289.755	1616.88
289.986	1652.88
290.217	1432.88
290.448	1102.88
290.679	966.88
290.91	934.88
291.141	951.88
291.371	995.88
291.602	969.88
291.833	987.88
292.064	1049.88
292.295	1244.88
292.526	1399.88
292.757	1459.88
292.987	1596.88
293.218	1581.88
293.449	1586.88
293.68	1676.88
293.91	1557.88
294.141	1616.88
294.372	1511.88
294.603	1419.88
294.833	1575.88
295.064	1853.88
295.295	1732.88
295.525	1342.88
295.756	1174.88
295.987	1021.88
296.217	1023.88
296.448	1083.88
296.679	1141.88
296.909	1269.88
297.14	1341.88
297.37	1456.88
297.601	1421.88
297.831	1174.88
298.062	1243.88
298.292	1443.88
298.523	1594.88
298.753	1826.88
298.984	1607.88
299.214	1309.88
299.445	1077.88
299.675	1044.88
299.905	1061.88
300.136	1070.88
300.366	1202.88
300.597	1178.88
300.827	1041.88
301.057	1035.88
301.288	1035.88
301.518	1094.88
301.748	1240.88
301.979	1379.88
302.209	1522.88
302.439	1485.88
302.669	1294.88
302.9	1284.88
303.13	1165.88
303.36	1080.88
303.59	1057.88
303.82	1143.88
304.051	1240.88
304.281	1329.88
304.511	1292.88
304.741	1154.88
304.971	1232.88
305.201	1303.88
305.431	1214.88
305.661	1063.88
305.891	1075.88
306.121	1115.88
306.352	980.88
306.582	903.88
306.812	881.88
307.042	884.88
307.272	835.88
307.502	824.88
307.731	919.88
307.961	927.88
308.191	855.88
308.421	817.88
308.651	801.88
308.881	769.88
309.111	779.88
309.341	848.88
309.571	908.88
309.8	897.88
310.03	993.88
310.26	1052.88
310.49	997.88
310.72	887.88
310.949	857.88
311.179	859.88
311.409	931.88
311.639	1094.88
311.868	1403.88
312.098	1793.88
312.328	1937.88
312.557	1849.88
312.787	1915.88
313.017	1705.88
313.246	1781.88
313.476	1990.88
313.706	1650.88
313.935	1298.88
314.165	1075.88
314.394	953.88
314.624	972.88
314.853	1028.88
315.083	1043.88
315.312	1047.88
315.542	1024.88
315.771	960.88
316.001	869.88
316.23	867.88
316.46	825.88
316.689	861.88
316.919	897.88
317.148	899.88
317.377	867.88
317.607	911.88
317.836	961.88
318.065	1126.88
318.295	1257.88
318.524	1163.88
318.753	989.88
318.983	944.88
319.212	922.88
319.441	1003.88
319.67	1161.88
319.9	1243.88
320.129	1143.88
320.358	1007.88
320.587	938.88
320.816	1044.88
321.046	1203.88
321.275	1329.88
321.504	1363.88
321.733	1293.88
321.962	1265.88
322.191	1200.88
322.42	1141.88
322.649	1171.88
322.878	1277.88
323.108	1250.88
323.337	1133.88
323.566	1133.88
323.795	1073.88
324.024	1042.88
324.253	991.88
324.482	1000.88
324.71	1115.88
324.939	1256.88
325.168	1124.88
325.397	935.88
325.626	908.88
325.855	960.88
326.084	952.88
326.313	900.88
326.542	851.88
326.77	859.88
326.999	919.88
327.228	993.88
327.457	1027.88
327.686	1009.88
327.914	895.88
328.143	831.88
328.372	828.88
328.6	846.88
328.829	899.88
329.058	905.88
329.287	928.88
329.515	906.88
329.744	885.88
329.972	836.88
330.201	800.88
330.43	832.88
330.658	948.88
330.887	1096.88
331.115	1049.88
331.344	1006.88
331.572	963.88
331.801	901.88
332.03	868.88
332.258	883.88
332.486	968.88
332.715	990.88
332.943	931.88
333.172	904.88
333.4	926.88
333.629	1015.88
333.857	1122.88
334.085	1110.88
334.314	1122.88
334.542	1063.88
334.771	995.88
334.999	953.88
335.227	933.88
335.455	936.88
335.684	1022.88
335.912	1206.88
336.14	1315.88
336.369	1244.88
336.597	1227.88
336.825	1376.88
337.053	1520.88
337.281	1277.88
337.51	1019.88
337.738	1003.88
337.966	1060.88
338.194	1220.88
338.422	1132.88
338.65	943.88
338.878	888.88
339.106	919.88
339.334	1022.88
339.562	1097.88
339.79	981.88
340.018	1000.88
340.246	1060.88
340.474	1228.88
340.702	1312.88
340.93	1355.88
341.158	1343.88
341.386	1120.88
341.614	1127.88
341.842	1130.88
342.07	1143.88
342.298	1357.88
342.526	1395.88
342.754	1184.88
342.981	1131.88
343.209	1077.88
343.437	1153.88
343.665	1192.88
343.893	1194.88
344.12	1411.88
344.348	1686.88
344.576	1488.88
344.804	1236.88
345.031	1085.88
345.259	980.88
345.487	1030.88
345.714	1018.88
345.942	1138.88
346.17	1184.88
346.397	1160.88
346.625	1000.88
346.853	990.88
347.08	976.88
347.308	1043.88
347.535	1142.88
347.763	1147.88
347.99	1031.88
348.218	925.88
348.445	965.88
348.673	970.88
348.9	993.88
349.128	1077.88
349.355	1109.88
349.583	1108.88
349.81	1014.88
350.037	951.88
350.265	839.88
350.492	816.88
350.72	816.88
350.947	865.88
351.174	899.88
351.402	973.88
351.629	995.88
351.856	995.88
352.083	890.88
352.311	976.88
352.538	1125.88
352.765	1184.88
352.992	1081.88
353.22	1005.88
353.447	1047.88
353.674	983.88
353.901	1001.88
354.128	1029.88
354.355	1037.88
354.583	995.88
354.81	1015.88
355.037	1037.88
355.264	1050.88
355.491	1124.88
355.718	1240.88
355.945	1179.88
356.172	1149.88
356.399	1152.88
356.626	1353.88
356.853	1709.88
357.08	1799.88
357.307	1816.88
357.534	1422.88
357.761	1439.88
357.988	1797.88
358.215	2148.88
358.441	1987.88
358.668	1679.88
358.895	1547.88
359.122	1265.88
359.349	1241.88
359.576	1379.88
359.802	1115.88
360.029	992.88
360.256	1069.88
360.483	1315.88
360.709	1648.88
360.936	1702.88
361.163	1497.88
361.39	1125.88
361.616	1064.88
361.843	1277.88
362.07	1569.88
362.296	1418.88
362.523	1087.88
362.749	975.88
362.976	1011.88
363.203	1240.88
363.429	1423.88
363.656	1103.88
363.882	1040.88
364.109	1024.88
364.335	1017.88
364.562	1020.88
364.788	1166.88
365.015	1349.88
365.241	1245.88
365.468	987.88
365.694	852.88
365.92	827.88
366.147	771.88
366.373	817.88
366.599	784.88
366.826	827.88
367.052	845.88
367.278	844.88
367.505	851.88
367.731	906.88
367.957	1032.88
368.184	1092.88
368.41	1040.88
368.636	1067.88
368.862	1079.88
369.089	1033.88
369.315	958.88
369.541	930.88
369.767	882.88
369.993	875.88
370.219	862.88
370.445	966.88
370.672	1063.88
370.898	1147.88
371.124	1118.88
371.35	1008.88
371.576	905.88
371.802	1009.88
372.028	1181.88
372.254	1356.88
372.48	1166.88
372.706	1053.88
372.932	1135.88
373.158	1119.88
373.384	1403.88
373.61	1879.88
373.835	1947.88
374.061	1429.88
374.287	1235.88
374.513	1451.88
374.739	1717.88
374.965	1767.88
375.191	1703.88
375.416	1219.88
375.642	1056.88
375.868	1243.88
376.094	1397.88
376.319	1180.88
376.545	1360.88
376.771	1407.88
376.997	1228.88
377.222	883.88
377.448	773.88
377.674	771.88
377.899	765.88
378.125	789.88
378.35	769.88
378.576	782.88
378.802	882.88
379.027	945.88
379.253	898.88
379.478	939.88
379.704	1105.88
379.929	1119.88
380.155	1125.88
380.38	982.88
380.606	1027.88
380.831	1150.88
381.057	1043.88
381.282	1020.88
381.507	1226.88
381.733	1493.88
381.958	1600.88
382.184	1707.88
382.409	1760.88
382.634	1734.88
382.86	1824.88
383.085	1485.88
383.31	1179.88
383.535	1263.88
383.761	1274.88
383.986	1207.88
384.211	1479.88
384.436	1417.88
384.662	1069.88
384.887	1012.88
385.112	1048.88
385.337	1084.88
385.562	1051.88
385.787	1103.88
386.013	1265.88
386.238	1342.88
386.463	1051.88
386.688	1015.88
386.913	953.88
387.138	904.88
387.363	970.88
387.588	1043.88
387.813	1056.88
388.038	1160.88
388.263	992.88
388.488	999.88
388.713	1154.88
388.938	1263.88
389.163	1058.88
389.387	941.88
389.612	919.88
389.837	994.88
390.062	975.88
390.287	1032.88
390.512	1048.88
390.736	953.88
390.961	903.88
391.186	863.88
391.411	837.88
391.636	865.88
391.86	945.88
392.085	1033.88
392.31	1044.88
392.534	953.88
392.759	967.88
392.984	1031.88
393.208	1013.88
393.433	893.88
393.658	803.88
393.882	824.88
394.107	818.88
394.331	796.88
394.556	805.88
394.78	826.88
395.005	868.88
395.229	874.88
395.454	890.88
395.678	908.88
395.903	936.88
396.127	895.88
396.352	916.88
396.576	990.88
396.801	1039.88
397.025	1133.88
397.249	1164.88
397.474	940.88
397.698	927.88
397.922	1006.88
398.147	953.88
398.371	946.88
398.595	997.88
398.82	968.88
399.044	936.88
399.268	1031.88
399.492	1084.88
399.717	1068.88
399.941	1092.88
400.165	1056.88
400.389	1045.88
400.613	1045.88
400.837	1053.88
401.062	892.88
401.286	900.88
401.51	924.88
401.734	912.88
401.958	919.88
402.182	914.88
402.406	924.88
402.63	922.88
402.854	977.88
403.078	1104.88
403.302	1320.88
403.526	1348.88
403.75	1200.88
403.974	1082.88
404.198	1112.88
404.422	1265.88
404.645	1473.88
404.869	1618.88
405.093	1195.88
405.317	1008.88
405.541	992.88
405.765	1037.88
405.988	1019.88
406.212	1134.88
406.436	1333.88
406.66	1469.88
406.883	1120.88
407.107	1184.88
407.331	1430.88
407.555	1351.88
407.778	1141.88
408.002	1072.88
408.226	1062.88
408.449	1045.88
408.673	997.88
408.896	906.88
409.12	929.88
409.344	876.88
409.567	891.88
409.791	900.88
410.014	904.88
410.238	898.88
410.461	888.88
410.685	908.88
410.908	920.88
411.132	959.88
411.355	945.88
411.578	961.88
411.802	967.88
412.025	1023.88
412.249	1033.88
412.472	957.88
412.695	971.88
412.919	952.88
413.142	988.88
413.365	1067.88
413.589	1108.88
413.812	968.88
414.035	931.88
414.258	964.88
414.482	1064.88
414.705	1091.88
414.928	935.88
415.151	875.88
415.374	891.88
415.597	967.88
415.821	947.88
416.044	891.88
416.267	851.88
416.49	890.88
416.713	857.88
416.936	860.88
417.159	861.88
417.382	882.88
417.605	911.88
417.828	935.88
418.051	918.88
418.274	939.88
418.497	961.88
418.72	950.88
418.943	979.88
419.166	1025.88
419.389	1021.88
419.611	1033.88
419.834	1053.88
420.057	1142.88
420.28	1161.88
420.503	1060.88
420.726	909.88
420.948	881.88
421.171	910.88
421.394	908.88
421.617	885.88
421.839	895.88
422.062	928.88
422.285	946.88
422.507	944.88
422.73	971.88
422.953	975.88
423.175	977.88
423.398	958.88
423.621	1007.88
423.843	1088.88
424.066	984.88
424.288	958.88
424.511	959.88
424.733	912.88
424.956	963.88
425.178	1106.88
425.401	1263.88
425.623	1431.88
425.846	1155.88
426.068	1041.88
426.291	1160.88
426.513	1091.88
426.735	928.88
426.958	999.88
427.18	1219.88
427.402	1589.88
427.625	1528.88
427.847	1211.88
428.069	917.88
428.292	927.88
428.514	904.88
428.736	876.88
428.958	991.88
429.181	1167.88
429.403	1015.88
429.625	911.88
429.847	885.88
430.069	911.88
430.292	921.88
430.514	904.88
430.736	963.88
430.958	1230.88
431.18	1103.88
431.402	852.88
431.624	840.88
431.846	813.88
432.068	807.88
432.29	869.88
432.512	936.88
432.734	1266.88
432.956	1124.88
433.178	880.88
433.4	847.88
433.622	872.88
433.844	909.88
434.066	967.88
434.287	932.88
434.509	899.88
434.731	935.88
434.953	883.88
435.175	947.88
435.397	1063.88
435.618	909.88
435.84	847.88
436.062	838.88
436.284	840.88
436.505	807.88
436.727	786.88
436.949	799.88
437.17	847.88
437.392	855.88
437.614	838.88
437.835	821.88
438.057	875.88
438.278	1023.88
438.5	1478.88
438.721	1409.88
438.943	949.88
439.165	835.88
439.386	813.88
439.608	806.88
439.829	779.88
440.05	800.88
440.272	862.88
440.493	1051.88
440.715	1238.88
440.936	998.88
441.158	867.88
441.379	897.88
441.6	1003.88
441.822	1065.88
442.043	953.88
442.264	868.88
442.486	888.88
442.707	903.88
442.928	904.88
443.149	884.88
443.371	906.88
443.592	912.88
443.813	919.88
444.034	871.88
444.255	886.88
444.476	949.88
444.698	964.88
444.919	980.88
445.14	1071.88
445.361	1053.88
445.582	963.88
445.803	920.88
446.024	957.88
446.245	965.88
446.466	933.88
446.687	865.88
446.908	893.88
447.129	832.88
447.35	843.88
447.571	805.88
447.792	803.88
448.013	811.88
448.234	817.88
448.455	808.88
448.675	809.88
448.896	836.88
449.117	838.88
449.338	830.88
449.559	849.88
449.779	879.88
450	896.88
450.221	833.88
450.442	831.88
450.662	803.88
450.883	814.88
451.104	817.88
451.324	814.88
451.545	795.88
451.766	838.88
451.986	785.88
452.207	763.88
452.428	768.88
452.648	795.88
452.869	835.88
453.089	868.88
453.31	865.88
453.53	763.88
453.751	750.88
453.971	764.88
454.192	768.88
454.412	801.88
454.633	752.88
454.853	759.88
455.073	743.88
455.294	749.88
455.514	733.88
455.734	797.88
455.955	831.88
456.175	835.88
456.395	747.88
456.616	699.88
456.836	719.88
457.056	698.88
457.276	707.88
457.497	716.88
457.717	738.88
457.937	763.88
458.157	734.88
458.377	723.88
458.598	749.88
458.818	757.88
459.038	807.88
459.258	835.88
459.478	845.88
459.698	930.88
459.918	933.88
460.138	886.88
460.358	909.88
460.578	869.88
460.798	865.88
461.018	886.88
461.238	859.88
461.458	843.88
461.678	891.88
461.898	947.88
462.118	921.88
462.338	928.88
462.558	951.88
462.777	999.88
462.997	1031.88
463.217	988.88
463.437	1049.88
463.657	1005.88
463.876	958.88
464.096	946.88
464.316	959.88
464.536	979.88
464.755	1027.88
464.975	1021.88
465.195	981.88
465.414	1042.88
465.634	984.88
465.854	943.88
466.073	877.88
466.293	879.88
466.512	959.88
466.732	1027.88
466.951	1068.88
467.171	927.88
467.391	887.88
467.61	873.88
467.829	937.88
468.049	962.88
468.268	893.88
468.488	893.88
468.707	940.88
468.927	1111.88
469.146	1173.88
469.365	1051.88
469.585	971.88
469.804	1001.88
470.023	1127.88
470.243	1021.88
470.462	921.88
470.681	934.88
470.901	925.88
471.12	996.88
471.339	960.88
471.558	947.88
471.777	933.88
471.997	1008.88
472.216	1114.88
472.435	1099.88
472.654	982.88
472.873	956.88
473.092	1042.88
473.311	1038.88
473.53	954.88
473.749	954.88
473.968	1009.88
474.187	990.88
474.406	940.88
474.625	903.88
474.844	955.88
475.063	1071.88
475.282	1053.88
475.501	1085.88
475.72	1118.88
475.939	1112.88
476.158	1120.88
476.377	1292.88
476.596	1518.88
476.814	1525.88
477.033	1272.88
477.252	1081.88
477.471	989.88
477.69	1013.88
477.908	1103.88
478.127	1151.88
478.346	1058.88
478.564	1144.88
478.783	1110.88
479.002	1125.88
479.22	1325.88
479.439	1415.88
479.658	1222.88
479.876	1110.88
480.095	1182.88
480.313	1218.88
480.532	1149.88
480.751	1105.88
480.969	1156.88
481.188	1273.88
481.406	1300.88
481.624	1246.88
481.843	1136.88
482.061	1078.88
482.28	1229.88
482.498	1443.88
482.717	1371.88
482.935	1206.88
483.153	1137.88
483.372	1055.88
483.59	1057.88
483.808	1047.88
484.027	1058.88
484.245	1005.88
484.463	976.88
484.681	1070.88
484.9	1126.88
485.118	1192.88
485.336	1107.88
485.554	1036.88
485.772	1119.88
485.99	1187.88
486.209	1246.88
486.427	1227.88
486.645	1212.88
486.863	1249.88
487.081	1235.88
487.299	1421.88
487.517	1384.88
487.735	1260.88
487.953	1266.88
488.171	1297.88
488.389	1215.88
488.607	1103.88
488.825	1198.88
489.043	1285.88
489.261	1501.88
489.479	1631.88
489.696	1304.88
489.914	1181.88
490.132	1127.88
490.35	1138.88
490.568	1156.88
490.786	1160.88
491.003	1143.88
491.221	1168.88
491.439	1144.88
491.657	1159.88
491.874	1247.88
492.092	1552.88
492.31	1833.88
492.527	1800.88
492.745	1554.88
492.963	1326.88
493.18	1303.88
493.398	1289.88
493.615	1292.88
493.833	1275.88
494.05	1281.88
494.268	1286.88
494.485	1229.88
494.703	1192.88
494.92	1242.88
495.138	1195.88
495.355	1191.88
495.573	1279.88
495.79	1429.88
496.008	1943.88
496.225	1637.88
496.442	1402.88
496.66	1370.88
496.877	1464.88
497.094	1443.88
497.312	1354.88
497.529	1319.88
497.746	1338.88
497.963	1387.88
498.181	1517.88
498.398	1632.88
498.615	1653.88
498.832	1717.88
499.049	1704.88
499.267	1557.88
499.484	1556.88
499.701	1652.88
499.918	1776.88
500.135	1870.88
500.352	1891.88
500.569	2016.88
500.786	2064.88
501.003	2038.88
501.22	1845.88
501.437	1742.88
501.654	1701.88
501.871	1654.88
502.088	1656.88
502.305	1508.88
502.522	1531.88
502.739	1519.88
502.956	1413.88
503.172	1365.88
503.389	1349.88
503.606	1295.88
503.823	1286.88
504.04	1323.88
504.256	1348.88
504.473	1368.88
504.69	1420.88
504.907	1407.88
505.123	1403.88
505.34	1472.88
505.557	1463.88
505.773	1389.88
505.99	1289.88
506.207	1376.88
506.423	1318.88
506.64	1174.88
506.856	1260.88
507.073	1376.88
507.289	1364.88
507.506	1370.88
507.722	1421.88
507.939	1451.88
508.155	1471.88
508.372	1320.88
508.588	1289.88
508.805	1245.88
509.021	1237.88
509.238	1183.88
509.454	1183.88
509.67	1204.88
509.887	1211.88
510.103	1357.88
510.319	1345.88
510.536	1223.88
510.752	1122.88
510.968	1049.88
511.184	1035.88
511.401	1067.88
511.617	1025.88
511.833	1049.88
512.049	1060.88
512.265	1113.88
512.481	1115.88
512.698	1255.88
512.914	1372.88
513.13	1239.88
513.346	1147.88
513.562	1203.88
513.778	1166.88
513.994	1165.88
514.21	1265.88
514.426	1232.88
514.642	1188.88
514.858	1145.88
515.074	1191.88
515.29	1274.88
515.506	1401.88
515.721	1363.88
515.937	1260.88
516.153	1189.88
516.369	1201.88
516.585	1245.88
516.801	1438.88
517.016	1664.88
517.232	1612.88
517.448	1569.88
517.664	1384.88
517.879	1308.88
518.095	1275.88
518.311	1296.88
518.527	1350.88
518.742	1377.88
518.958	1497.88
519.173	1421.88
519.389	1377.88
519.605	1471.88
519.82	1503.88
520.036	1788.88
520.251	1729.88
520.467	1589.88
520.682	2494.88
520.898	3048.88
521.113	2856.88
521.329	1768.88
521.544	1543.88
521.76	1560.88
521.975	1379.88
522.19	1254.88
522.406	1350.88
522.621	1475.88
522.836	1540.88
523.052	1609.88
523.267	1307.88
523.482	1331.88
523.698	1455.88
523.913	1372.88
524.128	1257.88
524.343	1163.88
524.559	1175.88
524.774	1153.88
524.989	1207.88
525.204	1185.88
525.419	1329.88
525.634	1243.88
525.849	1263.88
526.064	1265.88
526.28	1291.88
526.495	1551.88
526.71	1572.88
526.925	1388.88
527.14	1435.88
527.355	1407.88
527.57	1167.88
527.785	1218.88
527.999	1160.88
528.214	1110.88
528.429	1113.88
528.644	1108.88
528.859	1031.88
529.074	1018.88
529.289	995.88
529.503	974.88
529.718	1031.88
529.933	1200.88
530.148	1227.88
530.363	1061.88
530.577	1025.88
530.792	1013.88
531.007	1030.88
531.221	996.88
531.436	980.88
531.651	999.88
531.865	1047.88
532.08	1058.88
532.295	999.88
532.509	1040.88
532.724	1217.88
532.938	1342.88
533.153	1573.88
533.367	1257.88
533.582	1201.88
533.796	1115.88
534.011	1070.88
534.225	1050.88
534.44	1082.88
534.654	1111.88
534.868	1269.88
535.083	1151.88
535.297	1075.88
535.511	1029.88
535.726	1178.88
535.94	1069.88
536.154	1021.88
536.369	1014.88
536.583	1032.88
536.797	1032.88
537.011	1070.88
537.225	1115.88
537.44	1206.88
537.654	1048.88
537.868	1032.88
538.082	1036.88
538.296	1028.88
538.51	1131.88
538.724	1159.88
538.938	1080.88
539.153	995.88
539.367	996.88
539.581	987.88
539.795	1048.88
540.009	1156.88
540.222	1090.88
540.436	1095.88
540.65	1179.88
540.864	1213.88
541.078	1239.88
541.292	1378.88
541.506	1143.88
541.72	1073.88
541.934	1067.88
542.147	1067.88
542.361	1072.88
542.575	1080.88
542.789	1044.88
543.002	978.88
543.216	1057.88
543.43	966.88
543.644	933.88
543.857	911.88
544.071	966.88
544.285	943.88
544.498	947.88
544.712	908.88
544.925	1019.88
545.139	936.88
545.352	899.88
545.566	909.88
545.779	1083.88
545.993	1009.88
546.206	896.88
546.42	878.88
546.633	869.88
546.847	874.88
547.06	859.88
547.274	857.88
547.487	912.88
547.7	976.88
547.914	1030.88
548.127	1123.88
548.34	1112.88
548.554	991.88
548.767	995.88
548.98	1083.88
549.193	985.88
549.407	1027.88
549.62	1199.88
549.833	1098.88
550.046	1176.88
550.259	1164.88
550.473	1035.88
550.686	997.88
550.899	1045.88
551.112	990.88
551.325	1065.88
551.538	1120.88
551.751	926.88
551.964	892.88
552.177	926.88
552.39	877.88
552.603	885.88
552.816	949.88
553.029	889.88
553.242	899.88
553.455	950.88
553.667	1044.88
553.88	978.88
554.093	904.88
554.306	840.88
554.519	776.88
554.732	790.88
554.944	785.88
555.157	775.88
555.37	797.88
555.583	758.88
555.795	778.88
556.008	814.88
556.221	820.88
556.433	803.88
556.646	794.88
556.859	817.88
557.071	834.88
557.284	840.88
557.496	852.88
557.709	838.88
557.921	779.88
558.134	762.88
558.346	740.88
558.559	728.88
558.771	767.88
558.984	857.88
559.196	768.88
559.409	758.88
559.621	709.88
559.833	708.88
560.046	751.88
560.258	725.88
560.47	751.88
560.683	724.88
560.895	690.88
561.107	672.88
561.32	685.88
561.532	680.88
561.744	800.88
561.956	828.88
562.168	712.88
562.381	715.88
562.593	733.88
562.805	720.88
563.017	705.88
563.229	688.88
563.441	690.88
563.653	680.88
563.865	715.88
564.077	717.88
564.289	681.88
564.501	728.88
564.713	742.88
564.925	743.88
565.137	698.88
565.349	676.88
565.561	689.88
565.773	723.88
565.985	739.88
566.197	788.88
566.408	851.88
566.62	865.88
566.832	837.88
567.044	842.88
567.255	888.88
567.467	982.88
567.679	887.88
567.891	865.88
568.102	879.88
568.314	908.88
568.526	832.88
568.737	819.88
568.949	877.88
569.161	748.88
569.372	722.88
569.584	689.88
569.795	713.88
570.007	693.88
570.218	751.88
570.43	714.88
570.641	680.88
570.853	675.88
571.064	645.88
571.276	676.88
571.487	714.88
571.698	679.88
571.91	667.88
572.121	668.88
572.333	641.88
572.544	613.88
572.755	627.88
572.966	608.88
573.178	616.88
573.389	632.88
573.6	646.88
573.811	637.88
574.023	589.88
574.234	588.88
574.445	586.88
574.656	561.88
574.867	581.88
575.078	576.88
575.289	604.88
575.501	636.88
575.712	591.88
575.923	560.88
576.134	552.88
576.345	526.88
576.556	601.88
576.767	525.88
576.978	531.88
577.188	516.88
577.399	511.88
577.61	535.88
577.821	528.88
578.032	549.88
578.243	585.88
578.454	584.88
578.665	567.88
578.875	556.88
579.086	576.88
579.297	558.88
579.508	563.88
579.718	564.88
579.929	548.88
580.14	536.88
580.35	508.88
580.561	492.88
580.772	488.88
580.982	488.88
581.193	497.88
581.403	487.88
581.614	472.88
581.825	476.88
582.035	494.88
582.246	457.88
582.456	473.88
582.667	468.88
582.877	471.88
583.087	459.88
583.298	481.88
583.508	458.88
583.719	472.88
583.929	457.88
584.139	475.88
584.35	432.88
584.56	484.88
584.77	481.88
584.981	483.88
585.191	464.88
585.401	457.88
585.611	482.88
585.821	498.88
586.032	487.88
586.242	483.88
586.452	512.88
586.662	473.88
586.872	469.88
587.082	481.88
587.292	469.88
587.502	455.88
587.713	471.88
587.923	472.88
588.133	486.88
588.343	479.88
588.553	461.88
588.762	457.88
588.972	443.88
589.182	463.88
589.392	453.88
589.602	456.88
589.812	469.88
590.022	537.88
590.232	511.88
590.441	483.88
590.651	455.88
590.861	475.88
591.071	459.88
591.281	449.88
591.49	441.88
591.7	461.88
591.91	440.88
592.119	441.88
592.329	432.88
592.539	460.88
592.748	456.88
592.958	457.88
593.167	485.88
593.377	482.88
593.587	506.88
593.796	497.88
594.006	478.88
594.215	478.88
594.424	480.88
594.634	512.88
594.843	470.88
595.053	468.88
595.262	467.88
595.472	427.88
595.681	418.88
595.89	433.88
596.1	427.88
596.309	451.88
596.518	422.88
596.727	422.88
596.937	417.88
597.146	436.88
597.355	449.88
597.564	434.88
597.774	420.88
597.983	405.88
598.192	411.88
598.401	385.88
598.61	401.88
598.819	408.88
599.028	390.88
599.237	398.88
599.446	382.88
599.655	379.88
599.864	370.88
600.073	363.88
600.282	383.88
600.491	386.88
600.7	396.88
600.909	375.88
601.118	391.88
601.327	385.88
601.536	386.88
601.745	401.88
601.953	408.88
602.162	383.88
602.371	424.88
602.58	411.88
602.789	386.88
602.997	394.88
603.206	384.88
603.415	382.88
603.623	348.88
603.832	353.88
604.041	374.88
604.249	391.88
604.458	381.88
604.666	373.88
604.875	325.88
605.084	343.88
605.292	360.88
605.501	368.88
605.709	387.88
605.918	361.88
606.126	332.88
606.334	359.88
606.543	345.88
606.751	353.88
606.96	361.88
607.168	371.88
607.376	343.88
607.585	354.88
607.793	357.88
608.001	355.88
608.21	359.88
608.418	375.88
608.626	354.88
608.834	361.88
609.043	348.88
609.251	358.88
609.459	336.88
609.667	349.88
609.875	347.88
610.083	353.88
610.291	356.88
610.499	355.88
610.707	332.88
610.916	343.88
611.124	332.88
611.332	349.88
611.54	315.88
611.748	336.88
611.955	322.88
612.163	345.88
612.371	333.88
612.579	336.88
612.787	328.88
612.995	326.88
613.203	308.88
613.411	328.88
613.618	332.88
613.826	353.88
614.034	348.88
614.242	328.88
614.449	311.88
614.657	343.88
614.865	324.88
615.072	340.88
615.28	326.88
615.488	307.88
615.695	328.88
615.903	338.88
616.111	334.88
616.318	339.88
616.526	326.88
616.733	325.88
616.941	324.88
617.148	324.88
617.356	301.88
617.563	325.88
617.771	314.88
617.978	310.88
618.185	306.88
618.393	304.88
618.6	298.88
618.807	302.88
619.015	320.88
619.222	308.88
619.429	321.88
619.637	320.88
619.844	293.88
620.051	285.88
620.258	297.88
620.466	316.88
620.673	296.88
620.88	299.88
621.087	277.88
621.294	286.88
621.501	268.88
621.708	311.88
621.915	302.88
622.122	315.88
622.329	304.88
622.536	286.88
622.743	307.88
622.95	292.88
623.157	310.88
623.364	315.88
623.571	327.88
623.778	300.88
623.985	305.88
624.192	309.88
624.399	295.88
624.606	292.88
624.812	320.88
625.019	307.88
625.226	307.88
625.433	305.88
625.639	292.88
625.846	273.88
626.053	261.88
626.259	277.88
626.466	296.88
626.673	301.88
626.879	281.88
627.086	273.88
627.293	275.88
627.499	297.88
627.706	280.88
627.912	277.88
628.119	269.88
628.325	273.88
628.532	261.88
628.738	267.88
628.945	252.88
629.151	267.88
629.357	256.88
629.564	260.88
629.77	256.88
629.976	246.88
630.183	266.88
630.389	269.88
630.595	264.88
630.802	262.88
631.008	255.88
631.214	259.88
631.42	263.88
631.627	242.88
631.833	243.88
632.039	248.88
632.245	251.88
632.451	248.88
632.657	241.88
632.863	263.88
633.069	244.88
633.275	233.88
633.481	228.88
633.688	230.88
633.893	253.88
634.099	237.88
634.305	229.88
634.511	234.88
634.717	235.88
634.923	236.88
635.129	233.88
635.335	238.88
635.541	236.88
635.747	243.88
635.952	227.88
636.158	227.88
636.364	241.88
636.57	239.88
636.775	241.88
636.981	243.88
637.187	238.88
637.392	226.88
637.598	231.88
637.804	217.88
638.009	233.88
638.215	225.88
638.421	234.88
638.626	219.88
638.832	224.88
639.037	221.88
639.243	222.88
639.448	230.88
639.654	241.88
639.859	237.88
640.065	245.88
640.27	247.88
640.475	253.88
640.681	232.88
640.886	237.88
641.091	224.88
641.297	209.88
641.502	227.88
641.707	227.88
641.913	213.88
642.118	204.88
642.323	220.88
642.528	227.88
642.733	201.88
642.939	229.88
643.144	208.88
643.349	219.88
643.554	214.88
643.759	208.88
643.964	207.88
644.169	220.88
644.374	209.88
644.579	220.88
644.784	193.88
644.989	218.88
645.194	202.88
645.399	208.88
645.604	205.88
645.809	212.88
646.014	220.88
646.219	211.88
646.423	211.88
646.628	208.88
646.833	209.88
647.038	216.88
647.243	212.88
647.447	203.88
647.652	195.88
647.857	226.88
648.062	217.88
648.266	205.88
648.471	211.88
648.676	217.88
648.88	208.88
649.085	204.88
649.289	202.88
649.494	205.88
649.698	223.88
649.903	215.88
650.107	215.88
650.312	205.88
650.516	212.88
650.721	191.88
650.925	208.88
651.13	180.88
651.334	179.88
651.539	186.88
651.743	188.88
651.947	196.88
652.152	188.88
652.356	181.88
652.56	171.88
652.764	188.88
652.969	177.88
653.173	165.88
653.377	171.88
653.581	160.88
653.785	171.88
653.99	155.88
654.194	154.88
654.398	174.88
654.602	173.88
654.806	163.88
655.01	160.88
655.214	141.88
655.418	143.88
655.622	147.88
655.826	157.88
656.03	160.88
656.234	152.88
656.438	163.88
656.642	150.88
656.846	155.88
657.049	156.88
657.253	152.88
657.457	157.88
657.661	125.88
657.865	137.88
658.068	129.88
658.272	117.88
658.476	131.88
658.68	129.88
658.883	99.88
659.087	123.88
659.291	101.88
659.494	106.88
659.698	114.88
659.901	109.88
660.105	104.88
660.309	112.88
660.512	102.88
660.716	103.88
660.919	94.88
661.123	102.88
661.326	108.88
661.53	93.88
661.733	98.88
661.936	93.88
662.14	117.88
662.343	85.88
662.546	99.88
662.75	96.88
662.953	99.88
663.156	84.88
663.36	83.88
663.563	78.88
663.766	99.88
663.969	83.88
664.173	87.88
664.376	85.88
664.579	88.88
664.782	99.88
664.985	79.88
665.188	82.88
665.391	78.88
665.594	91.88
665.797	79.88
666	95.88
666.203	81.88
666.406	77.88
666.609	83.88
666.812	85.88
667.015	79.88
667.218	79.88
667.421	78.88
667.624	85.88
667.827	80.88
668.03	77.88
668.232	78.88
668.435	68.88
668.638	67.88
668.841	85.88
669.043	86.88
669.246	72.88
669.449	73.88
669.651	94.88
669.854	82.88
670.057	88.88
670.259	84.88
670.462	84.88
670.665	71.88
670.867	76.88
671.07	89.88
671.272	69.88
671.475	92.88
671.677	74.88
671.88	86.88
672.082	87.88
672.284	81.88
672.487	82.88
672.689	70.88
672.892	84.88
