Data from NickelSpatula_HRD10591_16-34-48-126.txt Node
Date: Mon Jul 22 16:34:48 EDT 2019
User: cochatt
Spectrometer: HR+D1059
Trigger mode: 1
Integration Time (sec): 1.000000E-1
Scans to average: 1
Electric dark correction enabled: true
Nonlinearity correction enabled: false
Boxcar width: 0
XAxis mode: Wavelengths
Number of Pixels in Spectrum: 2048
>>>>>Begin Spectral Data<<<<<
223.165	-6.12
223.4	-6.12
223.635	-6.12
223.869	-14.12
224.104	-20.12
224.338	-20.12
224.573	-9.12
224.808	-11.12
225.042	-22.12
225.277	-0.12
225.511	3.88
225.746	8.88
225.98	-2.12
226.215	6.88
226.449	14.88
226.683	21.88
226.918	22.88
227.152	25.88
227.387	36.88
227.621	37.88
227.856	50.88
228.09	38.88
228.324	44.88
228.559	54.88
228.793	59.88
229.027	64.88
229.262	89.88
229.496	81.88
229.73	89.88
229.964	92.88
230.199	102.88
230.433	82.88
230.667	100.88
230.901	96.88
231.136	102.88
231.37	82.88
231.604	101.88
231.838	120.88
232.072	109.88
232.306	124.88
232.541	113.88
232.775	105.88
233.009	107.88
233.243	104.88
233.477	108.88
233.711	105.88
233.945	125.88
234.179	113.88
234.413	111.88
234.647	123.88
234.881	133.88
235.115	136.88
235.349	145.88
235.583	110.88
235.817	120.88
236.051	124.88
236.285	120.88
236.519	131.88
236.753	135.88
236.987	140.88
237.221	119.88
237.455	113.88
237.689	125.88
237.922	120.88
238.156	138.88
238.39	144.88
238.624	157.88
238.858	158.88
239.091	139.88
239.325	138.88
239.559	126.88
239.793	135.88
240.027	139.88
240.26	134.88
240.494	151.88
240.728	150.88
240.961	162.88
241.195	169.88
241.429	163.88
241.662	158.88
241.896	136.88
242.13	131.88
242.363	145.88
242.597	127.88
242.83	161.88
243.064	139.88
243.298	161.88
243.531	147.88
243.765	164.88
243.998	167.88
244.232	165.88
244.465	157.88
244.699	147.88
244.932	171.88
245.166	166.88
245.399	165.88
245.633	127.88
245.866	147.88
246.099	152.88
246.333	177.88
246.566	169.88
246.8	179.88
247.033	176.88
247.266	165.88
247.5	182.88
247.733	157.88
247.966	177.88
248.2	169.88
248.433	170.88
248.666	187.88
248.899	183.88
249.133	210.88
249.366	218.88
249.599	223.88
249.832	213.88
250.066	193.88
250.299	204.88
250.532	197.88
250.765	208.88
250.998	180.88
251.231	178.88
251.465	185.88
251.698	203.88
251.931	192.88
252.164	212.88
252.397	236.88
252.63	234.88
252.863	244.88
253.096	245.88
253.329	230.88
253.562	215.88
253.795	260.88
254.028	266.88
254.261	263.88
254.494	249.88
254.727	246.88
254.96	246.88
255.193	264.88
255.426	258.88
255.659	189.88
255.892	204.88
256.124	190.88
256.357	225.88
256.59	263.88
256.823	253.88
257.056	234.88
257.289	199.88
257.521	219.88
257.754	273.88
257.987	281.88
258.22	243.88
258.452	209.88
258.685	249.88
258.918	248.88
259.151	264.88
259.383	273.88
259.616	321.88
259.849	308.88
260.081	314.88
260.314	324.88
260.547	301.88
260.779	289.88
261.012	324.88
261.244	320.88
261.477	316.88
261.71	279.88
261.942	244.88
262.175	260.88
262.407	236.88
262.64	248.88
262.872	293.88
263.105	321.88
263.337	321.88
263.57	283.88
263.802	228.88
264.035	207.88
264.267	196.88
264.499	179.88
264.732	179.88
264.964	177.88
265.197	170.88
265.429	184.88
265.661	194.88
265.894	199.88
266.126	215.88
266.358	234.88
266.591	261.88
266.823	310.88
267.055	289.88
267.287	280.88
267.52	243.88
267.752	262.88
267.984	287.88
268.216	289.88
268.448	249.88
268.681	221.88
268.913	263.88
269.145	273.88
269.377	290.88
269.609	280.88
269.841	267.88
270.073	286.88
270.306	287.88
270.538	290.88
270.77	295.88
271.002	292.88
271.234	307.88
271.466	309.88
271.698	300.88
271.93	286.88
272.162	285.88
272.394	277.88
272.626	287.88
272.858	296.88
273.09	299.88
273.322	280.88
273.553	257.88
273.785	292.88
274.017	359.88
274.249	415.88
274.481	433.88
274.713	484.88
274.945	520.88
275.176	533.88
275.408	498.88
275.64	448.88
275.872	457.88
276.104	401.88
276.335	370.88
276.567	351.88
276.799	379.88
277.031	373.88
277.262	317.88
277.494	244.88
277.726	252.88
277.957	251.88
278.189	310.88
278.421	316.88
278.652	306.88
278.884	278.88
279.115	263.88
279.347	241.88
279.579	274.88
279.81	276.88
280.042	254.88
280.273	261.88
280.505	246.88
280.736	201.88
280.968	219.88
281.199	219.88
281.431	237.88
281.662	258.88
281.894	239.88
282.125	260.88
282.356	287.88
282.588	275.88
282.819	256.88
283.051	256.88
283.282	328.88
283.513	350.88
283.745	408.88
283.976	388.88
284.207	376.88
284.439	384.88
284.67	374.88
284.901	332.88
285.132	377.88
285.364	362.88
285.595	360.88
285.826	383.88
286.057	401.88
286.288	374.88
286.52	365.88
286.751	371.88
286.982	385.88
287.213	347.88
287.444	331.88
287.675	344.88
287.906	368.88
288.138	314.88
288.369	287.88
288.6	274.88
288.831	264.88
289.062	309.88
289.293	340.88
289.524	317.88
289.755	322.88
289.986	337.88
290.217	292.88
290.448	236.88
290.679	217.88
290.91	211.88
291.141	222.88
291.371	215.88
291.602	205.88
291.833	215.88
292.064	221.88
292.295	256.88
292.526	281.88
292.757	301.88
292.987	308.88
293.218	320.88
293.449	320.88
293.68	331.88
293.91	325.88
294.141	343.88
294.372	306.88
294.603	284.88
294.833	308.88
295.064	354.88
295.295	329.88
295.525	267.88
295.756	235.88
295.987	231.88
296.217	221.88
296.448	221.88
296.679	223.88
296.909	251.88
297.14	267.88
297.37	285.88
297.601	278.88
297.831	235.88
298.062	236.88
298.292	278.88
298.523	301.88
298.753	328.88
298.984	314.88
299.214	263.88
299.445	222.88
299.675	191.88
299.905	225.88
300.136	235.88
300.366	238.88
300.597	243.88
300.827	220.88
301.057	226.88
301.288	220.88
301.518	236.88
301.748	260.88
301.979	272.88
302.209	283.88
302.439	300.88
302.669	268.88
302.9	245.88
303.13	270.88
303.36	254.88
303.59	232.88
303.82	230.88
304.051	241.88
304.281	255.88
304.511	265.88
304.741	257.88
304.971	257.88
305.201	253.88
305.431	246.88
305.661	224.88
305.891	212.88
306.121	226.88
306.352	221.88
306.582	193.88
306.812	187.88
307.042	187.88
307.272	187.88
307.502	191.88
307.731	186.88
307.961	200.88
308.191	192.88
308.421	175.88
308.651	186.88
308.881	175.88
309.111	161.88
309.341	197.88
309.571	186.88
309.8	199.88
310.03	169.88
310.26	208.88
310.49	205.88
310.72	200.88
310.949	185.88
311.179	181.88
311.409	188.88
311.639	202.88
311.868	265.88
312.098	332.88
312.328	355.88
312.557	344.88
312.787	353.88
313.017	292.88
313.246	341.88
313.476	353.88
313.706	303.88
313.935	264.88
314.165	214.88
314.394	222.88
314.624	196.88
314.853	208.88
315.083	224.88
315.312	194.88
315.542	205.88
315.771	194.88
316.001	193.88
316.23	172.88
316.46	175.88
316.689	191.88
316.919	183.88
317.148	190.88
317.377	181.88
317.607	189.88
317.836	192.88
318.065	221.88
318.295	244.88
318.524	241.88
318.753	218.88
318.983	210.88
319.212	186.88
319.441	194.88
319.67	210.88
319.9	239.88
320.129	218.88
320.358	191.88
320.587	188.88
320.816	211.88
321.046	249.88
321.275	259.88
321.504	268.88
321.733	250.88
321.962	239.88
322.191	246.88
322.42	220.88
322.649	221.88
322.878	244.88
323.108	245.88
323.337	236.88
323.566	233.88
323.795	230.88
324.024	216.88
324.253	207.88
324.482	203.88
324.71	212.88
324.939	236.88
325.168	228.88
325.397	187.88
325.626	208.88
325.855	187.88
326.084	199.88
326.313	179.88
326.542	164.88
326.77	182.88
326.999	191.88
327.228	195.88
327.457	203.88
327.686	209.88
327.914	185.88
328.143	179.88
328.372	181.88
328.6	179.88
328.829	180.88
329.058	189.88
329.287	185.88
329.515	188.88
329.744	186.88
329.972	188.88
330.201	188.88
330.43	185.88
330.658	201.88
330.887	215.88
331.115	207.88
331.344	207.88
331.572	201.88
331.801	189.88
332.03	185.88
332.258	175.88
332.486	203.88
332.715	218.88
332.943	169.88
333.172	208.88
333.4	199.88
333.629	200.88
333.857	220.88
334.085	195.88
334.314	229.88
334.542	214.88
334.771	208.88
334.999	202.88
335.227	204.88
335.455	192.88
335.684	210.88
335.912	242.88
336.14	257.88
336.369	226.88
336.597	225.88
336.825	247.88
337.053	275.88
337.281	234.88
337.51	187.88
337.738	191.88
337.966	205.88
338.194	246.88
338.422	199.88
338.65	189.88
338.878	194.88
339.106	177.88
339.334	210.88
339.562	234.88
339.79	204.88
340.018	197.88
340.246	225.88
340.474	218.88
340.702	247.88
340.93	258.88
341.158	266.88
341.386	220.88
341.614	216.88
341.842	211.88
342.07	230.88
342.298	259.88
342.526	267.88
342.754	225.88
342.981	211.88
343.209	202.88
343.437	228.88
343.665	249.88
343.893	226.88
344.12	261.88
344.348	306.88
344.576	280.88
344.804	239.88
345.031	218.88
345.259	199.88
345.487	196.88
345.714	209.88
345.942	210.88
346.17	230.88
346.397	222.88
346.625	182.88
346.853	167.88
347.08	200.88
347.308	200.88
347.535	215.88
347.763	229.88
347.99	206.88
348.218	205.88
348.445	207.88
348.673	194.88
348.9	191.88
349.128	204.88
349.355	213.88
349.583	202.88
349.81	219.88
350.037	201.88
350.265	189.88
350.492	160.88
350.72	166.88
350.947	171.88
351.174	173.88
351.402	198.88
351.629	207.88
351.856	196.88
352.083	188.88
352.311	196.88
352.538	201.88
352.765	235.88
352.992	207.88
353.22	231.88
353.447	226.88
353.674	204.88
353.901	195.88
354.128	189.88
354.355	200.88
354.583	224.88
354.81	203.88
355.037	242.88
355.264	210.88
355.491	239.88
355.718	234.88
355.945	238.88
356.172	220.88
356.399	226.88
356.626	259.88
356.853	317.88
357.08	319.88
357.307	333.88
357.534	284.88
357.761	286.88
357.988	334.88
358.215	376.88
358.441	340.88
358.668	294.88
358.895	297.88
359.122	244.88
359.349	251.88
359.576	262.88
359.802	218.88
360.029	197.88
360.256	223.88
360.483	243.88
360.709	293.88
360.936	344.88
361.163	279.88
361.39	230.88
361.616	223.88
361.843	251.88
362.07	293.88
362.296	259.88
362.523	215.88
362.749	191.88
362.976	190.88
363.203	223.88
363.429	263.88
363.656	218.88
363.882	198.88
364.109	197.88
364.335	209.88
364.562	212.88
364.788	212.88
365.015	268.88
365.241	224.88
365.468	207.88
365.694	180.88
365.92	176.88
366.147	164.88
366.373	187.88
366.599	151.88
366.826	168.88
367.052	167.88
367.278	165.88
367.505	184.88
367.731	187.88
367.957	217.88
368.184	213.88
368.41	212.88
368.636	203.88
368.862	223.88
369.089	202.88
369.315	175.88
369.541	207.88
369.767	181.88
369.993	170.88
370.219	165.88
370.445	207.88
370.672	190.88
370.898	211.88
371.124	223.88
371.35	193.88
371.576	194.88
371.802	185.88
372.028	225.88
372.254	249.88
372.48	245.88
372.706	208.88
372.932	233.88
373.158	219.88
373.384	243.88
373.61	307.88
373.835	327.88
374.061	274.88
374.287	220.88
374.513	253.88
374.739	305.88
374.965	318.88
375.191	293.88
375.416	212.88
375.642	208.88
375.868	245.88
376.094	250.88
376.319	214.88
376.545	251.88
376.771	261.88
376.997	216.88
377.222	177.88
377.448	167.88
377.674	165.88
377.899	152.88
378.125	172.88
378.35	157.88
378.576	169.88
378.802	176.88
379.027	210.88
379.253	193.88
379.478	191.88
379.704	224.88
379.929	224.88
380.155	218.88
380.38	201.88
380.606	197.88
380.831	224.88
381.057	237.88
381.282	213.88
381.507	226.88
381.733	272.88
381.958	284.88
382.184	294.88
382.409	324.88
382.634	329.88
382.86	325.88
383.085	282.88
383.31	257.88
383.535	258.88
383.761	261.88
383.986	240.88
384.211	260.88
384.436	265.88
384.662	218.88
384.887	205.88
385.112	216.88
385.337	231.88
385.562	205.88
385.787	210.88
386.013	239.88
386.238	225.88
386.463	223.88
386.688	203.88
386.913	183.88
387.138	177.88
387.363	190.88
387.588	204.88
387.813	206.88
388.038	214.88
388.263	207.88
388.488	188.88
388.713	218.88
388.938	241.88
389.163	225.88
389.387	202.88
389.612	178.88
389.837	194.88
390.062	207.88
390.287	224.88
390.512	216.88
390.736	203.88
390.961	188.88
391.186	203.88
391.411	182.88
391.636	183.88
391.86	192.88
392.085	219.88
392.31	236.88
392.534	206.88
392.759	188.88
392.984	204.88
393.208	209.88
393.433	196.88
393.658	177.88
393.882	161.88
394.107	163.88
394.331	180.88
394.556	171.88
394.78	186.88
395.005	167.88
395.229	175.88
395.454	182.88
395.678	177.88
395.903	185.88
396.127	184.88
396.352	183.88
396.576	189.88
396.801	203.88
397.025	236.88
397.249	233.88
397.474	191.88
397.698	195.88
397.922	202.88
398.147	199.88
398.371	179.88
398.595	219.88
398.82	208.88
399.044	198.88
399.268	215.88
399.492	230.88
399.717	218.88
399.941	237.88
400.165	222.88
400.389	215.88
400.613	182.88
400.837	204.88
401.062	188.88
401.286	173.88
401.51	189.88
401.734	196.88
401.958	179.88
402.182	193.88
402.406	197.88
402.63	188.88
402.854	204.88
403.078	239.88
403.302	287.88
403.526	306.88
403.75	259.88
403.974	233.88
404.198	231.88
404.422	271.88
404.645	265.88
404.869	288.88
405.093	223.88
405.317	221.88
405.541	188.88
405.765	220.88
405.988	226.88
406.212	229.88
406.436	253.88
406.66	269.88
406.883	236.88
407.107	216.88
407.331	275.88
407.555	242.88
407.778	241.88
408.002	208.88
408.226	213.88
408.449	228.88
408.673	217.88
408.896	196.88
409.12	193.88
409.344	190.88
409.567	185.88
409.791	201.88
410.014	187.88
410.238	177.88
410.461	185.88
410.685	179.88
410.908	191.88
411.132	178.88
411.355	182.88
411.578	195.88
411.802	196.88
412.025	200.88
412.249	193.88
412.472	204.88
412.695	197.88
412.919	188.88
413.142	210.88
413.365	217.88
413.589	205.88
413.812	198.88
414.035	197.88
414.258	169.88
414.482	224.88
414.705	223.88
414.928	203.88
415.151	196.88
415.374	186.88
415.597	188.88
415.821	195.88
416.044	185.88
416.267	164.88
416.49	173.88
416.713	162.88
416.936	171.88
417.159	170.88
417.382	199.88
417.605	207.88
417.828	195.88
418.051	199.88
418.274	209.88
418.497	192.88
418.72	193.88
418.943	205.88
419.166	208.88
419.389	219.88
419.611	204.88
419.834	198.88
420.057	236.88
420.28	235.88
420.503	210.88
420.726	196.88
420.948	182.88
421.171	192.88
421.394	190.88
421.617	181.88
421.839	184.88
422.062	192.88
422.285	195.88
422.507	208.88
422.73	211.88
422.953	206.88
423.175	193.88
423.398	193.88
423.621	210.88
423.843	238.88
424.066	212.88
424.288	185.88
424.511	183.88
424.733	191.88
424.956	204.88
425.178	224.88
425.401	264.88
425.623	298.88
425.846	250.88
426.068	199.88
426.291	232.88
426.513	230.88
426.735	191.88
426.958	210.88
427.18	218.88
427.402	315.88
427.625	301.88
427.847	243.88
428.069	197.88
428.292	215.88
428.514	196.88
428.736	183.88
428.958	201.88
429.181	241.88
429.403	221.88
429.625	211.88
429.847	207.88
430.069	181.88
430.292	185.88
430.514	172.88
430.736	195.88
430.958	236.88
431.18	205.88
431.402	189.88
431.624	165.88
431.846	167.88
432.068	163.88
432.29	161.88
432.512	184.88
432.734	255.88
432.956	223.88
433.178	185.88
433.4	184.88
433.622	180.88
433.844	189.88
434.066	215.88
434.287	203.88
434.509	198.88
434.731	202.88
434.953	175.88
435.175	202.88
435.397	234.88
435.618	190.88
435.84	167.88
436.062	182.88
436.284	182.88
436.505	177.88
436.727	164.88
436.949	166.88
437.17	179.88
437.392	183.88
437.614	171.88
437.835	172.88
438.057	167.88
438.278	194.88
438.5	248.88
438.721	254.88
438.943	204.88
439.165	181.88
439.386	165.88
439.608	174.88
439.829	169.88
440.05	179.88
440.272	170.88
440.493	203.88
440.715	232.88
440.936	216.88
441.158	166.88
441.379	202.88
441.6	216.88
441.822	214.88
442.043	185.88
442.264	201.88
442.486	186.88
442.707	189.88
442.928	164.88
443.149	189.88
443.371	200.88
443.592	196.88
443.813	206.88
444.034	200.88
444.255	187.88
444.476	195.88
444.698	196.88
444.919	191.88
445.14	327.88
445.361	288.88
445.582	202.88
445.803	200.88
446.024	226.88
446.245	202.88
446.466	202.88
446.687	192.88
446.908	181.88
447.129	185.88
447.35	180.88
447.571	168.88
447.792	179.88
448.013	171.88
448.234	166.88
448.455	168.88
448.675	158.88
448.896	160.88
449.117	165.88
449.338	179.88
449.559	187.88
449.779	169.88
450	188.88
450.221	172.88
450.442	179.88
450.662	179.88
450.883	172.88
451.104	185.88
451.324	160.88
451.545	183.88
451.766	172.88
451.986	147.88
452.207	165.88
452.428	163.88
452.648	171.88
452.869	192.88
453.089	194.88
453.31	203.88
453.53	156.88
453.751	161.88
453.971	167.88
454.192	163.88
454.412	179.88
454.633	172.88
454.853	189.88
455.073	165.88
455.294	171.88
455.514	172.88
455.734	171.88
455.955	182.88
456.175	175.88
456.395	144.88
456.616	154.88
456.836	171.88
457.056	154.88
457.276	156.88
457.497	145.88
457.717	156.88
457.937	153.88
458.157	158.88
458.377	148.88
458.598	158.88
458.818	161.88
459.038	176.88
459.258	182.88
459.478	181.88
459.698	171.88
459.918	200.88
460.138	184.88
460.358	199.88
460.578	182.88
460.798	192.88
461.018	200.88
461.238	200.88
461.458	193.88
461.678	198.88
461.898	189.88
462.118	189.88
462.338	198.88
462.558	196.88
462.777	208.88
462.997	215.88
463.217	222.88
463.437	199.88
463.657	197.88
463.876	216.88
464.096	210.88
464.316	203.88
464.536	209.88
464.755	235.88
464.975	233.88
465.195	201.88
465.414	216.88
465.634	204.88
465.854	198.88
466.073	170.88
466.293	165.88
466.512	186.88
466.732	202.88
466.951	207.88
467.171	189.88
467.391	190.88
467.61	169.88
467.829	189.88
468.049	184.88
468.268	173.88
468.488	177.88
468.707	194.88
468.927	178.88
469.146	211.88
469.365	190.88
469.585	203.88
469.804	212.88
470.023	206.88
470.243	207.88
470.462	178.88
470.681	205.88
470.901	198.88
471.12	197.88
471.339	188.88
471.558	194.88
471.777	196.88
471.997	193.88
472.216	224.88
472.435	214.88
472.654	209.88
472.873	195.88
473.092	202.88
473.311	215.88
473.53	199.88
473.749	188.88
473.968	196.88
474.187	207.88
474.406	197.88
474.625	188.88
474.844	187.88
475.063	203.88
475.282	220.88
475.501	209.88
475.72	261.88
475.939	259.88
476.158	211.88
476.377	244.88
476.596	283.88
476.814	277.88
477.033	268.88
477.252	216.88
477.471	197.88
477.69	203.88
477.908	210.88
478.127	209.88
478.346	223.88
478.564	273.88
478.783	241.88
479.002	218.88
479.22	252.88
479.439	264.88
479.658	237.88
479.876	221.88
480.095	224.88
480.313	233.88
480.532	230.88
480.751	235.88
480.969	220.88
481.188	236.88
481.406	237.88
481.624	230.88
481.843	203.88
482.061	193.88
482.28	231.88
482.498	286.88
482.717	303.88
482.935	252.88
483.153	240.88
483.372	210.88
483.59	220.88
483.808	201.88
484.027	202.88
484.245	190.88
484.463	200.88
484.681	204.88
484.9	209.88
485.118	233.88
485.336	210.88
485.554	210.88
485.772	206.88
485.99	216.88
486.209	235.88
486.427	241.88
486.645	241.88
486.863	226.88
487.081	233.88
487.299	265.88
487.517	259.88
487.735	228.88
487.953	225.88
488.171	264.88
488.389	241.88
488.607	211.88
488.825	231.88
489.043	263.88
489.261	311.88
489.479	322.88
489.696	258.88
489.914	232.88
490.132	211.88
490.35	202.88
490.568	215.88
490.786	216.88
491.003	210.88
491.221	221.88
491.439	203.88
491.657	225.88
491.874	225.88
492.092	278.88
492.31	367.88
492.527	342.88
492.745	291.88
492.963	269.88
493.18	252.88
493.398	236.88
493.615	241.88
493.833	236.88
494.05	243.88
494.268	226.88
494.485	247.88
494.703	228.88
494.92	219.88
495.138	218.88
495.355	242.88
495.573	234.88
495.79	267.88
496.008	387.88
496.225	298.88
496.442	243.88
496.66	253.88
496.877	268.88
497.094	252.88
497.312	244.88
497.529	252.88
497.746	252.88
497.963	250.88
498.181	259.88
498.398	293.88
498.615	285.88
498.832	324.88
499.049	327.88
499.267	306.88
499.484	297.88
499.701	309.88
499.918	328.88
500.135	357.88
500.352	377.88
500.569	385.88
500.786	391.88
501.003	374.88
501.22	340.88
501.437	341.88
501.654	314.88
501.871	312.88
502.088	299.88
502.305	277.88
502.522	294.88
502.739	296.88
502.956	255.88
503.172	273.88
503.389	259.88
503.606	240.88
503.823	241.88
504.04	257.88
504.256	269.88
504.473	259.88
504.69	257.88
504.907	263.88
505.123	277.88
505.34	273.88
505.557	281.88
505.773	256.88
505.99	234.88
506.207	251.88
506.423	250.88
506.64	235.88
506.856	239.88
507.073	259.88
507.289	261.88
507.506	258.88
507.722	281.88
507.939	249.88
508.155	288.88
508.372	249.88
508.588	251.88
508.805	245.88
509.021	231.88
509.238	217.88
509.454	219.88
509.67	228.88
509.887	227.88
510.103	249.88
510.319	251.88
510.536	233.88
510.752	212.88
510.968	228.88
511.184	210.88
511.401	200.88
511.617	196.88
511.833	207.88
512.049	224.88
512.265	229.88
512.481	225.88
512.698	244.88
512.914	249.88
513.13	245.88
513.346	234.88
513.562	234.88
513.778	236.88
513.994	243.88
514.21	253.88
514.426	232.88
514.642	222.88
514.858	217.88
515.074	218.88
515.29	265.88
515.506	285.88
515.721	266.88
515.937	251.88
516.153	227.88
516.369	219.88
516.585	229.88
516.801	273.88
517.016	334.88
517.232	308.88
517.448	297.88
517.664	242.88
517.879	273.88
518.095	248.88
518.311	257.88
518.527	282.88
518.742	267.88
518.958	272.88
519.173	277.88
519.389	266.88
519.605	282.88
519.82	260.88
520.036	314.88
520.251	290.88
520.467	331.88
520.682	511.88
520.898	600.88
521.113	595.88
521.329	348.88
521.544	292.88
521.76	290.88
521.975	249.88
522.19	279.88
522.406	259.88
522.621	269.88
522.836	289.88
523.052	328.88
523.267	247.88
523.482	276.88
523.698	280.88
523.913	265.88
524.128	236.88
524.343	226.88
524.559	243.88
524.774	226.88
524.989	239.88
525.204	227.88
525.419	251.88
525.634	238.88
525.849	253.88
526.064	256.88
526.28	260.88
526.495	288.88
526.71	320.88
526.925	282.88
527.14	305.88
527.355	300.88
527.57	259.88
527.785	269.88
527.999	234.88
528.214	232.88
528.429	244.88
528.644	229.88
528.859	210.88
529.074	200.88
529.289	215.88
529.503	209.88
529.718	217.88
529.933	296.88
530.148	311.88
530.363	239.88
530.577	226.88
530.792	214.88
531.007	221.88
531.221	189.88
531.436	197.88
531.651	227.88
531.865	211.88
532.08	205.88
532.295	214.88
532.509	209.88
532.724	252.88
532.938	290.88
533.153	352.88
533.367	255.88
533.582	228.88
533.796	239.88
534.011	218.88
534.225	239.88
534.44	221.88
534.654	234.88
534.868	301.88
535.083	265.88
535.297	230.88
535.511	227.88
535.726	224.88
535.94	221.88
536.154	197.88
536.369	197.88
536.583	217.88
536.797	227.88
537.011	229.88
537.225	236.88
537.44	253.88
537.654	207.88
537.868	216.88
538.082	228.88
538.296	220.88
538.51	219.88
538.724	255.88
538.938	232.88
539.153	199.88
539.367	208.88
539.581	218.88
539.795	227.88
540.009	252.88
540.222	217.88
540.436	228.88
540.65	250.88
540.864	248.88
541.078	251.88
541.292	311.88
541.506	235.88
541.72	223.88
541.934	225.88
542.147	213.88
542.361	235.88
542.575	223.88
542.789	203.88
543.002	196.88
543.216	226.88
543.43	198.88
543.644	211.88
543.857	192.88
544.071	197.88
544.285	198.88
544.498	206.88
544.712	201.88
544.925	228.88
545.139	215.88
545.352	175.88
545.566	193.88
545.779	241.88
545.993	196.88
546.206	191.88
546.42	195.88
546.633	187.88
546.847	191.88
547.06	185.88
547.274	193.88
547.487	183.88
547.7	185.88
547.914	212.88
548.127	218.88
548.34	211.88
548.554	199.88
548.767	211.88
548.98	225.88
549.193	212.88
549.407	192.88
549.62	223.88
549.833	215.88
550.046	223.88
550.259	216.88
550.473	214.88
550.686	218.88
550.899	217.88
551.112	198.88
551.325	209.88
551.538	217.88
551.751	202.88
551.964	186.88
552.177	185.88
552.39	187.88
552.603	191.88
552.816	218.88
553.029	188.88
553.242	198.88
553.455	198.88
553.667	221.88
553.88	213.88
554.093	198.88
554.306	181.88
554.519	172.88
554.732	183.88
554.944	164.88
555.157	161.88
555.37	189.88
555.583	186.88
555.795	172.88
556.008	163.88
556.221	190.88
556.433	179.88
556.646	174.88
556.859	164.88
557.071	189.88
557.284	175.88
557.496	188.88
557.709	178.88
557.921	176.88
558.134	170.88
558.346	170.88
558.559	183.88
558.771	168.88
558.984	188.88
559.196	187.88
559.409	168.88
559.621	164.88
559.833	164.88
560.046	176.88
560.258	159.88
560.47	165.88
560.683	173.88
560.895	162.88
561.107	149.88
561.32	173.88
561.532	160.88
561.744	177.88
561.956	194.88
562.168	180.88
562.381	179.88
562.593	172.88
562.805	179.88
563.017	173.88
563.229	175.88
563.441	160.88
563.653	149.88
563.865	171.88
564.077	166.88
564.289	165.88
564.501	161.88
564.713	180.88
564.925	165.88
565.137	154.88
565.349	160.88
565.561	162.88
565.773	172.88
565.985	171.88
566.197	175.88
566.408	192.88
566.62	190.88
566.832	193.88
567.044	184.88
567.255	198.88
567.467	219.88
567.679	199.88
567.891	233.88
568.102	218.88
568.314	217.88
568.526	201.88
568.737	181.88
568.949	198.88
569.161	179.88
569.372	187.88
569.584	180.88
569.795	181.88
570.007	166.88
570.218	191.88
570.43	179.88
570.641	166.88
570.853	163.88
571.064	161.88
571.276	162.88
571.487	181.88
571.698	170.88
571.91	153.88
572.121	169.88
572.333	151.88
572.544	140.88
572.755	154.88
572.966	156.88
573.178	156.88
573.389	171.88
573.6	151.88
573.811	162.88
574.023	149.88
574.234	136.88
574.445	151.88
574.656	159.88
574.867	141.88
575.078	154.88
575.289	143.88
575.501	170.88
575.712	156.88
575.923	145.88
576.134	153.88
576.345	153.88
576.556	144.88
576.767	139.88
576.978	129.88
577.188	144.88
577.399	147.88
577.61	140.88
577.821	138.88
578.032	119.88
578.243	152.88
578.454	167.88
578.665	146.88
578.875	176.88
579.086	150.88
579.297	147.88
579.508	148.88
579.718	143.88
579.929	133.88
580.14	125.88
580.35	148.88
580.561	141.88
580.772	134.88
580.982	124.88
581.193	138.88
581.403	138.88
581.614	123.88
581.825	131.88
582.035	144.88
582.246	152.88
582.456	137.88
582.667	128.88
582.877	129.88
583.087	123.88
583.298	140.88
583.508	135.88
583.719	130.88
583.929	138.88
584.139	133.88
584.35	131.88
584.56	132.88
584.77	125.88
584.981	142.88
585.191	143.88
585.401	141.88
585.611	125.88
585.821	146.88
586.032	132.88
586.242	134.88
586.452	125.88
586.662	135.88
586.872	135.88
587.082	143.88
587.292	139.88
587.502	140.88
587.713	142.88
587.923	136.88
588.133	137.88
588.343	136.88
588.553	132.88
588.762	131.88
588.972	146.88
589.182	137.88
589.392	146.88
589.602	135.88
589.812	139.88
590.022	136.88
590.232	129.88
590.441	135.88
590.651	125.88
590.861	144.88
591.071	138.88
591.281	136.88
591.49	130.88
591.7	140.88
591.91	158.88
592.119	136.88
592.329	154.88
592.539	137.88
592.748	140.88
592.958	143.88
593.167	131.88
593.377	143.88
593.587	131.88
593.796	128.88
594.006	142.88
594.215	147.88
594.424	148.88
594.634	160.88
594.843	126.88
595.053	127.88
595.262	139.88
595.472	133.88
595.681	128.88
595.89	147.88
596.1	137.88
596.309	145.88
596.518	124.88
596.727	141.88
596.937	133.88
597.146	139.88
597.355	125.88
597.564	132.88
597.774	133.88
597.983	121.88
598.192	134.88
598.401	119.88
598.61	120.88
598.819	120.88
599.028	119.88
599.237	123.88
599.446	106.88
599.655	122.88
599.864	128.88
600.073	111.88
600.282	126.88
600.491	113.88
600.7	131.88
600.909	120.88
601.118	117.88
601.327	116.88
601.536	132.88
601.745	127.88
601.953	130.88
602.162	123.88
602.371	133.88
602.58	149.88
602.789	127.88
602.997	134.88
603.206	137.88
603.415	124.88
603.623	101.88
603.832	127.88
604.041	111.88
604.249	122.88
604.458	127.88
604.666	119.88
604.875	135.88
605.084	122.88
605.292	129.88
605.501	128.88
605.709	120.88
605.918	125.88
606.126	102.88
606.334	113.88
606.543	108.88
606.751	131.88
606.96	133.88
607.168	117.88
607.376	127.88
607.585	122.88
607.793	131.88
608.001	121.88
608.21	100.88
608.418	108.88
608.626	124.88
608.834	121.88
609.043	137.88
609.251	124.88
609.459	123.88
609.667	131.88
609.875	111.88
610.083	111.88
610.291	114.88
610.499	118.88
610.707	118.88
610.916	127.88
611.124	128.88
611.332	109.88
611.54	115.88
611.748	112.88
611.955	119.88
612.163	103.88
612.371	118.88
612.579	122.88
612.787	107.88
612.995	117.88
613.203	119.88
613.411	119.88
613.618	121.88
613.826	101.88
614.034	129.88
614.242	108.88
614.449	111.88
614.657	105.88
614.865	119.88
615.072	108.88
615.28	124.88
615.488	115.88
615.695	118.88
615.903	108.88
616.111	121.88
616.318	116.88
616.526	103.88
616.733	127.88
616.941	131.88
617.148	125.88
617.356	122.88
617.563	116.88
617.771	91.88
617.978	114.88
618.185	111.88
618.393	112.88
618.6	111.88
618.807	112.88
619.015	115.88
619.222	101.88
619.429	118.88
619.637	120.88
619.844	117.88
620.051	111.88
620.258	97.88
620.466	104.88
620.673	108.88
620.88	104.88
621.087	111.88
621.294	99.88
621.501	111.88
621.708	107.88
621.915	108.88
622.122	116.88
622.329	101.88
622.536	119.88
622.743	97.88
622.95	125.88
623.157	113.88
623.364	121.88
623.571	104.88
623.778	111.88
623.985	123.88
624.192	110.88
624.399	113.88
624.606	105.88
624.812	111.88
625.019	97.88
625.226	107.88
625.433	102.88
625.639	109.88
625.846	116.88
626.053	108.88
626.259	101.88
626.466	106.88
626.673	97.88
626.879	102.88
627.086	101.88
627.293	112.88
627.499	118.88
627.706	107.88
627.912	105.88
628.119	99.88
628.325	104.88
628.532	112.88
628.738	106.88
628.945	103.88
629.151	101.88
629.357	97.88
629.564	103.88
629.77	112.88
629.976	100.88
630.183	97.88
630.389	89.88
630.595	103.88
630.802	95.88
631.008	100.88
631.214	105.88
631.42	100.88
631.627	103.88
631.833	108.88
632.039	114.88
632.245	104.88
632.451	101.88
632.657	104.88
632.863	109.88
633.069	102.88
633.275	119.88
633.481	104.88
633.688	101.88
633.893	104.88
634.099	96.88
634.305	102.88
634.511	108.88
634.717	108.88
634.923	102.88
635.129	104.88
635.335	92.88
635.541	99.88
635.747	106.88
635.952	93.88
636.158	95.88
636.364	99.88
636.57	93.88
636.775	99.88
636.981	98.88
637.187	107.88
637.392	82.88
637.598	112.88
637.804	109.88
638.009	102.88
638.215	89.88
638.421	91.88
638.626	102.88
638.832	87.88
639.037	100.88
639.243	95.88
639.448	102.88
639.654	104.88
639.859	101.88
640.065	91.88
640.27	100.88
640.475	103.88
640.681	83.88
640.886	96.88
641.091	84.88
641.297	100.88
641.502	91.88
641.707	104.88
641.913	95.88
642.118	112.88
642.323	106.88
642.528	94.88
642.733	102.88
642.939	88.88
643.144	104.88
643.349	118.88
643.554	104.88
643.759	89.88
643.964	104.88
644.169	129.88
644.374	96.88
644.579	111.88
644.784	93.88
644.989	103.88
645.194	96.88
645.399	99.88
645.604	101.88
645.809	95.88
646.014	88.88
646.219	101.88
646.423	97.88
646.628	99.88
646.833	96.88
647.038	93.88
647.243	95.88
647.447	103.88
647.652	99.88
647.857	95.88
648.062	105.88
648.266	95.88
648.471	97.88
648.676	93.88
648.88	86.88
649.085	106.88
649.289	93.88
649.494	109.88
649.698	104.88
649.903	84.88
650.107	106.88
650.312	98.88
650.516	100.88
650.721	107.88
650.925	98.88
651.13	87.88
651.334	96.88
651.539	102.88
651.743	104.88
651.947	95.88
652.152	100.88
652.356	86.88
652.56	92.88
652.764	90.88
652.969	102.88
653.173	91.88
653.377	90.88
653.581	107.88
653.785	89.88
653.99	82.88
654.194	93.88
654.398	84.88
654.602	80.88
654.806	98.88
655.01	96.88
655.214	83.88
655.418	67.88
655.622	97.88
655.826	76.88
656.03	101.88
656.234	86.88
656.438	97.88
656.642	90.88
656.846	92.88
657.049	96.88
657.253	93.88
657.457	93.88
657.661	89.88
657.865	71.88
658.068	83.88
658.272	101.88
658.476	92.88
658.68	84.88
658.883	93.88
659.087	88.88
659.291	88.88
659.494	70.88
659.698	89.88
659.901	84.88
660.105	77.88
660.309	73.88
660.512	96.88
660.716	91.88
660.919	97.88
661.123	79.88
661.326	82.88
661.53	85.88
661.733	82.88
661.936	68.88
662.14	71.88
662.343	91.88
662.546	82.88
662.75	80.88
662.953	84.88
663.156	86.88
663.36	83.88
663.563	81.88
663.766	80.88
663.969	81.88
664.173	84.88
664.376	96.88
664.579	80.88
664.782	76.88
664.985	63.88
665.188	81.88
665.391	77.88
665.594	80.88
665.797	73.88
666	78.88
666.203	79.88
666.406	79.88
666.609	78.88
666.812	88.88
667.015	71.88
667.218	93.88
667.421	81.88
667.624	84.88
667.827	84.88
668.03	90.88
668.232	73.88
668.435	73.88
668.638	89.88
668.841	76.88
669.043	85.88
669.246	90.88
669.449	84.88
669.651	81.88
669.854	75.88
670.057	82.88
670.259	86.88
670.462	77.88
670.665	75.88
670.867	78.88
671.07	84.88
671.272	72.88
671.475	75.88
671.677	75.88
671.88	78.88
672.082	73.88
672.284	89.88
672.487	81.88
672.689	79.88
672.892	78.88
