Data from NickelSpatula.Lamp.E10.P2_HRD10591_11-57-39-531.txt Node
Date: Tue Jul 23 11:57:39 EDT 2019
User: cochatt
Spectrometer: HR+D1059
Trigger mode: 1
Integration Time (sec): 1.000000E-1
Scans to average: 1
Electric dark correction enabled: true
Nonlinearity correction enabled: false
Boxcar width: 0
XAxis mode: Wavelengths
Number of Pixels in Spectrum: 2048
>>>>>Begin Spectral Data<<<<<
223.165	-28.88
223.4	-28.88
223.635	-28.88
223.869	-10.88
224.104	-20.88
224.338	-7.88
224.573	-19.88
224.808	-15.88
225.042	-4.88
225.277	-6.88
225.511	-1.88
225.746	2.12
225.98	-2.88
226.215	12.12
226.449	18.12
226.683	27.12
226.918	22.12
227.152	39.12
227.387	23.12
227.621	49.12
227.856	45.12
228.09	46.12
228.324	46.12
228.559	52.12
228.793	89.12
229.027	144.12
229.262	132.12
229.496	160.12
229.73	176.12
229.964	182.12
230.199	221.12
230.433	227.12
230.667	210.12
230.901	216.12
231.136	193.12
231.37	201.12
231.604	237.12
231.838	227.12
232.072	249.12
232.306	227.12
232.541	219.12
232.775	237.12
233.009	269.12
233.243	295.12
233.477	289.12
233.711	338.12
233.945	321.12
234.179	317.12
234.413	346.12
234.647	380.12
234.881	435.12
235.115	415.12
235.349	388.12
235.583	360.12
235.817	326.12
236.051	387.12
236.285	399.12
236.519	436.12
236.753	423.12
236.987	405.12
237.221	387.12
237.455	397.12
237.689	458.12
237.922	464.12
238.156	465.12
238.39	545.12
238.624	645.12
238.858	580.12
239.091	480.12
239.325	500.12
239.559	451.12
239.793	514.12
240.027	635.12
240.26	604.12
240.494	582.12
240.728	604.12
240.961	658.12
241.195	626.12
241.429	605.12
241.662	624.12
241.896	535.12
242.13	466.12
242.363	436.12
242.597	454.12
242.83	515.12
243.064	549.12
243.298	597.12
243.531	616.12
243.765	611.12
243.998	597.12
244.232	565.12
244.465	593.12
244.699	583.12
244.932	651.12
245.166	627.12
245.399	556.12
245.633	535.12
245.866	557.12
246.099	585.12
246.333	701.12
246.566	730.12
246.8	761.12
247.033	725.12
247.266	663.12
247.5	700.12
247.733	675.12
247.966	635.12
248.2	660.12
248.433	766.12
248.666	795.12
248.899	806.12
249.133	866.12
249.366	969.12
249.599	1023.12
249.832	915.12
250.066	823.12
250.299	831.12
250.532	813.12
250.765	770.12
250.998	728.12
251.231	715.12
251.465	771.12
251.698	812.12
251.931	777.12
252.164	842.12
252.397	899.12
252.63	1057.12
252.863	1116.12
253.096	1179.12
253.329	1155.12
253.562	1069.12
253.795	1203.12
254.028	1324.12
254.261	1348.12
254.494	1225.12
254.727	1125.12
254.96	1098.12
255.193	1136.12
255.426	1096.12
255.659	839.12
255.892	781.12
256.124	862.12
256.357	1011.12
256.59	1169.12
256.823	1121.12
257.056	946.12
257.289	890.12
257.521	964.12
257.754	1122.12
257.987	1255.12
258.22	1105.12
258.452	998.12
258.685	1149.12
258.918	1259.12
259.151	1252.12
259.383	1327.12
259.616	1491.12
259.849	1520.12
260.081	1653.12
260.314	1855.12
260.547	1453.12
260.779	1488.12
261.012	1693.12
261.244	1601.12
261.477	1585.12
261.71	1529.12
261.942	1264.12
262.175	1294.12
262.407	1215.12
262.64	1274.12
262.872	1438.12
263.105	1623.12
263.337	1699.12
263.57	1492.12
263.802	1030.12
264.035	911.12
264.267	886.12
264.499	768.12
264.732	713.12
264.964	689.12
265.197	708.12
265.429	767.12
265.661	832.12
265.894	870.12
266.126	913.12
266.358	1033.12
266.591	1226.12
266.823	1463.12
267.055	1425.12
267.287	1232.12
267.52	1239.12
267.752	1286.12
267.984	1470.12
268.216	1378.12
268.448	1114.12
268.681	1100.12
268.913	1222.12
269.145	1251.12
269.377	1254.12
269.609	1293.12
269.841	1218.12
270.073	1279.12
270.306	1382.12
270.538	1390.12
270.77	1382.12
271.002	1399.12
271.234	1466.12
271.466	1491.12
271.698	1436.12
271.93	1397.12
272.162	1403.12
272.394	1408.12
272.626	1381.12
272.858	1447.12
273.09	1458.12
273.322	1284.12
273.553	1244.12
273.785	1441.12
274.017	1929.12
274.249	2368.12
274.481	2480.12
274.713	2645.12
274.945	3081.12
275.176	3191.12
275.408	2827.12
275.64	2585.12
275.872	2622.12
276.104	2193.12
276.335	1895.12
276.567	1912.12
276.799	1952.12
277.031	2036.12
277.262	1590.12
277.494	1255.12
277.726	1199.12
277.957	1309.12
278.189	1510.12
278.421	1446.12
278.652	1401.12
278.884	1304.12
279.115	1236.12
279.347	1198.12
279.579	1165.12
279.81	1197.12
280.042	1184.12
280.273	1229.12
280.505	1125.12
280.736	998.12
280.968	1010.12
281.199	1097.12
281.431	1213.12
281.662	1207.12
281.894	1142.12
282.125	1268.12
282.356	1344.12
282.588	1387.12
282.819	1251.12
283.051	1382.12
283.282	1654.12
283.513	1950.12
283.745	2159.12
283.976	2124.12
284.207	1991.12
284.439	2047.12
284.67	2008.12
284.901	1750.12
285.132	1927.12
285.364	1998.12
285.595	1799.12
285.826	1965.12
286.057	2009.12
286.288	1908.12
286.52	1972.12
286.751	2070.12
286.982	2069.12
287.213	1814.12
287.444	1745.12
287.675	1816.12
287.906	1807.12
288.138	1516.12
288.369	1340.12
288.6	1286.12
288.831	1323.12
289.062	1571.12
289.293	1707.12
289.524	1602.12
289.755	1580.12
289.986	1622.12
290.217	1455.12
290.448	1128.12
290.679	968.12
290.91	929.12
291.141	915.12
291.371	969.12
291.602	991.12
291.833	969.12
292.064	1039.12
292.295	1173.12
292.526	1412.12
292.757	1439.12
292.987	1545.12
293.218	1541.12
293.449	1589.12
293.68	1677.12
293.91	1576.12
294.141	1643.12
294.372	1507.12
294.603	1418.12
294.833	1540.12
295.064	1840.12
295.295	1718.12
295.525	1288.12
295.756	1155.12
295.987	989.12
296.217	1022.12
296.448	1007.12
296.679	1074.12
296.909	1227.12
297.14	1281.12
297.37	1435.12
297.601	1319.12
297.831	1165.12
298.062	1279.12
298.292	1437.12
298.523	1564.12
298.753	1739.12
298.984	1588.12
299.214	1262.12
299.445	1073.12
299.675	1039.12
299.905	1022.12
300.136	1058.12
300.366	1195.12
300.597	1139.12
300.827	1020.12
301.057	973.12
301.288	1029.12
301.518	1090.12
301.748	1205.12
301.979	1295.12
302.209	1427.12
302.439	1449.12
302.669	1262.12
302.9	1213.12
303.13	1126.12
303.36	1110.12
303.59	1044.12
303.82	1102.12
304.051	1221.12
304.281	1339.12
304.511	1295.12
304.741	1131.12
304.971	1217.12
305.201	1265.12
305.431	1165.12
305.661	1052.12
305.891	1078.12
306.121	1075.12
306.352	936.12
306.582	895.12
306.812	858.12
307.042	857.12
307.272	813.12
307.502	809.12
307.731	878.12
307.961	943.12
308.191	861.12
308.421	811.12
308.651	783.12
308.881	770.12
309.111	749.12
309.341	808.12
309.571	879.12
309.8	943.12
310.03	936.12
310.26	990.12
310.49	971.12
310.72	841.12
310.949	855.12
311.179	866.12
311.409	924.12
311.639	1094.12
311.868	1381.12
312.098	1774.12
312.328	1918.12
312.557	1847.12
312.787	1857.12
313.017	1643.12
313.246	1787.12
313.476	1918.12
313.706	1599.12
313.935	1282.12
314.165	1054.12
314.394	934.12
314.624	981.12
314.853	1014.12
315.083	1027.12
315.312	992.12
315.542	998.12
315.771	945.12
316.001	856.12
316.23	841.12
316.46	840.12
316.689	842.12
316.919	879.12
317.148	891.12
317.377	868.12
317.607	870.12
317.836	931.12
318.065	1105.12
318.295	1246.12
318.524	1145.12
318.753	981.12
318.983	906.12
319.212	937.12
319.441	1008.12
319.67	1125.12
319.9	1197.12
320.129	1121.12
320.358	961.12
320.587	948.12
320.816	1023.12
321.046	1172.12
321.275	1301.12
321.504	1327.12
321.733	1246.12
321.962	1176.12
322.191	1133.12
322.42	1108.12
322.649	1134.12
322.878	1213.12
323.108	1212.12
323.337	1111.12
323.566	1107.12
323.795	1056.12
324.024	1009.12
324.253	966.12
324.482	975.12
324.71	1075.12
324.939	1206.12
325.168	1090.12
325.397	935.12
325.626	920.12
325.855	905.12
326.084	934.12
326.313	861.12
326.542	829.12
326.77	876.12
326.999	869.12
327.228	950.12
327.457	1033.12
327.686	1021.12
327.914	880.12
328.143	812.12
328.372	846.12
328.6	841.12
328.829	871.12
329.058	895.12
329.287	871.12
329.515	913.12
329.744	866.12
329.972	814.12
330.201	782.12
330.43	849.12
330.658	917.12
330.887	1039.12
331.115	1027.12
331.344	1007.12
331.572	943.12
331.801	902.12
332.03	875.12
332.258	864.12
332.486	947.12
332.715	1006.12
332.943	925.12
333.172	868.12
333.4	930.12
333.629	1020.12
333.857	1084.12
334.085	1140.12
334.314	1101.12
334.542	1073.12
334.771	950.12
334.999	919.12
335.227	909.12
335.455	940.12
335.684	1016.12
335.912	1217.12
336.14	1263.12
336.369	1250.12
336.597	1199.12
336.825	1368.12
337.053	1534.12
337.281	1189.12
337.51	967.12
337.738	981.12
337.966	1071.12
338.194	1201.12
338.422	1127.12
338.65	909.12
338.878	847.12
339.106	905.12
339.334	1029.12
339.562	1058.12
339.79	1003.12
340.018	958.12
340.246	1065.12
340.474	1159.12
340.702	1272.12
340.93	1301.12
341.158	1317.12
341.386	1102.12
341.614	1125.12
341.842	1112.12
342.07	1125.12
342.298	1293.12
342.526	1364.12
342.754	1173.12
342.981	1134.12
343.209	1045.12
343.437	1133.12
343.665	1203.12
343.893	1178.12
344.12	1421.12
344.348	1561.12
344.576	1439.12
344.804	1189.12
345.031	1053.12
345.259	987.12
345.487	995.12
345.714	1047.12
345.942	1090.12
346.17	1187.12
346.397	1123.12
346.625	995.12
346.853	957.12
347.08	916.12
347.308	963.12
347.535	1112.12
347.763	1143.12
347.99	1023.12
348.218	935.12
348.445	972.12
348.673	972.12
348.9	982.12
349.128	1061.12
349.355	1078.12
349.583	1031.12
349.81	1011.12
350.037	962.12
350.265	845.12
350.492	809.12
350.72	780.12
350.947	834.12
351.174	863.12
351.402	941.12
351.629	953.12
351.856	932.12
352.083	927.12
352.311	983.12
352.538	1075.12
352.765	1138.12
352.992	1050.12
353.22	975.12
353.447	1021.12
353.674	969.12
353.901	970.12
354.128	975.12
354.355	1013.12
354.583	993.12
354.81	980.12
355.037	1019.12
355.264	1007.12
355.491	1071.12
355.718	1156.12
355.945	1117.12
356.172	1085.12
356.399	1083.12
356.626	1323.12
356.853	1616.12
357.08	1698.12
357.307	1731.12
357.534	1382.12
357.761	1376.12
357.988	1736.12
358.215	2061.12
358.441	1888.12
358.668	1591.12
358.895	1471.12
359.122	1204.12
359.349	1230.12
359.576	1299.12
359.802	1093.12
360.029	946.12
360.256	1029.12
360.483	1263.12
360.709	1614.12
360.936	1640.12
361.163	1438.12
361.39	1122.12
361.616	1032.12
361.843	1207.12
362.07	1547.12
362.296	1369.12
362.523	1058.12
362.749	924.12
362.976	974.12
363.203	1197.12
363.429	1303.12
363.656	1051.12
363.882	983.12
364.109	968.12
364.335	986.12
364.562	980.12
364.788	1139.12
365.015	1269.12
365.241	1161.12
365.468	966.12
365.694	823.12
365.92	796.12
366.147	795.12
366.373	810.12
366.599	755.12
366.826	796.12
367.052	829.12
367.278	835.12
367.505	824.12
367.731	897.12
367.957	995.12
368.184	1034.12
368.41	1003.12
368.636	1022.12
368.862	1047.12
369.089	1001.12
369.315	897.12
369.541	887.12
369.767	855.12
369.993	835.12
370.219	842.12
370.445	903.12
370.672	1019.12
370.898	1111.12
371.124	1075.12
371.35	971.12
371.576	897.12
371.802	971.12
372.028	1164.12
372.254	1319.12
372.48	1150.12
372.706	1041.12
372.932	1073.12
373.158	1114.12
373.384	1356.12
373.61	1784.12
373.835	1820.12
374.061	1374.12
374.287	1181.12
374.513	1392.12
374.739	1638.12
374.965	1683.12
375.191	1667.12
375.416	1142.12
375.642	1018.12
375.868	1184.12
376.094	1337.12
376.319	1155.12
376.545	1287.12
376.771	1339.12
376.997	1089.12
377.222	872.12
377.448	756.12
377.674	727.12
377.899	771.12
378.125	771.12
378.35	745.12
378.576	781.12
378.802	840.12
379.027	915.12
379.253	923.12
379.478	917.12
379.704	1022.12
379.929	1112.12
380.155	1097.12
380.38	942.12
380.606	984.12
380.831	1081.12
381.057	1019.12
381.282	979.12
381.507	1150.12
381.733	1464.12
381.958	1537.12
382.184	1619.12
382.409	1716.12
382.634	1643.12
382.86	1736.12
383.085	1421.12
383.31	1124.12
383.535	1186.12
383.761	1239.12
383.986	1180.12
384.211	1383.12
384.436	1362.12
384.662	1046.12
384.887	1014.12
385.112	1021.12
385.337	1050.12
385.562	997.12
385.787	1105.12
386.013	1246.12
386.238	1254.12
386.463	1007.12
386.688	960.12
386.913	939.12
387.138	894.12
387.363	963.12
387.588	968.12
387.813	1009.12
388.038	1085.12
388.263	974.12
388.488	929.12
388.713	1103.12
388.938	1196.12
389.163	1017.12
389.387	911.12
389.612	909.12
389.837	941.12
390.062	945.12
390.287	993.12
390.512	1004.12
390.736	916.12
390.961	905.12
391.186	852.12
391.411	830.12
391.636	843.12
391.86	933.12
392.085	1043.12
392.31	1000.12
392.534	955.12
392.759	941.12
392.984	956.12
393.208	967.12
393.433	873.12
393.658	823.12
393.882	799.12
394.107	783.12
394.331	804.12
394.556	782.12
394.78	779.12
395.005	864.12
395.229	869.12
395.454	859.12
395.678	900.12
395.903	927.12
396.127	871.12
396.352	905.12
396.576	990.12
396.801	1020.12
397.025	1104.12
397.249	1158.12
397.474	939.12
397.698	906.12
397.922	983.12
398.147	903.12
398.371	903.12
398.595	965.12
398.82	992.12
399.044	934.12
399.268	1026.12
399.492	1045.12
399.717	1052.12
399.941	1091.12
400.165	1092.12
400.389	1061.12
400.613	1052.12
400.837	1048.12
401.062	921.12
401.286	917.12
401.51	892.12
401.734	894.12
401.958	913.12
402.182	906.12
402.406	904.12
402.63	916.12
402.854	951.12
403.078	1079.12
403.302	1284.12
403.526	1341.12
403.75	1223.12
403.974	1092.12
404.198	1131.12
404.422	1236.12
404.645	1431.12
404.869	1589.12
405.093	1204.12
405.317	980.12
405.541	1000.12
405.765	1044.12
405.988	1021.12
406.212	1079.12
406.436	1289.12
406.66	1402.12
406.883	1124.12
407.107	1183.12
407.331	1359.12
407.555	1310.12
407.778	1087.12
408.002	1074.12
408.226	1058.12
408.449	1072.12
408.673	1008.12
408.896	961.12
409.12	932.12
409.344	903.12
409.567	887.12
409.791	897.12
410.014	917.12
410.238	905.12
410.461	901.12
410.685	893.12
410.908	904.12
411.132	918.12
411.355	939.12
411.578	969.12
411.802	971.12
412.025	983.12
412.249	988.12
412.472	979.12
412.695	943.12
412.919	928.12
413.142	970.12
413.365	1076.12
413.589	1048.12
413.812	937.12
414.035	936.12
414.258	951.12
414.482	1015.12
414.705	1048.12
414.928	906.12
415.151	887.12
415.374	886.12
415.597	920.12
415.821	917.12
416.044	911.12
416.267	872.12
416.49	868.12
416.713	886.12
416.936	861.12
417.159	877.12
417.382	893.12
417.605	876.12
417.828	926.12
418.051	904.12
418.274	941.12
418.497	922.12
418.72	928.12
418.943	978.12
419.166	987.12
419.389	1032.12
419.611	1025.12
419.834	1026.12
420.057	1120.12
420.28	1103.12
420.503	1031.12
420.726	925.12
420.948	874.12
421.171	912.12
421.394	854.12
421.617	888.12
421.839	879.12
422.062	951.12
422.285	950.12
422.507	932.12
422.73	955.12
422.953	990.12
423.175	954.12
423.398	930.12
423.621	1027.12
423.843	1074.12
424.066	985.12
424.288	940.12
424.511	913.12
424.733	919.12
424.956	993.12
425.178	1075.12
425.401	1237.12
425.623	1372.12
425.846	1170.12
426.068	1017.12
426.291	1128.12
426.513	1010.12
426.735	945.12
426.958	993.12
427.18	1155.12
427.402	1478.12
427.625	1480.12
427.847	1171.12
428.069	923.12
428.292	894.12
428.514	871.12
428.736	869.12
428.958	959.12
429.181	1140.12
429.403	1006.12
429.625	883.12
429.847	839.12
430.069	904.12
430.292	907.12
430.514	860.12
430.736	951.12
430.958	1221.12
431.18	1105.12
431.402	835.12
431.624	815.12
431.846	829.12
432.068	800.12
432.29	821.12
432.512	918.12
432.734	1174.12
432.956	1135.12
433.178	895.12
433.4	854.12
433.622	855.12
433.844	901.12
434.066	964.12
434.287	918.12
434.509	870.12
434.731	925.12
434.953	874.12
435.175	892.12
435.397	1031.12
435.618	887.12
435.84	835.12
436.062	848.12
436.284	808.12
436.505	812.12
436.727	805.12
436.949	783.12
437.17	827.12
437.392	868.12
437.614	824.12
437.835	815.12
438.057	836.12
438.278	974.12
438.5	1370.12
438.721	1366.12
438.943	944.12
439.165	799.12
439.386	783.12
439.608	785.12
439.829	752.12
440.05	785.12
440.272	852.12
440.493	1026.12
440.715	1242.12
440.936	966.12
441.158	859.12
441.379	870.12
441.6	992.12
441.822	1043.12
442.043	887.12
442.264	856.12
442.486	871.12
442.707	863.12
442.928	865.12
443.149	863.12
443.371	883.12
443.592	932.12
443.813	927.12
444.034	913.12
444.255	898.12
444.476	932.12
444.698	924.12
444.919	935.12
445.14	1027.12
445.361	987.12
445.582	966.12
445.803	943.12
446.024	943.12
446.245	940.12
446.466	926.12
446.687	878.12
446.908	888.12
447.129	824.12
447.35	816.12
447.571	823.12
447.792	807.12
448.013	803.12
448.234	777.12
448.455	815.12
448.675	795.12
448.896	808.12
449.117	806.12
449.338	808.12
449.559	823.12
449.779	866.12
450	877.12
450.221	850.12
450.442	815.12
450.662	797.12
450.883	824.12
451.104	813.12
451.324	817.12
451.545	823.12
451.766	801.12
451.986	797.12
452.207	747.12
452.428	776.12
452.648	773.12
452.869	825.12
453.089	845.12
453.31	814.12
453.53	775.12
453.751	757.12
453.971	747.12
454.192	789.12
454.412	781.12
454.633	743.12
454.853	739.12
455.073	739.12
455.294	740.12
455.514	766.12
455.734	790.12
455.955	807.12
456.175	837.12
456.395	762.12
456.616	731.12
456.836	719.12
457.056	696.12
457.276	683.12
457.497	697.12
457.717	712.12
457.937	724.12
458.157	734.12
458.377	726.12
458.598	737.12
458.818	819.12
459.038	804.12
459.258	824.12
459.478	847.12
459.698	887.12
459.918	893.12
460.138	896.12
460.358	902.12
460.578	871.12
460.798	889.12
461.018	868.12
461.238	872.12
461.458	855.12
461.678	867.12
461.898	954.12
462.118	943.12
462.338	947.12
462.558	960.12
462.777	1015.12
462.997	1041.12
463.217	1024.12
463.437	1020.12
463.657	1020.12
463.876	943.12
464.096	951.12
464.316	973.12
464.536	999.12
464.755	1050.12
464.975	1047.12
465.195	985.12
465.414	990.12
465.634	972.12
465.854	922.12
466.073	877.12
466.293	889.12
466.512	901.12
466.732	1004.12
466.951	1031.12
467.171	924.12
467.391	860.12
467.61	895.12
467.829	945.12
468.049	930.12
468.268	885.12
468.488	865.12
468.707	903.12
468.927	1051.12
469.146	1127.12
469.365	1049.12
469.585	933.12
469.804	1014.12
470.023	1110.12
470.243	977.12
470.462	941.12
470.681	915.12
470.901	936.12
471.12	1010.12
471.339	1005.12
471.558	899.12
471.777	963.12
471.997	1012.12
472.216	1099.12
472.435	1062.12
472.654	975.12
472.873	981.12
473.092	981.12
473.311	1040.12
473.53	934.12
473.749	944.12
473.968	998.12
474.187	965.12
474.406	948.12
474.625	916.12
474.844	954.12
475.063	1019.12
475.282	1032.12
475.501	1076.12
475.72	1140.12
475.939	1089.12
476.158	1116.12
476.377	1247.12
476.596	1456.12
476.814	1527.12
477.033	1243.12
477.252	1070.12
477.471	1003.12
477.69	1030.12
477.908	1077.12
478.127	1159.12
478.346	1060.12
478.564	1149.12
478.783	1104.12
479.002	1110.12
479.22	1293.12
479.439	1429.12
479.658	1223.12
479.876	1119.12
480.095	1195.12
480.313	1243.12
480.532	1139.12
480.751	1088.12
480.969	1115.12
481.188	1254.12
481.406	1295.12
481.624	1252.12
481.843	1131.12
482.061	1079.12
482.28	1218.12
482.498	1476.12
482.717	1373.12
482.935	1189.12
483.153	1089.12
483.372	1092.12
483.59	1047.12
483.808	1048.12
484.027	1070.12
484.245	1005.12
484.463	993.12
484.681	1027.12
484.9	1098.12
485.118	1221.12
485.336	1094.12
485.554	1057.12
485.772	1091.12
485.99	1199.12
486.209	1263.12
486.427	1225.12
486.645	1192.12
486.863	1217.12
487.081	1218.12
487.299	1382.12
487.517	1353.12
487.735	1225.12
487.953	1224.12
488.171	1238.12
488.389	1164.12
488.607	1107.12
488.825	1160.12
489.043	1289.12
489.261	1454.12
489.479	1527.12
489.696	1286.12
489.914	1165.12
490.132	1101.12
490.35	1124.12
490.568	1147.12
490.786	1127.12
491.003	1110.12
491.221	1179.12
491.439	1116.12
491.657	1126.12
491.874	1210.12
492.092	1507.12
492.31	1810.12
492.527	1783.12
492.745	1551.12
492.963	1335.12
493.18	1287.12
493.398	1282.12
493.615	1288.12
493.833	1271.12
494.05	1219.12
494.268	1254.12
494.485	1270.12
494.703	1220.12
494.92	1236.12
495.138	1191.12
495.355	1221.12
495.573	1220.12
495.79	1382.12
496.008	1787.12
496.225	1565.12
496.442	1347.12
496.66	1334.12
496.877	1451.12
497.094	1392.12
497.312	1346.12
497.529	1310.12
497.746	1325.12
497.963	1384.12
498.181	1499.12
498.398	1577.12
498.615	1639.12
498.832	1659.12
499.049	1712.12
499.267	1539.12
499.484	1560.12
499.701	1597.12
499.918	1739.12
500.135	1883.12
500.352	1933.12
500.569	1980.12
500.786	2009.12
501.003	2016.12
501.22	1841.12
501.437	1732.12
501.654	1668.12
501.871	1624.12
502.088	1667.12
502.305	1495.12
502.522	1511.12
502.739	1503.12
502.956	1372.12
503.172	1413.12
503.389	1302.12
503.606	1317.12
503.823	1323.12
504.04	1325.12
504.256	1334.12
504.473	1330.12
504.69	1381.12
504.907	1379.12
505.123	1367.12
505.34	1460.12
505.557	1444.12
505.773	1341.12
505.99	1293.12
506.207	1353.12
506.423	1240.12
506.64	1199.12
506.856	1283.12
507.073	1387.12
507.289	1351.12
507.506	1351.12
507.722	1408.12
507.939	1384.12
508.155	1441.12
508.372	1301.12
508.588	1280.12
508.805	1252.12
509.021	1231.12
509.238	1205.12
509.454	1150.12
509.67	1161.12
509.887	1172.12
510.103	1312.12
510.319	1250.12
510.536	1169.12
510.752	1111.12
510.968	1060.12
511.184	1039.12
511.401	1035.12
511.617	1029.12
511.833	1050.12
512.049	1067.12
512.265	1091.12
512.481	1131.12
512.698	1263.12
512.914	1357.12
513.13	1238.12
513.346	1132.12
513.562	1151.12
513.778	1145.12
513.994	1131.12
514.21	1218.12
514.426	1187.12
514.642	1148.12
514.858	1152.12
515.074	1216.12
515.29	1290.12
515.506	1426.12
515.721	1323.12
515.937	1222.12
516.153	1141.12
516.369	1173.12
516.585	1214.12
516.801	1399.12
517.016	1587.12
517.232	1558.12
517.448	1521.12
517.664	1359.12
517.879	1323.12
518.095	1246.12
518.311	1263.12
518.527	1325.12
518.742	1431.12
518.958	1432.12
519.173	1393.12
519.389	1369.12
519.605	1353.12
519.82	1463.12
520.036	1725.12
520.251	1652.12
520.467	1601.12
520.682	2411.12
520.898	2888.12
521.113	2813.12
521.329	1744.12
521.544	1546.12
521.76	1521.12
521.975	1299.12
522.19	1279.12
522.406	1311.12
522.621	1471.12
522.836	1513.12
523.052	1580.12
523.267	1276.12
523.482	1287.12
523.698	1404.12
523.913	1314.12
524.128	1231.12
524.343	1165.12
524.559	1162.12
524.774	1126.12
524.989	1187.12
525.204	1170.12
525.419	1323.12
525.634	1241.12
525.849	1250.12
526.064	1254.12
526.28	1250.12
526.495	1473.12
526.71	1519.12
526.925	1361.12
527.14	1392.12
527.355	1382.12
527.57	1165.12
527.785	1191.12
527.999	1125.12
528.214	1108.12
528.429	1063.12
528.644	1097.12
528.859	1008.12
529.074	1008.12
529.289	995.12
529.503	956.12
529.718	1029.12
529.933	1198.12
530.148	1211.12
530.363	1041.12
530.577	1030.12
530.792	993.12
531.007	1019.12
531.221	996.12
531.436	959.12
531.651	987.12
531.865	1021.12
532.08	1022.12
532.295	994.12
532.509	1020.12
532.724	1163.12
532.938	1335.12
533.153	1522.12
533.367	1185.12
533.582	1171.12
533.796	1069.12
534.011	1023.12
534.225	1048.12
534.44	1080.12
534.654	1132.12
534.868	1267.12
535.083	1149.12
535.297	1025.12
535.511	1051.12
535.726	1147.12
535.94	1058.12
536.154	1031.12
536.369	1022.12
536.583	994.12
536.797	1033.12
537.011	1038.12
537.225	1112.12
537.44	1176.12
537.654	1029.12
537.868	1012.12
538.082	1019.12
538.296	1030.12
538.51	1060.12
538.724	1055.12
538.938	1047.12
539.153	971.12
539.367	983.12
539.581	998.12
539.795	1071.12
540.009	1149.12
540.222	1055.12
540.436	1049.12
540.65	1167.12
540.864	1165.12
541.078	1204.12
541.292	1357.12
541.506	1134.12
541.72	1084.12
541.934	1061.12
542.147	1052.12
542.361	1074.12
542.575	1045.12
542.789	1010.12
543.002	971.12
543.216	1087.12
543.43	959.12
543.644	925.12
543.857	926.12
544.071	972.12
544.285	942.12
544.498	913.12
544.712	917.12
544.925	1017.12
545.139	947.12
545.352	885.12
545.566	931.12
545.779	1035.12
545.993	968.12
546.206	901.12
546.42	905.12
546.633	891.12
546.847	880.12
547.06	851.12
547.274	864.12
547.487	901.12
547.7	952.12
547.914	991.12
548.127	1115.12
548.34	1091.12
548.554	947.12
548.767	989.12
548.98	1060.12
549.193	969.12
549.407	1010.12
549.62	1173.12
549.833	1076.12
550.046	1133.12
550.259	1151.12
550.473	1024.12
550.686	974.12
550.899	962.12
551.112	995.12
551.325	1084.12
551.538	1095.12
551.751	959.12
551.964	879.12
552.177	862.12
552.39	851.12
552.603	875.12
552.816	941.12
553.029	881.12
553.242	889.12
553.455	934.12
553.667	994.12
553.88	995.12
554.093	916.12
554.306	840.12
554.519	811.12
554.732	801.12
554.944	811.12
555.157	769.12
555.37	765.12
555.583	764.12
555.795	807.12
556.008	785.12
556.221	819.12
556.433	781.12
556.646	816.12
556.859	792.12
557.071	813.12
557.284	830.12
557.496	834.12
557.709	825.12
557.921	788.12
558.134	726.12
558.346	708.12
558.559	713.12
558.771	781.12
558.984	815.12
559.196	791.12
559.409	740.12
559.621	691.12
559.833	695.12
560.046	733.12
560.258	720.12
560.47	748.12
560.683	713.12
560.895	677.12
561.107	678.12
561.32	680.12
561.532	691.12
561.744	789.12
561.956	799.12
562.168	756.12
562.381	727.12
562.593	717.12
562.805	732.12
563.017	679.12
563.229	659.12
563.441	654.12
563.653	684.12
563.865	694.12
564.077	673.12
564.289	707.12
564.501	695.12
564.713	754.12
564.925	723.12
565.137	701.12
565.349	691.12
565.561	703.12
565.773	736.12
565.985	734.12
566.197	772.12
566.408	827.12
566.62	857.12
566.832	855.12
567.044	839.12
567.255	905.12
567.467	961.12
567.679	897.12
567.891	875.12
568.102	895.12
568.314	892.12
568.526	857.12
568.737	831.12
568.949	869.12
569.161	776.12
569.372	695.12
569.584	686.12
569.795	675.12
570.007	709.12
570.218	751.12
570.43	727.12
570.641	686.12
570.853	660.12
571.064	653.12
571.276	701.12
571.487	709.12
571.698	678.12
571.91	653.12
572.121	662.12
572.333	617.12
572.544	635.12
572.755	641.12
572.966	610.12
573.178	607.12
573.389	660.12
573.6	635.12
573.811	633.12
574.023	584.12
574.234	598.12
574.445	605.12
574.656	555.12
574.867	581.12
575.078	575.12
575.289	586.12
575.501	641.12
575.712	581.12
575.923	544.12
576.134	530.12
576.345	564.12
576.556	549.12
576.767	542.12
576.978	528.12
577.188	531.12
577.399	526.12
577.61	535.12
577.821	533.12
578.032	550.12
578.243	563.12
578.454	549.12
578.665	580.12
578.875	566.12
579.086	555.12
579.297	583.12
579.508	576.12
579.718	558.12
579.929	561.12
580.14	544.12
580.35	485.12
580.561	501.12
580.772	491.12
580.982	509.12
581.193	481.12
581.403	468.12
581.614	482.12
581.825	466.12
582.035	452.12
582.246	474.12
582.456	464.12
582.667	456.12
582.877	471.12
583.087	484.12
583.298	472.12
583.508	477.12
583.719	472.12
583.929	453.12
584.139	448.12
584.35	463.12
584.56	492.12
584.77	476.12
584.981	456.12
585.191	463.12
585.401	438.12
585.611	495.12
585.821	494.12
586.032	509.12
586.242	478.12
586.452	470.12
586.662	472.12
586.872	475.12
587.082	478.12
587.292	467.12
587.502	472.12
587.713	464.12
587.923	450.12
588.133	486.12
588.343	480.12
588.553	453.12
588.762	479.12
588.972	475.12
589.182	455.12
589.392	459.12
589.602	463.12
589.812	474.12
590.022	500.12
590.232	494.12
590.441	487.12
590.651	446.12
590.861	454.12
591.071	446.12
591.281	460.12
591.49	425.12
591.7	453.12
591.91	463.12
592.119	447.12
592.329	444.12
592.539	468.12
592.748	479.12
592.958	455.12
593.167	491.12
593.377	489.12
593.587	482.12
593.796	476.12
594.006	463.12
594.215	466.12
594.424	486.12
594.634	504.12
594.843	495.12
595.053	463.12
595.262	453.12
595.472	451.12
595.681	423.12
595.89	440.12
596.1	445.12
596.309	458.12
596.518	435.12
596.727	413.12
596.937	414.12
597.146	438.12
597.355	447.12
597.564	439.12
597.774	413.12
597.983	410.12
598.192	404.12
598.401	416.12
598.61	387.12
598.819	405.12
599.028	395.12
599.237	384.12
599.446	376.12
599.655	398.12
599.864	359.12
600.073	369.12
600.282	382.12
600.491	396.12
600.7	388.12
600.909	403.12
601.118	378.12
601.327	396.12
601.536	386.12
601.745	393.12
601.953	398.12
602.162	397.12
602.371	419.12
602.58	409.12
602.789	379.12
602.997	387.12
603.206	392.12
603.415	383.12
603.623	357.12
603.832	352.12
604.041	379.12
604.249	360.12
604.458	403.12
604.666	346.12
604.875	345.12
605.084	348.12
605.292	373.12
605.501	367.12
605.709	373.12
605.918	359.12
606.126	354.12
606.334	352.12
606.543	348.12
606.751	363.12
606.96	343.12
607.168	344.12
607.376	355.12
607.585	323.12
607.793	346.12
608.001	341.12
608.21	339.12
608.418	360.12
608.626	348.12
608.834	360.12
609.043	326.12
609.251	314.12
609.459	320.12
609.667	355.12
609.875	337.12
610.083	333.12
610.291	378.12
610.499	370.12
610.707	342.12
610.916	342.12
611.124	332.12
611.332	351.12
611.54	341.12
611.748	363.12
611.955	353.12
612.163	340.12
612.371	342.12
612.579	319.12
612.787	353.12
612.995	325.12
613.203	340.12
613.411	333.12
613.618	336.12
613.826	339.12
614.034	367.12
614.242	315.12
614.449	319.12
614.657	315.12
614.865	328.12
615.072	333.12
615.28	328.12
615.488	326.12
615.695	329.12
615.903	320.12
616.111	328.12
616.318	324.12
616.526	344.12
616.733	325.12
616.941	314.12
617.148	324.12
617.356	316.12
617.563	325.12
617.771	317.12
617.978	323.12
618.185	322.12
618.393	325.12
618.6	322.12
618.807	328.12
619.015	324.12
619.222	315.12
619.429	328.12
619.637	309.12
619.844	293.12
620.051	301.12
620.258	307.12
620.466	295.12
620.673	286.12
620.88	295.12
621.087	289.12
621.294	291.12
621.501	306.12
621.708	295.12
621.915	311.12
622.122	280.12
622.329	306.12
622.536	293.12
622.743	271.12
622.95	301.12
623.157	283.12
623.364	323.12
623.571	310.12
623.778	295.12
623.985	326.12
624.192	312.12
624.399	305.12
624.606	280.12
624.812	293.12
625.019	293.12
625.226	313.12
625.433	315.12
625.639	283.12
625.846	286.12
626.053	276.12
626.259	276.12
626.466	278.12
626.673	275.12
626.879	276.12
627.086	284.12
627.293	285.12
627.499	277.12
627.706	275.12
627.912	276.12
628.119	262.12
628.325	269.12
628.532	271.12
628.738	265.12
628.945	272.12
629.151	261.12
629.357	273.12
629.564	287.12
629.77	245.12
629.976	241.12
630.183	258.12
630.389	265.12
630.595	251.12
630.802	258.12
631.008	255.12
631.214	241.12
631.42	255.12
631.627	260.12
631.833	260.12
632.039	258.12
632.245	232.12
632.451	237.12
632.657	227.12
632.863	226.12
633.069	228.12
633.275	258.12
633.481	243.12
633.688	252.12
633.893	226.12
634.099	243.12
634.305	245.12
634.511	220.12
634.717	238.12
634.923	231.12
635.129	230.12
635.335	246.12
635.541	232.12
635.747	237.12
635.952	232.12
636.158	223.12
636.364	235.12
636.57	227.12
636.775	231.12
636.981	228.12
637.187	228.12
637.392	237.12
637.598	242.12
637.804	216.12
638.009	241.12
638.215	239.12
638.421	220.12
638.626	211.12
638.832	239.12
639.037	222.12
639.243	224.12
639.448	220.12
639.654	253.12
639.859	222.12
640.065	223.12
640.27	254.12
640.475	235.12
640.681	226.12
640.886	215.12
641.091	242.12
641.297	214.12
641.502	237.12
641.707	213.12
641.913	229.12
642.118	237.12
642.323	223.12
642.528	217.12
642.733	201.12
642.939	216.12
643.144	215.12
643.349	205.12
643.554	211.12
643.759	207.12
643.964	206.12
644.169	225.12
644.374	200.12
644.579	194.12
644.784	200.12
644.989	212.12
645.194	192.12
645.399	220.12
645.604	199.12
645.809	208.12
646.014	205.12
646.219	219.12
646.423	210.12
646.628	211.12
646.833	206.12
647.038	213.12
647.243	191.12
647.447	215.12
647.652	209.12
647.857	208.12
648.062	215.12
648.266	210.12
648.471	222.12
648.676	229.12
648.88	209.12
649.085	205.12
649.289	214.12
649.494	197.12
649.698	233.12
649.903	222.12
650.107	198.12
650.312	193.12
650.516	197.12
650.721	190.12
650.925	186.12
651.13	190.12
651.334	200.12
651.539	183.12
651.743	193.12
651.947	184.12
652.152	185.12
652.356	169.12
652.56	164.12
652.764	167.12
652.969	166.12
653.173	177.12
653.377	176.12
653.581	160.12
653.785	165.12
653.99	160.12
654.194	171.12
654.398	181.12
654.602	158.12
654.806	167.12
655.01	172.12
655.214	152.12
655.418	156.12
655.622	147.12
655.826	155.12
656.03	158.12
656.234	147.12
656.438	167.12
656.642	165.12
656.846	153.12
657.049	147.12
657.253	152.12
657.457	136.12
657.661	134.12
657.865	123.12
658.068	135.12
658.272	140.12
658.476	121.12
658.68	98.12
658.883	125.12
659.087	114.12
659.291	120.12
659.494	115.12
659.698	99.12
659.901	109.12
660.105	107.12
660.309	114.12
660.512	118.12
660.716	94.12
660.919	99.12
661.123	99.12
661.326	89.12
661.53	84.12
661.733	84.12
661.936	103.12
662.14	99.12
662.343	87.12
662.546	99.12
662.75	88.12
662.953	87.12
663.156	82.12
663.36	87.12
663.563	83.12
663.766	77.12
663.969	76.12
664.173	84.12
664.376	85.12
664.579	78.12
664.782	79.12
664.985	90.12
665.188	86.12
665.391	81.12
665.594	68.12
665.797	85.12
666	77.12
666.203	92.12
666.406	81.12
666.609	71.12
666.812	84.12
667.015	82.12
667.218	89.12
667.421	81.12
667.624	72.12
667.827	77.12
668.03	83.12
668.232	86.12
668.435	79.12
668.638	80.12
668.841	70.12
669.043	69.12
669.246	84.12
669.449	87.12
669.651	85.12
669.854	96.12
670.057	87.12
670.259	93.12
670.462	70.12
670.665	85.12
670.867	71.12
671.07	87.12
671.272	84.12
671.475	79.12
671.677	89.12
671.88	84.12
672.082	82.12
672.284	83.12
672.487	94.12
672.689	78.12
672.892	84.12
