Data from NickelSpatula.Lamp.E10.P2_HRD10591_11-58-46-528.txt Node
Date: Tue Jul 23 11:58:46 EDT 2019
User: cochatt
Spectrometer: HR+D1059
Trigger mode: 1
Integration Time (sec): 1.000000E-1
Scans to average: 1
Electric dark correction enabled: true
Nonlinearity correction enabled: false
Boxcar width: 0
XAxis mode: Wavelengths
Number of Pixels in Spectrum: 2048
>>>>>Begin Spectral Data<<<<<
223.165	-12.38
223.4	-12.38
223.635	-12.38
223.869	-12.38
224.104	-28.38
224.338	-12.38
224.573	-8.38
224.808	-28.38
225.042	-7.38
225.277	-6.38
225.511	4.62
225.746	6.62
225.98	1.62
226.215	9.62
226.449	16.62
226.683	21.62
226.918	33.62
227.152	21.62
227.387	26.62
227.621	65.62
227.856	43.62
228.09	32.62
228.324	52.62
228.559	58.62
228.793	86.62
229.027	136.62
229.262	163.62
229.496	150.62
229.73	159.62
229.964	182.62
230.199	223.62
230.433	227.62
230.667	211.62
230.901	212.62
231.136	199.62
231.37	207.62
231.604	216.62
231.838	258.62
232.072	247.62
232.306	239.62
232.541	239.62
232.775	261.62
233.009	262.62
233.243	300.62
233.477	312.62
233.711	351.62
233.945	340.62
234.179	330.62
234.413	354.62
234.647	397.62
234.881	462.62
235.115	439.62
235.349	395.62
235.583	359.62
235.817	339.62
236.051	379.62
236.285	413.62
236.519	462.62
236.753	436.62
236.987	435.62
237.221	410.62
237.455	459.62
237.689	446.62
237.922	468.62
238.156	448.62
238.39	544.62
238.624	658.62
238.858	617.62
239.091	492.62
239.325	510.62
239.559	478.62
239.793	550.62
240.027	657.62
240.26	600.62
240.494	596.62
240.728	598.62
240.961	687.62
241.195	652.62
241.429	644.62
241.662	635.62
241.896	534.62
242.13	475.62
242.363	454.62
242.597	480.62
242.83	537.62
243.064	567.62
243.298	606.62
243.531	617.62
243.765	674.62
243.998	635.62
244.232	605.62
244.465	600.62
244.699	579.62
244.932	660.62
245.166	619.62
245.399	568.62
245.633	564.62
245.866	593.62
246.099	621.62
246.333	729.62
246.566	815.62
246.8	794.62
247.033	727.62
247.266	691.62
247.5	683.62
247.733	692.62
247.966	660.62
248.2	695.62
248.433	784.62
248.666	859.62
248.899	853.62
249.133	881.62
249.366	969.62
249.599	1062.62
249.832	938.62
250.066	800.62
250.299	831.62
250.532	827.62
250.765	836.62
250.998	732.62
251.231	734.62
251.465	784.62
251.698	828.62
251.931	810.62
252.164	876.62
252.397	951.62
252.63	1040.62
252.863	1186.62
253.096	1197.62
253.329	1174.62
253.562	1107.62
253.795	1231.62
254.028	1385.62
254.261	1447.62
254.494	1268.62
254.727	1156.62
254.96	1110.62
255.193	1198.62
255.426	1151.62
255.659	870.62
255.892	784.62
256.124	879.62
256.357	1031.62
256.59	1239.62
256.823	1167.62
257.056	1013.62
257.289	939.62
257.521	1002.62
257.754	1131.62
257.987	1310.62
258.22	1120.62
258.452	1028.62
258.685	1137.62
258.918	1271.62
259.151	1252.62
259.383	1302.62
259.616	1504.62
259.849	1554.62
260.081	1719.62
260.314	1895.62
260.547	1492.62
260.779	1469.62
261.012	1727.62
261.244	1633.62
261.477	1671.62
261.71	1540.62
261.942	1320.62
262.175	1310.62
262.407	1262.62
262.64	1316.62
262.872	1567.62
263.105	1642.62
263.337	1736.62
263.57	1545.62
263.802	1026.62
264.035	920.62
264.267	895.62
264.499	773.62
264.732	711.62
264.964	722.62
265.197	725.62
265.429	815.62
265.661	835.62
265.894	855.62
266.126	915.62
266.358	1050.62
266.591	1307.62
266.823	1540.62
267.055	1448.62
267.287	1215.62
267.52	1266.62
267.752	1300.62
267.984	1456.62
268.216	1345.62
268.448	1154.62
268.681	1099.62
268.913	1192.62
269.145	1268.62
269.377	1342.62
269.609	1343.62
269.841	1216.62
270.073	1301.62
270.306	1364.62
270.538	1414.62
270.77	1436.62
271.002	1403.62
271.234	1439.62
271.466	1534.62
271.698	1477.62
271.93	1432.62
272.162	1460.62
272.394	1408.62
272.626	1427.62
272.858	1480.62
273.09	1493.62
273.322	1343.62
273.553	1320.62
273.785	1523.62
274.017	2002.62
274.249	2471.62
274.481	2570.62
274.713	2842.62
274.945	3210.62
275.176	3288.62
275.408	2893.62
275.64	2678.62
275.872	2656.62
276.104	2306.62
276.335	1930.62
276.567	1925.62
276.799	1974.62
277.031	2108.62
277.262	1623.62
277.494	1256.62
277.726	1217.62
277.957	1305.62
278.189	1507.62
278.421	1475.62
278.652	1420.62
278.884	1391.62
279.115	1263.62
279.347	1195.62
279.579	1222.62
279.81	1190.62
280.042	1187.62
280.273	1256.62
280.505	1163.62
280.736	997.62
280.968	1020.62
281.199	1139.62
281.431	1244.62
281.662	1236.62
281.894	1172.62
282.125	1251.62
282.356	1356.62
282.588	1429.62
282.819	1268.62
283.051	1396.62
283.282	1686.62
283.513	1956.62
283.745	2202.62
283.976	2204.62
284.207	2081.62
284.439	2104.62
284.67	2048.62
284.901	1820.62
285.132	1974.62
285.364	2044.62
285.595	1904.62
285.826	1987.62
286.057	2046.62
286.288	1977.62
286.52	2016.62
286.751	2157.62
286.982	2112.62
287.213	1861.62
287.444	1754.62
287.675	1880.62
287.906	1868.62
288.138	1551.62
288.369	1359.62
288.6	1333.62
288.831	1381.62
289.062	1571.62
289.293	1732.62
289.524	1641.62
289.755	1610.62
289.986	1655.62
290.217	1456.62
290.448	1096.62
290.679	966.62
290.91	913.62
291.141	956.62
291.371	971.62
291.602	1011.62
291.833	1006.62
292.064	1079.62
292.295	1191.62
292.526	1412.62
292.757	1447.62
292.987	1550.62
293.218	1603.62
293.449	1603.62
293.68	1682.62
293.91	1588.62
294.141	1618.62
294.372	1515.62
294.603	1426.62
294.833	1606.62
295.064	1895.62
295.295	1721.62
295.525	1315.62
295.756	1140.62
295.987	978.62
296.217	1001.62
296.448	1043.62
296.679	1109.62
296.909	1210.62
297.14	1307.62
297.37	1459.62
297.601	1363.62
297.831	1169.62
298.062	1296.62
298.292	1410.62
298.523	1586.62
298.753	1841.62
298.984	1627.62
299.214	1289.62
299.445	1108.62
299.675	1034.62
299.905	1044.62
300.136	1075.62
300.366	1200.62
300.597	1174.62
300.827	1021.62
301.057	1009.62
301.288	1021.62
301.518	1114.62
301.748	1246.62
301.979	1345.62
302.209	1442.62
302.439	1419.62
302.669	1235.62
302.9	1266.62
303.13	1166.62
303.36	1112.62
303.59	1060.62
303.82	1084.62
304.051	1259.62
304.281	1317.62
304.511	1280.62
304.741	1144.62
304.971	1224.62
305.201	1312.62
305.431	1216.62
305.661	1092.62
305.891	1080.62
306.121	1092.62
306.352	979.62
306.582	868.62
306.812	859.62
307.042	865.62
307.272	825.62
307.502	816.62
307.731	855.62
307.961	896.62
308.191	887.62
308.421	816.62
308.651	801.62
308.881	768.62
309.111	768.62
309.341	815.62
309.571	897.62
309.8	929.62
310.03	966.62
310.26	999.62
310.49	965.62
310.72	883.62
310.949	882.62
311.179	893.62
311.409	930.62
311.639	1097.62
311.868	1402.62
312.098	1810.62
312.328	1927.62
312.557	1858.62
312.787	1870.62
313.017	1691.62
313.246	1847.62
313.476	1961.62
313.706	1631.62
313.935	1292.62
314.165	1059.62
314.394	967.62
314.624	973.62
314.853	1034.62
315.083	1035.62
315.312	1000.62
315.542	1008.62
315.771	958.62
316.001	857.62
316.23	856.62
316.46	844.62
316.689	888.62
316.919	900.62
317.148	886.62
317.377	881.62
317.607	879.62
317.836	956.62
318.065	1132.62
318.295	1247.62
318.524	1147.62
318.753	1000.62
318.983	959.62
319.212	919.62
319.441	1007.62
319.67	1126.62
319.9	1204.62
320.129	1146.62
320.358	967.62
320.587	933.62
320.816	1015.62
321.046	1189.62
321.275	1360.62
321.504	1338.62
321.733	1307.62
321.962	1222.62
322.191	1155.62
322.42	1138.62
322.649	1154.62
322.878	1216.62
323.108	1192.62
323.337	1097.62
323.566	1097.62
323.795	1048.62
324.024	1030.62
324.253	984.62
324.482	985.62
324.71	1075.62
324.939	1231.62
325.168	1113.62
325.397	953.62
325.626	902.62
325.855	926.62
326.084	939.62
326.313	903.62
326.542	838.62
326.77	871.62
326.999	915.62
327.228	967.62
327.457	995.62
327.686	1014.62
327.914	867.62
328.143	834.62
328.372	837.62
328.6	852.62
328.829	855.62
329.058	868.62
329.287	911.62
329.515	886.62
329.744	883.62
329.972	839.62
330.201	816.62
330.43	831.62
330.658	946.62
330.887	1082.62
331.115	1046.62
331.344	1016.62
331.572	956.62
331.801	899.62
332.03	868.62
332.258	875.62
332.486	942.62
332.715	978.62
332.943	902.62
333.172	916.62
333.4	946.62
333.629	1024.62
333.857	1115.62
334.085	1105.62
334.314	1135.62
334.542	1062.62
334.771	982.62
334.999	936.62
335.227	958.62
335.455	974.62
335.684	1021.62
335.912	1228.62
336.14	1326.62
336.369	1294.62
336.597	1236.62
336.825	1379.62
337.053	1487.62
337.281	1227.62
337.51	978.62
337.738	971.62
337.966	1081.62
338.194	1235.62
338.422	1119.62
338.65	937.62
338.878	907.62
339.106	913.62
339.334	1010.62
339.562	1080.62
339.79	1014.62
340.018	968.62
340.246	1060.62
340.474	1227.62
340.702	1266.62
340.93	1334.62
341.158	1321.62
341.386	1110.62
341.614	1076.62
341.842	1121.62
342.07	1179.62
342.298	1359.62
342.526	1412.62
342.754	1225.62
342.981	1090.62
343.209	1060.62
343.437	1140.62
343.665	1185.62
343.893	1212.62
344.12	1362.62
344.348	1633.62
344.576	1426.62
344.804	1201.62
345.031	1036.62
345.259	988.62
345.487	975.62
345.714	1013.62
345.942	1087.62
346.17	1183.62
346.397	1153.62
346.625	994.62
346.853	964.62
347.08	945.62
347.308	1003.62
347.535	1137.62
347.763	1117.62
347.99	1003.62
348.218	927.62
348.445	967.62
348.673	997.62
348.9	1016.62
349.128	1064.62
349.355	1095.62
349.583	1056.62
349.81	1013.62
350.037	958.62
350.265	841.62
350.492	792.62
350.72	782.62
350.947	821.62
351.174	892.62
351.402	967.62
351.629	977.62
351.856	936.62
352.083	894.62
352.311	969.62
352.538	1058.62
352.765	1127.62
352.992	1026.62
353.22	974.62
353.447	994.62
353.674	966.62
353.901	952.62
354.128	977.62
354.355	994.62
354.583	1001.62
354.81	964.62
355.037	1032.62
355.264	983.62
355.491	1072.62
355.718	1191.62
355.945	1122.62
356.172	1100.62
356.399	1100.62
356.626	1335.62
356.853	1636.62
357.08	1775.62
357.307	1750.62
357.534	1405.62
357.761	1413.62
357.988	1782.62
358.215	2046.62
358.441	1968.62
358.668	1622.62
358.895	1497.62
359.122	1214.62
359.349	1226.62
359.576	1285.62
359.802	1088.62
360.029	947.62
360.256	1047.62
360.483	1288.62
360.709	1609.62
360.936	1646.62
361.163	1487.62
361.39	1114.62
361.616	1094.62
361.843	1230.62
362.07	1511.62
362.296	1377.62
362.523	1077.62
362.749	945.62
362.976	1000.62
363.203	1211.62
363.429	1348.62
363.656	1057.62
363.882	982.62
364.109	982.62
364.335	997.62
364.562	994.62
364.788	1104.62
365.015	1306.62
365.241	1156.62
365.468	960.62
365.694	853.62
365.92	799.62
366.147	830.62
366.373	800.62
366.599	790.62
366.826	807.62
367.052	819.62
367.278	852.62
367.505	806.62
367.731	911.62
367.957	1036.62
368.184	1046.62
368.41	970.62
368.636	1027.62
368.862	1030.62
369.089	1014.62
369.315	898.62
369.541	865.62
369.767	887.62
369.993	830.62
370.219	858.62
370.445	926.62
370.672	1031.62
370.898	1096.62
371.124	1099.62
371.35	967.62
371.576	920.62
371.802	985.62
372.028	1169.62
372.254	1363.62
372.48	1157.62
372.706	1068.62
372.932	1099.62
373.158	1166.62
373.384	1346.62
373.61	1821.62
373.835	1842.62
374.061	1355.62
374.287	1154.62
374.513	1386.62
374.739	1626.62
374.965	1715.62
375.191	1669.62
375.416	1164.62
375.642	1057.62
375.868	1209.62
376.094	1366.62
376.319	1198.62
376.545	1283.62
376.771	1372.62
376.997	1120.62
377.222	858.62
377.448	762.62
377.674	770.62
377.899	761.62
378.125	758.62
378.35	771.62
378.576	807.62
378.802	868.62
379.027	942.62
379.253	902.62
379.478	920.62
379.704	1033.62
379.929	1062.62
380.155	1075.62
380.38	952.62
380.606	1009.62
380.831	1108.62
381.057	1038.62
381.282	967.62
381.507	1174.62
381.733	1459.62
381.958	1538.62
382.184	1640.62
382.409	1700.62
382.634	1635.62
382.86	1769.62
383.085	1431.62
383.31	1134.62
383.535	1200.62
383.761	1227.62
383.986	1161.62
384.211	1457.62
384.436	1398.62
384.662	1054.62
384.887	1022.62
385.112	1008.62
385.337	1048.62
385.562	992.62
385.787	1095.62
386.013	1225.62
386.238	1275.62
386.463	1024.62
386.688	1000.62
386.913	926.62
387.138	896.62
387.363	971.62
387.588	981.62
387.813	1016.62
388.038	1120.62
388.263	1003.62
388.488	963.62
388.713	1134.62
388.938	1228.62
389.163	1044.62
389.387	901.62
389.612	934.62
389.837	978.62
390.062	952.62
390.287	1000.62
390.512	1014.62
390.736	944.62
390.961	893.62
391.186	883.62
391.411	852.62
391.636	873.62
391.86	927.62
392.085	1035.62
392.31	1013.62
392.534	934.62
392.759	932.62
392.984	974.62
393.208	965.62
393.433	864.62
393.658	803.62
393.882	776.62
394.107	796.62
394.331	833.62
394.556	779.62
394.78	806.62
395.005	854.62
395.229	883.62
395.454	889.62
395.678	913.62
395.903	918.62
396.127	885.62
396.352	890.62
396.576	997.62
396.801	1033.62
397.025	1085.62
397.249	1109.62
397.474	916.62
397.698	937.62
397.922	982.62
398.147	932.62
398.371	921.62
398.595	980.62
398.82	966.62
399.044	920.62
399.268	1016.62
399.492	1034.62
399.717	1082.62
399.941	1090.62
400.165	1041.62
400.389	1046.62
400.613	1059.62
400.837	1060.62
401.062	923.62
401.286	893.62
401.51	911.62
401.734	903.62
401.958	934.62
402.182	914.62
402.406	892.62
402.63	962.62
402.854	991.62
403.078	1072.62
403.302	1307.62
403.526	1323.62
403.75	1155.62
403.974	1072.62
404.198	1081.62
404.422	1216.62
404.645	1459.62
404.869	1589.62
405.093	1204.62
405.317	980.62
405.541	974.62
405.765	988.62
405.988	1030.62
406.212	1107.62
406.436	1326.62
406.66	1420.62
406.883	1159.62
407.107	1184.62
407.331	1406.62
407.555	1312.62
407.778	1094.62
408.002	1080.62
408.226	1060.62
408.449	1062.62
408.673	1013.62
408.896	908.62
409.12	889.62
409.344	892.62
409.567	890.62
409.791	924.62
410.014	908.62
410.238	924.62
410.461	883.62
410.685	923.62
410.908	911.62
411.132	935.62
411.355	925.62
411.578	927.62
411.802	967.62
412.025	985.62
412.249	970.62
412.472	962.62
412.695	934.62
412.919	969.62
413.142	981.62
413.365	1079.62
413.589	1061.62
413.812	959.62
414.035	905.62
414.258	931.62
414.482	1060.62
414.705	1083.62
414.928	923.62
415.151	900.62
415.374	882.62
415.597	896.62
415.821	930.62
416.044	911.62
416.267	884.62
416.49	867.62
416.713	864.62
416.936	859.62
417.159	882.62
417.382	903.62
417.605	896.62
417.828	898.62
418.051	918.62
418.274	946.62
418.497	939.62
418.72	954.62
418.943	950.62
419.166	992.62
419.389	1047.62
419.611	991.62
419.834	1050.62
420.057	1122.62
420.28	1129.62
420.503	1041.62
420.726	923.62
420.948	878.62
421.171	890.62
421.394	889.62
421.617	869.62
421.839	908.62
422.062	936.62
422.285	928.62
422.507	932.62
422.73	960.62
422.953	983.62
423.175	943.62
423.398	969.62
423.621	1007.62
423.843	1055.62
424.066	988.62
424.288	952.62
424.511	914.62
424.733	922.62
424.956	947.62
425.178	1078.62
425.401	1278.62
425.623	1398.62
425.846	1152.62
426.068	1007.62
426.291	1119.62
426.513	1022.62
426.735	954.62
426.958	991.62
427.18	1180.62
427.402	1504.62
427.625	1482.62
427.847	1216.62
428.069	928.62
428.292	903.62
428.514	933.62
428.736	885.62
428.958	959.62
429.181	1137.62
429.403	954.62
429.625	883.62
429.847	878.62
430.069	890.62
430.292	916.62
430.514	888.62
430.736	947.62
430.958	1214.62
431.18	1109.62
431.402	852.62
431.624	840.62
431.846	794.62
432.068	814.62
432.29	816.62
432.512	922.62
432.734	1193.62
432.956	1117.62
433.178	902.62
433.4	863.62
433.622	882.62
433.844	889.62
434.066	967.62
434.287	930.62
434.509	901.62
434.731	906.62
434.953	863.62
435.175	912.62
435.397	1064.62
435.618	907.62
435.84	825.62
436.062	851.62
436.284	851.62
436.505	792.62
436.727	787.62
436.949	814.62
437.17	847.62
437.392	863.62
437.614	826.62
437.835	842.62
438.057	850.62
438.278	1026.62
438.5	1440.62
438.721	1414.62
438.943	959.62
439.165	826.62
439.386	800.62
439.608	788.62
439.829	770.62
440.05	772.62
440.272	864.62
440.493	1027.62
440.715	1233.62
440.936	978.62
441.158	857.62
441.379	869.62
441.6	987.62
441.822	1030.62
442.043	872.62
442.264	896.62
442.486	894.62
442.707	866.62
442.928	895.62
443.149	894.62
443.371	872.62
443.592	960.62
443.813	934.62
444.034	899.62
444.255	903.62
444.476	938.62
444.698	949.62
444.919	938.62
445.14	1084.62
445.361	1028.62
445.582	976.62
445.803	959.62
446.024	952.62
446.245	938.62
446.466	901.62
446.687	903.62
446.908	881.62
447.129	858.62
447.35	837.62
447.571	792.62
447.792	806.62
448.013	792.62
448.234	771.62
448.455	775.62
448.675	804.62
448.896	807.62
449.117	827.62
449.338	832.62
449.559	826.62
449.779	889.62
450	880.62
450.221	852.62
450.442	821.62
450.662	806.62
450.883	807.62
451.104	835.62
451.324	803.62
451.545	830.62
451.766	779.62
451.986	805.62
452.207	794.62
452.428	780.62
452.648	780.62
452.869	833.62
453.089	853.62
453.31	826.62
453.53	766.62
453.751	738.62
453.971	729.62
454.192	772.62
454.412	792.62
454.633	734.62
454.853	770.62
455.073	729.62
455.294	731.62
455.514	746.62
455.734	793.62
455.955	800.62
456.175	844.62
456.395	775.62
456.616	720.62
456.836	702.62
457.056	705.62
457.276	699.62
457.497	735.62
457.717	744.62
457.937	723.62
458.157	718.62
458.377	727.62
458.598	751.62
458.818	790.62
459.038	825.62
459.258	830.62
459.478	855.62
459.698	892.62
459.918	915.62
460.138	871.62
460.358	906.62
460.578	859.62
460.798	886.62
461.018	896.62
461.238	849.62
461.458	880.62
461.678	894.62
461.898	928.62
462.118	946.62
462.338	965.62
462.558	963.62
462.777	981.62
462.997	1002.62
463.217	1006.62
463.437	1020.62
463.657	1031.62
463.876	961.62
464.096	942.62
464.316	981.62
464.536	992.62
464.755	1007.62
464.975	1030.62
465.195	971.62
465.414	1016.62
465.634	959.62
465.854	920.62
466.073	857.62
466.293	867.62
466.512	938.62
466.732	1055.62
466.951	1052.62
467.171	949.62
467.391	900.62
467.61	874.62
467.829	926.62
468.049	963.62
468.268	861.62
468.488	847.62
468.707	912.62
468.927	1054.62
469.146	1151.62
469.365	1051.62
469.585	940.62
469.804	999.62
470.023	1120.62
470.243	974.62
470.462	932.62
470.681	920.62
470.901	918.62
471.12	970.62
471.339	988.62
471.558	954.62
471.777	936.62
471.997	1042.62
472.216	1130.62
472.435	1095.62
472.654	983.62
472.873	963.62
473.092	983.62
473.311	1055.62
473.53	978.62
473.749	931.62
473.968	963.62
474.187	996.62
474.406	949.62
474.625	944.62
474.844	972.62
475.063	1047.62
475.282	1051.62
475.501	1056.62
475.72	1127.62
475.939	1125.62
476.158	1093.62
476.377	1285.62
476.596	1459.62
476.814	1497.62
477.033	1264.62
477.252	1058.62
477.471	979.62
477.69	1026.62
477.908	1122.62
478.127	1164.62
478.346	1070.62
478.564	1154.62
478.783	1105.62
479.002	1141.62
479.22	1318.62
479.439	1393.62
479.658	1252.62
479.876	1118.62
480.095	1211.62
480.313	1242.62
480.532	1150.62
480.751	1119.62
480.969	1136.62
481.188	1290.62
481.406	1315.62
481.624	1258.62
481.843	1125.62
482.061	1074.62
482.28	1194.62
482.498	1472.62
482.717	1402.62
482.935	1236.62
483.153	1141.62
483.372	1084.62
483.59	1089.62
483.808	1048.62
484.027	1041.62
484.245	997.62
484.463	971.62
484.681	1025.62
484.9	1104.62
485.118	1206.62
485.336	1130.62
485.554	1065.62
485.772	1120.62
485.99	1172.62
486.209	1255.62
486.427	1236.62
486.645	1192.62
486.863	1302.62
487.081	1222.62
487.299	1407.62
487.517	1339.62
487.735	1196.62
487.953	1206.62
488.171	1266.62
488.389	1195.62
488.607	1140.62
488.825	1167.62
489.043	1276.62
489.261	1452.62
489.479	1545.62
489.696	1286.62
489.914	1190.62
490.132	1092.62
490.35	1127.62
490.568	1147.62
490.786	1134.62
491.003	1130.62
491.221	1158.62
491.439	1146.62
491.657	1152.62
491.874	1263.62
492.092	1513.62
492.31	1808.62
492.527	1804.62
492.745	1530.62
492.963	1345.62
493.18	1299.62
493.398	1298.62
493.615	1281.62
493.833	1284.62
494.05	1278.62
494.268	1254.62
494.485	1250.62
494.703	1201.62
494.92	1241.62
495.138	1190.62
495.355	1252.62
495.573	1257.62
495.79	1404.62
496.008	1835.62
496.225	1598.62
496.442	1398.62
496.66	1345.62
496.877	1452.62
497.094	1410.62
497.312	1316.62
497.529	1342.62
497.746	1383.62
497.963	1425.62
498.181	1496.62
498.398	1638.62
498.615	1672.62
498.832	1704.62
499.049	1719.62
499.267	1549.62
499.484	1562.62
499.701	1646.62
499.918	1758.62
500.135	1856.62
500.352	1881.62
500.569	1963.62
500.786	2032.62
501.003	2035.62
501.22	1809.62
501.437	1730.62
501.654	1651.62
501.871	1641.62
502.088	1642.62
502.305	1491.62
502.522	1538.62
502.739	1549.62
502.956	1397.62
503.172	1406.62
503.389	1326.62
503.606	1283.62
503.823	1316.62
504.04	1332.62
504.256	1352.62
504.473	1343.62
504.69	1359.62
504.907	1423.62
505.123	1358.62
505.34	1458.62
505.557	1420.62
505.773	1347.62
505.99	1310.62
506.207	1354.62
506.423	1271.62
506.64	1222.62
506.856	1250.62
507.073	1366.62
507.289	1339.62
507.506	1372.62
507.722	1407.62
507.939	1442.62
508.155	1472.62
508.372	1330.62
508.588	1298.62
508.805	1238.62
509.021	1194.62
509.238	1192.62
509.454	1211.62
509.67	1182.62
509.887	1206.62
510.103	1376.62
510.319	1338.62
510.536	1192.62
510.752	1137.62
510.968	1038.62
511.184	1035.62
511.401	1040.62
511.617	1034.62
511.833	1058.62
512.049	1064.62
512.265	1103.62
512.481	1139.62
512.698	1263.62
512.914	1369.62
513.13	1250.62
513.346	1152.62
513.562	1168.62
513.778	1176.62
513.994	1158.62
514.21	1259.62
514.426	1241.62
514.642	1152.62
514.858	1121.62
515.074	1205.62
515.29	1297.62
515.506	1402.62
515.721	1332.62
515.937	1224.62
516.153	1178.62
516.369	1170.62
516.585	1194.62
516.801	1355.62
517.016	1618.62
517.232	1572.62
517.448	1522.62
517.664	1392.62
517.879	1288.62
518.095	1273.62
518.311	1316.62
518.527	1326.62
518.742	1414.62
518.958	1474.62
519.173	1419.62
519.389	1388.62
519.605	1449.62
519.82	1504.62
520.036	1771.62
520.251	1743.62
520.467	1590.62
520.682	2403.62
520.898	2854.62
521.113	2725.62
521.329	1723.62
521.544	1558.62
521.76	1502.62
521.975	1347.62
522.19	1283.62
522.406	1361.62
522.621	1498.62
522.836	1523.62
523.052	1590.62
523.267	1293.62
523.482	1331.62
523.698	1386.62
523.913	1342.62
524.128	1228.62
524.343	1186.62
524.559	1204.62
524.774	1147.62
524.989	1152.62
525.204	1184.62
525.419	1351.62
525.634	1253.62
525.849	1267.62
526.064	1292.62
526.28	1280.62
526.495	1492.62
526.71	1542.62
526.925	1353.62
527.14	1408.62
527.355	1360.62
527.57	1099.62
527.785	1225.62
527.999	1134.62
528.214	1068.62
528.429	1095.62
528.644	1068.62
528.859	1018.62
529.074	994.62
529.289	976.62
529.503	1001.62
529.718	1012.62
529.933	1182.62
530.148	1239.62
530.363	1050.62
530.577	981.62
530.792	1006.62
531.007	1042.62
531.221	992.62
531.436	972.62
531.651	1002.62
531.865	1018.62
532.08	1035.62
532.295	1018.62
532.509	1040.62
532.724	1174.62
532.938	1324.62
533.153	1506.62
533.367	1216.62
533.582	1152.62
533.796	1126.62
534.011	1040.62
534.225	1067.62
534.44	1086.62
534.654	1082.62
534.868	1269.62
535.083	1098.62
535.297	990.62
535.511	1024.62
535.726	1146.62
535.94	1098.62
536.154	1031.62
536.369	1035.62
536.583	998.62
536.797	1024.62
537.011	1026.62
537.225	1138.62
537.44	1200.62
537.654	1046.62
537.868	1048.62
538.082	1031.62
538.296	1022.62
538.51	1073.62
538.724	1082.62
538.938	1052.62
539.153	984.62
539.367	967.62
539.581	988.62
539.795	1066.62
540.009	1179.62
540.222	1046.62
540.436	1076.62
540.65	1142.62
540.864	1146.62
541.078	1179.62
541.292	1348.62
541.506	1112.62
541.72	1076.62
541.934	1053.62
542.147	1016.62
542.361	1042.62
542.575	1057.62
542.789	1028.62
543.002	962.62
543.216	1089.62
543.43	994.62
543.644	929.62
543.857	914.62
544.071	937.62
544.285	940.62
544.498	945.62
544.712	924.62
544.925	1008.62
545.139	994.62
545.352	888.62
545.566	909.62
545.779	1080.62
545.993	967.62
546.206	897.62
546.42	903.62
546.633	917.62
546.847	869.62
547.06	858.62
547.274	869.62
547.487	891.62
547.7	970.62
547.914	1036.62
548.127	1113.62
548.34	1080.62
548.554	966.62
548.767	1012.62
548.98	1100.62
549.193	963.62
549.407	969.62
549.62	1202.62
549.833	1142.62
550.046	1164.62
550.259	1169.62
550.473	1034.62
550.686	973.62
550.899	1001.62
551.112	992.62
551.325	1082.62
551.538	1096.62
551.751	941.62
551.964	903.62
552.177	874.62
552.39	896.62
552.603	922.62
552.816	936.62
553.029	892.62
553.242	896.62
553.455	952.62
553.667	1038.62
553.88	973.62
554.093	888.62
554.306	850.62
554.519	843.62
554.732	785.62
554.944	787.62
555.157	790.62
555.37	790.62
555.583	743.62
555.795	762.62
556.008	806.62
556.221	803.62
556.433	792.62
556.646	798.62
556.859	801.62
557.071	803.62
557.284	841.62
557.496	837.62
557.709	823.62
557.921	780.62
558.134	759.62
558.346	735.62
558.559	755.62
558.771	745.62
558.984	830.62
559.196	775.62
559.409	722.62
559.621	715.62
559.833	716.62
560.046	721.62
560.258	714.62
560.47	762.62
560.683	721.62
560.895	674.62
561.107	660.62
561.32	681.62
561.532	698.62
561.744	780.62
561.956	780.62
562.168	705.62
562.381	725.62
562.593	729.62
562.805	769.62
563.017	702.62
563.229	690.62
563.441	666.62
563.653	682.62
563.865	715.62
564.077	703.62
564.289	687.62
564.501	699.62
564.713	756.62
564.925	720.62
565.137	685.62
565.349	711.62
565.561	688.62
565.773	715.62
565.985	763.62
566.197	819.62
566.408	870.62
566.62	849.62
566.832	853.62
567.044	863.62
567.255	920.62
567.467	973.62
567.679	900.62
567.891	870.62
568.102	858.62
568.314	911.62
568.526	858.62
568.737	824.62
568.949	847.62
569.161	750.62
569.372	722.62
569.584	696.62
569.795	698.62
570.007	690.62
570.218	750.62
570.43	739.62
570.641	676.62
570.853	667.62
571.064	671.62
571.276	698.62
571.487	725.62
571.698	674.62
571.91	678.62
572.121	661.62
572.333	648.62
572.544	630.62
572.755	624.62
572.966	633.62
573.178	638.62
573.389	644.62
573.6	649.62
573.811	632.62
574.023	569.62
574.234	580.62
574.445	595.62
574.656	592.62
574.867	576.62
575.078	594.62
575.289	590.62
575.501	638.62
575.712	609.62
575.923	560.62
576.134	544.62
576.345	571.62
576.556	564.62
576.767	521.62
576.978	542.62
577.188	526.62
577.399	525.62
577.61	529.62
577.821	539.62
578.032	555.62
578.243	569.62
578.454	572.62
578.665	565.62
578.875	545.62
579.086	530.62
579.297	569.62
579.508	570.62
579.718	575.62
579.929	577.62
580.14	547.62
580.35	514.62
580.561	500.62
580.772	489.62
580.982	500.62
581.193	457.62
581.403	474.62
581.614	478.62
581.825	477.62
582.035	448.62
582.246	480.62
582.456	483.62
582.667	475.62
582.877	463.62
583.087	479.62
583.298	476.62
583.508	472.62
583.719	458.62
583.929	437.62
584.139	442.62
584.35	460.62
584.56	484.62
584.77	483.62
584.981	490.62
585.191	491.62
585.401	444.62
585.611	494.62
585.821	515.62
586.032	502.62
586.242	490.62
586.452	472.62
586.662	477.62
586.872	494.62
587.082	496.62
587.292	483.62
587.502	467.62
587.713	466.62
587.923	456.62
588.133	512.62
588.343	499.62
588.553	460.62
588.762	467.62
588.972	448.62
589.182	464.62
589.392	455.62
589.602	458.62
589.812	472.62
590.022	491.62
590.232	532.62
590.441	463.62
590.651	464.62
590.861	449.62
591.071	459.62
591.281	449.62
591.49	439.62
591.7	476.62
591.91	464.62
592.119	445.62
592.329	462.62
592.539	462.62
592.748	474.62
592.958	478.62
593.167	485.62
593.377	472.62
593.587	494.62
593.796	493.62
594.006	509.62
594.215	478.62
594.424	484.62
594.634	476.62
594.843	497.62
595.053	444.62
595.262	465.62
595.472	439.62
595.681	423.62
595.89	440.62
596.1	443.62
596.309	444.62
596.518	439.62
596.727	422.62
596.937	424.62
597.146	423.62
597.355	467.62
597.564	441.62
597.774	424.62
597.983	397.62
598.192	418.62
598.401	398.62
598.61	404.62
598.819	387.62
599.028	408.62
599.237	382.62
599.446	393.62
599.655	378.62
599.864	379.62
600.073	395.62
600.282	375.62
600.491	371.62
600.7	408.62
600.909	396.62
601.118	389.62
601.327	380.62
601.536	383.62
601.745	379.62
601.953	427.62
602.162	411.62
602.371	386.62
602.58	391.62
602.789	388.62
602.997	372.62
603.206	373.62
603.415	378.62
603.623	359.62
603.832	375.62
604.041	359.62
604.249	352.62
604.458	390.62
604.666	370.62
604.875	336.62
605.084	377.62
605.292	366.62
605.501	386.62
605.709	374.62
605.918	361.62
606.126	358.62
606.334	376.62
606.543	371.62
606.751	373.62
606.96	359.62
607.168	353.62
607.376	339.62
607.585	360.62
607.793	360.62
608.001	346.62
608.21	342.62
608.418	372.62
608.626	372.62
608.834	353.62
609.043	341.62
609.251	357.62
609.459	328.62
609.667	351.62
609.875	346.62
610.083	345.62
610.291	349.62
610.499	335.62
610.707	346.62
610.916	340.62
611.124	337.62
611.332	331.62
611.54	334.62
611.748	340.62
611.955	336.62
612.163	344.62
612.371	361.62
612.579	337.62
612.787	331.62
612.995	348.62
613.203	345.62
613.411	335.62
613.618	333.62
613.826	334.62
614.034	355.62
614.242	340.62
614.449	320.62
614.657	321.62
614.865	323.62
615.072	314.62
615.28	340.62
615.488	335.62
615.695	325.62
615.903	323.62
616.111	330.62
616.318	332.62
616.526	330.62
616.733	317.62
616.941	338.62
617.148	329.62
617.356	339.62
617.563	322.62
617.771	335.62
617.978	324.62
618.185	312.62
618.393	316.62
618.6	321.62
618.807	312.62
619.015	320.62
619.222	328.62
619.429	312.62
619.637	290.62
619.844	297.62
620.051	303.62
620.258	303.62
620.466	300.62
620.673	292.62
620.88	306.62
621.087	299.62
621.294	297.62
621.501	297.62
621.708	287.62
621.915	316.62
622.122	278.62
622.329	296.62
622.536	304.62
622.743	296.62
622.95	286.62
623.157	302.62
623.364	309.62
623.571	310.62
623.778	296.62
623.985	329.62
624.192	314.62
624.399	318.62
624.606	278.62
624.812	288.62
625.019	300.62
625.226	319.62
625.433	319.62
625.639	295.62
625.846	298.62
626.053	288.62
626.259	281.62
626.466	294.62
626.673	312.62
626.879	297.62
627.086	265.62
627.293	286.62
627.499	275.62
627.706	279.62
627.912	258.62
628.119	274.62
628.325	260.62
628.532	264.62
628.738	265.62
628.945	258.62
629.151	262.62
629.357	267.62
629.564	277.62
629.77	268.62
629.976	261.62
630.183	262.62
630.389	269.62
630.595	276.62
630.802	280.62
631.008	250.62
631.214	252.62
631.42	268.62
631.627	259.62
631.833	256.62
632.039	247.62
632.245	252.62
632.451	255.62
632.657	235.62
632.863	243.62
633.069	255.62
633.275	250.62
633.481	240.62
633.688	262.62
633.893	232.62
634.099	235.62
634.305	253.62
634.511	251.62
634.717	256.62
634.923	243.62
635.129	256.62
635.335	236.62
635.541	263.62
635.747	219.62
635.952	235.62
636.158	252.62
636.364	255.62
636.57	249.62
636.775	238.62
636.981	242.62
637.187	231.62
637.392	231.62
637.598	217.62
637.804	233.62
638.009	228.62
638.215	249.62
638.421	230.62
638.626	230.62
638.832	234.62
639.037	217.62
639.243	227.62
639.448	230.62
639.654	244.62
639.859	240.62
640.065	226.62
640.27	247.62
640.475	242.62
640.681	220.62
640.886	222.62
641.091	239.62
641.297	238.62
641.502	227.62
641.707	219.62
641.913	235.62
642.118	214.62
642.323	233.62
642.528	228.62
642.733	207.62
642.939	216.62
643.144	215.62
643.349	207.62
643.554	219.62
643.759	227.62
643.964	201.62
644.169	208.62
644.374	215.62
644.579	211.62
644.784	200.62
644.989	212.62
645.194	215.62
645.399	208.62
645.604	227.62
645.809	212.62
646.014	217.62
646.219	195.62
646.423	206.62
646.628	213.62
646.833	201.62
647.038	211.62
647.243	219.62
647.447	216.62
647.652	200.62
647.857	211.62
648.062	210.62
648.266	202.62
648.471	203.62
648.676	203.62
648.88	218.62
649.085	193.62
649.289	210.62
649.494	208.62
649.698	224.62
649.903	214.62
650.107	205.62
650.312	208.62
650.516	193.62
650.721	200.62
650.925	191.62
651.13	186.62
651.334	193.62
651.539	200.62
651.743	200.62
651.947	187.62
652.152	186.62
652.356	205.62
652.56	180.62
652.764	174.62
652.969	176.62
653.173	187.62
653.377	177.62
653.581	182.62
653.785	161.62
653.99	179.62
654.194	174.62
654.398	160.62
654.602	162.62
654.806	145.62
655.01	166.62
655.214	158.62
655.418	169.62
655.622	149.62
655.826	159.62
656.03	154.62
656.234	176.62
656.438	190.62
656.642	168.62
656.846	156.62
657.049	143.62
657.253	144.62
657.457	148.62
657.661	135.62
657.865	132.62
658.068	134.62
658.272	116.62
658.476	138.62
658.68	121.62
658.883	120.62
659.087	106.62
659.291	102.62
659.494	115.62
659.698	122.62
659.901	104.62
660.105	117.62
660.309	107.62
660.512	107.62
660.716	102.62
660.919	97.62
661.123	98.62
661.326	104.62
661.53	96.62
661.733	103.62
661.936	83.62
662.14	97.62
662.343	87.62
662.546	101.62
662.75	90.62
662.953	83.62
663.156	86.62
663.36	78.62
663.563	91.62
663.766	101.62
663.969	84.62
664.173	83.62
664.376	83.62
664.579	112.62
664.782	83.62
664.985	86.62
665.188	87.62
665.391	82.62
665.594	72.62
665.797	72.62
666	96.62
666.203	79.62
666.406	86.62
666.609	88.62
666.812	90.62
667.015	83.62
667.218	90.62
667.421	81.62
667.624	86.62
667.827	77.62
668.03	87.62
668.232	74.62
668.435	80.62
668.638	73.62
668.841	80.62
669.043	83.62
669.246	86.62
669.449	95.62
669.651	72.62
669.854	66.62
670.057	77.62
670.259	80.62
670.462	88.62
670.665	90.62
670.867	89.62
671.07	89.62
671.272	89.62
671.475	91.62
671.677	77.62
671.88	88.62
672.082	76.62
672.284	83.62
672.487	73.62
672.689	75.62
672.892	79.62
