Data from NickelSpatula_HRD10591_16-34-29-126.txt Node
Date: Mon Jul 22 16:34:29 EDT 2019
User: cochatt
Spectrometer: HR+D1059
Trigger mode: 1
Integration Time (sec): 1.000000E-1
Scans to average: 1
Electric dark correction enabled: true
Nonlinearity correction enabled: false
Boxcar width: 0
XAxis mode: Wavelengths
Number of Pixels in Spectrum: 2048
>>>>>Begin Spectral Data<<<<<
223.165	-13.12
223.4	-13.12
223.635	-13.12
223.869	-13.12
224.104	-23.12
224.338	-7.12
224.573	-12.12
224.808	-13.12
225.042	-2.12
225.277	-12.12
225.511	-2.12
225.746	3.88
225.98	1.88
226.215	-4.12
226.449	12.88
226.683	24.88
226.918	20.88
227.152	37.88
227.387	35.88
227.621	36.88
227.856	42.88
228.09	37.88
228.324	56.88
228.559	54.88
228.793	67.88
229.027	75.88
229.262	67.88
229.496	84.88
229.73	85.88
229.964	83.88
230.199	103.88
230.433	99.88
230.667	93.88
230.901	84.88
231.136	102.88
231.37	113.88
231.604	92.88
231.838	101.88
232.072	102.88
232.306	100.88
232.541	106.88
232.775	100.88
233.009	119.88
233.243	119.88
233.477	114.88
233.711	130.88
233.945	122.88
234.179	106.88
234.413	123.88
234.647	128.88
234.881	140.88
235.115	130.88
235.349	134.88
235.583	122.88
235.817	126.88
236.051	119.88
236.285	127.88
236.519	142.88
236.753	144.88
236.987	140.88
237.221	140.88
237.455	137.88
237.689	143.88
237.922	137.88
238.156	137.88
238.39	151.88
238.624	165.88
238.858	139.88
239.091	152.88
239.325	155.88
239.559	154.88
239.793	140.88
240.027	165.88
240.26	164.88
240.494	151.88
240.728	164.88
240.961	171.88
241.195	166.88
241.429	184.88
241.662	163.88
241.896	151.88
242.13	139.88
242.363	137.88
242.597	143.88
242.83	170.88
243.064	166.88
243.298	172.88
243.531	165.88
243.765	183.88
243.998	182.88
244.232	173.88
244.465	178.88
244.699	161.88
244.932	178.88
245.166	173.88
245.399	173.88
245.633	158.88
245.866	164.88
246.099	166.88
246.333	195.88
246.566	203.88
246.8	183.88
247.033	200.88
247.266	174.88
247.5	178.88
247.733	165.88
247.966	189.88
248.2	168.88
248.433	178.88
248.666	192.88
248.899	198.88
249.133	207.88
249.366	215.88
249.599	247.88
249.832	232.88
250.066	204.88
250.299	209.88
250.532	196.88
250.765	205.88
250.998	188.88
251.231	192.88
251.465	204.88
251.698	202.88
251.931	209.88
252.164	217.88
252.397	222.88
252.63	248.88
252.863	248.88
253.096	261.88
253.329	258.88
253.562	269.88
253.795	274.88
254.028	306.88
254.261	313.88
254.494	271.88
254.727	276.88
254.96	265.88
255.193	256.88
255.426	264.88
255.659	217.88
255.892	205.88
256.124	211.88
256.357	226.88
256.59	296.88
256.823	260.88
257.056	245.88
257.289	226.88
257.521	232.88
257.754	273.88
257.987	288.88
258.22	260.88
258.452	214.88
258.685	259.88
258.918	292.88
259.151	297.88
259.383	304.88
259.616	340.88
259.849	351.88
260.081	350.88
260.314	372.88
260.547	315.88
260.779	339.88
261.012	372.88
261.244	350.88
261.477	348.88
261.71	348.88
261.942	276.88
262.175	270.88
262.407	264.88
262.64	277.88
262.872	311.88
263.105	360.88
263.337	376.88
263.57	341.88
263.802	257.88
264.035	217.88
264.267	219.88
264.499	194.88
264.732	188.88
264.964	190.88
265.197	190.88
265.429	175.88
265.661	194.88
265.894	210.88
266.126	235.88
266.358	248.88
266.591	292.88
266.823	338.88
267.055	346.88
267.287	314.88
267.52	292.88
267.752	295.88
267.984	333.88
268.216	313.88
268.448	276.88
268.681	275.88
268.913	305.88
269.145	304.88
269.377	294.88
269.609	309.88
269.841	294.88
270.073	298.88
270.306	326.88
270.538	319.88
270.77	331.88
271.002	342.88
271.234	343.88
271.466	348.88
271.698	311.88
271.93	320.88
272.162	321.88
272.394	308.88
272.626	316.88
272.858	328.88
273.09	349.88
273.322	312.88
273.553	275.88
273.785	320.88
274.017	387.88
274.249	479.88
274.481	478.88
274.713	539.88
274.945	593.88
275.176	614.88
275.408	554.88
275.64	525.88
275.872	514.88
276.104	459.88
276.335	405.88
276.567	384.88
276.799	425.88
277.031	451.88
277.262	355.88
277.494	293.88
277.726	274.88
277.957	298.88
278.189	330.88
278.421	319.88
278.652	306.88
278.884	294.88
279.115	279.88
279.347	261.88
279.579	284.88
279.81	280.88
280.042	294.88
280.273	275.88
280.505	274.88
280.736	263.88
280.968	246.88
281.199	263.88
281.431	288.88
281.662	296.88
281.894	275.88
282.125	285.88
282.356	314.88
282.588	324.88
282.819	299.88
283.051	309.88
283.282	364.88
283.513	412.88
283.745	446.88
283.976	437.88
284.207	390.88
284.439	431.88
284.67	408.88
284.901	365.88
285.132	397.88
285.364	433.88
285.595	392.88
285.826	408.88
286.057	444.88
286.288	419.88
286.52	406.88
286.751	437.88
286.982	456.88
287.213	394.88
287.444	379.88
287.675	390.88
287.906	390.88
288.138	353.88
288.369	322.88
288.6	290.88
288.831	299.88
289.062	353.88
289.293	375.88
289.524	354.88
289.755	360.88
289.986	337.88
290.217	327.88
290.448	258.88
290.679	244.88
290.91	213.88
291.141	208.88
291.371	236.88
291.602	253.88
291.833	240.88
292.064	243.88
292.295	276.88
292.526	313.88
292.757	326.88
292.987	337.88
293.218	363.88
293.449	364.88
293.68	386.88
293.91	372.88
294.141	370.88
294.372	344.88
294.603	301.88
294.833	331.88
295.064	389.88
295.295	378.88
295.525	301.88
295.756	282.88
295.987	242.88
296.217	244.88
296.448	252.88
296.679	231.88
296.909	275.88
297.14	312.88
297.37	309.88
297.601	289.88
297.831	268.88
298.062	270.88
298.292	306.88
298.523	318.88
298.753	369.88
298.984	370.88
299.214	294.88
299.445	271.88
299.675	230.88
299.905	245.88
300.136	253.88
300.366	248.88
300.597	268.88
300.827	241.88
301.057	240.88
301.288	262.88
301.518	268.88
301.748	279.88
301.979	306.88
302.209	318.88
302.439	320.88
302.669	300.88
302.9	292.88
303.13	272.88
303.36	254.88
303.59	248.88
303.82	270.88
304.051	272.88
304.281	304.88
304.511	308.88
304.741	270.88
304.971	267.88
305.201	284.88
305.431	291.88
305.661	261.88
305.891	256.88
306.121	269.88
306.352	225.88
306.582	212.88
306.812	204.88
307.042	209.88
307.272	194.88
307.502	185.88
307.731	217.88
307.961	229.88
308.191	195.88
308.421	203.88
308.651	205.88
308.881	184.88
309.111	204.88
309.341	209.88
309.571	221.88
309.8	204.88
310.03	229.88
310.26	233.88
310.49	225.88
310.72	211.88
310.949	204.88
311.179	192.88
311.409	220.88
311.639	242.88
311.868	310.88
312.098	374.88
312.328	414.88
312.557	389.88
312.787	390.88
313.017	345.88
313.246	359.88
313.476	408.88
313.706	340.88
313.935	288.88
314.165	244.88
314.394	230.88
314.624	225.88
314.853	227.88
315.083	234.88
315.312	228.88
315.542	234.88
315.771	241.88
316.001	202.88
316.23	202.88
316.46	203.88
316.689	208.88
316.919	211.88
317.148	198.88
317.377	202.88
317.607	211.88
317.836	217.88
318.065	247.88
318.295	275.88
318.524	267.88
318.753	218.88
318.983	220.88
319.212	206.88
319.441	227.88
319.67	271.88
319.9	267.88
320.129	269.88
320.358	236.88
320.587	207.88
320.816	233.88
321.046	256.88
321.275	283.88
321.504	297.88
321.733	281.88
321.962	274.88
322.191	267.88
322.42	265.88
322.649	273.88
322.878	291.88
323.108	307.88
323.337	261.88
323.566	240.88
323.795	234.88
324.024	241.88
324.253	230.88
324.482	212.88
324.71	248.88
324.939	260.88
325.168	251.88
325.397	212.88
325.626	213.88
325.855	219.88
326.084	204.88
326.313	206.88
326.542	191.88
326.77	194.88
326.999	205.88
327.228	194.88
327.457	233.88
327.686	223.88
327.914	221.88
328.143	212.88
328.372	183.88
328.6	188.88
328.829	206.88
329.058	211.88
329.287	212.88
329.515	208.88
329.744	216.88
329.972	193.88
330.201	182.88
330.43	209.88
330.658	231.88
330.887	237.88
331.115	224.88
331.344	215.88
331.572	219.88
331.801	214.88
332.03	189.88
332.258	205.88
332.486	216.88
332.715	213.88
332.943	211.88
333.172	203.88
333.4	214.88
333.629	234.88
333.857	256.88
334.085	256.88
334.314	238.88
334.542	222.88
334.771	213.88
334.999	209.88
335.227	228.88
335.455	217.88
335.684	223.88
335.912	263.88
336.14	282.88
336.369	255.88
336.597	268.88
336.825	274.88
337.053	330.88
337.281	282.88
337.51	219.88
337.738	208.88
337.966	238.88
338.194	247.88
338.422	227.88
338.65	208.88
338.878	203.88
339.106	221.88
339.334	236.88
339.562	244.88
339.79	230.88
340.018	205.88
340.246	221.88
340.474	259.88
340.702	261.88
340.93	253.88
341.158	287.88
341.386	237.88
341.614	222.88
341.842	227.88
342.07	244.88
342.298	288.88
342.526	306.88
342.754	271.88
342.981	233.88
343.209	248.88
343.437	235.88
343.665	269.88
343.893	262.88
344.12	310.88
344.348	357.88
344.576	318.88
344.804	264.88
345.031	232.88
345.259	223.88
345.487	243.88
345.714	228.88
345.942	246.88
346.17	286.88
346.397	257.88
346.625	228.88
346.853	216.88
347.08	191.88
347.308	219.88
347.535	247.88
347.763	253.88
347.99	232.88
348.218	222.88
348.445	217.88
348.673	229.88
348.9	227.88
349.128	220.88
349.355	228.88
349.583	229.88
349.81	222.88
350.037	224.88
350.265	196.88
350.492	186.88
350.72	180.88
350.947	187.88
351.174	201.88
351.402	216.88
351.629	203.88
351.856	200.88
352.083	205.88
352.311	222.88
352.538	241.88
352.765	251.88
352.992	241.88
353.22	236.88
353.447	239.88
353.674	228.88
353.901	208.88
354.128	224.88
354.355	236.88
354.583	236.88
354.81	240.88
355.037	246.88
355.264	249.88
355.491	245.88
355.718	288.88
355.945	252.88
356.172	245.88
356.399	226.88
356.626	292.88
356.853	336.88
357.08	370.88
357.307	363.88
357.534	313.88
357.761	304.88
357.988	368.88
358.215	401.88
358.441	392.88
358.668	359.88
358.895	326.88
359.122	276.88
359.349	261.88
359.576	293.88
359.802	242.88
360.029	213.88
360.256	218.88
360.483	268.88
360.709	338.88
360.936	372.88
361.163	315.88
361.39	241.88
361.616	239.88
361.843	256.88
362.07	313.88
362.296	290.88
362.523	243.88
362.749	214.88
362.976	210.88
363.203	245.88
363.429	280.88
363.656	230.88
363.882	208.88
364.109	229.88
364.335	227.88
364.562	217.88
364.788	245.88
365.015	282.88
365.241	285.88
365.468	225.88
365.694	178.88
365.92	184.88
366.147	183.88
366.373	181.88
366.599	199.88
366.826	188.88
367.052	193.88
367.278	176.88
367.505	195.88
367.731	209.88
367.957	218.88
368.184	246.88
368.41	224.88
368.636	232.88
368.862	244.88
369.089	227.88
369.315	209.88
369.541	184.88
369.767	171.88
369.993	178.88
370.219	196.88
370.445	192.88
370.672	224.88
370.898	244.88
371.124	259.88
371.35	203.88
371.576	189.88
371.802	219.88
372.028	238.88
372.254	288.88
372.48	252.88
372.706	234.88
372.932	227.88
373.158	233.88
373.384	283.88
373.61	351.88
373.835	369.88
374.061	294.88
374.287	241.88
374.513	292.88
374.739	333.88
374.965	330.88
375.191	341.88
375.416	258.88
375.642	212.88
375.868	247.88
376.094	283.88
376.319	238.88
376.545	253.88
376.771	281.88
376.997	252.88
377.222	208.88
377.448	185.88
377.674	180.88
377.899	173.88
378.125	166.88
378.35	183.88
378.576	181.88
378.802	194.88
379.027	236.88
379.253	205.88
379.478	197.88
379.704	229.88
379.929	252.88
380.155	263.88
380.38	213.88
380.606	230.88
380.831	266.88
381.057	252.88
381.282	218.88
381.507	235.88
381.733	309.88
381.958	312.88
382.184	323.88
382.409	340.88
382.634	353.88
382.86	372.88
383.085	324.88
383.31	249.88
383.535	252.88
383.761	270.88
383.986	259.88
384.211	311.88
384.436	306.88
384.662	243.88
384.887	223.88
385.112	236.88
385.337	237.88
385.562	238.88
385.787	269.88
386.013	288.88
386.238	292.88
386.463	221.88
386.688	232.88
386.913	211.88
387.138	201.88
387.363	217.88
387.588	222.88
387.813	213.88
388.038	259.88
388.263	232.88
388.488	236.88
388.713	252.88
388.938	274.88
389.163	220.88
389.387	208.88
389.612	212.88
389.837	199.88
390.062	206.88
390.287	212.88
390.512	242.88
390.736	212.88
390.961	197.88
391.186	196.88
391.411	183.88
391.636	189.88
391.86	231.88
392.085	254.88
392.31	233.88
392.534	208.88
392.759	208.88
392.984	212.88
393.208	220.88
393.433	182.88
393.658	187.88
393.882	177.88
394.107	163.88
394.331	170.88
394.556	191.88
394.78	177.88
395.005	192.88
395.229	189.88
395.454	200.88
395.678	196.88
395.903	199.88
396.127	192.88
396.352	195.88
396.576	223.88
396.801	205.88
397.025	246.88
397.249	262.88
397.474	217.88
397.698	205.88
397.922	230.88
398.147	202.88
398.371	200.88
398.595	227.88
398.82	226.88
399.044	225.88
399.268	232.88
399.492	232.88
399.717	245.88
399.941	229.88
400.165	228.88
400.389	228.88
400.613	209.88
400.837	226.88
401.062	202.88
401.286	201.88
401.51	205.88
401.734	202.88
401.958	206.88
402.182	210.88
402.406	197.88
402.63	193.88
402.854	209.88
403.078	227.88
403.302	323.88
403.526	324.88
403.75	292.88
403.974	261.88
404.198	243.88
404.422	284.88
404.645	304.88
404.869	331.88
405.093	268.88
405.317	230.88
405.541	219.88
405.765	230.88
405.988	237.88
406.212	234.88
406.436	269.88
406.66	292.88
406.883	249.88
407.107	262.88
407.331	291.88
407.555	269.88
407.778	230.88
408.002	246.88
408.226	250.88
408.449	235.88
408.673	251.88
408.896	218.88
409.12	202.88
409.344	199.88
409.567	201.88
409.791	198.88
410.014	192.88
410.238	210.88
410.461	186.88
410.685	199.88
410.908	201.88
411.132	203.88
411.355	215.88
411.578	217.88
411.802	210.88
412.025	215.88
412.249	229.88
412.472	211.88
412.695	214.88
412.919	198.88
413.142	213.88
413.365	249.88
413.589	220.88
413.812	229.88
414.035	207.88
414.258	206.88
414.482	236.88
414.705	237.88
414.928	195.88
415.151	195.88
415.374	190.88
415.597	212.88
415.821	214.88
416.044	197.88
416.267	184.88
416.49	187.88
416.713	199.88
416.936	192.88
417.159	178.88
417.382	192.88
417.605	213.88
417.828	206.88
418.051	214.88
418.274	233.88
418.497	229.88
418.72	206.88
418.943	224.88
419.166	221.88
419.389	238.88
419.611	216.88
419.834	228.88
420.057	236.88
420.28	246.88
420.503	243.88
420.726	210.88
420.948	212.88
421.171	212.88
421.394	209.88
421.617	201.88
421.839	211.88
422.062	210.88
422.285	205.88
422.507	215.88
422.73	208.88
422.953	222.88
423.175	201.88
423.398	221.88
423.621	220.88
423.843	259.88
424.066	237.88
424.288	206.88
424.511	204.88
424.733	203.88
424.956	220.88
425.178	225.88
425.401	287.88
425.623	298.88
425.846	262.88
426.068	222.88
426.291	242.88
426.513	222.88
426.735	202.88
426.958	211.88
427.18	248.88
427.402	315.88
427.625	315.88
427.847	290.88
428.069	190.88
428.292	209.88
428.514	212.88
428.736	186.88
428.958	208.88
429.181	265.88
429.403	256.88
429.625	202.88
429.847	212.88
430.069	196.88
430.292	197.88
430.514	201.88
430.736	195.88
430.958	246.88
431.18	229.88
431.402	204.88
431.624	201.88
431.846	192.88
432.068	182.88
432.29	170.88
432.512	195.88
432.734	250.88
432.956	241.88
433.178	198.88
433.4	188.88
433.622	202.88
433.844	213.88
434.066	228.88
434.287	199.88
434.509	201.88
434.731	223.88
434.953	209.88
435.175	208.88
435.397	236.88
435.618	217.88
435.84	197.88
436.062	184.88
436.284	186.88
436.505	161.88
436.727	184.88
436.949	180.88
437.17	192.88
437.392	196.88
437.614	199.88
437.835	194.88
438.057	195.88
438.278	205.88
438.5	276.88
438.721	293.88
438.943	210.88
439.165	187.88
439.386	178.88
439.608	181.88
439.829	183.88
440.05	178.88
440.272	179.88
440.493	228.88
440.715	264.88
440.936	240.88
441.158	215.88
441.379	205.88
441.6	219.88
441.822	232.88
442.043	209.88
442.264	183.88
442.486	213.88
442.707	201.88
442.928	181.88
443.149	201.88
443.371	204.88
443.592	220.88
443.813	196.88
444.034	196.88
444.255	179.88
444.476	197.88
444.698	206.88
444.919	223.88
445.14	334.88
445.361	273.88
445.582	225.88
445.803	204.88
446.024	233.88
446.245	206.88
446.466	226.88
446.687	198.88
446.908	206.88
447.129	206.88
447.35	187.88
447.571	192.88
447.792	174.88
448.013	190.88
448.234	178.88
448.455	170.88
448.675	181.88
448.896	177.88
449.117	177.88
449.338	177.88
449.559	186.88
449.779	204.88
450	210.88
450.221	199.88
450.442	171.88
450.662	174.88
450.883	173.88
451.104	184.88
451.324	179.88
451.545	188.88
451.766	200.88
451.986	165.88
452.207	177.88
452.428	168.88
452.648	170.88
452.869	197.88
453.089	201.88
453.31	196.88
453.53	170.88
453.751	172.88
453.971	178.88
454.192	176.88
454.412	186.88
454.633	185.88
454.853	177.88
455.073	158.88
455.294	171.88
455.514	161.88
455.734	178.88
455.955	178.88
456.175	194.88
456.395	169.88
456.616	151.88
456.836	164.88
457.056	165.88
457.276	164.88
457.497	155.88
457.717	157.88
457.937	179.88
458.157	167.88
458.377	183.88
458.598	176.88
458.818	172.88
459.038	177.88
459.258	178.88
459.478	201.88
459.698	192.88
459.918	198.88
460.138	190.88
460.358	220.88
460.578	194.88
460.798	180.88
461.018	214.88
461.238	199.88
461.458	188.88
461.678	195.88
461.898	204.88
462.118	211.88
462.338	205.88
462.558	228.88
462.777	225.88
462.997	228.88
463.217	235.88
463.437	227.88
463.657	219.88
463.876	224.88
464.096	208.88
464.316	205.88
464.536	213.88
464.755	246.88
464.975	232.88
465.195	220.88
465.414	245.88
465.634	213.88
465.854	211.88
466.073	186.88
466.293	188.88
466.512	189.88
466.732	215.88
466.951	217.88
467.171	196.88
467.391	180.88
467.61	186.88
467.829	224.88
468.049	196.88
468.268	201.88
468.488	184.88
468.707	193.88
468.927	228.88
469.146	220.88
469.365	217.88
469.585	207.88
469.804	201.88
470.023	248.88
470.243	226.88
470.462	200.88
470.681	196.88
470.901	215.88
471.12	221.88
471.339	201.88
471.558	200.88
471.777	204.88
471.997	202.88
472.216	249.88
472.435	244.88
472.654	229.88
472.873	215.88
473.092	221.88
473.311	230.88
473.53	204.88
473.749	187.88
473.968	207.88
474.187	216.88
474.406	220.88
474.625	197.88
474.844	200.88
475.063	219.88
475.282	214.88
475.501	230.88
475.72	274.88
475.939	246.88
476.158	240.88
476.377	280.88
476.596	312.88
476.814	324.88
477.033	280.88
477.252	233.88
477.471	212.88
477.69	214.88
477.908	212.88
478.127	254.88
478.346	231.88
478.564	254.88
478.783	261.88
479.002	230.88
479.22	267.88
479.439	285.88
479.658	248.88
479.876	245.88
480.095	246.88
480.313	254.88
480.532	226.88
480.751	224.88
480.969	219.88
481.188	248.88
481.406	248.88
481.624	268.88
481.843	214.88
482.061	226.88
482.28	244.88
482.498	320.88
482.717	313.88
482.935	242.88
483.153	253.88
483.372	206.88
483.59	222.88
483.808	212.88
484.027	216.88
484.245	223.88
484.463	215.88
484.681	206.88
484.9	218.88
485.118	240.88
485.336	231.88
485.554	220.88
485.772	221.88
485.99	228.88
486.209	245.88
486.427	269.88
486.645	249.88
486.863	233.88
487.081	240.88
487.299	288.88
487.517	309.88
487.735	255.88
487.953	256.88
488.171	255.88
488.389	256.88
488.607	226.88
488.825	250.88
489.043	285.88
489.261	297.88
489.479	327.88
489.696	270.88
489.914	244.88
490.132	232.88
490.35	228.88
490.568	221.88
490.786	230.88
491.003	228.88
491.221	228.88
491.439	228.88
491.657	220.88
491.874	254.88
492.092	299.88
492.31	375.88
492.527	355.88
492.745	307.88
492.963	263.88
493.18	270.88
493.398	253.88
493.615	252.88
493.833	254.88
494.05	245.88
494.268	268.88
494.485	254.88
494.703	234.88
494.92	260.88
495.138	254.88
495.355	242.88
495.573	269.88
495.79	309.88
496.008	392.88
496.225	329.88
496.442	274.88
496.66	272.88
496.877	280.88
497.094	276.88
497.312	260.88
497.529	250.88
497.746	274.88
497.963	283.88
498.181	290.88
498.398	299.88
498.615	304.88
498.832	344.88
499.049	331.88
499.267	318.88
499.484	328.88
499.701	315.88
499.918	352.88
500.135	389.88
500.352	418.88
500.569	415.88
500.786	433.88
501.003	416.88
501.22	378.88
501.437	369.88
501.654	333.88
501.871	331.88
502.088	321.88
502.305	288.88
502.522	304.88
502.739	297.88
502.956	264.88
503.172	264.88
503.389	266.88
503.606	242.88
503.823	235.88
504.04	283.88
504.256	279.88
504.473	262.88
504.69	271.88
504.907	271.88
505.123	288.88
505.34	296.88
505.557	288.88
505.773	271.88
505.99	248.88
506.207	267.88
506.423	258.88
506.64	241.88
506.856	250.88
507.073	263.88
507.289	277.88
507.506	268.88
507.722	283.88
507.939	282.88
508.155	307.88
508.372	260.88
508.588	258.88
508.805	252.88
509.021	266.88
509.238	238.88
509.454	246.88
509.67	244.88
509.887	249.88
510.103	280.88
510.319	261.88
510.536	238.88
510.752	220.88
510.968	223.88
511.184	208.88
511.401	223.88
511.617	215.88
511.833	219.88
512.049	217.88
512.265	226.88
512.481	237.88
512.698	258.88
512.914	284.88
513.13	260.88
513.346	257.88
513.562	250.88
513.778	250.88
513.994	238.88
514.21	258.88
514.426	268.88
514.642	241.88
514.858	252.88
515.074	256.88
515.29	267.88
515.506	273.88
515.721	296.88
515.937	246.88
516.153	231.88
516.369	238.88
516.585	256.88
516.801	281.88
517.016	334.88
517.232	296.88
517.448	306.88
517.664	279.88
517.879	281.88
518.095	295.88
518.311	274.88
518.527	271.88
518.742	297.88
518.958	291.88
519.173	288.88
519.389	298.88
519.605	301.88
519.82	296.88
520.036	350.88
520.251	338.88
520.467	340.88
520.682	564.88
520.898	684.88
521.113	648.88
521.329	396.88
521.544	327.88
521.76	312.88
521.975	292.88
522.19	266.88
522.406	257.88
522.621	295.88
522.836	320.88
523.052	318.88
523.267	257.88
523.482	286.88
523.698	298.88
523.913	276.88
524.128	254.88
524.343	238.88
524.559	264.88
524.774	253.88
524.989	244.88
525.204	258.88
525.419	277.88
525.634	254.88
525.849	250.88
526.064	262.88
526.28	258.88
526.495	305.88
526.71	358.88
526.925	296.88
527.14	304.88
527.355	304.88
527.57	274.88
527.785	290.88
527.999	260.88
528.214	243.88
528.429	226.88
528.644	234.88
528.859	214.88
529.074	219.88
529.289	196.88
529.503	225.88
529.718	232.88
529.933	298.88
530.148	321.88
530.363	236.88
530.577	219.88
530.792	219.88
531.007	211.88
531.221	209.88
531.436	209.88
531.651	209.88
531.865	197.88
532.08	235.88
532.295	216.88
532.509	233.88
532.724	273.88
532.938	292.88
533.153	375.88
533.367	292.88
533.582	248.88
533.796	259.88
534.011	239.88
534.225	234.88
534.44	238.88
534.654	260.88
534.868	321.88
535.083	277.88
535.297	222.88
535.511	224.88
535.726	245.88
535.94	229.88
536.154	238.88
536.369	221.88
536.583	211.88
536.797	215.88
537.011	224.88
537.225	248.88
537.44	280.88
537.654	226.88
537.868	246.88
538.082	208.88
538.296	219.88
538.51	228.88
538.724	254.88
538.938	224.88
539.153	219.88
539.367	232.88
539.581	222.88
539.795	245.88
540.009	262.88
540.222	235.88
540.436	233.88
540.65	251.88
540.864	285.88
541.078	258.88
541.292	336.88
541.506	256.88
541.72	240.88
541.934	219.88
542.147	223.88
542.361	240.88
542.575	249.88
542.789	237.88
543.002	222.88
543.216	252.88
543.43	220.88
543.644	222.88
543.857	206.88
544.071	208.88
544.285	205.88
544.498	213.88
544.712	216.88
544.925	230.88
545.139	215.88
545.352	191.88
545.566	208.88
545.779	236.88
545.993	205.88
546.206	209.88
546.42	197.88
546.633	206.88
546.847	190.88
547.06	181.88
547.274	191.88
547.487	196.88
547.7	207.88
547.914	221.88
548.127	243.88
548.34	254.88
548.554	208.88
548.767	221.88
548.98	215.88
549.193	210.88
549.407	225.88
549.62	232.88
549.833	228.88
550.046	233.88
550.259	251.88
550.473	233.88
550.686	224.88
550.899	227.88
551.112	214.88
551.325	238.88
551.538	236.88
551.751	217.88
551.964	206.88
552.177	191.88
552.39	201.88
552.603	207.88
552.816	209.88
553.029	202.88
553.242	203.88
553.455	211.88
553.667	214.88
553.88	217.88
554.093	206.88
554.306	180.88
554.519	181.88
554.732	196.88
554.944	170.88
555.157	193.88
555.37	189.88
555.583	188.88
555.795	171.88
556.008	170.88
556.221	196.88
556.433	188.88
556.646	181.88
556.859	167.88
557.071	176.88
557.284	180.88
557.496	187.88
557.709	206.88
557.921	193.88
558.134	191.88
558.346	169.88
558.559	171.88
558.771	161.88
558.984	205.88
559.196	179.88
559.409	174.88
559.621	184.88
559.833	171.88
560.046	168.88
560.258	166.88
560.47	180.88
560.683	169.88
560.895	152.88
561.107	148.88
561.32	170.88
561.532	155.88
561.744	195.88
561.956	184.88
562.168	178.88
562.381	157.88
562.593	167.88
562.805	195.88
563.017	171.88
563.229	167.88
563.441	169.88
563.653	155.88
563.865	171.88
564.077	174.88
564.289	171.88
564.501	178.88
564.713	199.88
564.925	178.88
565.137	192.88
565.349	170.88
565.561	174.88
565.773	186.88
565.985	172.88
566.197	186.88
566.408	200.88
566.62	201.88
566.832	182.88
567.044	198.88
567.255	217.88
567.467	225.88
567.679	217.88
567.891	210.88
568.102	224.88
568.314	213.88
568.526	211.88
568.737	205.88
568.949	213.88
569.161	192.88
569.372	172.88
569.584	181.88
569.795	172.88
570.007	176.88
570.218	179.88
570.43	182.88
570.641	192.88
570.853	175.88
571.064	170.88
571.276	162.88
571.487	173.88
571.698	180.88
571.91	175.88
572.121	170.88
572.333	155.88
572.544	158.88
572.755	142.88
572.966	164.88
573.178	163.88
573.389	168.88
573.6	173.88
573.811	174.88
574.023	152.88
574.234	145.88
574.445	150.88
574.656	145.88
574.867	148.88
575.078	156.88
575.289	152.88
575.501	157.88
575.712	172.88
575.923	144.88
576.134	160.88
576.345	161.88
576.556	157.88
576.767	166.88
576.978	145.88
577.188	131.88
577.399	156.88
577.61	166.88
577.821	154.88
578.032	144.88
578.243	154.88
578.454	153.88
578.665	175.88
578.875	162.88
579.086	150.88
579.297	171.88
579.508	166.88
579.718	168.88
579.929	152.88
580.14	143.88
580.35	137.88
580.561	134.88
580.772	151.88
580.982	142.88
581.193	146.88
581.403	132.88
581.614	133.88
581.825	129.88
582.035	137.88
582.246	136.88
582.456	129.88
582.667	139.88
582.877	133.88
583.087	141.88
583.298	136.88
583.508	123.88
583.719	132.88
583.929	138.88
584.139	141.88
584.35	140.88
584.56	123.88
584.77	141.88
584.981	140.88
585.191	129.88
585.401	134.88
585.611	142.88
585.821	140.88
586.032	137.88
586.242	150.88
586.452	144.88
586.662	136.88
586.872	141.88
587.082	158.88
587.292	138.88
587.502	141.88
587.713	138.88
587.923	141.88
588.133	143.88
588.343	143.88
588.553	126.88
588.762	146.88
588.972	136.88
589.182	129.88
589.392	127.88
589.602	121.88
589.812	134.88
590.022	152.88
590.232	140.88
590.441	147.88
590.651	134.88
590.861	136.88
591.071	143.88
591.281	138.88
591.49	122.88
591.7	135.88
591.91	129.88
592.119	129.88
592.329	147.88
592.539	149.88
592.748	129.88
592.958	134.88
593.167	137.88
593.377	142.88
593.587	170.88
593.796	141.88
594.006	148.88
594.215	149.88
594.424	155.88
594.634	146.88
594.843	151.88
595.053	144.88
595.262	131.88
595.472	146.88
595.681	125.88
595.89	129.88
596.1	136.88
596.309	121.88
596.518	130.88
596.727	141.88
596.937	132.88
597.146	129.88
597.355	145.88
597.564	123.88
597.774	135.88
597.983	132.88
598.192	133.88
598.401	142.88
598.61	116.88
598.819	136.88
599.028	132.88
599.237	108.88
599.446	119.88
599.655	118.88
599.864	118.88
600.073	113.88
600.282	130.88
600.491	130.88
600.7	124.88
600.909	119.88
601.118	125.88
601.327	131.88
601.536	135.88
601.745	135.88
601.953	138.88
602.162	144.88
602.371	129.88
602.58	148.88
602.789	134.88
602.997	112.88
603.206	126.88
603.415	143.88
603.623	126.88
603.832	122.88
604.041	118.88
604.249	124.88
604.458	121.88
604.666	128.88
604.875	114.88
605.084	110.88
605.292	107.88
605.501	129.88
605.709	118.88
605.918	123.88
606.126	119.88
606.334	130.88
606.543	122.88
606.751	134.88
606.96	129.88
607.168	132.88
607.376	118.88
607.585	137.88
607.793	115.88
608.001	115.88
608.21	121.88
608.418	123.88
608.626	107.88
608.834	123.88
609.043	105.88
609.251	113.88
609.459	107.88
609.667	126.88
609.875	119.88
610.083	109.88
610.291	104.88
610.499	117.88
610.707	117.88
610.916	121.88
611.124	118.88
611.332	127.88
611.54	111.88
611.748	98.88
611.955	107.88
612.163	117.88
612.371	126.88
612.579	123.88
612.787	112.88
612.995	112.88
613.203	114.88
613.411	125.88
613.618	113.88
613.826	123.88
614.034	118.88
614.242	106.88
614.449	121.88
614.657	112.88
614.865	114.88
615.072	107.88
615.28	114.88
615.488	113.88
615.695	104.88
615.903	97.88
616.111	114.88
616.318	118.88
616.526	117.88
616.733	118.88
616.941	127.88
617.148	122.88
617.356	120.88
617.563	106.88
617.771	126.88
617.978	124.88
618.185	113.88
618.393	118.88
618.6	121.88
618.807	119.88
619.015	119.88
619.222	110.88
619.429	128.88
619.637	127.88
619.844	116.88
620.051	119.88
620.258	110.88
620.466	112.88
620.673	110.88
620.88	102.88
621.087	104.88
621.294	113.88
621.501	116.88
621.708	102.88
621.915	112.88
622.122	107.88
622.329	124.88
622.536	110.88
622.743	113.88
622.95	116.88
623.157	106.88
623.364	103.88
623.571	112.88
623.778	124.88
623.985	109.88
624.192	128.88
624.399	114.88
624.606	105.88
624.812	105.88
625.019	121.88
625.226	117.88
625.433	122.88
625.639	127.88
625.846	106.88
626.053	101.88
626.259	105.88
626.466	115.88
626.673	107.88
626.879	126.88
627.086	111.88
627.293	98.88
627.499	117.88
627.706	95.88
627.912	96.88
628.119	105.88
628.325	101.88
628.532	115.88
628.738	104.88
628.945	98.88
629.151	97.88
629.357	99.88
629.564	114.88
629.77	110.88
629.976	103.88
630.183	101.88
630.389	107.88
630.595	108.88
630.802	103.88
631.008	120.88
631.214	122.88
631.42	110.88
631.627	109.88
631.833	99.88
632.039	99.88
632.245	98.88
632.451	114.88
632.657	100.88
632.863	114.88
633.069	102.88
633.275	113.88
633.481	97.88
633.688	113.88
633.893	89.88
634.099	96.88
634.305	106.88
634.511	117.88
634.717	104.88
634.923	114.88
635.129	95.88
635.335	97.88
635.541	105.88
635.747	95.88
635.952	102.88
636.158	97.88
636.364	96.88
636.57	112.88
636.775	94.88
636.981	104.88
637.187	118.88
637.392	102.88
637.598	99.88
637.804	107.88
638.009	104.88
638.215	86.88
638.421	115.88
638.626	118.88
638.832	103.88
639.037	109.88
639.243	107.88
639.448	117.88
639.654	105.88
639.859	116.88
640.065	108.88
640.27	105.88
640.475	100.88
640.681	105.88
640.886	116.88
641.091	94.88
641.297	110.88
641.502	104.88
641.707	103.88
641.913	105.88
642.118	86.88
642.323	97.88
642.528	102.88
642.733	100.88
642.939	96.88
643.144	94.88
643.349	98.88
643.554	94.88
643.759	92.88
643.964	89.88
644.169	92.88
644.374	96.88
644.579	93.88
644.784	102.88
644.989	102.88
645.194	98.88
645.399	98.88
645.604	110.88
645.809	104.88
646.014	91.88
646.219	108.88
646.423	90.88
646.628	91.88
646.833	96.88
647.038	97.88
647.243	107.88
647.447	96.88
647.652	102.88
647.857	102.88
648.062	85.88
648.266	106.88
648.471	101.88
648.676	102.88
648.88	97.88
649.085	93.88
649.289	107.88
649.494	113.88
649.698	97.88
649.903	103.88
650.107	89.88
650.312	103.88
650.516	88.88
650.721	91.88
650.925	99.88
651.13	93.88
651.334	104.88
651.539	101.88
651.743	111.88
651.947	87.88
652.152	108.88
652.356	84.88
652.56	94.88
652.764	83.88
652.969	87.88
653.173	106.88
653.377	101.88
653.581	90.88
653.785	95.88
653.99	84.88
654.194	95.88
654.398	88.88
654.602	89.88
654.806	92.88
655.01	104.88
655.214	83.88
655.418	91.88
655.622	98.88
655.826	93.88
656.03	99.88
656.234	89.88
656.438	82.88
656.642	88.88
656.846	76.88
657.049	80.88
657.253	87.88
657.457	80.88
657.661	89.88
657.865	89.88
658.068	92.88
658.272	87.88
658.476	93.88
658.68	84.88
658.883	82.88
659.087	92.88
659.291	86.88
659.494	84.88
659.698	89.88
659.901	77.88
660.105	98.88
660.309	85.88
660.512	82.88
660.716	80.88
660.919	87.88
661.123	91.88
661.326	84.88
661.53	82.88
661.733	86.88
661.936	94.88
662.14	91.88
662.343	81.88
662.546	86.88
662.75	75.88
662.953	98.88
663.156	72.88
663.36	95.88
663.563	80.88
663.766	86.88
663.969	80.88
664.173	79.88
664.376	84.88
664.579	76.88
664.782	83.88
664.985	94.88
665.188	81.88
665.391	73.88
665.594	84.88
665.797	69.88
666	82.88
666.203	84.88
666.406	74.88
666.609	86.88
666.812	79.88
667.015	81.88
667.218	77.88
667.421	92.88
667.624	83.88
667.827	82.88
668.03	79.88
668.232	72.88
668.435	88.88
668.638	77.88
668.841	75.88
669.043	71.88
669.246	83.88
669.449	78.88
669.651	78.88
669.854	82.88
670.057	78.88
670.259	86.88
670.462	76.88
670.665	75.88
670.867	73.88
671.07	91.88
671.272	79.88
671.475	82.88
671.677	88.88
671.88	82.88
672.082	93.88
672.284	86.88
672.487	86.88
672.689	78.88
672.892	70.88
