Data from NickelSpatula.Lamp.E10.P2_HRD10591_11-57-43-531.txt Node
Date: Tue Jul 23 11:57:43 EDT 2019
User: cochatt
Spectrometer: HR+D1059
Trigger mode: 1
Integration Time (sec): 1.000000E-1
Scans to average: 1
Electric dark correction enabled: true
Nonlinearity correction enabled: false
Boxcar width: 0
XAxis mode: Wavelengths
Number of Pixels in Spectrum: 2048
>>>>>Begin Spectral Data<<<<<
223.165	-9.75
223.4	-9.75
223.635	-9.75
223.869	-17.75
224.104	-15.75
224.338	-10.75
224.573	-17.75
224.808	-20.75
225.042	-17.75
225.277	-9.75
225.511	4.25
225.746	7.25
225.98	13.25
226.215	14.25
226.449	9.25
226.683	23.25
226.918	26.25
227.152	22.25
227.387	25.25
227.621	28.25
227.856	38.25
228.09	32.25
228.324	44.25
228.559	55.25
228.793	79.25
229.027	137.25
229.262	160.25
229.496	153.25
229.73	157.25
229.964	189.25
230.199	214.25
230.433	218.25
230.667	201.25
230.901	209.25
231.136	193.25
231.37	228.25
231.604	228.25
231.838	229.25
232.072	250.25
232.306	250.25
232.541	229.25
232.775	216.25
233.009	264.25
233.243	281.25
233.477	302.25
233.711	353.25
233.945	307.25
234.179	350.25
234.413	333.25
234.647	374.25
234.881	472.25
235.115	411.25
235.349	402.25
235.583	361.25
235.817	340.25
236.051	378.25
236.285	434.25
236.519	462.25
236.753	438.25
236.987	444.25
237.221	388.25
237.455	404.25
237.689	425.25
237.922	455.25
238.156	465.25
238.39	535.25
238.624	644.25
238.858	586.25
239.091	497.25
239.325	518.25
239.559	500.25
239.793	534.25
240.027	631.25
240.26	599.25
240.494	562.25
240.728	582.25
240.961	678.25
241.195	628.25
241.429	640.25
241.662	601.25
241.896	518.25
242.13	483.25
242.363	448.25
242.597	457.25
242.83	516.25
243.064	530.25
243.298	618.25
243.531	624.25
243.765	648.25
243.998	612.25
244.232	612.25
244.465	589.25
244.699	592.25
244.932	653.25
245.166	626.25
245.399	560.25
245.633	538.25
245.866	594.25
246.099	613.25
246.333	707.25
246.566	772.25
246.8	730.25
247.033	723.25
247.266	689.25
247.5	664.25
247.733	664.25
247.966	673.25
248.2	666.25
248.433	751.25
248.666	820.25
248.899	850.25
249.133	859.25
249.366	972.25
249.599	1055.25
249.832	930.25
250.066	820.25
250.299	836.25
250.532	807.25
250.765	784.25
250.998	715.25
251.231	720.25
251.465	757.25
251.698	843.25
251.931	781.25
252.164	852.25
252.397	916.25
252.63	1044.25
252.863	1148.25
253.096	1197.25
253.329	1116.25
253.562	1101.25
253.795	1240.25
254.028	1341.25
254.261	1386.25
254.494	1238.25
254.727	1138.25
254.96	1099.25
255.193	1188.25
255.426	1126.25
255.659	832.25
255.892	786.25
256.124	878.25
256.357	1015.25
256.59	1162.25
256.823	1128.25
257.056	966.25
257.289	908.25
257.521	944.25
257.754	1134.25
257.987	1278.25
258.22	1096.25
258.452	987.25
258.685	1159.25
258.918	1278.25
259.151	1240.25
259.383	1308.25
259.616	1511.25
259.849	1546.25
260.081	1733.25
260.314	1868.25
260.547	1463.25
260.779	1442.25
261.012	1710.25
261.244	1596.25
261.477	1645.25
261.71	1524.25
261.942	1292.25
262.175	1290.25
262.407	1212.25
262.64	1300.25
262.872	1506.25
263.105	1645.25
263.337	1714.25
263.57	1526.25
263.802	1028.25
264.035	911.25
264.267	879.25
264.499	752.25
264.732	716.25
264.964	656.25
265.197	712.25
265.429	760.25
265.661	825.25
265.894	863.25
266.126	939.25
266.358	1022.25
266.591	1238.25
266.823	1505.25
267.055	1367.25
267.287	1242.25
267.52	1260.25
267.752	1346.25
267.984	1431.25
268.216	1382.25
268.448	1125.25
268.681	1097.25
268.913	1201.25
269.145	1227.25
269.377	1313.25
269.609	1294.25
269.841	1220.25
270.073	1278.25
270.306	1339.25
270.538	1390.25
270.77	1409.25
271.002	1426.25
271.234	1444.25
271.466	1500.25
271.698	1412.25
271.93	1402.25
272.162	1420.25
272.394	1427.25
272.626	1365.25
272.858	1439.25
273.09	1447.25
273.322	1288.25
273.553	1271.25
273.785	1473.25
274.017	1970.25
274.249	2408.25
274.481	2515.25
274.713	2715.25
274.945	3108.25
275.176	3216.25
275.408	2830.25
275.64	2608.25
275.872	2531.25
276.104	2210.25
276.335	1921.25
276.567	1922.25
276.799	1947.25
277.031	2072.25
277.262	1585.25
277.494	1234.25
277.726	1223.25
277.957	1303.25
278.189	1478.25
278.421	1457.25
278.652	1435.25
278.884	1372.25
279.115	1247.25
279.347	1209.25
279.579	1172.25
279.81	1206.25
280.042	1221.25
280.273	1246.25
280.505	1104.25
280.736	988.25
280.968	1006.25
281.199	1096.25
281.431	1249.25
281.662	1222.25
281.894	1174.25
282.125	1271.25
282.356	1359.25
282.588	1405.25
282.819	1262.25
283.051	1368.25
283.282	1650.25
283.513	1960.25
283.745	2191.25
283.976	2149.25
284.207	1946.25
284.439	2093.25
284.67	1990.25
284.901	1748.25
285.132	1914.25
285.364	2037.25
285.595	1907.25
285.826	1957.25
286.057	2063.25
286.288	1960.25
286.52	2028.25
286.751	2137.25
286.982	2074.25
287.213	1816.25
287.444	1761.25
287.675	1822.25
287.906	1810.25
288.138	1519.25
288.369	1355.25
288.6	1282.25
288.831	1364.25
289.062	1565.25
289.293	1681.25
289.524	1588.25
289.755	1608.25
289.986	1678.25
290.217	1420.25
290.448	1111.25
290.679	973.25
290.91	926.25
291.141	911.25
291.371	960.25
291.602	1002.25
291.833	992.25
292.064	1071.25
292.295	1229.25
292.526	1398.25
292.757	1470.25
292.987	1537.25
293.218	1550.25
293.449	1574.25
293.68	1652.25
293.91	1646.25
294.141	1627.25
294.372	1488.25
294.603	1410.25
294.833	1611.25
295.064	1830.25
295.295	1706.25
295.525	1305.25
295.756	1146.25
295.987	1009.25
296.217	1004.25
296.448	1010.25
296.679	1075.25
296.909	1202.25
297.14	1285.25
297.37	1430.25
297.601	1342.25
297.831	1165.25
298.062	1282.25
298.292	1372.25
298.523	1558.25
298.753	1747.25
298.984	1581.25
299.214	1252.25
299.445	1086.25
299.675	1039.25
299.905	1009.25
300.136	1024.25
300.366	1171.25
300.597	1125.25
300.827	1007.25
301.057	963.25
301.288	1007.25
301.518	1050.25
301.748	1158.25
301.979	1268.25
302.209	1436.25
302.439	1427.25
302.669	1228.25
302.9	1215.25
303.13	1149.25
303.36	1098.25
303.59	1066.25
303.82	1083.25
304.051	1182.25
304.281	1330.25
304.511	1270.25
304.741	1128.25
304.971	1171.25
305.201	1274.25
305.431	1161.25
305.661	1061.25
305.891	1057.25
306.121	1061.25
306.352	930.25
306.582	846.25
306.812	850.25
307.042	843.25
307.272	807.25
307.502	821.25
307.731	872.25
307.961	921.25
308.191	828.25
308.421	797.25
308.651	795.25
308.881	772.25
309.111	787.25
309.341	814.25
309.571	886.25
309.8	938.25
310.03	924.25
310.26	958.25
310.49	967.25
310.72	844.25
310.949	858.25
311.179	880.25
311.409	900.25
311.639	1095.25
311.868	1375.25
312.098	1736.25
312.328	1899.25
312.557	1844.25
312.787	1851.25
313.017	1645.25
313.246	1802.25
313.476	1934.25
313.706	1598.25
313.935	1287.25
314.165	1033.25
314.394	984.25
314.624	938.25
314.853	1007.25
315.083	1074.25
315.312	1003.25
315.542	960.25
315.771	928.25
316.001	875.25
316.23	834.25
316.46	853.25
316.689	830.25
316.919	867.25
317.148	896.25
317.377	884.25
317.607	878.25
317.836	959.25
318.065	1098.25
318.295	1200.25
318.524	1108.25
318.753	980.25
318.983	939.25
319.212	927.25
319.441	1005.25
319.67	1118.25
319.9	1210.25
320.129	1103.25
320.358	978.25
320.587	954.25
320.816	1010.25
321.046	1120.25
321.275	1304.25
321.504	1305.25
321.733	1270.25
321.962	1205.25
322.191	1092.25
322.42	1096.25
322.649	1072.25
322.878	1164.25
323.108	1150.25
323.337	1085.25
323.566	1078.25
323.795	1017.25
324.024	1004.25
324.253	955.25
324.482	933.25
324.71	1067.25
324.939	1190.25
325.168	1114.25
325.397	929.25
325.626	910.25
325.855	894.25
326.084	929.25
326.313	878.25
326.542	838.25
326.77	876.25
326.999	865.25
327.228	936.25
327.457	1002.25
327.686	1012.25
327.914	883.25
328.143	836.25
328.372	844.25
328.6	854.25
328.829	840.25
329.058	884.25
329.287	884.25
329.515	895.25
329.744	876.25
329.972	831.25
330.201	804.25
330.43	857.25
330.658	923.25
330.887	1071.25
331.115	1044.25
331.344	981.25
331.572	992.25
331.801	894.25
332.03	837.25
332.258	885.25
332.486	931.25
332.715	978.25
332.943	908.25
333.172	905.25
333.4	940.25
333.629	1040.25
333.857	1142.25
334.085	1093.25
334.314	1105.25
334.542	1043.25
334.771	960.25
334.999	935.25
335.227	929.25
335.455	939.25
335.684	1068.25
335.912	1170.25
336.14	1303.25
336.369	1247.25
336.597	1207.25
336.825	1349.25
337.053	1479.25
337.281	1210.25
337.51	1005.25
337.738	970.25
337.966	1057.25
338.194	1151.25
338.422	1124.25
338.65	955.25
338.878	861.25
339.106	902.25
339.334	1016.25
339.562	1066.25
339.79	990.25
340.018	957.25
340.246	1052.25
340.474	1166.25
340.702	1241.25
340.93	1268.25
341.158	1283.25
341.386	1095.25
341.614	1111.25
341.842	1070.25
342.07	1116.25
342.298	1325.25
342.526	1358.25
342.754	1153.25
342.981	1076.25
343.209	1012.25
343.437	1097.25
343.665	1202.25
343.893	1178.25
344.12	1348.25
344.348	1552.25
344.576	1394.25
344.804	1151.25
345.031	1015.25
345.259	975.25
345.487	972.25
345.714	1009.25
345.942	1070.25
346.17	1152.25
346.397	1100.25
346.625	1006.25
346.853	917.25
347.08	913.25
347.308	973.25
347.535	1084.25
347.763	1114.25
347.99	979.25
348.218	916.25
348.445	932.25
348.673	954.25
348.9	960.25
349.128	1038.25
349.355	1044.25
349.583	1056.25
349.81	1005.25
350.037	940.25
350.265	810.25
350.492	774.25
350.72	789.25
350.947	806.25
351.174	853.25
351.402	936.25
351.629	942.25
351.856	930.25
352.083	872.25
352.311	976.25
352.538	1058.25
352.765	1097.25
352.992	1002.25
353.22	941.25
353.447	972.25
353.674	950.25
353.901	948.25
354.128	954.25
354.355	961.25
354.583	948.25
354.81	974.25
355.037	998.25
355.264	992.25
355.491	1047.25
355.718	1144.25
355.945	1075.25
356.172	1052.25
356.399	1063.25
356.626	1288.25
356.853	1585.25
357.08	1694.25
357.307	1699.25
357.534	1317.25
357.761	1338.25
357.988	1678.25
358.215	1986.25
358.441	1885.25
358.668	1596.25
358.895	1459.25
359.122	1172.25
359.349	1191.25
359.576	1287.25
359.802	1082.25
360.029	933.25
360.256	996.25
360.483	1207.25
360.709	1524.25
360.936	1598.25
361.163	1418.25
361.39	1122.25
361.616	1015.25
361.843	1204.25
362.07	1499.25
362.296	1360.25
362.523	1080.25
362.749	933.25
362.976	978.25
363.203	1170.25
363.429	1294.25
363.656	1062.25
363.882	939.25
364.109	954.25
364.335	992.25
364.562	951.25
364.788	1095.25
365.015	1272.25
365.241	1109.25
365.468	906.25
365.694	802.25
365.92	800.25
366.147	775.25
366.373	782.25
366.599	784.25
366.826	799.25
367.052	822.25
367.278	828.25
367.505	780.25
367.731	863.25
367.957	984.25
368.184	1002.25
368.41	973.25
368.636	986.25
368.862	1008.25
369.089	994.25
369.315	884.25
369.541	866.25
369.767	868.25
369.993	827.25
370.219	812.25
370.445	894.25
370.672	986.25
370.898	1047.25
371.124	1049.25
371.35	955.25
371.576	882.25
371.802	946.25
372.028	1102.25
372.254	1287.25
372.48	1122.25
372.706	1030.25
372.932	1058.25
373.158	1120.25
373.384	1341.25
373.61	1746.25
373.835	1803.25
374.061	1346.25
374.287	1142.25
374.513	1342.25
374.739	1570.25
374.965	1636.25
375.191	1585.25
375.416	1120.25
375.642	997.25
375.868	1194.25
376.094	1284.25
376.319	1136.25
376.545	1265.25
376.771	1328.25
376.997	1138.25
377.222	854.25
377.448	764.25
377.674	760.25
377.899	743.25
378.125	728.25
378.35	737.25
378.576	767.25
378.802	833.25
379.027	881.25
379.253	900.25
379.478	887.25
379.704	1044.25
379.929	1067.25
380.155	1062.25
380.38	931.25
380.606	967.25
380.831	1087.25
381.057	1042.25
381.282	965.25
381.507	1132.25
381.733	1397.25
381.958	1510.25
382.184	1559.25
382.409	1651.25
382.634	1613.25
382.86	1712.25
383.085	1419.25
383.31	1117.25
383.535	1149.25
383.761	1190.25
383.986	1120.25
384.211	1374.25
384.436	1299.25
384.662	1022.25
384.887	955.25
385.112	1007.25
385.337	1038.25
385.562	956.25
385.787	1070.25
386.013	1205.25
386.238	1215.25
386.463	1016.25
386.688	964.25
386.913	946.25
387.138	882.25
387.363	962.25
387.588	960.25
387.813	968.25
388.038	1078.25
388.263	986.25
388.488	940.25
388.713	1084.25
388.938	1151.25
389.163	1007.25
389.387	940.25
389.612	904.25
389.837	940.25
390.062	944.25
390.287	983.25
390.512	1021.25
390.736	946.25
390.961	884.25
391.186	850.25
391.411	821.25
391.636	834.25
391.86	914.25
392.085	1009.25
392.31	1007.25
392.534	916.25
392.759	919.25
392.984	948.25
393.208	935.25
393.433	897.25
393.658	816.25
393.882	790.25
394.107	777.25
394.331	820.25
394.556	794.25
394.78	810.25
395.005	830.25
395.229	845.25
395.454	854.25
395.678	881.25
395.903	903.25
396.127	854.25
396.352	869.25
396.576	959.25
396.801	986.25
397.025	1101.25
397.249	1099.25
397.474	917.25
397.698	922.25
397.922	972.25
398.147	929.25
398.371	929.25
398.595	975.25
398.82	926.25
399.044	947.25
399.268	1008.25
399.492	1041.25
399.717	1060.25
399.941	1082.25
400.165	1038.25
400.389	1042.25
400.613	1046.25
400.837	1024.25
401.062	907.25
401.286	900.25
401.51	904.25
401.734	915.25
401.958	898.25
402.182	914.25
402.406	919.25
402.63	932.25
402.854	930.25
403.078	1023.25
403.302	1255.25
403.526	1284.25
403.75	1228.25
403.974	1068.25
404.198	1104.25
404.422	1229.25
404.645	1436.25
404.869	1530.25
405.093	1145.25
405.317	1009.25
405.541	963.25
405.765	1013.25
405.988	1018.25
406.212	1074.25
406.436	1276.25
406.66	1417.25
406.883	1142.25
407.107	1171.25
407.331	1358.25
407.555	1272.25
407.778	1119.25
408.002	1064.25
408.226	1041.25
408.449	1051.25
408.673	983.25
408.896	946.25
409.12	917.25
409.344	899.25
409.567	916.25
409.791	894.25
410.014	883.25
410.238	891.25
410.461	905.25
410.685	890.25
410.908	917.25
411.132	948.25
411.355	925.25
411.578	925.25
411.802	927.25
412.025	975.25
412.249	990.25
412.472	962.25
412.695	971.25
412.919	942.25
413.142	956.25
413.365	1025.25
413.589	1070.25
413.812	968.25
414.035	924.25
414.258	946.25
414.482	1050.25
414.705	1042.25
414.928	928.25
415.151	890.25
415.374	894.25
415.597	935.25
415.821	912.25
416.044	880.25
416.267	869.25
416.49	879.25
416.713	868.25
416.936	840.25
417.159	857.25
417.382	893.25
417.605	930.25
417.828	909.25
418.051	919.25
418.274	953.25
418.497	949.25
418.72	932.25
418.943	979.25
419.166	983.25
419.389	1028.25
419.611	1006.25
419.834	1028.25
420.057	1118.25
420.28	1098.25
420.503	1033.25
420.726	894.25
420.948	866.25
421.171	910.25
421.394	894.25
421.617	842.25
421.839	876.25
422.062	933.25
422.285	938.25
422.507	925.25
422.73	923.25
422.953	942.25
423.175	940.25
423.398	954.25
423.621	992.25
423.843	1016.25
424.066	966.25
424.288	918.25
424.511	874.25
424.733	919.25
424.956	957.25
425.178	1046.25
425.401	1218.25
425.623	1340.25
425.846	1135.25
426.068	1013.25
426.291	1078.25
426.513	1018.25
426.735	923.25
426.958	1014.25
427.18	1150.25
427.402	1449.25
427.625	1429.25
427.847	1147.25
428.069	932.25
428.292	916.25
428.514	896.25
428.736	877.25
428.958	954.25
429.181	1141.25
429.403	987.25
429.625	884.25
429.847	859.25
430.069	901.25
430.292	924.25
430.514	865.25
430.736	935.25
430.958	1164.25
431.18	1067.25
431.402	828.25
431.624	810.25
431.846	817.25
432.068	792.25
432.29	795.25
432.512	901.25
432.734	1168.25
432.956	1146.25
433.178	888.25
433.4	831.25
433.622	842.25
433.844	887.25
434.066	946.25
434.287	904.25
434.509	866.25
434.731	907.25
434.953	869.25
435.175	906.25
435.397	1022.25
435.618	896.25
435.84	839.25
436.062	839.25
436.284	819.25
436.505	791.25
436.727	778.25
436.949	806.25
437.17	835.25
437.392	863.25
437.614	827.25
437.835	831.25
438.057	839.25
438.278	958.25
438.5	1292.25
438.721	1319.25
438.943	933.25
439.165	791.25
439.386	783.25
439.608	772.25
439.829	792.25
440.05	807.25
440.272	869.25
440.493	1003.25
440.715	1165.25
440.936	960.25
441.158	860.25
441.379	908.25
441.6	987.25
441.822	1037.25
442.043	902.25
442.264	848.25
442.486	859.25
442.707	866.25
442.928	850.25
443.149	873.25
443.371	924.25
443.592	928.25
443.813	922.25
444.034	906.25
444.255	893.25
444.476	959.25
444.698	933.25
444.919	967.25
445.14	1023.25
445.361	995.25
445.582	949.25
445.803	942.25
446.024	931.25
446.245	928.25
446.466	907.25
446.687	880.25
446.908	852.25
447.129	831.25
447.35	823.25
447.571	816.25
447.792	789.25
448.013	779.25
448.234	753.25
448.455	786.25
448.675	779.25
448.896	789.25
449.117	818.25
449.338	804.25
449.559	828.25
449.779	868.25
450	863.25
450.221	839.25
450.442	836.25
450.662	806.25
450.883	790.25
451.104	830.25
451.324	806.25
451.545	805.25
451.766	787.25
451.986	782.25
452.207	758.25
452.428	783.25
452.648	774.25
452.869	828.25
453.089	840.25
453.31	855.25
453.53	738.25
453.751	744.25
453.971	748.25
454.192	770.25
454.412	795.25
454.633	764.25
454.853	773.25
455.073	762.25
455.294	753.25
455.514	724.25
455.734	794.25
455.955	800.25
456.175	815.25
456.395	733.25
456.616	700.25
456.836	702.25
457.056	697.25
457.276	681.25
457.497	713.25
457.717	735.25
457.937	706.25
458.157	730.25
458.377	739.25
458.598	748.25
458.818	785.25
459.038	813.25
459.258	842.25
459.478	843.25
459.698	901.25
459.918	906.25
460.138	871.25
460.358	893.25
460.578	865.25
460.798	893.25
461.018	878.25
461.238	876.25
461.458	853.25
461.678	869.25
461.898	950.25
462.118	940.25
462.338	929.25
462.558	975.25
462.777	1003.25
462.997	1003.25
463.217	1006.25
463.437	1023.25
463.657	1031.25
463.876	962.25
464.096	967.25
464.316	968.25
464.536	974.25
464.755	1014.25
464.975	1010.25
465.195	980.25
465.414	991.25
465.634	933.25
465.854	907.25
466.073	861.25
466.293	855.25
466.512	933.25
466.732	1005.25
466.951	1052.25
467.171	928.25
467.391	867.25
467.61	864.25
467.829	908.25
468.049	914.25
468.268	895.25
468.488	893.25
468.707	917.25
468.927	1054.25
469.146	1123.25
469.365	1026.25
469.585	947.25
469.804	1003.25
470.023	1109.25
470.243	987.25
470.462	940.25
470.681	929.25
470.901	944.25
471.12	969.25
471.339	998.25
471.558	931.25
471.777	915.25
471.997	1004.25
472.216	1082.25
472.435	1094.25
472.654	958.25
472.873	953.25
473.092	994.25
473.311	1049.25
473.53	961.25
473.749	899.25
473.968	948.25
474.187	968.25
474.406	934.25
474.625	964.25
474.844	957.25
475.063	1047.25
475.282	1018.25
475.501	1068.25
475.72	1123.25
475.939	1048.25
476.158	1098.25
476.377	1250.25
476.596	1399.25
476.814	1471.25
477.033	1234.25
477.252	1052.25
477.471	999.25
477.69	1030.25
477.908	1096.25
478.127	1157.25
478.346	1080.25
478.564	1105.25
478.783	1076.25
479.002	1120.25
479.22	1297.25
479.439	1444.25
479.658	1211.25
479.876	1121.25
480.095	1191.25
480.313	1249.25
480.532	1133.25
480.751	1098.25
480.969	1130.25
481.188	1259.25
481.406	1282.25
481.624	1217.25
481.843	1115.25
482.061	1063.25
482.28	1196.25
482.498	1423.25
482.717	1323.25
482.935	1197.25
483.153	1120.25
483.372	1042.25
483.59	1039.25
483.808	1067.25
484.027	1054.25
484.245	974.25
484.463	992.25
484.681	1036.25
484.9	1141.25
485.118	1206.25
485.336	1126.25
485.554	1052.25
485.772	1062.25
485.99	1163.25
486.209	1245.25
486.427	1234.25
486.645	1168.25
486.863	1245.25
487.081	1237.25
487.299	1371.25
487.517	1329.25
487.735	1235.25
487.953	1263.25
488.171	1267.25
488.389	1188.25
488.607	1096.25
488.825	1141.25
489.043	1233.25
489.261	1440.25
489.479	1523.25
489.696	1290.25
489.914	1170.25
490.132	1110.25
490.35	1133.25
490.568	1112.25
490.786	1166.25
491.003	1125.25
491.221	1182.25
491.439	1120.25
491.657	1154.25
491.874	1201.25
492.092	1442.25
492.31	1742.25
492.527	1740.25
492.745	1530.25
492.963	1323.25
493.18	1290.25
493.398	1297.25
493.615	1292.25
493.833	1241.25
494.05	1251.25
494.268	1283.25
494.485	1222.25
494.703	1236.25
494.92	1211.25
495.138	1197.25
495.355	1244.25
495.573	1240.25
495.79	1352.25
496.008	1762.25
496.225	1567.25
496.442	1360.25
496.66	1335.25
496.877	1401.25
497.094	1402.25
497.312	1330.25
497.529	1308.25
497.746	1319.25
497.963	1364.25
498.181	1478.25
498.398	1564.25
498.615	1634.25
498.832	1713.25
499.049	1718.25
499.267	1559.25
499.484	1550.25
499.701	1647.25
499.918	1782.25
500.135	1881.25
500.352	1926.25
500.569	1969.25
500.786	1983.25
501.003	2002.25
501.22	1832.25
501.437	1753.25
501.654	1639.25
501.871	1622.25
502.088	1582.25
502.305	1504.25
502.522	1502.25
502.739	1500.25
502.956	1364.25
503.172	1382.25
503.389	1310.25
503.606	1272.25
503.823	1289.25
504.04	1326.25
504.256	1346.25
504.473	1345.25
504.69	1377.25
504.907	1370.25
505.123	1373.25
505.34	1414.25
505.557	1421.25
505.773	1341.25
505.99	1338.25
506.207	1366.25
506.423	1278.25
506.64	1185.25
506.856	1234.25
507.073	1354.25
507.289	1325.25
507.506	1315.25
507.722	1413.25
507.939	1394.25
508.155	1430.25
508.372	1278.25
508.588	1278.25
508.805	1212.25
509.021	1228.25
509.238	1178.25
509.454	1165.25
509.67	1172.25
509.887	1187.25
510.103	1299.25
510.319	1306.25
510.536	1164.25
510.752	1076.25
510.968	1063.25
511.184	1010.25
511.401	1045.25
511.617	1058.25
511.833	1048.25
512.049	1079.25
512.265	1087.25
512.481	1100.25
512.698	1229.25
512.914	1377.25
513.13	1255.25
513.346	1131.25
513.562	1175.25
513.778	1154.25
513.994	1178.25
514.21	1205.25
514.426	1184.25
514.642	1157.25
514.858	1129.25
515.074	1200.25
515.29	1292.25
515.506	1415.25
515.721	1336.25
515.937	1260.25
516.153	1173.25
516.369	1158.25
516.585	1206.25
516.801	1339.25
517.016	1563.25
517.232	1532.25
517.448	1509.25
517.664	1340.25
517.879	1275.25
518.095	1265.25
518.311	1285.25
518.527	1313.25
518.742	1388.25
518.958	1478.25
519.173	1421.25
519.389	1352.25
519.605	1391.25
519.82	1506.25
520.036	1712.25
520.251	1695.25
520.467	1590.25
520.682	2350.25
520.898	2862.25
521.113	2695.25
521.329	1715.25
521.544	1557.25
521.76	1472.25
521.975	1347.25
522.19	1298.25
522.406	1301.25
522.621	1446.25
522.836	1456.25
523.052	1510.25
523.267	1313.25
523.482	1294.25
523.698	1379.25
523.913	1326.25
524.128	1206.25
524.343	1157.25
524.559	1191.25
524.774	1147.25
524.989	1157.25
525.204	1202.25
525.419	1302.25
525.634	1222.25
525.849	1232.25
526.064	1247.25
526.28	1246.25
526.495	1473.25
526.71	1496.25
526.925	1305.25
527.14	1412.25
527.355	1364.25
527.57	1120.25
527.785	1179.25
527.999	1147.25
528.214	1070.25
528.429	1044.25
528.644	1048.25
528.859	1038.25
529.074	998.25
529.289	997.25
529.503	996.25
529.718	1012.25
529.933	1159.25
530.148	1167.25
530.363	1042.25
530.577	1015.25
530.792	1001.25
531.007	1010.25
531.221	977.25
531.436	1014.25
531.651	983.25
531.865	996.25
532.08	1041.25
532.295	978.25
532.509	1035.25
532.724	1159.25
532.938	1288.25
533.153	1474.25
533.367	1196.25
533.582	1170.25
533.796	1090.25
534.011	1035.25
534.225	1074.25
534.44	1050.25
534.654	1073.25
534.868	1233.25
535.083	1083.25
535.297	1021.25
535.511	1031.25
535.726	1142.25
535.94	1070.25
536.154	999.25
536.369	982.25
536.583	1032.25
536.797	1004.25
537.011	1051.25
537.225	1119.25
537.44	1160.25
537.654	1033.25
537.868	990.25
538.082	1011.25
538.296	1005.25
538.51	1043.25
538.724	1068.25
538.938	1035.25
539.153	992.25
539.367	955.25
539.581	980.25
539.795	1042.25
540.009	1125.25
540.222	1027.25
540.436	1078.25
540.65	1124.25
540.864	1189.25
541.078	1215.25
541.292	1311.25
541.506	1075.25
541.72	1058.25
541.934	1028.25
542.147	1039.25
542.361	1034.25
542.575	1038.25
542.789	1004.25
543.002	934.25
543.216	1064.25
543.43	963.25
543.644	962.25
543.857	919.25
544.071	966.25
544.285	960.25
544.498	922.25
544.712	919.25
544.925	985.25
545.139	941.25
545.352	901.25
545.566	954.25
545.779	1061.25
545.993	945.25
546.206	876.25
546.42	880.25
546.633	878.25
546.847	854.25
547.06	859.25
547.274	864.25
547.487	914.25
547.7	964.25
547.914	1020.25
548.127	1091.25
548.34	1079.25
548.554	946.25
548.767	983.25
548.98	1059.25
549.193	974.25
549.407	1018.25
549.62	1174.25
549.833	1128.25
550.046	1140.25
550.259	1171.25
550.473	1035.25
550.686	967.25
550.899	990.25
551.112	992.25
551.325	1050.25
551.538	1100.25
551.751	942.25
551.964	906.25
552.177	906.25
552.39	877.25
552.603	867.25
552.816	952.25
553.029	904.25
553.242	882.25
553.455	954.25
553.667	1040.25
553.88	973.25
554.093	878.25
554.306	845.25
554.519	772.25
554.732	795.25
554.944	782.25
555.157	755.25
555.37	760.25
555.583	769.25
555.795	803.25
556.008	803.25
556.221	791.25
556.433	796.25
556.646	768.25
556.859	803.25
557.071	800.25
557.284	818.25
557.496	817.25
557.709	808.25
557.921	802.25
558.134	738.25
558.346	732.25
558.559	735.25
558.771	762.25
558.984	794.25
559.196	771.25
559.409	763.25
559.621	707.25
559.833	719.25
560.046	723.25
560.258	725.25
560.47	750.25
560.683	687.25
560.895	687.25
561.107	691.25
561.32	662.25
561.532	676.25
561.744	760.25
561.956	773.25
562.168	711.25
562.381	725.25
562.593	746.25
562.805	726.25
563.017	712.25
563.229	682.25
563.441	669.25
563.653	694.25
563.865	702.25
564.077	694.25
564.289	647.25
564.501	678.25
564.713	747.25
564.925	718.25
565.137	703.25
565.349	729.25
565.561	730.25
565.773	722.25
565.985	733.25
566.197	774.25
566.408	852.25
566.62	852.25
566.832	846.25
567.044	865.25
567.255	906.25
567.467	992.25
567.679	875.25
567.891	863.25
568.102	894.25
568.314	914.25
568.526	862.25
568.737	850.25
568.949	868.25
569.161	754.25
569.372	698.25
569.584	687.25
569.795	675.25
570.007	719.25
570.218	770.25
570.43	718.25
570.641	669.25
570.853	660.25
571.064	674.25
571.276	708.25
571.487	705.25
571.698	670.25
571.91	674.25
572.121	679.25
572.333	646.25
572.544	630.25
572.755	634.25
572.966	620.25
573.178	601.25
573.389	631.25
573.6	634.25
573.811	632.25
574.023	574.25
574.234	580.25
574.445	606.25
574.656	549.25
574.867	580.25
575.078	589.25
575.289	591.25
575.501	646.25
575.712	611.25
575.923	554.25
576.134	547.25
576.345	556.25
576.556	562.25
576.767	544.25
576.978	525.25
577.188	527.25
577.399	534.25
577.61	524.25
577.821	542.25
578.032	542.25
578.243	565.25
578.454	563.25
578.665	573.25
578.875	543.25
579.086	545.25
579.297	581.25
579.508	581.25
579.718	584.25
579.929	538.25
580.14	535.25
580.35	484.25
580.561	487.25
580.772	501.25
580.982	477.25
581.193	490.25
581.403	481.25
581.614	478.25
581.825	484.25
582.035	501.25
582.246	450.25
582.456	474.25
582.667	460.25
582.877	451.25
583.087	459.25
583.298	451.25
583.508	481.25
583.719	448.25
583.929	459.25
584.139	455.25
584.35	451.25
584.56	463.25
584.77	479.25
584.981	482.25
585.191	481.25
585.401	452.25
585.611	495.25
585.821	515.25
586.032	482.25
586.242	498.25
586.452	458.25
586.662	474.25
586.872	500.25
587.082	505.25
587.292	472.25
587.502	463.25
587.713	456.25
587.923	478.25
588.133	503.25
588.343	476.25
588.553	469.25
588.762	487.25
588.972	458.25
589.182	453.25
589.392	450.25
589.602	467.25
589.812	483.25
590.022	502.25
590.232	522.25
590.441	475.25
590.651	452.25
590.861	454.25
591.071	483.25
591.281	465.25
591.49	439.25
591.7	454.25
591.91	447.25
592.119	444.25
592.329	463.25
592.539	455.25
592.748	450.25
592.958	454.25
593.167	475.25
593.377	493.25
593.587	478.25
593.796	475.25
594.006	477.25
594.215	489.25
594.424	467.25
594.634	478.25
594.843	498.25
595.053	469.25
595.262	454.25
595.472	432.25
595.681	442.25
595.89	427.25
596.1	441.25
596.309	427.25
596.518	415.25
596.727	398.25
596.937	416.25
597.146	438.25
597.355	476.25
597.564	433.25
597.774	413.25
597.983	415.25
598.192	419.25
598.401	387.25
598.61	389.25
598.819	374.25
599.028	390.25
599.237	385.25
599.446	378.25
599.655	382.25
599.864	360.25
600.073	373.25
600.282	368.25
600.491	388.25
600.7	398.25
600.909	386.25
601.118	381.25
601.327	381.25
601.536	383.25
601.745	378.25
601.953	411.25
602.162	380.25
602.371	395.25
602.58	398.25
602.789	375.25
602.997	376.25
603.206	374.25
603.415	371.25
603.623	361.25
603.832	359.25
604.041	370.25
604.249	384.25
604.458	388.25
604.666	367.25
604.875	360.25
605.084	352.25
605.292	363.25
605.501	362.25
605.709	387.25
605.918	368.25
606.126	356.25
606.334	330.25
606.543	360.25
606.751	364.25
606.96	356.25
607.168	366.25
607.376	338.25
607.585	331.25
607.793	345.25
608.001	340.25
608.21	349.25
608.418	357.25
608.626	355.25
608.834	345.25
609.043	350.25
609.251	330.25
609.459	358.25
609.667	342.25
609.875	339.25
610.083	336.25
610.291	346.25
610.499	362.25
610.707	340.25
610.916	329.25
611.124	334.25
611.332	322.25
611.54	354.25
611.748	330.25
611.955	332.25
612.163	348.25
612.371	334.25
612.579	348.25
612.787	337.25
612.995	352.25
613.203	329.25
613.411	334.25
613.618	333.25
613.826	329.25
614.034	357.25
614.242	339.25
614.449	320.25
614.657	335.25
614.865	317.25
615.072	329.25
615.28	319.25
615.488	330.25
615.695	336.25
615.903	334.25
616.111	328.25
616.318	321.25
616.526	318.25
616.733	320.25
616.941	308.25
617.148	315.25
617.356	309.25
617.563	324.25
617.771	310.25
617.978	295.25
618.185	302.25
618.393	332.25
618.6	309.25
618.807	335.25
619.015	315.25
619.222	311.25
619.429	333.25
619.637	322.25
619.844	309.25
620.051	296.25
620.258	292.25
620.466	301.25
620.673	295.25
620.88	296.25
621.087	285.25
621.294	303.25
621.501	280.25
621.708	304.25
621.915	294.25
622.122	286.25
622.329	299.25
622.536	278.25
622.743	285.25
622.95	280.25
623.157	290.25
623.364	310.25
623.571	310.25
623.778	319.25
623.985	307.25
624.192	308.25
624.399	312.25
624.606	295.25
624.812	295.25
625.019	304.25
625.226	322.25
625.433	299.25
625.639	307.25
625.846	296.25
626.053	294.25
626.259	269.25
626.466	282.25
626.673	303.25
626.879	286.25
627.086	287.25
627.293	277.25
627.499	291.25
627.706	266.25
627.912	258.25
628.119	263.25
628.325	255.25
628.532	271.25
628.738	255.25
628.945	258.25
629.151	269.25
629.357	268.25
629.564	250.25
629.77	255.25
629.976	260.25
630.183	256.25
630.389	267.25
630.595	271.25
630.802	259.25
631.008	268.25
631.214	274.25
631.42	258.25
631.627	273.25
631.833	262.25
632.039	258.25
632.245	251.25
632.451	235.25
632.657	247.25
632.863	266.25
633.069	262.25
633.275	250.25
633.481	237.25
633.688	260.25
633.893	242.25
634.099	238.25
634.305	243.25
634.511	246.25
634.717	261.25
634.923	238.25
635.129	246.25
635.335	220.25
635.541	220.25
635.747	241.25
635.952	238.25
636.158	231.25
636.364	234.25
636.57	244.25
636.775	244.25
636.981	236.25
637.187	218.25
637.392	228.25
637.598	208.25
637.804	237.25
638.009	223.25
638.215	227.25
638.421	221.25
638.626	234.25
638.832	220.25
639.037	234.25
639.243	210.25
639.448	226.25
639.654	220.25
639.859	231.25
640.065	224.25
640.27	257.25
640.475	244.25
640.681	228.25
640.886	227.25
641.091	225.25
641.297	215.25
641.502	210.25
641.707	226.25
641.913	230.25
642.118	220.25
642.323	254.25
642.528	213.25
642.733	219.25
642.939	222.25
643.144	215.25
643.349	218.25
643.554	205.25
643.759	202.25
643.964	212.25
644.169	212.25
644.374	203.25
644.579	186.25
644.784	205.25
644.989	204.25
645.194	217.25
645.399	224.25
645.604	206.25
645.809	217.25
646.014	204.25
646.219	208.25
646.423	222.25
646.628	212.25
646.833	202.25
647.038	209.25
647.243	227.25
647.447	191.25
647.652	203.25
647.857	209.25
648.062	214.25
648.266	203.25
648.471	218.25
648.676	197.25
648.88	219.25
649.085	205.25
649.289	209.25
649.494	212.25
649.698	205.25
649.903	212.25
650.107	184.25
650.312	191.25
650.516	188.25
650.721	194.25
650.925	199.25
651.13	191.25
651.334	198.25
651.539	210.25
651.743	185.25
651.947	176.25
652.152	187.25
652.356	171.25
652.56	189.25
652.764	171.25
652.969	156.25
653.173	170.25
653.377	167.25
653.581	151.25
653.785	178.25
653.99	180.25
654.194	163.25
654.398	170.25
654.602	158.25
654.806	143.25
655.01	154.25
655.214	148.25
655.418	158.25
655.622	157.25
655.826	172.25
656.03	161.25
656.234	156.25
656.438	163.25
656.642	159.25
656.846	165.25
657.049	150.25
657.253	141.25
657.457	131.25
657.661	130.25
657.865	134.25
658.068	149.25
658.272	131.25
658.476	108.25
658.68	111.25
658.883	117.25
659.087	111.25
659.291	112.25
659.494	109.25
659.698	111.25
659.901	112.25
660.105	109.25
660.309	96.25
660.512	107.25
660.716	101.25
660.919	91.25
661.123	92.25
661.326	83.25
661.53	92.25
661.733	95.25
661.936	87.25
662.14	86.25
662.343	76.25
662.546	85.25
662.75	83.25
662.953	90.25
663.156	94.25
663.36	84.25
663.563	76.25
663.766	77.25
663.969	90.25
664.173	82.25
664.376	73.25
664.579	77.25
664.782	68.25
664.985	70.25
665.188	76.25
665.391	90.25
665.594	86.25
665.797	90.25
666	87.25
666.203	82.25
666.406	72.25
666.609	61.25
666.812	71.25
667.015	84.25
667.218	96.25
667.421	82.25
667.624	87.25
667.827	89.25
668.03	84.25
668.232	69.25
668.435	63.25
668.638	71.25
668.841	81.25
669.043	77.25
669.246	79.25
669.449	73.25
669.651	79.25
669.854	72.25
670.057	92.25
670.259	75.25
670.462	73.25
670.665	89.25
670.867	70.25
671.07	77.25
671.272	85.25
671.475	86.25
671.677	71.25
671.88	83.25
672.082	84.25
672.284	77.25
672.487	81.25
672.689	77.25
672.892	83.25
