Data from NickelSpatula.Lamp.E10.P2_HRD10591_11-56-58-534.txt Node
Date: Tue Jul 23 11:56:58 EDT 2019
User: cochatt
Spectrometer: HR+D1059
Trigger mode: 1
Integration Time (sec): 1.000000E-1
Scans to average: 1
Electric dark correction enabled: true
Nonlinearity correction enabled: false
Boxcar width: 0
XAxis mode: Wavelengths
Number of Pixels in Spectrum: 2048
>>>>>Begin Spectral Data<<<<<
223.165	-16.12
223.4	-16.12
223.635	-16.12
223.869	-11.12
224.104	-15.12
224.338	-17.12
224.573	-21.12
224.808	-7.12
225.042	-14.12
225.277	-9.12
225.511	5.88
225.746	2.88
225.98	4.88
226.215	7.88
226.449	6.88
226.683	17.88
226.918	37.88
227.152	26.88
227.387	32.88
227.621	24.88
227.856	41.88
228.09	34.88
228.324	40.88
228.559	56.88
228.793	62.88
229.027	129.88
229.262	146.88
229.496	135.88
229.73	143.88
229.964	173.88
230.199	186.88
230.433	189.88
230.667	201.88
230.901	197.88
231.136	178.88
231.37	198.88
231.604	213.88
231.838	223.88
232.072	258.88
232.306	244.88
232.541	233.88
232.775	234.88
233.009	239.88
233.243	274.88
233.477	278.88
233.711	329.88
233.945	308.88
234.179	289.88
234.413	310.88
234.647	355.88
234.881	442.88
235.115	376.88
235.349	382.88
235.583	323.88
235.817	308.88
236.051	362.88
236.285	394.88
236.519	423.88
236.753	401.88
236.987	389.88
237.221	390.88
237.455	386.88
237.689	403.88
237.922	424.88
238.156	437.88
238.39	521.88
238.624	622.88
238.858	549.88
239.091	458.88
239.325	469.88
239.559	443.88
239.793	492.88
240.027	598.88
240.26	552.88
240.494	539.88
240.728	554.88
240.961	625.88
241.195	581.88
241.429	586.88
241.662	577.88
241.896	489.88
242.13	453.88
242.363	426.88
242.597	442.88
242.83	509.88
243.064	520.88
243.298	562.88
243.531	584.88
243.765	594.88
243.998	580.88
244.232	553.88
244.465	561.88
244.699	540.88
244.932	629.88
245.166	593.88
245.399	516.88
245.633	522.88
245.866	534.88
246.099	586.88
246.333	658.88
246.566	718.88
246.8	688.88
247.033	687.88
247.266	635.88
247.5	636.88
247.733	633.88
247.966	618.88
248.2	632.88
248.433	694.88
248.666	773.88
248.899	781.88
249.133	785.88
249.366	885.88
249.599	961.88
249.832	852.88
250.066	754.88
250.299	781.88
250.532	753.88
250.765	738.88
250.998	695.88
251.231	678.88
251.465	747.88
251.698	786.88
251.931	742.88
252.164	783.88
252.397	842.88
252.63	973.88
252.863	1052.88
253.096	1093.88
253.329	1048.88
253.562	997.88
253.795	1143.88
254.028	1228.88
254.261	1314.88
254.494	1168.88
254.727	1056.88
254.96	1055.88
255.193	1124.88
255.426	1046.88
255.659	800.88
255.892	761.88
256.124	831.88
256.357	956.88
256.59	1128.88
256.823	1069.88
257.056	924.88
257.289	869.88
257.521	953.88
257.754	1096.88
257.987	1232.88
258.22	1037.88
258.452	952.88
258.685	1069.88
258.918	1189.88
259.151	1194.88
259.383	1241.88
259.616	1448.88
259.849	1488.88
260.081	1627.88
260.314	1810.88
260.547	1411.88
260.779	1426.88
261.012	1599.88
261.244	1519.88
261.477	1524.88
261.71	1456.88
261.942	1215.88
262.175	1197.88
262.407	1188.88
262.64	1194.88
262.872	1369.88
263.105	1495.88
263.337	1596.88
263.57	1433.88
263.802	1007.88
264.035	856.88
264.267	840.88
264.499	739.88
264.732	680.88
264.964	651.88
265.197	684.88
265.429	718.88
265.661	780.88
265.894	809.88
266.126	898.88
266.358	984.88
266.591	1158.88
266.823	1385.88
267.055	1346.88
267.287	1172.88
267.52	1156.88
267.752	1239.88
267.984	1379.88
268.216	1338.88
268.448	1099.88
268.681	1053.88
268.913	1160.88
269.145	1248.88
269.377	1240.88
269.609	1262.88
269.841	1175.88
270.073	1252.88
270.306	1282.88
270.538	1298.88
270.77	1344.88
271.002	1357.88
271.234	1394.88
271.466	1406.88
271.698	1336.88
271.93	1275.88
272.162	1326.88
272.394	1284.88
272.626	1270.88
272.858	1326.88
273.09	1388.88
273.322	1210.88
273.553	1150.88
273.785	1373.88
274.017	1774.88
274.249	2200.88
274.481	2252.88
274.713	2448.88
274.945	2881.88
275.176	3005.88
275.408	2629.88
275.64	2419.88
275.872	2428.88
276.104	2078.88
276.335	1798.88
276.567	1775.88
276.799	1855.88
277.031	1921.88
277.262	1530.88
277.494	1172.88
277.726	1116.88
277.957	1248.88
278.189	1370.88
278.421	1399.88
278.652	1340.88
278.884	1278.88
279.115	1183.88
279.347	1118.88
279.579	1105.88
279.81	1122.88
280.042	1124.88
280.273	1178.88
280.505	1060.88
280.736	966.88
280.968	970.88
281.199	1070.88
281.431	1172.88
281.662	1174.88
281.894	1124.88
282.125	1213.88
282.356	1300.88
282.588	1317.88
282.819	1215.88
283.051	1307.88
283.282	1612.88
283.513	1819.88
283.745	2049.88
283.976	2064.88
284.207	1872.88
284.439	1960.88
284.67	1890.88
284.901	1684.88
285.132	1786.88
285.364	1906.88
285.595	1738.88
285.826	1882.88
286.057	1918.88
286.288	1836.88
286.52	1877.88
286.751	2000.88
286.982	1955.88
287.213	1715.88
287.444	1593.88
287.675	1714.88
287.906	1671.88
288.138	1481.88
288.369	1284.88
288.6	1246.88
288.831	1324.88
289.062	1477.88
289.293	1637.88
289.524	1553.88
289.755	1521.88
289.986	1557.88
290.217	1367.88
290.448	1082.88
290.679	894.88
290.91	877.88
291.141	856.88
291.371	900.88
291.602	886.88
291.833	925.88
292.064	974.88
292.295	1132.88
292.526	1290.88
292.757	1366.88
292.987	1450.88
293.218	1485.88
293.449	1522.88
293.68	1614.88
293.91	1520.88
294.141	1541.88
294.372	1464.88
294.603	1354.88
294.833	1500.88
295.064	1726.88
295.295	1645.88
295.525	1267.88
295.756	1072.88
295.987	937.88
296.217	938.88
296.448	963.88
296.679	1010.88
296.909	1084.88
297.14	1169.88
297.37	1280.88
297.601	1234.88
297.831	1080.88
298.062	1158.88
298.292	1308.88
298.523	1430.88
298.753	1568.88
298.984	1444.88
299.214	1181.88
299.445	959.88
299.675	916.88
299.905	902.88
300.136	942.88
300.366	1030.88
300.597	1016.88
300.827	888.88
301.057	877.88
301.288	902.88
301.518	966.88
301.748	1046.88
301.979	1149.88
302.209	1209.88
302.439	1181.88
302.669	1090.88
302.9	1130.88
303.13	1051.88
303.36	1000.88
303.59	950.88
303.82	1008.88
304.051	1125.88
304.281	1216.88
304.511	1205.88
304.741	1061.88
304.971	1105.88
305.201	1142.88
305.431	1107.88
305.661	970.88
305.891	924.88
306.121	949.88
306.352	870.88
306.582	801.88
306.812	760.88
307.042	803.88
307.272	748.88
307.502	748.88
307.731	798.88
307.961	835.88
308.191	801.88
308.421	754.88
308.651	734.88
308.881	692.88
309.111	725.88
309.341	749.88
309.571	834.88
309.8	837.88
310.03	836.88
310.26	874.88
310.49	860.88
310.72	790.88
310.949	781.88
311.179	827.88
311.409	883.88
311.639	1003.88
311.868	1277.88
312.098	1613.88
312.328	1804.88
312.557	1733.88
312.787	1742.88
313.017	1554.88
313.246	1665.88
313.476	1793.88
313.706	1497.88
313.935	1190.88
314.165	1013.88
314.394	914.88
314.624	906.88
314.853	929.88
315.083	968.88
315.312	925.88
315.542	952.88
315.771	883.88
316.001	800.88
316.23	788.88
316.46	782.88
316.689	792.88
316.919	829.88
317.148	834.88
317.377	806.88
317.607	804.88
317.836	868.88
318.065	1022.88
318.295	1142.88
318.524	1074.88
318.753	912.88
318.983	854.88
319.212	831.88
319.441	893.88
319.67	1007.88
319.9	1042.88
320.129	992.88
320.358	890.88
320.587	881.88
320.816	910.88
321.046	1036.88
321.275	1168.88
321.504	1129.88
321.733	1108.88
321.962	1080.88
322.191	990.88
322.42	950.88
322.649	968.88
322.878	1049.88
323.108	1054.88
323.337	981.88
323.566	986.88
323.795	944.88
324.024	939.88
324.253	906.88
324.482	876.88
324.71	936.88
324.939	1027.88
325.168	986.88
325.397	827.88
325.626	816.88
325.855	840.88
326.084	871.88
326.313	806.88
326.542	798.88
326.77	819.88
326.999	816.88
327.228	911.88
327.457	887.88
327.686	906.88
327.914	804.88
328.143	753.88
328.372	749.88
328.6	764.88
328.829	803.88
329.058	783.88
329.287	790.88
329.515	820.88
329.744	824.88
329.972	789.88
330.201	769.88
330.43	762.88
330.658	886.88
330.887	972.88
331.115	951.88
331.344	931.88
331.572	876.88
331.801	835.88
332.03	798.88
332.258	820.88
332.486	866.88
332.715	911.88
332.943	829.88
333.172	882.88
333.4	879.88
333.629	964.88
333.857	1049.88
334.085	1036.88
334.314	1041.88
334.542	988.88
334.771	902.88
334.999	901.88
335.227	893.88
335.455	889.88
335.684	962.88
335.912	1093.88
336.14	1233.88
336.369	1164.88
336.597	1142.88
336.825	1252.88
337.053	1391.88
337.281	1124.88
337.51	906.88
337.738	912.88
337.966	964.88
338.194	1066.88
338.422	1018.88
338.65	872.88
338.878	833.88
339.106	844.88
339.334	906.88
339.562	982.88
339.79	961.88
340.018	891.88
340.246	951.88
340.474	1073.88
340.702	1138.88
340.93	1173.88
341.158	1196.88
341.386	981.88
341.614	978.88
341.842	981.88
342.07	1046.88
342.298	1192.88
342.526	1256.88
342.754	1020.88
342.981	990.88
343.209	968.88
343.437	994.88
343.665	1029.88
343.893	1040.88
344.12	1186.88
344.348	1365.88
344.576	1265.88
344.804	1062.88
345.031	929.88
345.259	890.88
345.487	900.88
345.714	884.88
345.942	982.88
346.17	1099.88
346.397	984.88
346.625	890.88
346.853	866.88
347.08	856.88
347.308	903.88
347.535	958.88
347.763	1021.88
347.99	896.88
348.218	884.88
348.445	885.88
348.673	906.88
348.9	904.88
349.128	925.88
349.355	932.88
349.583	926.88
349.81	910.88
350.037	844.88
350.265	764.88
350.492	723.88
350.72	726.88
350.947	737.88
351.174	827.88
351.402	855.88
351.629	832.88
351.856	819.88
352.083	789.88
352.311	849.88
352.538	906.88
352.765	938.88
352.992	882.88
353.22	847.88
353.447	886.88
353.674	821.88
353.901	844.88
354.128	834.88
354.355	847.88
354.583	840.88
354.81	841.88
355.037	891.88
355.264	846.88
355.491	900.88
355.718	957.88
355.945	950.88
356.172	904.88
356.399	937.88
356.626	1056.88
356.853	1280.88
357.08	1365.88
357.307	1412.88
357.534	1134.88
357.761	1134.88
357.988	1382.88
358.215	1602.88
358.441	1504.88
358.668	1334.88
358.895	1218.88
359.122	1023.88
359.349	1003.88
359.576	1110.88
359.802	910.88
360.029	832.88
360.256	876.88
360.483	1068.88
360.709	1280.88
360.936	1329.88
361.163	1200.88
361.39	948.88
361.616	895.88
361.843	1025.88
362.07	1201.88
362.296	1098.88
362.523	929.88
362.749	837.88
362.976	848.88
363.203	998.88
363.429	1098.88
363.656	916.88
363.882	847.88
364.109	870.88
364.335	869.88
364.562	816.88
364.788	926.88
365.015	1058.88
365.241	981.88
365.468	843.88
365.694	766.88
365.92	729.88
366.147	749.88
366.373	715.88
366.599	730.88
366.826	761.88
367.052	746.88
367.278	752.88
367.505	745.88
367.731	797.88
367.957	875.88
368.184	893.88
368.41	868.88
368.636	866.88
368.862	896.88
369.089	867.88
369.315	795.88
369.541	811.88
369.767	793.88
369.993	756.88
370.219	762.88
370.445	802.88
370.672	879.88
370.898	906.88
371.124	918.88
371.35	845.88
371.576	801.88
371.802	880.88
372.028	987.88
372.254	1058.88
372.48	912.88
372.706	882.88
372.932	878.88
373.158	982.88
373.384	1114.88
373.61	1418.88
373.835	1428.88
374.061	1140.88
374.287	1004.88
374.513	1117.88
374.739	1293.88
374.965	1355.88
375.191	1358.88
375.416	994.88
375.642	869.88
375.868	997.88
376.094	1102.88
376.319	962.88
376.545	1079.88
376.771	1117.88
376.997	972.88
377.222	765.88
377.448	693.88
377.674	710.88
377.899	703.88
378.125	710.88
378.35	685.88
378.576	711.88
378.802	748.88
379.027	794.88
379.253	791.88
379.478	810.88
379.704	867.88
379.929	920.88
380.155	906.88
380.38	824.88
380.606	864.88
380.831	933.88
381.057	883.88
381.282	855.88
381.507	969.88
381.733	1170.88
381.958	1244.88
382.184	1294.88
382.409	1370.88
382.634	1353.88
382.86	1396.88
383.085	1166.88
383.31	973.88
383.535	1027.88
383.761	1032.88
383.986	991.88
384.211	1154.88
384.436	1144.88
384.662	930.88
384.887	874.88
385.112	891.88
385.337	900.88
385.562	885.88
385.787	945.88
386.013	1005.88
386.238	1050.88
386.463	893.88
386.688	902.88
386.913	848.88
387.138	808.88
387.363	862.88
387.588	858.88
387.813	853.88
388.038	933.88
388.263	876.88
388.488	837.88
388.713	945.88
388.938	1002.88
389.163	873.88
389.387	824.88
389.612	812.88
389.837	853.88
390.062	852.88
390.287	853.88
390.512	898.88
390.736	872.88
390.961	823.88
391.186	776.88
391.411	789.88
391.636	811.88
391.86	853.88
392.085	892.88
392.31	909.88
392.534	838.88
392.759	850.88
392.984	886.88
393.208	851.88
393.433	792.88
393.658	769.88
393.882	760.88
394.107	774.88
394.331	726.88
394.556	756.88
394.78	782.88
395.005	809.88
395.229	796.88
395.454	805.88
395.678	805.88
395.903	837.88
396.127	822.88
396.352	831.88
396.576	894.88
396.801	912.88
397.025	974.88
397.249	1009.88
397.474	861.88
397.698	845.88
397.922	903.88
398.147	852.88
398.371	867.88
398.595	892.88
398.82	872.88
399.044	873.88
399.268	971.88
399.492	994.88
399.717	998.88
399.941	1030.88
400.165	987.88
400.389	972.88
400.613	968.88
400.837	912.88
401.062	878.88
401.286	842.88
401.51	859.88
401.734	878.88
401.958	851.88
402.182	860.88
402.406	873.88
402.63	838.88
402.854	898.88
403.078	988.88
403.302	1158.88
403.526	1228.88
403.75	1136.88
403.974	971.88
404.198	1008.88
404.422	1084.88
404.645	1278.88
404.869	1338.88
405.093	1054.88
405.317	931.88
405.541	963.88
405.765	971.88
405.988	976.88
406.212	1032.88
406.436	1152.88
406.66	1218.88
406.883	1047.88
407.107	1054.88
407.331	1187.88
407.555	1157.88
407.778	1034.88
408.002	1001.88
408.226	981.88
408.449	1007.88
408.673	966.88
408.896	914.88
409.12	874.88
409.344	879.88
409.567	880.88
409.791	868.88
410.014	845.88
410.238	852.88
410.461	843.88
410.685	848.88
410.908	848.88
411.132	873.88
411.355	890.88
411.578	922.88
411.802	910.88
412.025	899.88
412.249	940.88
412.472	922.88
412.695	914.88
412.919	877.88
413.142	925.88
413.365	942.88
413.589	965.88
413.812	873.88
414.035	858.88
414.258	899.88
414.482	958.88
414.705	956.88
414.928	878.88
415.151	832.88
415.374	832.88
415.597	853.88
415.821	864.88
416.044	854.88
416.267	848.88
416.49	841.88
416.713	832.88
416.936	804.88
417.159	813.88
417.382	828.88
417.605	854.88
417.828	841.88
418.051	850.88
418.274	859.88
418.497	867.88
418.72	877.88
418.943	857.88
419.166	888.88
419.389	919.88
419.611	936.88
419.834	945.88
420.057	981.88
420.28	1000.88
420.503	928.88
420.726	837.88
420.948	854.88
421.171	850.88
421.394	844.88
421.617	800.88
421.839	832.88
422.062	885.88
422.285	872.88
422.507	916.88
422.73	907.88
422.953	912.88
423.175	870.88
423.398	876.88
423.621	912.88
423.843	969.88
424.066	924.88
424.288	881.88
424.511	845.88
424.733	856.88
424.956	893.88
425.178	965.88
425.401	1085.88
425.623	1216.88
425.846	1018.88
426.068	936.88
426.291	966.88
426.513	924.88
426.735	874.88
426.958	944.88
427.18	1010.88
427.402	1237.88
427.625	1279.88
427.847	1066.88
428.069	862.88
428.292	836.88
428.514	845.88
428.736	828.88
428.958	886.88
429.181	995.88
429.403	894.88
429.625	844.88
429.847	812.88
430.069	819.88
430.292	872.88
430.514	826.88
430.736	878.88
430.958	1022.88
431.18	949.88
431.402	810.88
431.624	789.88
431.846	782.88
432.068	745.88
432.29	786.88
432.512	872.88
432.734	1090.88
432.956	992.88
433.178	834.88
433.4	822.88
433.622	832.88
433.844	847.88
434.066	865.88
434.287	836.88
434.509	816.88
434.731	839.88
434.953	841.88
435.175	857.88
435.397	948.88
435.618	845.88
435.84	770.88
436.062	810.88
436.284	799.88
436.505	768.88
436.727	780.88
436.949	782.88
437.17	794.88
437.392	825.88
437.614	810.88
437.835	780.88
438.057	816.88
438.278	918.88
438.5	1169.88
438.721	1164.88
438.943	898.88
439.165	794.88
439.386	781.88
439.608	771.88
439.829	765.88
440.05	769.88
440.272	829.88
440.493	924.88
440.715	1078.88
440.936	892.88
441.158	837.88
441.379	834.88
441.6	893.88
441.822	924.88
442.043	837.88
442.264	845.88
442.486	829.88
442.707	828.88
442.928	850.88
443.149	863.88
443.371	859.88
443.592	914.88
443.813	896.88
444.034	874.88
444.255	908.88
444.476	924.88
444.698	925.88
444.919	921.88
445.14	1016.88
445.361	992.88
445.582	932.88
445.803	891.88
446.024	906.88
446.245	886.88
446.466	866.88
446.687	833.88
446.908	837.88
447.129	797.88
447.35	782.88
447.571	766.88
447.792	758.88
448.013	769.88
448.234	744.88
448.455	784.88
448.675	759.88
448.896	787.88
449.117	762.88
449.338	781.88
449.559	818.88
449.779	846.88
450	790.88
450.221	812.88
450.442	796.88
450.662	736.88
450.883	774.88
451.104	804.88
451.324	781.88
451.545	796.88
451.766	773.88
451.986	744.88
452.207	726.88
452.428	733.88
452.648	731.88
452.869	754.88
453.089	800.88
453.31	798.88
453.53	735.88
453.751	707.88
453.971	706.88
454.192	704.88
454.412	727.88
454.633	703.88
454.853	733.88
455.073	704.88
455.294	697.88
455.514	737.88
455.734	753.88
455.955	745.88
456.175	818.88
456.395	731.88
456.616	700.88
456.836	682.88
457.056	703.88
457.276	666.88
457.497	680.88
457.717	704.88
457.937	673.88
458.157	720.88
458.377	698.88
458.598	712.88
458.818	750.88
459.038	765.88
459.258	780.88
459.478	820.88
459.698	878.88
459.918	842.88
460.138	826.88
460.358	864.88
460.578	837.88
460.798	843.88
461.018	874.88
461.238	837.88
461.458	840.88
461.678	883.88
461.898	874.88
462.118	897.88
462.338	875.88
462.558	903.88
462.777	961.88
462.997	976.88
463.217	954.88
463.437	1021.88
463.657	966.88
463.876	904.88
464.096	935.88
464.316	932.88
464.536	908.88
464.755	969.88
464.975	964.88
465.195	904.88
465.414	923.88
465.634	917.88
465.854	923.88
466.073	866.88
466.293	812.88
466.512	868.88
466.732	952.88
466.951	974.88
467.171	888.88
467.391	838.88
467.61	838.88
467.829	874.88
468.049	881.88
468.268	846.88
468.488	846.88
468.707	878.88
468.927	1017.88
469.146	1071.88
469.365	982.88
469.585	902.88
469.804	997.88
470.023	1031.88
470.243	921.88
470.462	895.88
470.681	874.88
470.901	900.88
471.12	939.88
471.339	919.88
471.558	884.88
471.777	883.88
471.997	960.88
472.216	1043.88
472.435	1013.88
472.654	947.88
472.873	898.88
473.092	939.88
473.311	991.88
473.53	917.88
473.749	864.88
473.968	928.88
474.187	931.88
474.406	882.88
474.625	880.88
474.844	952.88
475.063	977.88
475.282	981.88
475.501	1016.88
475.72	1033.88
475.939	1004.88
476.158	1062.88
476.377	1164.88
476.596	1341.88
476.814	1404.88
477.033	1154.88
477.252	1014.88
477.471	962.88
477.69	971.88
477.908	1038.88
478.127	1106.88
478.346	1005.88
478.564	1107.88
478.783	1034.88
479.002	1063.88
479.22	1206.88
479.439	1366.88
479.658	1163.88
479.876	1076.88
480.095	1152.88
480.313	1184.88
480.532	1088.88
480.751	1034.88
480.969	1081.88
481.188	1224.88
481.406	1218.88
481.624	1161.88
481.843	1048.88
482.061	1016.88
482.28	1171.88
482.498	1365.88
482.717	1259.88
482.935	1126.88
483.153	1073.88
483.372	1027.88
483.59	1040.88
483.808	1006.88
484.027	1009.88
484.245	977.88
484.463	981.88
484.681	1002.88
484.9	1078.88
485.118	1140.88
485.336	1082.88
485.554	1010.88
485.772	1026.88
485.99	1089.88
486.209	1172.88
486.427	1156.88
486.645	1133.88
486.863	1191.88
487.081	1173.88
487.299	1250.88
487.517	1209.88
487.735	1139.88
487.953	1172.88
488.171	1176.88
488.389	1120.88
488.607	1086.88
488.825	1067.88
489.043	1147.88
489.261	1274.88
489.479	1376.88
489.696	1219.88
489.914	1120.88
490.132	1057.88
490.35	1074.88
490.568	1084.88
490.786	1091.88
491.003	1066.88
491.221	1134.88
491.439	1099.88
491.657	1118.88
491.874	1176.88
492.092	1351.88
492.31	1505.88
492.527	1556.88
492.745	1395.88
492.963	1253.88
493.18	1233.88
493.398	1232.88
493.615	1208.88
493.833	1200.88
494.05	1186.88
494.268	1172.88
494.485	1180.88
494.703	1151.88
494.92	1179.88
495.138	1113.88
495.355	1122.88
495.573	1176.88
495.79	1262.88
496.008	1509.88
496.225	1374.88
496.442	1246.88
496.66	1264.88
496.877	1334.88
497.094	1334.88
497.312	1271.88
497.529	1252.88
497.746	1298.88
497.963	1282.88
498.181	1381.88
498.398	1500.88
498.615	1532.88
498.832	1562.88
499.049	1648.88
499.267	1491.88
499.484	1514.88
499.701	1564.88
499.918	1714.88
500.135	1854.88
500.352	1853.88
500.569	1883.88
500.786	1918.88
501.003	1916.88
501.22	1745.88
501.437	1624.88
501.654	1566.88
501.871	1568.88
502.088	1544.88
502.305	1423.88
502.522	1412.88
502.739	1414.88
502.956	1316.88
503.172	1300.88
503.389	1239.88
503.606	1232.88
503.823	1261.88
504.04	1258.88
504.256	1258.88
504.473	1304.88
504.69	1307.88
504.907	1320.88
505.123	1281.88
505.34	1372.88
505.557	1365.88
505.773	1271.88
505.99	1237.88
506.207	1272.88
506.423	1202.88
506.64	1144.88
506.856	1184.88
507.073	1284.88
507.289	1238.88
507.506	1273.88
507.722	1324.88
507.939	1349.88
508.155	1376.88
508.372	1246.88
508.588	1199.88
508.805	1152.88
509.021	1196.88
509.238	1116.88
509.454	1105.88
509.67	1117.88
509.887	1148.88
510.103	1242.88
510.319	1259.88
510.536	1142.88
510.752	1003.88
510.968	1011.88
511.184	984.88
511.401	996.88
511.617	1019.88
511.833	1016.88
512.049	1016.88
512.265	1048.88
512.481	1070.88
512.698	1214.88
512.914	1298.88
513.13	1164.88
513.346	1057.88
513.562	1086.88
513.778	1112.88
513.994	1060.88
514.21	1104.88
514.426	1092.88
514.642	1096.88
514.858	1080.88
515.074	1138.88
515.29	1194.88
515.506	1390.88
515.721	1256.88
515.937	1180.88
516.153	1120.88
516.369	1089.88
516.585	1144.88
516.801	1232.88
517.016	1414.88
517.232	1393.88
517.448	1425.88
517.664	1340.88
517.879	1224.88
518.095	1200.88
518.311	1230.88
518.527	1278.88
518.742	1346.88
518.958	1421.88
519.173	1354.88
519.389	1277.88
519.605	1278.88
519.82	1404.88
520.036	1601.88
520.251	1609.88
520.467	1460.88
520.682	2019.88
520.898	2359.88
521.113	2234.88
521.329	1560.88
521.544	1462.88
521.76	1396.88
521.975	1216.88
522.19	1205.88
522.406	1262.88
522.621	1339.88
522.836	1350.88
523.052	1394.88
523.267	1206.88
523.482	1153.88
523.698	1245.88
523.913	1293.88
524.128	1150.88
524.343	1112.88
524.559	1125.88
524.774	1054.88
524.989	1120.88
525.204	1103.88
525.419	1278.88
525.634	1176.88
525.849	1196.88
526.064	1206.88
526.28	1178.88
526.495	1372.88
526.71	1397.88
526.925	1241.88
527.14	1218.88
527.355	1172.88
527.57	1044.88
527.785	1100.88
527.999	1064.88
528.214	1036.88
528.429	1007.88
528.644	1023.88
528.859	946.88
529.074	925.88
529.289	956.88
529.503	948.88
529.718	962.88
529.933	1096.88
530.148	1086.88
530.363	966.88
530.577	989.88
530.792	964.88
531.007	969.88
531.221	960.88
531.436	947.88
531.651	949.88
531.865	983.88
532.08	997.88
532.295	944.88
532.509	950.88
532.724	1050.88
532.938	1176.88
533.153	1297.88
533.367	1145.88
533.582	1109.88
533.796	1038.88
534.011	997.88
534.225	1013.88
534.44	989.88
534.654	1042.88
534.868	1156.88
535.083	1058.88
535.297	953.88
535.511	984.88
535.726	1100.88
535.94	1066.88
536.154	992.88
536.369	926.88
536.583	944.88
536.797	930.88
537.011	938.88
537.225	1022.88
537.44	1065.88
537.654	965.88
537.868	940.88
538.082	964.88
538.296	956.88
538.51	998.88
538.724	1004.88
538.938	986.88
539.153	932.88
539.367	892.88
539.581	939.88
539.795	965.88
540.009	1061.88
540.222	979.88
540.436	966.88
540.65	1057.88
540.864	1038.88
541.078	1102.88
541.292	1213.88
541.506	1028.88
541.72	993.88
541.934	975.88
542.147	989.88
542.361	975.88
542.575	989.88
542.789	966.88
543.002	884.88
543.216	964.88
543.43	932.88
543.644	892.88
543.857	888.88
544.071	902.88
544.285	906.88
544.498	874.88
544.712	886.88
544.925	913.88
545.139	897.88
545.352	854.88
545.566	912.88
545.779	957.88
545.993	910.88
546.206	872.88
546.42	845.88
546.633	856.88
546.847	818.88
547.06	816.88
547.274	818.88
547.487	845.88
547.7	911.88
547.914	938.88
548.127	1059.88
548.34	998.88
548.554	926.88
548.767	937.88
548.98	1006.88
549.193	908.88
549.407	995.88
549.62	1119.88
549.833	1065.88
550.046	1101.88
550.259	1115.88
550.473	996.88
550.686	939.88
550.899	955.88
551.112	948.88
551.325	1007.88
551.538	1024.88
551.751	913.88
551.964	880.88
552.177	867.88
552.39	840.88
552.603	847.88
552.816	903.88
553.029	874.88
553.242	862.88
553.455	916.88
553.667	953.88
553.88	949.88
554.093	876.88
554.306	810.88
554.519	787.88
554.732	762.88
554.944	775.88
555.157	741.88
555.37	736.88
555.583	735.88
555.795	756.88
556.008	767.88
556.221	794.88
556.433	753.88
556.646	739.88
556.859	720.88
557.071	786.88
557.284	769.88
557.496	795.88
557.709	760.88
557.921	764.88
558.134	728.88
558.346	708.88
558.559	715.88
558.771	729.88
558.984	741.88
559.196	730.88
559.409	709.88
559.621	696.88
559.833	684.88
560.046	689.88
560.258	693.88
560.47	731.88
560.683	694.88
560.895	668.88
561.107	650.88
561.32	666.88
561.532	687.88
561.744	710.88
561.956	708.88
562.168	696.88
562.381	677.88
562.593	717.88
562.805	730.88
563.017	664.88
563.229	638.88
563.441	649.88
563.653	661.88
563.865	683.88
564.077	703.88
564.289	672.88
564.501	706.88
564.713	749.88
564.925	680.88
565.137	722.88
565.349	654.88
565.561	671.88
565.773	708.88
565.985	724.88
566.197	740.88
566.408	829.88
566.62	825.88
566.832	830.88
567.044	834.88
567.255	891.88
567.467	958.88
567.679	861.88
567.891	850.88
568.102	871.88
568.314	910.88
568.526	809.88
568.737	818.88
568.949	837.88
569.161	710.88
569.372	672.88
569.584	659.88
569.795	654.88
570.007	668.88
570.218	741.88
570.43	689.88
570.641	687.88
570.853	642.88
571.064	627.88
571.276	657.88
571.487	681.88
571.698	640.88
571.91	638.88
572.121	652.88
572.333	602.88
572.544	616.88
572.755	594.88
572.966	571.88
573.178	575.88
573.389	609.88
573.6	622.88
573.811	616.88
574.023	546.88
574.234	548.88
574.445	559.88
574.656	556.88
574.867	535.88
575.078	583.88
575.289	588.88
575.501	607.88
575.712	582.88
575.923	530.88
576.134	531.88
576.345	528.88
576.556	527.88
576.767	528.88
576.978	510.88
577.188	478.88
577.399	525.88
577.61	517.88
577.821	527.88
578.032	541.88
578.243	565.88
578.454	540.88
578.665	566.88
578.875	560.88
579.086	552.88
579.297	535.88
579.508	548.88
579.718	538.88
579.929	522.88
580.14	529.88
580.35	487.88
580.561	504.88
580.772	487.88
580.982	465.88
581.193	468.88
581.403	470.88
581.614	475.88
581.825	464.88
582.035	444.88
582.246	444.88
582.456	451.88
582.667	440.88
582.877	451.88
583.087	454.88
583.298	442.88
583.508	434.88
583.719	464.88
583.929	466.88
584.139	447.88
584.35	452.88
584.56	465.88
584.77	464.88
584.981	477.88
585.191	459.88
585.401	448.88
585.611	458.88
585.821	485.88
586.032	494.88
586.242	443.88
586.452	460.88
586.662	468.88
586.872	464.88
587.082	466.88
587.292	468.88
587.502	458.88
587.713	448.88
587.923	461.88
588.133	470.88
588.343	452.88
588.553	445.88
588.762	460.88
588.972	451.88
589.182	460.88
589.392	443.88
589.602	442.88
589.812	474.88
590.022	492.88
590.232	512.88
590.441	458.88
590.651	445.88
590.861	438.88
591.071	450.88
591.281	451.88
591.49	420.88
591.7	444.88
591.91	446.88
592.119	433.88
592.329	444.88
592.539	456.88
592.748	444.88
592.958	456.88
593.167	438.88
593.377	467.88
593.587	461.88
593.796	475.88
594.006	474.88
594.215	463.88
594.424	462.88
594.634	475.88
594.843	444.88
595.053	416.88
595.262	429.88
595.472	409.88
595.681	410.88
595.89	434.88
596.1	420.88
596.309	428.88
596.518	402.88
596.727	414.88
596.937	412.88
597.146	434.88
597.355	458.88
597.564	426.88
597.774	412.88
597.983	405.88
598.192	386.88
598.401	370.88
598.61	393.88
598.819	374.88
599.028	387.88
599.237	364.88
599.446	372.88
599.655	370.88
599.864	379.88
600.073	352.88
600.282	390.88
600.491	380.88
600.7	360.88
600.909	389.88
601.118	388.88
601.327	378.88
601.536	371.88
601.745	399.88
601.953	381.88
602.162	377.88
602.371	378.88
602.58	392.88
602.789	356.88
602.997	348.88
603.206	374.88
603.415	371.88
603.623	338.88
603.832	353.88
604.041	340.88
604.249	378.88
604.458	372.88
604.666	357.88
604.875	338.88
605.084	343.88
605.292	348.88
605.501	356.88
605.709	386.88
605.918	347.88
606.126	339.88
606.334	345.88
606.543	347.88
606.751	347.88
606.96	339.88
607.168	337.88
607.376	348.88
607.585	369.88
607.793	333.88
608.001	340.88
608.21	321.88
608.418	325.88
608.626	336.88
608.834	348.88
609.043	348.88
609.251	330.88
609.459	345.88
609.667	349.88
609.875	328.88
610.083	351.88
610.291	368.88
610.499	348.88
610.707	338.88
610.916	320.88
611.124	335.88
611.332	301.88
611.54	340.88
611.748	320.88
611.955	320.88
612.163	324.88
612.371	333.88
612.579	324.88
612.787	313.88
612.995	319.88
613.203	315.88
613.411	316.88
613.618	330.88
613.826	332.88
614.034	340.88
614.242	329.88
614.449	326.88
614.657	322.88
614.865	318.88
615.072	323.88
615.28	322.88
615.488	321.88
615.695	324.88
615.903	308.88
616.111	318.88
616.318	321.88
616.526	329.88
616.733	327.88
616.941	318.88
617.148	300.88
617.356	312.88
617.563	291.88
617.771	299.88
617.978	327.88
618.185	297.88
618.393	300.88
618.6	323.88
618.807	313.88
619.015	339.88
619.222	320.88
619.429	315.88
619.637	293.88
619.844	290.88
620.051	297.88
620.258	285.88
620.466	293.88
620.673	291.88
620.88	281.88
621.087	280.88
621.294	281.88
621.501	298.88
621.708	284.88
621.915	296.88
622.122	290.88
622.329	294.88
622.536	301.88
622.743	295.88
622.95	285.88
623.157	288.88
623.364	283.88
623.571	278.88
623.778	289.88
623.985	292.88
624.192	308.88
624.399	300.88
624.606	280.88
624.812	289.88
625.019	286.88
625.226	298.88
625.433	297.88
625.639	274.88
625.846	259.88
626.053	252.88
626.259	270.88
626.466	275.88
626.673	284.88
626.879	280.88
627.086	266.88
627.293	258.88
627.499	277.88
627.706	276.88
627.912	275.88
628.119	250.88
628.325	250.88
628.532	255.88
628.738	258.88
628.945	267.88
629.151	259.88
629.357	250.88
629.564	255.88
629.77	266.88
629.976	250.88
630.183	242.88
630.389	254.88
630.595	253.88
630.802	248.88
631.008	238.88
631.214	256.88
631.42	242.88
631.627	234.88
631.833	230.88
632.039	238.88
632.245	232.88
632.451	235.88
632.657	252.88
632.863	242.88
633.069	234.88
633.275	235.88
633.481	227.88
633.688	245.88
633.893	234.88
634.099	219.88
634.305	244.88
634.511	236.88
634.717	233.88
634.923	222.88
635.129	225.88
635.335	226.88
635.541	233.88
635.747	235.88
635.952	229.88
636.158	227.88
636.364	228.88
636.57	229.88
636.775	238.88
636.981	229.88
637.187	222.88
637.392	224.88
637.598	227.88
637.804	218.88
638.009	240.88
638.215	233.88
638.421	244.88
638.626	217.88
638.832	218.88
639.037	225.88
639.243	229.88
639.448	233.88
639.654	219.88
639.859	226.88
640.065	223.88
640.27	225.88
640.475	209.88
640.681	203.88
640.886	214.88
641.091	221.88
641.297	233.88
641.502	218.88
641.707	224.88
641.913	226.88
642.118	213.88
642.323	220.88
642.528	214.88
642.733	222.88
642.939	228.88
643.144	192.88
643.349	209.88
643.554	204.88
643.759	204.88
643.964	204.88
644.169	204.88
644.374	187.88
644.579	178.88
644.784	208.88
644.989	216.88
645.194	194.88
645.399	188.88
645.604	208.88
645.809	194.88
646.014	186.88
646.219	191.88
646.423	213.88
646.628	218.88
646.833	205.88
647.038	212.88
647.243	210.88
647.447	190.88
647.652	203.88
647.857	178.88
648.062	179.88
648.266	210.88
648.471	198.88
648.676	218.88
648.88	210.88
649.085	198.88
649.289	174.88
649.494	203.88
649.698	215.88
649.903	202.88
650.107	194.88
650.312	195.88
650.516	186.88
650.721	190.88
650.925	170.88
651.13	174.88
651.334	180.88
651.539	186.88
651.743	179.88
651.947	171.88
652.152	179.88
652.356	171.88
652.56	170.88
652.764	157.88
652.969	162.88
653.173	169.88
653.377	172.88
653.581	174.88
653.785	177.88
653.99	159.88
654.194	160.88
654.398	150.88
654.602	144.88
654.806	156.88
655.01	150.88
655.214	176.88
655.418	162.88
655.622	155.88
655.826	158.88
656.03	161.88
656.234	139.88
656.438	160.88
656.642	156.88
656.846	149.88
657.049	142.88
657.253	148.88
657.457	137.88
657.661	140.88
657.865	125.88
658.068	118.88
658.272	110.88
658.476	120.88
658.68	119.88
658.883	115.88
659.087	100.88
659.291	107.88
659.494	91.88
659.698	101.88
659.901	99.88
660.105	107.88
660.309	99.88
660.512	107.88
660.716	104.88
660.919	102.88
661.123	108.88
661.326	90.88
661.53	92.88
661.733	93.88
661.936	91.88
662.14	73.88
662.343	79.88
662.546	78.88
662.75	99.88
662.953	91.88
663.156	84.88
663.36	86.88
663.563	74.88
663.766	85.88
663.969	91.88
664.173	86.88
664.376	80.88
664.579	97.88
664.782	80.88
664.985	87.88
665.188	79.88
665.391	94.88
665.594	81.88
665.797	91.88
666	80.88
666.203	81.88
666.406	88.88
666.609	78.88
666.812	72.88
667.015	69.88
667.218	89.88
667.421	80.88
667.624	78.88
667.827	74.88
668.03	75.88
668.232	70.88
668.435	78.88
668.638	77.88
668.841	81.88
669.043	70.88
669.246	73.88
669.449	74.88
669.651	69.88
669.854	80.88
670.057	88.88
670.259	86.88
670.462	76.88
670.665	69.88
670.867	71.88
671.07	83.88
671.272	88.88
671.475	67.88
671.677	75.88
671.88	81.88
672.082	73.88
672.284	89.88
672.487	91.88
672.689	74.88
672.892	68.88
