Data from NickelSpatula.Lamp.E10.P2_HRD10591_11-58-12-529.txt Node
Date: Tue Jul 23 11:58:12 EDT 2019
User: cochatt
Spectrometer: HR+D1059
Trigger mode: 1
Integration Time (sec): 1.000000E-1
Scans to average: 1
Electric dark correction enabled: true
Nonlinearity correction enabled: false
Boxcar width: 0
XAxis mode: Wavelengths
Number of Pixels in Spectrum: 2048
>>>>>Begin Spectral Data<<<<<
223.165	-13.56
223.4	-13.56
223.635	-13.56
223.869	-22.56
224.104	-15.56
224.338	-12.56
224.573	-27.56
224.808	-19.56
225.042	-6.56
225.277	-4.56
225.511	-8.56
225.746	8.44
225.98	-1.56
226.215	7.44
226.449	34.44
226.683	32.44
226.918	18.44
227.152	31.44
227.387	35.44
227.621	32.44
227.856	50.44
228.09	52.44
228.324	54.44
228.559	57.44
228.793	74.44
229.027	137.44
229.262	155.44
229.496	168.44
229.73	169.44
229.964	188.44
230.199	203.44
230.433	219.44
230.667	212.44
230.901	215.44
231.136	191.44
231.37	213.44
231.604	221.44
231.838	253.44
232.072	262.44
232.306	263.44
232.541	254.44
232.775	241.44
233.009	251.44
233.243	287.44
233.477	319.44
233.711	336.44
233.945	322.44
234.179	331.44
234.413	342.44
234.647	386.44
234.881	446.44
235.115	422.44
235.349	397.44
235.583	382.44
235.817	348.44
236.051	370.44
236.285	416.44
236.519	453.44
236.753	446.44
236.987	424.44
237.221	419.44
237.455	432.44
237.689	439.44
237.922	458.44
238.156	456.44
238.39	587.44
238.624	673.44
238.858	580.44
239.091	491.44
239.325	523.44
239.559	475.44
239.793	546.44
240.027	660.44
240.26	599.44
240.494	566.44
240.728	582.44
240.961	661.44
241.195	633.44
241.429	625.44
241.662	610.44
241.896	538.44
242.13	489.44
242.363	446.44
242.597	467.44
242.83	545.44
243.064	542.44
243.298	606.44
243.531	631.44
243.765	646.44
243.998	607.44
244.232	607.44
244.465	594.44
244.699	569.44
244.932	652.44
245.166	628.44
245.399	537.44
245.633	553.44
245.866	544.44
246.099	609.44
246.333	702.44
246.566	754.44
246.8	748.44
247.033	737.44
247.266	679.44
247.5	684.44
247.733	696.44
247.966	650.44
248.2	665.44
248.433	754.44
248.666	840.44
248.899	832.44
249.133	865.44
249.366	976.44
249.599	1028.44
249.832	930.44
250.066	799.44
250.299	803.44
250.532	809.44
250.765	805.44
250.998	743.44
251.231	723.44
251.465	766.44
251.698	809.44
251.931	808.44
252.164	822.44
252.397	902.44
252.63	1040.44
252.863	1178.44
253.096	1198.44
253.329	1150.44
253.562	1088.44
253.795	1218.44
254.028	1356.44
254.261	1387.44
254.494	1248.44
254.727	1116.44
254.96	1102.44
255.193	1158.44
255.426	1120.44
255.659	847.44
255.892	787.44
256.124	872.44
256.357	1006.44
256.59	1202.44
256.823	1129.44
257.056	960.44
257.289	889.44
257.521	970.44
257.754	1132.44
257.987	1254.44
258.22	1090.44
258.452	1016.44
258.685	1152.44
258.918	1265.44
259.151	1246.44
259.383	1319.44
259.616	1520.44
259.849	1543.44
260.081	1705.44
260.314	1899.44
260.547	1440.44
260.779	1485.44
261.012	1705.44
261.244	1588.44
261.477	1628.44
261.71	1533.44
261.942	1271.44
262.175	1286.44
262.407	1193.44
262.64	1264.44
262.872	1484.44
263.105	1596.44
263.337	1709.44
263.57	1533.44
263.802	1038.44
264.035	888.44
264.267	875.44
264.499	781.44
264.732	717.44
264.964	691.44
265.197	716.44
265.429	762.44
265.661	855.44
265.894	830.44
266.126	906.44
266.358	1036.44
266.591	1254.44
266.823	1480.44
267.055	1395.44
267.287	1259.44
267.52	1208.44
267.752	1274.44
267.984	1419.44
268.216	1379.44
268.448	1118.44
268.681	1078.44
268.913	1180.44
269.145	1233.44
269.377	1259.44
269.609	1286.44
269.841	1235.44
270.073	1285.44
270.306	1337.44
270.538	1356.44
270.77	1386.44
271.002	1387.44
271.234	1420.44
271.466	1460.44
271.698	1400.44
271.93	1376.44
272.162	1431.44
272.394	1434.44
272.626	1362.44
272.858	1423.44
273.09	1466.44
273.322	1318.44
273.553	1270.44
273.785	1510.44
274.017	1951.44
274.249	2388.44
274.481	2482.44
274.713	2694.44
274.945	3155.44
275.176	3259.44
275.408	2857.44
275.64	2591.44
275.872	2582.44
276.104	2198.44
276.335	1909.44
276.567	1910.44
276.799	1952.44
277.031	2053.44
277.262	1575.44
277.494	1222.44
277.726	1203.44
277.957	1289.44
278.189	1488.44
278.421	1477.44
278.652	1424.44
278.884	1351.44
279.115	1250.44
279.347	1185.44
279.579	1173.44
279.81	1193.44
280.042	1192.44
280.273	1227.44
280.505	1121.44
280.736	1026.44
280.968	1014.44
281.199	1077.44
281.431	1191.44
281.662	1248.44
281.894	1162.44
282.125	1255.44
282.356	1318.44
282.588	1377.44
282.819	1243.44
283.051	1370.44
283.282	1677.44
283.513	1910.44
283.745	2166.44
283.976	2140.44
284.207	2010.44
284.439	2094.44
284.67	1981.44
284.901	1808.44
285.132	1918.44
285.364	1977.44
285.595	1835.44
285.826	1943.44
286.057	2050.44
286.288	1994.44
286.52	2009.44
286.751	2115.44
286.982	2088.44
287.213	1779.44
287.444	1730.44
287.675	1837.44
287.906	1795.44
288.138	1538.44
288.369	1368.44
288.6	1293.44
288.831	1360.44
289.062	1548.44
289.293	1630.44
289.524	1597.44
289.755	1587.44
289.986	1637.44
290.217	1434.44
290.448	1082.44
290.679	968.44
290.91	916.44
291.141	936.44
291.371	963.44
291.602	962.44
291.833	982.44
292.064	1054.44
292.295	1192.44
292.526	1372.44
292.757	1458.44
292.987	1558.44
293.218	1538.44
293.449	1580.44
293.68	1676.44
293.91	1594.44
294.141	1571.44
294.372	1506.44
294.603	1379.44
294.833	1564.44
295.064	1784.44
295.295	1706.44
295.525	1292.44
295.756	1128.44
295.987	964.44
296.217	1034.44
296.448	1037.44
296.679	1091.44
296.909	1179.44
297.14	1288.44
297.37	1435.44
297.601	1347.44
297.831	1143.44
298.062	1248.44
298.292	1423.44
298.523	1538.44
298.753	1757.44
298.984	1575.44
299.214	1227.44
299.445	1062.44
299.675	1045.44
299.905	1020.44
300.136	1069.44
300.366	1158.44
300.597	1148.44
300.827	993.44
301.057	972.44
301.288	991.44
301.518	1092.44
301.748	1198.44
301.979	1295.44
302.209	1428.44
302.439	1402.44
302.669	1223.44
302.9	1214.44
303.13	1167.44
303.36	1109.44
303.59	1036.44
303.82	1086.44
304.051	1267.44
304.281	1317.44
304.511	1257.44
304.741	1125.44
304.971	1185.44
305.201	1253.44
305.431	1175.44
305.661	1025.44
305.891	1084.44
306.121	1056.44
306.352	928.44
306.582	857.44
306.812	854.44
307.042	835.44
307.272	793.44
307.502	814.44
307.731	889.44
307.961	895.44
308.191	847.44
308.421	810.44
308.651	804.44
308.881	770.44
309.111	770.44
309.341	810.44
309.571	867.44
309.8	917.44
310.03	920.44
310.26	956.44
310.49	931.44
310.72	856.44
310.949	848.44
311.179	855.44
311.409	911.44
311.639	1074.44
311.868	1371.44
312.098	1757.44
312.328	1940.44
312.557	1845.44
312.787	1895.44
313.017	1647.44
313.246	1781.44
313.476	1953.44
313.706	1604.44
313.935	1273.44
314.165	1058.44
314.394	950.44
314.624	969.44
314.853	999.44
315.083	1033.44
315.312	1002.44
315.542	1037.44
315.771	936.44
316.001	873.44
316.23	851.44
316.46	823.44
316.689	832.44
316.919	905.44
317.148	881.44
317.377	859.44
317.607	863.44
317.836	926.44
318.065	1090.44
318.295	1194.44
318.524	1108.44
318.753	977.44
318.983	942.44
319.212	912.44
319.441	1003.44
319.67	1116.44
319.9	1216.44
320.129	1092.44
320.358	956.44
320.587	950.44
320.816	996.44
321.046	1162.44
321.275	1284.44
321.504	1281.44
321.733	1253.44
321.962	1219.44
322.191	1128.44
322.42	1052.44
322.649	1079.44
322.878	1179.44
323.108	1194.44
323.337	1094.44
323.566	1061.44
323.795	1015.44
324.024	994.44
324.253	955.44
324.482	965.44
324.71	1064.44
324.939	1190.44
325.168	1104.44
325.397	942.44
325.626	898.44
325.855	883.44
326.084	916.44
326.313	862.44
326.542	822.44
326.77	882.44
326.999	881.44
327.228	943.44
327.457	962.44
327.686	988.44
327.914	882.44
328.143	843.44
328.372	819.44
328.6	825.44
328.829	857.44
329.058	903.44
329.287	866.44
329.515	865.44
329.744	867.44
329.972	836.44
330.201	783.44
330.43	822.44
330.658	918.44
330.887	1076.44
331.115	1014.44
331.344	972.44
331.572	954.44
331.801	916.44
332.03	840.44
332.258	861.44
332.486	942.44
332.715	993.44
332.943	901.44
333.172	878.44
333.4	895.44
333.629	1001.44
333.857	1120.44
334.085	1110.44
334.314	1113.44
334.542	1039.44
334.771	972.44
334.999	930.44
335.227	920.44
335.455	908.44
335.684	998.44
335.912	1196.44
336.14	1306.44
336.369	1250.44
336.597	1213.44
336.825	1350.44
337.053	1494.44
337.281	1211.44
337.51	986.44
337.738	984.44
337.966	1037.44
338.194	1174.44
338.422	1090.44
338.65	954.44
338.878	874.44
339.106	900.44
339.334	1013.44
339.562	1088.44
339.79	993.44
340.018	960.44
340.246	1006.44
340.474	1185.44
340.702	1267.44
340.93	1296.44
341.158	1278.44
341.386	1095.44
341.614	1100.44
341.842	1099.44
342.07	1135.44
342.298	1323.44
342.526	1359.44
342.754	1158.44
342.981	1098.44
343.209	1055.44
343.437	1116.44
343.665	1140.44
343.893	1176.44
344.12	1346.44
344.348	1580.44
344.576	1370.44
344.804	1187.44
345.031	1036.44
345.259	944.44
345.487	986.44
345.714	1022.44
345.942	1076.44
346.17	1172.44
346.397	1110.44
346.625	998.44
346.853	934.44
347.08	932.44
347.308	1021.44
347.535	1072.44
347.763	1135.44
347.99	990.44
348.218	907.44
348.445	952.44
348.673	951.44
348.9	950.44
349.128	1048.44
349.355	1052.44
349.583	1071.44
349.81	1015.44
350.037	929.44
350.265	809.44
350.492	781.44
350.72	797.44
350.947	804.44
351.174	844.44
351.402	925.44
351.629	981.44
351.856	918.44
352.083	904.44
352.311	958.44
352.538	1018.44
352.765	1082.44
352.992	1006.44
353.22	938.44
353.447	993.44
353.674	947.44
353.901	965.44
354.128	963.44
354.355	946.44
354.583	979.44
354.81	981.44
355.037	998.44
355.264	978.44
355.491	1049.44
355.718	1127.44
355.945	1079.44
356.172	1065.44
356.399	1088.44
356.626	1296.44
356.853	1583.44
357.08	1697.44
357.307	1659.44
357.534	1342.44
357.761	1362.44
357.988	1694.44
358.215	2015.44
358.441	1863.44
358.668	1582.44
358.895	1474.44
359.122	1194.44
359.349	1185.44
359.576	1266.44
359.802	1063.44
360.029	931.44
360.256	974.44
360.483	1250.44
360.709	1562.44
360.936	1588.44
361.163	1379.44
361.39	1118.44
361.616	1016.44
361.843	1214.44
362.07	1474.44
362.296	1345.44
362.523	1048.44
362.749	896.44
362.976	942.44
363.203	1190.44
363.429	1313.44
363.656	1054.44
363.882	968.44
364.109	1004.44
364.335	994.44
364.562	976.44
364.788	1098.44
365.015	1270.44
365.241	1139.44
365.468	939.44
365.694	836.44
365.92	806.44
366.147	766.44
366.373	765.44
366.599	793.44
366.826	823.44
367.052	800.44
367.278	818.44
367.505	800.44
367.731	891.44
367.957	990.44
368.184	1002.44
368.41	976.44
368.636	997.44
368.862	1025.44
369.089	975.44
369.315	890.44
369.541	886.44
369.767	866.44
369.993	835.44
370.219	839.44
370.445	912.44
370.672	974.44
370.898	1062.44
371.124	1058.44
371.35	932.44
371.576	909.44
371.802	949.44
372.028	1163.44
372.254	1294.44
372.48	1115.44
372.706	1010.44
372.932	1069.44
373.158	1082.44
373.384	1347.44
373.61	1761.44
373.835	1836.44
374.061	1345.44
374.287	1133.44
374.513	1347.44
374.739	1571.44
374.965	1633.44
375.191	1624.44
375.416	1136.44
375.642	1009.44
375.868	1188.44
376.094	1301.44
376.319	1123.44
376.545	1265.44
376.771	1334.44
376.997	1144.44
377.222	849.44
377.448	750.44
377.674	720.44
377.899	726.44
378.125	742.44
378.35	735.44
378.576	782.44
378.802	844.44
379.027	894.44
379.253	889.44
379.478	907.44
379.704	1009.44
379.929	1068.44
380.155	1042.44
380.38	934.44
380.606	999.44
380.831	1054.44
381.057	1018.44
381.282	960.44
381.507	1111.44
381.733	1430.44
381.958	1461.44
382.184	1590.44
382.409	1625.44
382.634	1617.44
382.86	1681.44
383.085	1389.44
383.31	1122.44
383.535	1196.44
383.761	1181.44
383.986	1166.44
384.211	1365.44
384.436	1316.44
384.662	1026.44
384.887	971.44
385.112	994.44
385.337	1007.44
385.562	976.44
385.787	1091.44
386.013	1173.44
386.238	1210.44
386.463	986.44
386.688	959.44
386.913	917.44
387.138	899.44
387.363	972.44
387.588	941.44
387.813	962.44
388.038	1055.44
388.263	964.44
388.488	952.44
388.713	1047.44
388.938	1175.44
389.163	1001.44
389.387	892.44
389.612	885.44
389.837	918.44
390.062	949.44
390.287	1013.44
390.512	1000.44
390.736	920.44
390.961	872.44
391.186	839.44
391.411	815.44
391.636	832.44
391.86	937.44
392.085	1012.44
392.31	968.44
392.534	938.44
392.759	901.44
392.984	976.44
393.208	956.44
393.433	879.44
393.658	806.44
393.882	792.44
394.107	792.44
394.331	778.44
394.556	802.44
394.78	804.44
395.005	849.44
395.229	868.44
395.454	887.44
395.678	878.44
395.903	916.44
396.127	856.44
396.352	856.44
396.576	967.44
396.801	977.44
397.025	1106.44
397.249	1103.44
397.474	924.44
397.698	898.44
397.922	926.44
398.147	882.44
398.371	909.44
398.595	930.44
398.82	914.44
399.044	953.44
399.268	978.44
399.492	1023.44
399.717	1041.44
399.941	1052.44
400.165	1049.44
400.389	1037.44
400.613	1034.44
400.837	1011.44
401.062	907.44
401.286	898.44
401.51	894.44
401.734	911.44
401.958	914.44
402.182	874.44
402.406	901.44
402.63	920.44
402.854	938.44
403.078	1066.44
403.302	1316.44
403.526	1315.44
403.75	1186.44
403.974	1036.44
404.198	1079.44
404.422	1226.44
404.645	1427.44
404.869	1545.44
405.093	1162.44
405.317	1010.44
405.541	975.44
405.765	1022.44
405.988	1006.44
406.212	1098.44
406.436	1289.44
406.66	1387.44
406.883	1123.44
407.107	1150.44
407.331	1366.44
407.555	1266.44
407.778	1081.44
408.002	1063.44
408.226	1050.44
408.449	1018.44
408.673	1028.44
408.896	922.44
409.12	917.44
409.344	913.44
409.567	886.44
409.791	913.44
410.014	890.44
410.238	862.44
410.461	870.44
410.685	921.44
410.908	889.44
411.132	937.44
411.355	936.44
411.578	933.44
411.802	932.44
412.025	972.44
412.249	977.44
412.472	945.44
412.695	960.44
412.919	934.44
413.142	951.44
413.365	1038.44
413.589	1054.44
413.812	971.44
414.035	924.44
414.258	922.44
414.482	1051.44
414.705	1054.44
414.928	913.44
415.151	865.44
415.374	896.44
415.597	903.44
415.821	896.44
416.044	916.44
416.267	890.44
416.49	856.44
416.713	858.44
416.936	852.44
417.159	867.44
417.382	872.44
417.605	890.44
417.828	912.44
418.051	915.44
418.274	937.44
418.497	916.44
418.72	912.44
418.943	956.44
419.166	975.44
419.389	1029.44
419.611	982.44
419.834	1026.44
420.057	1102.44
420.28	1109.44
420.503	1015.44
420.726	883.44
420.948	858.44
421.171	858.44
421.394	860.44
421.617	864.44
421.839	883.44
422.062	918.44
422.285	918.44
422.507	916.44
422.73	930.44
422.953	947.44
423.175	928.44
423.398	934.44
423.621	1016.44
423.843	1035.44
424.066	968.44
424.288	914.44
424.511	914.44
424.733	901.44
424.956	964.44
425.178	1072.44
425.401	1202.44
425.623	1364.44
425.846	1110.44
426.068	984.44
426.291	1079.44
426.513	1002.44
426.735	931.44
426.958	966.44
427.18	1144.44
427.402	1459.44
427.625	1437.44
427.847	1158.44
428.069	910.44
428.292	900.44
428.514	876.44
428.736	868.44
428.958	935.44
429.181	1106.44
429.403	962.44
429.625	896.44
429.847	879.44
430.069	880.44
430.292	921.44
430.514	880.44
430.736	951.44
430.958	1200.44
431.18	1055.44
431.402	835.44
431.624	801.44
431.846	774.44
432.068	778.44
432.29	831.44
432.512	907.44
432.734	1180.44
432.956	1137.44
433.178	889.44
433.4	824.44
433.622	867.44
433.844	874.44
434.066	944.44
434.287	924.44
434.509	858.44
434.731	926.44
434.953	855.44
435.175	915.44
435.397	1014.44
435.618	911.44
435.84	817.44
436.062	816.44
436.284	820.44
436.505	796.44
436.727	783.44
436.949	775.44
437.17	835.44
437.392	860.44
437.614	827.44
437.835	819.44
438.057	831.44
438.278	942.44
438.5	1374.44
438.721	1357.44
438.943	956.44
439.165	837.44
439.386	774.44
439.608	770.44
439.829	769.44
440.05	798.44
440.272	856.44
440.493	972.44
440.715	1183.44
440.936	982.44
441.158	868.44
441.379	870.44
441.6	974.44
441.822	1004.44
442.043	898.44
442.264	868.44
442.486	898.44
442.707	869.44
442.928	848.44
443.149	875.44
443.371	892.44
443.592	929.44
443.813	892.44
444.034	856.44
444.255	886.44
444.476	939.44
444.698	928.44
444.919	954.44
445.14	1056.44
445.361	1026.44
445.582	959.44
445.803	907.44
446.024	914.44
446.245	923.44
446.466	894.44
446.687	864.44
446.908	869.44
447.129	844.44
447.35	803.44
447.571	772.44
447.792	796.44
448.013	812.44
448.234	779.44
448.455	805.44
448.675	780.44
448.896	801.44
449.117	813.44
449.338	812.44
449.559	812.44
449.779	872.44
450	848.44
450.221	846.44
450.442	805.44
450.662	802.44
450.883	785.44
451.104	808.44
451.324	801.44
451.545	804.44
451.766	826.44
451.986	767.44
452.207	784.44
452.428	748.44
452.648	797.44
452.869	851.44
453.089	854.44
453.31	836.44
453.53	751.44
453.751	741.44
453.971	752.44
454.192	780.44
454.412	793.44
454.633	722.44
454.853	763.44
455.073	730.44
455.294	726.44
455.514	733.44
455.734	779.44
455.955	811.44
456.175	843.44
456.395	755.44
456.616	711.44
456.836	710.44
457.056	713.44
457.276	685.44
457.497	682.44
457.717	707.44
457.937	711.44
458.157	698.44
458.377	754.44
458.598	740.44
458.818	762.44
459.038	807.44
459.258	792.44
459.478	837.44
459.698	896.44
459.918	896.44
460.138	878.44
460.358	899.44
460.578	859.44
460.798	885.44
461.018	889.44
461.238	858.44
461.458	847.44
461.678	880.44
461.898	942.44
462.118	895.44
462.338	940.44
462.558	961.44
462.777	980.44
462.997	995.44
463.217	1004.44
463.437	1001.44
463.657	1004.44
463.876	962.44
464.096	938.44
464.316	951.44
464.536	983.44
464.755	990.44
464.975	1015.44
465.195	964.44
465.414	990.44
465.634	958.44
465.854	916.44
466.073	898.44
466.293	851.44
466.512	914.44
466.732	1022.44
466.951	1050.44
467.171	903.44
467.391	852.44
467.61	858.44
467.829	917.44
468.049	928.44
468.268	882.44
468.488	873.44
468.707	906.44
468.927	1063.44
469.146	1143.44
469.365	1026.44
469.585	952.44
469.804	1015.44
470.023	1091.44
470.243	967.44
470.462	909.44
470.681	893.44
470.901	912.44
471.12	954.44
471.339	970.44
471.558	886.44
471.777	925.44
471.997	1012.44
472.216	1083.44
472.435	1074.44
472.654	978.44
472.873	945.44
473.092	965.44
473.311	1033.44
473.53	955.44
473.749	914.44
473.968	980.44
474.187	972.44
474.406	944.44
474.625	933.44
474.844	960.44
475.063	1026.44
475.282	1046.44
475.501	1054.44
475.72	1134.44
475.939	1074.44
476.158	1072.44
476.377	1259.44
476.596	1461.44
476.814	1495.44
477.033	1239.44
477.252	1091.44
477.471	1002.44
477.69	987.44
477.908	1093.44
478.127	1142.44
478.346	1048.44
478.564	1127.44
478.783	1079.44
479.002	1082.44
479.22	1296.44
479.439	1435.44
479.658	1219.44
479.876	1112.44
480.095	1171.44
480.313	1253.44
480.532	1131.44
480.751	1082.44
480.969	1106.44
481.188	1257.44
481.406	1271.44
481.624	1233.44
481.843	1121.44
482.061	1081.44
482.28	1195.44
482.498	1449.44
482.717	1381.44
482.935	1199.44
483.153	1136.44
483.372	1072.44
483.59	1051.44
483.808	1015.44
484.027	1026.44
484.245	1000.44
484.463	1002.44
484.681	1012.44
484.9	1091.44
485.118	1218.44
485.336	1124.44
485.554	1025.44
485.772	1078.44
485.99	1145.44
486.209	1227.44
486.427	1202.44
486.645	1185.44
486.863	1228.44
487.081	1234.44
487.299	1363.44
487.517	1318.44
487.735	1210.44
487.953	1246.44
488.171	1266.44
488.389	1178.44
488.607	1129.44
488.825	1139.44
489.043	1227.44
489.261	1398.44
489.479	1497.44
489.696	1274.44
489.914	1169.44
490.132	1109.44
490.35	1102.44
490.568	1121.44
490.786	1122.44
491.003	1128.44
491.221	1172.44
491.439	1111.44
491.657	1146.44
491.874	1200.44
492.092	1462.44
492.31	1761.44
492.527	1696.44
492.745	1509.44
492.963	1347.44
493.18	1326.44
493.398	1289.44
493.615	1290.44
493.833	1243.44
494.05	1215.44
494.268	1232.44
494.485	1224.44
494.703	1189.44
494.92	1206.44
495.138	1186.44
495.355	1222.44
495.573	1209.44
495.79	1350.44
496.008	1764.44
496.225	1553.44
496.442	1347.44
496.66	1376.44
496.877	1458.44
497.094	1418.44
497.312	1321.44
497.529	1278.44
497.746	1299.44
497.963	1384.44
498.181	1442.44
498.398	1586.44
498.615	1628.44
498.832	1696.44
499.049	1729.44
499.267	1516.44
499.484	1525.44
499.701	1600.44
499.918	1741.44
500.135	1891.44
500.352	1897.44
500.569	1917.44
500.786	2013.44
501.003	1978.44
501.22	1799.44
501.437	1687.44
501.654	1650.44
501.871	1594.44
502.088	1641.44
502.305	1512.44
502.522	1457.44
502.739	1482.44
502.956	1372.44
503.172	1319.44
503.389	1316.44
503.606	1231.44
503.823	1302.44
504.04	1303.44
504.256	1288.44
504.473	1331.44
504.69	1342.44
504.907	1400.44
505.123	1344.44
505.34	1405.44
505.557	1412.44
505.773	1350.44
505.99	1315.44
506.207	1358.44
506.423	1271.44
506.64	1192.44
506.856	1192.44
507.073	1348.44
507.289	1351.44
507.506	1342.44
507.722	1396.44
507.939	1410.44
508.155	1425.44
508.372	1291.44
508.588	1256.44
508.805	1230.44
509.021	1202.44
509.238	1165.44
509.454	1198.44
509.67	1171.44
509.887	1215.44
510.103	1334.44
510.319	1304.44
510.536	1191.44
510.752	1077.44
510.968	1024.44
511.184	1051.44
511.401	1028.44
511.617	998.44
511.833	1025.44
512.049	1070.44
512.265	1089.44
512.481	1111.44
512.698	1254.44
512.914	1354.44
513.13	1237.44
513.346	1126.44
513.562	1200.44
513.778	1192.44
513.994	1138.44
514.21	1193.44
514.426	1172.44
514.642	1141.44
514.858	1128.44
515.074	1193.44
515.29	1276.44
515.506	1440.44
515.721	1298.44
515.937	1236.44
516.153	1144.44
516.369	1160.44
516.585	1210.44
516.801	1375.44
517.016	1592.44
517.232	1558.44
517.448	1528.44
517.664	1405.44
517.879	1301.44
518.095	1232.44
518.311	1266.44
518.527	1303.44
518.742	1356.44
518.958	1445.44
519.173	1350.44
519.389	1355.44
519.605	1336.44
519.82	1477.44
520.036	1705.44
520.251	1702.44
520.467	1573.44
520.682	2302.44
520.898	2778.44
521.113	2631.44
521.329	1700.44
521.544	1510.44
521.76	1513.44
521.975	1338.44
522.19	1257.44
522.406	1326.44
522.621	1455.44
522.836	1478.44
523.052	1551.44
523.267	1289.44
523.482	1302.44
523.698	1337.44
523.913	1362.44
524.128	1242.44
524.343	1173.44
524.559	1184.44
524.774	1127.44
524.989	1140.44
525.204	1157.44
525.419	1301.44
525.634	1208.44
525.849	1248.44
526.064	1262.44
526.28	1282.44
526.495	1471.44
526.71	1534.44
526.925	1331.44
527.14	1332.44
527.355	1329.44
527.57	1125.44
527.785	1186.44
527.999	1090.44
528.214	1065.44
528.429	1047.44
528.644	1075.44
528.859	992.44
529.074	980.44
529.289	981.44
529.503	1003.44
529.718	998.44
529.933	1157.44
530.148	1189.44
530.363	1040.44
530.577	1023.44
530.792	976.44
531.007	995.44
531.221	958.44
531.436	999.44
531.651	982.44
531.865	1026.44
532.08	1051.44
532.295	1023.44
532.509	1031.44
532.724	1177.44
532.938	1287.44
533.153	1452.44
533.367	1196.44
533.582	1177.44
533.796	1085.44
534.011	1026.44
534.225	1077.44
534.44	1046.44
534.654	1092.44
534.868	1270.44
535.083	1115.44
535.297	990.44
535.511	1022.44
535.726	1172.44
535.94	1091.44
536.154	1010.44
536.369	983.44
536.583	986.44
536.797	1022.44
537.011	1036.44
537.225	1115.44
537.44	1160.44
537.654	1014.44
537.868	995.44
538.082	1018.44
538.296	988.44
538.51	1076.44
538.724	1098.44
538.938	1030.44
539.153	956.44
539.367	974.44
539.581	973.44
539.795	1038.44
540.009	1105.44
540.222	1046.44
540.436	1056.44
540.65	1100.44
540.864	1125.44
541.078	1182.44
541.292	1319.44
541.506	1100.44
541.72	1086.44
541.934	1061.44
542.147	1034.44
542.361	1068.44
542.575	1042.44
542.789	1033.44
543.002	973.44
543.216	1063.44
543.43	936.44
543.644	945.44
543.857	916.44
544.071	951.44
544.285	947.44
544.498	914.44
544.712	908.44
544.925	992.44
545.139	942.44
545.352	902.44
545.566	913.44
545.779	1044.44
545.993	971.44
546.206	872.44
546.42	903.44
546.633	894.44
546.847	856.44
547.06	864.44
547.274	848.44
547.487	870.44
547.7	966.44
547.914	990.44
548.127	1134.44
548.34	1076.44
548.554	963.44
548.767	987.44
548.98	1064.44
549.193	938.44
549.407	1007.44
549.62	1182.44
549.833	1098.44
550.046	1166.44
550.259	1172.44
550.473	1058.44
550.686	979.44
550.899	986.44
551.112	966.44
551.325	1058.44
551.538	1070.44
551.751	918.44
551.964	915.44
552.177	916.44
552.39	854.44
552.603	882.44
552.816	934.44
553.029	884.44
553.242	854.44
553.455	944.44
553.667	990.44
553.88	959.44
554.093	904.44
554.306	847.44
554.519	790.44
554.732	803.44
554.944	796.44
555.157	783.44
555.37	772.44
555.583	756.44
555.795	813.44
556.008	812.44
556.221	804.44
556.433	777.44
556.646	790.44
556.859	780.44
557.071	812.44
557.284	840.44
557.496	810.44
557.709	799.44
557.921	807.44
558.134	750.44
558.346	720.44
558.559	731.44
558.771	768.44
558.984	821.44
559.196	798.44
559.409	737.44
559.621	720.44
559.833	718.44
560.046	716.44
560.258	698.44
560.47	725.44
560.683	715.44
560.895	695.44
561.107	689.44
561.32	690.44
561.532	676.44
561.744	768.44
561.956	787.44
562.168	728.44
562.381	718.44
562.593	715.44
562.805	745.44
563.017	702.44
563.229	675.44
563.441	666.44
563.653	683.44
563.865	697.44
564.077	731.44
564.289	696.44
564.501	692.44
564.713	747.44
564.925	715.44
565.137	674.44
565.349	687.44
565.561	708.44
565.773	716.44
565.985	743.44
566.197	789.44
566.408	848.44
566.62	834.44
566.832	847.44
567.044	830.44
567.255	928.44
567.467	1007.44
567.679	896.44
567.891	863.44
568.102	874.44
568.314	920.44
568.526	840.44
568.737	807.44
568.949	870.44
569.161	762.44
569.372	709.44
569.584	695.44
569.795	667.44
570.007	688.44
570.218	763.44
570.43	720.44
570.641	686.44
570.853	667.44
571.064	656.44
571.276	672.44
571.487	695.44
571.698	667.44
571.91	675.44
572.121	673.44
572.333	631.44
572.544	638.44
572.755	628.44
572.966	603.44
573.178	596.44
573.389	626.44
573.6	631.44
573.811	634.44
574.023	598.44
574.234	584.44
574.445	586.44
574.656	568.44
574.867	585.44
575.078	586.44
575.289	572.44
575.501	645.44
575.712	592.44
575.923	550.44
576.134	523.44
576.345	548.44
576.556	572.44
576.767	534.44
576.978	521.44
577.188	531.44
577.399	541.44
577.61	535.44
577.821	548.44
578.032	525.44
578.243	574.44
578.454	587.44
578.665	564.44
578.875	537.44
579.086	553.44
579.297	558.44
579.508	564.44
579.718	570.44
579.929	542.44
580.14	543.44
580.35	521.44
580.561	496.44
580.772	494.44
580.982	501.44
581.193	489.44
581.403	488.44
581.614	483.44
581.825	466.44
582.035	464.44
582.246	468.44
582.456	480.44
582.667	473.44
582.877	482.44
583.087	453.44
583.298	456.44
583.508	472.44
583.719	462.44
583.929	473.44
584.139	457.44
584.35	483.44
584.56	507.44
584.77	466.44
584.981	470.44
585.191	472.44
585.401	469.44
585.611	446.44
585.821	505.44
586.032	490.44
586.242	494.44
586.452	486.44
586.662	458.44
586.872	490.44
587.082	494.44
587.292	466.44
587.502	479.44
587.713	442.44
587.923	466.44
588.133	525.44
588.343	476.44
588.553	463.44
588.762	442.44
588.972	460.44
589.182	461.44
589.392	454.44
589.602	446.44
589.812	481.44
590.022	520.44
590.232	520.44
590.441	466.44
590.651	451.44
590.861	461.44
591.071	456.44
591.281	446.44
591.49	442.44
591.7	451.44
591.91	460.44
592.119	448.44
592.329	461.44
592.539	470.44
592.748	463.44
592.958	458.44
593.167	484.44
593.377	478.44
593.587	498.44
593.796	486.44
594.006	471.44
594.215	467.44
594.424	484.44
594.634	502.44
594.843	482.44
595.053	458.44
595.262	443.44
595.472	447.44
595.681	443.44
595.89	435.44
596.1	438.44
596.309	446.44
596.518	417.44
596.727	437.44
596.937	412.44
597.146	448.44
597.355	473.44
597.564	434.44
597.774	407.44
597.983	423.44
598.192	389.44
598.401	394.44
598.61	403.44
598.819	407.44
599.028	393.44
599.237	402.44
599.446	376.44
599.655	389.44
599.864	378.44
600.073	369.44
600.282	378.44
600.491	377.44
600.7	393.44
600.909	393.44
601.118	375.44
601.327	371.44
601.536	368.44
601.745	383.44
601.953	385.44
602.162	402.44
602.371	402.44
602.58	408.44
602.789	387.44
602.997	368.44
603.206	376.44
603.415	373.44
603.623	367.44
603.832	370.44
604.041	359.44
604.249	368.44
604.458	383.44
604.666	364.44
604.875	342.44
605.084	350.44
605.292	334.44
605.501	362.44
605.709	385.44
605.918	377.44
606.126	358.44
606.334	353.44
606.543	357.44
606.751	364.44
606.96	373.44
607.168	330.44
607.376	347.44
607.585	343.44
607.793	328.44
608.001	353.44
608.21	352.44
608.418	357.44
608.626	370.44
608.834	351.44
609.043	341.44
609.251	335.44
609.459	353.44
609.667	362.44
609.875	354.44
610.083	349.44
610.291	345.44
610.499	358.44
610.707	339.44
610.916	337.44
611.124	327.44
611.332	339.44
611.54	340.44
611.748	334.44
611.955	332.44
612.163	344.44
612.371	336.44
612.579	342.44
612.787	346.44
612.995	333.44
613.203	329.44
613.411	355.44
613.618	347.44
613.826	370.44
614.034	364.44
614.242	318.44
614.449	326.44
614.657	339.44
614.865	323.44
615.072	319.44
615.28	314.44
615.488	312.44
615.695	318.44
615.903	336.44
616.111	337.44
616.318	332.44
616.526	313.44
616.733	344.44
616.941	321.44
617.148	323.44
617.356	309.44
617.563	303.44
617.771	295.44
617.978	304.44
618.185	330.44
618.393	311.44
618.6	321.44
618.807	327.44
619.015	307.44
619.222	320.44
619.429	325.44
619.637	323.44
619.844	317.44
620.051	292.44
620.258	314.44
620.466	288.44
620.673	280.44
620.88	287.44
621.087	294.44
621.294	294.44
621.501	298.44
621.708	310.44
621.915	296.44
622.122	307.44
622.329	292.44
622.536	296.44
622.743	297.44
622.95	279.44
623.157	293.44
623.364	303.44
623.571	308.44
623.778	290.44
623.985	331.44
624.192	322.44
624.399	289.44
624.606	297.44
624.812	289.44
625.019	290.44
625.226	329.44
625.433	312.44
625.639	309.44
625.846	283.44
626.053	286.44
626.259	288.44
626.466	289.44
626.673	323.44
626.879	292.44
627.086	281.44
627.293	274.44
627.499	264.44
627.706	268.44
627.912	255.44
628.119	272.44
628.325	268.44
628.532	269.44
628.738	258.44
628.945	266.44
629.151	265.44
629.357	273.44
629.564	264.44
629.77	269.44
629.976	264.44
630.183	262.44
630.389	261.44
630.595	263.44
630.802	292.44
631.008	262.44
631.214	255.44
631.42	257.44
631.627	236.44
631.833	267.44
632.039	262.44
632.245	244.44
632.451	257.44
632.657	262.44
632.863	263.44
633.069	256.44
633.275	250.44
633.481	246.44
633.688	240.44
633.893	246.44
634.099	231.44
634.305	232.44
634.511	260.44
634.717	243.44
634.923	245.44
635.129	233.44
635.335	233.44
635.541	243.44
635.747	222.44
635.952	231.44
636.158	250.44
636.364	244.44
636.57	250.44
636.775	251.44
636.981	236.44
637.187	248.44
637.392	224.44
637.598	238.44
637.804	217.44
638.009	214.44
638.215	236.44
638.421	224.44
638.626	217.44
638.832	223.44
639.037	215.44
639.243	235.44
639.448	238.44
639.654	237.44
639.859	229.44
640.065	229.44
640.27	234.44
640.475	230.44
640.681	218.44
640.886	204.44
641.091	221.44
641.297	228.44
641.502	223.44
641.707	241.44
641.913	230.44
642.118	215.44
642.323	215.44
642.528	228.44
642.733	207.44
642.939	247.44
643.144	223.44
643.349	226.44
643.554	219.44
643.759	217.44
643.964	205.44
644.169	210.44
644.374	195.44
644.579	217.44
644.784	198.44
644.989	198.44
645.194	212.44
645.399	203.44
645.604	207.44
645.809	202.44
646.014	218.44
646.219	212.44
646.423	209.44
646.628	202.44
646.833	203.44
647.038	205.44
647.243	213.44
647.447	204.44
647.652	200.44
647.857	200.44
648.062	202.44
648.266	218.44
648.471	199.44
648.676	210.44
648.88	208.44
649.085	209.44
649.289	203.44
649.494	207.44
649.698	222.44
649.903	209.44
650.107	204.44
650.312	195.44
650.516	203.44
650.721	200.44
650.925	191.44
651.13	197.44
651.334	185.44
651.539	180.44
651.743	182.44
651.947	187.44
652.152	186.44
652.356	182.44
652.56	183.44
652.764	179.44
652.969	177.44
653.173	164.44
653.377	172.44
653.581	187.44
653.785	194.44
653.99	164.44
654.194	177.44
654.398	168.44
654.602	164.44
654.806	158.44
655.01	166.44
655.214	152.44
655.418	148.44
655.622	157.44
655.826	160.44
656.03	172.44
656.234	167.44
656.438	162.44
656.642	160.44
656.846	161.44
657.049	153.44
657.253	147.44
657.457	141.44
657.661	132.44
657.865	136.44
658.068	126.44
658.272	148.44
658.476	115.44
658.68	118.44
658.883	106.44
659.087	120.44
659.291	122.44
659.494	134.44
659.698	109.44
659.901	112.44
660.105	105.44
660.309	101.44
660.512	89.44
660.716	95.44
660.919	87.44
661.123	115.44
661.326	107.44
661.53	106.44
661.733	84.44
661.936	90.44
662.14	101.44
662.343	89.44
662.546	86.44
662.75	81.44
662.953	84.44
663.156	103.44
663.36	87.44
663.563	99.44
663.766	76.44
663.969	75.44
664.173	82.44
664.376	81.44
664.579	95.44
664.782	76.44
664.985	84.44
665.188	90.44
665.391	83.44
665.594	86.44
665.797	84.44
666	89.44
666.203	79.44
666.406	63.44
666.609	91.44
666.812	94.44
667.015	86.44
667.218	97.44
667.421	78.44
667.624	81.44
667.827	91.44
668.03	82.44
668.232	72.44
668.435	71.44
668.638	94.44
668.841	92.44
669.043	100.44
669.246	82.44
669.449	76.44
669.651	72.44
669.854	78.44
670.057	86.44
670.259	77.44
670.462	86.44
670.665	89.44
670.867	95.44
671.07	93.44
671.272	83.44
671.475	64.44
671.677	80.44
671.88	92.44
672.082	87.44
672.284	86.44
672.487	88.44
672.689	96.44
672.892	91.44
