Data from NickelSpatula.Lamp.E10.P2_HRD10591_11-59-48-524.txt Node
Date: Tue Jul 23 11:59:48 EDT 2019
User: cochatt
Spectrometer: HR+D1059
Trigger mode: 1
Integration Time (sec): 1.000000E-1
Scans to average: 1
Electric dark correction enabled: true
Nonlinearity correction enabled: false
Boxcar width: 0
XAxis mode: Wavelengths
Number of Pixels in Spectrum: 2048
>>>>>Begin Spectral Data<<<<<
223.165	-8.19
223.4	-8.19
223.635	-8.19
223.869	-37.19
224.104	-19.19
224.338	-14.19
224.573	-8.19
224.808	-18.19
225.042	-14.19
225.277	3.81
225.511	7.81
225.746	9.81
225.98	20.81
226.215	5.81
226.449	12.81
226.683	22.81
226.918	5.81
227.152	29.81
227.387	33.81
227.621	45.81
227.856	39.81
228.09	46.81
228.324	63.81
228.559	67.81
228.793	77.81
229.027	155.81
229.262	149.81
229.496	149.81
229.73	159.81
229.964	186.81
230.199	200.81
230.433	222.81
230.667	229.81
230.901	224.81
231.136	193.81
231.37	213.81
231.604	203.81
231.838	235.81
232.072	252.81
232.306	257.81
232.541	255.81
232.775	264.81
233.009	277.81
233.243	315.81
233.477	312.81
233.711	362.81
233.945	341.81
234.179	324.81
234.413	355.81
234.647	415.81
234.881	465.81
235.115	425.81
235.349	426.81
235.583	360.81
235.817	373.81
236.051	393.81
236.285	419.81
236.519	472.81
236.753	424.81
236.987	417.81
237.221	419.81
237.455	425.81
237.689	428.81
237.922	491.81
238.156	476.81
238.39	563.81
238.624	691.81
238.858	595.81
239.091	484.81
239.325	517.81
239.559	481.81
239.793	559.81
240.027	664.81
240.26	628.81
240.494	594.81
240.728	599.81
240.961	704.81
241.195	663.81
241.429	623.81
241.662	632.81
241.896	527.81
242.13	510.81
242.363	456.81
242.597	476.81
242.83	541.81
243.064	552.81
243.298	595.81
243.531	639.81
243.765	629.81
243.998	634.81
244.232	597.81
244.465	630.81
244.699	593.81
244.932	701.81
245.166	637.81
245.399	580.81
245.633	571.81
245.866	575.81
246.099	619.81
246.333	720.81
246.566	784.81
246.8	772.81
247.033	766.81
247.266	705.81
247.5	691.81
247.733	705.81
247.966	691.81
248.2	689.81
248.433	796.81
248.666	887.81
248.899	861.81
249.133	890.81
249.366	1012.81
249.599	1059.81
249.832	955.81
250.066	825.81
250.299	838.81
250.532	834.81
250.765	824.81
250.998	760.81
251.231	711.81
251.465	808.81
251.698	812.81
251.931	809.81
252.164	848.81
252.397	960.81
252.63	1059.81
252.863	1171.81
253.096	1213.81
253.329	1173.81
253.562	1142.81
253.795	1234.81
254.028	1363.81
254.261	1429.81
254.494	1251.81
254.727	1188.81
254.96	1124.81
255.193	1166.81
255.426	1139.81
255.659	905.81
255.892	815.81
256.124	886.81
256.357	1066.81
256.59	1225.81
256.823	1168.81
257.056	988.81
257.289	928.81
257.521	965.81
257.754	1147.81
257.987	1302.81
258.22	1118.81
258.452	1008.81
258.685	1159.81
258.918	1312.81
259.151	1274.81
259.383	1321.81
259.616	1525.81
259.849	1572.81
260.081	1722.81
260.314	1927.81
260.547	1459.81
260.779	1518.81
261.012	1743.81
261.244	1598.81
261.477	1633.81
261.71	1577.81
261.942	1282.81
262.175	1287.81
262.407	1243.81
262.64	1283.81
262.872	1526.81
263.105	1657.81
263.337	1808.81
263.57	1555.81
263.802	1041.81
264.035	915.81
264.267	881.81
264.499	787.81
264.732	720.81
264.964	695.81
265.197	725.81
265.429	780.81
265.661	839.81
265.894	864.81
266.126	930.81
266.358	1031.81
266.591	1278.81
266.823	1522.81
267.055	1444.81
267.287	1271.81
267.52	1283.81
267.752	1337.81
267.984	1449.81
268.216	1381.81
268.448	1126.81
268.681	1142.81
268.913	1188.81
269.145	1309.81
269.377	1336.81
269.609	1331.81
269.841	1227.81
270.073	1313.81
270.306	1384.81
270.538	1413.81
270.77	1418.81
271.002	1440.81
271.234	1472.81
271.466	1530.81
271.698	1473.81
271.93	1422.81
272.162	1444.81
272.394	1407.81
272.626	1421.81
272.858	1460.81
273.09	1510.81
273.322	1344.81
273.553	1289.81
273.785	1547.81
274.017	1960.81
274.249	2430.81
274.481	2556.81
274.713	2764.81
274.945	3217.81
275.176	3303.81
275.408	2895.81
275.64	2667.81
275.872	2664.81
276.104	2269.81
276.335	1924.81
276.567	1916.81
276.799	1965.81
277.031	2086.81
277.262	1656.81
277.494	1297.81
277.726	1257.81
277.957	1322.81
278.189	1519.81
278.421	1469.81
278.652	1456.81
278.884	1404.81
279.115	1294.81
279.347	1211.81
279.579	1221.81
279.81	1206.81
280.042	1220.81
280.273	1264.81
280.505	1144.81
280.736	1043.81
280.968	1053.81
281.199	1115.81
281.431	1251.81
281.662	1243.81
281.894	1181.81
282.125	1292.81
282.356	1330.81
282.588	1377.81
282.819	1288.81
283.051	1416.81
283.282	1685.81
283.513	1955.81
283.745	2188.81
283.976	2191.81
284.207	2002.81
284.439	2092.81
284.67	2030.81
284.901	1795.81
285.132	1966.81
285.364	2045.81
285.595	1891.81
285.826	2009.81
286.057	2099.81
286.288	1952.81
286.52	2058.81
286.751	2145.81
286.982	2115.81
287.213	1864.81
287.444	1777.81
287.675	1884.81
287.906	1826.81
288.138	1545.81
288.369	1372.81
288.6	1290.81
288.831	1363.81
289.062	1561.81
289.293	1707.81
289.524	1625.81
289.755	1589.81
289.986	1651.81
290.217	1451.81
290.448	1124.81
290.679	978.81
290.91	939.81
291.141	914.81
291.371	979.81
291.602	1003.81
291.833	1003.81
292.064	1090.81
292.295	1237.81
292.526	1413.81
292.757	1493.81
292.987	1558.81
293.218	1595.81
293.449	1619.81
293.68	1726.81
293.91	1619.81
294.141	1622.81
294.372	1520.81
294.603	1468.81
294.833	1595.81
295.064	1883.81
295.295	1764.81
295.525	1329.81
295.756	1163.81
295.987	1028.81
296.217	1026.81
296.448	1071.81
296.679	1123.81
296.909	1263.81
297.14	1313.81
297.37	1433.81
297.601	1380.81
297.831	1176.81
298.062	1288.81
298.292	1455.81
298.523	1619.81
298.753	1819.81
298.984	1617.81
299.214	1275.81
299.445	1081.81
299.675	1075.81
299.905	1081.81
300.136	1096.81
300.366	1219.81
300.597	1171.81
300.827	1037.81
301.057	1019.81
301.288	1036.81
301.518	1118.81
301.748	1259.81
301.979	1402.81
302.209	1490.81
302.439	1512.81
302.669	1298.81
302.9	1274.81
303.13	1185.81
303.36	1124.81
303.59	1060.81
303.82	1112.81
304.051	1253.81
304.281	1356.81
304.511	1339.81
304.741	1154.81
304.971	1231.81
305.201	1284.81
305.431	1217.81
305.661	1081.81
305.891	1130.81
306.121	1111.81
306.352	998.81
306.582	893.81
306.812	892.81
307.042	868.81
307.272	809.81
307.502	819.81
307.731	897.81
307.961	933.81
308.191	844.81
308.421	817.81
308.651	803.81
308.881	780.81
309.111	804.81
309.341	837.81
309.571	956.81
309.8	945.81
310.03	975.81
310.26	1020.81
310.49	984.81
310.72	907.81
310.949	876.81
311.179	893.81
311.409	961.81
311.639	1116.81
311.868	1403.81
312.098	1791.81
312.328	1976.81
312.557	1859.81
312.787	1873.81
313.017	1707.81
313.246	1818.81
313.476	1997.81
313.706	1659.81
313.935	1298.81
314.165	1043.81
314.394	978.81
314.624	975.81
314.853	1013.81
315.083	1061.81
315.312	1008.81
315.542	1034.81
315.771	954.81
316.001	867.81
316.23	872.81
316.46	872.81
316.689	862.81
316.919	899.81
317.148	895.81
317.377	888.81
317.607	895.81
317.836	965.81
318.065	1132.81
318.295	1238.81
318.524	1169.81
318.753	1002.81
318.983	940.81
319.212	963.81
319.441	1033.81
319.67	1149.81
319.9	1225.81
320.129	1149.81
320.358	1013.81
320.587	963.81
320.816	1013.81
321.046	1215.81
321.275	1353.81
321.504	1402.81
321.733	1317.81
321.962	1239.81
322.191	1219.81
322.42	1145.81
322.649	1174.81
322.878	1243.81
323.108	1249.81
323.337	1115.81
323.566	1107.81
323.795	1076.81
324.024	1046.81
324.253	987.81
324.482	1024.81
324.71	1112.81
324.939	1244.81
325.168	1141.81
325.397	970.81
325.626	932.81
325.855	929.81
326.084	954.81
326.313	894.81
326.542	861.81
326.77	895.81
326.999	909.81
327.228	973.81
327.457	1066.81
327.686	1020.81
327.914	902.81
328.143	852.81
328.372	855.81
328.6	899.81
328.829	913.81
329.058	918.81
329.287	894.81
329.515	894.81
329.744	893.81
329.972	872.81
330.201	797.81
330.43	854.81
330.658	961.81
330.887	1095.81
331.115	1057.81
331.344	1023.81
331.572	963.81
331.801	896.81
332.03	881.81
332.258	893.81
332.486	964.81
332.715	988.81
332.943	939.81
333.172	921.81
333.4	951.81
333.629	1023.81
333.857	1169.81
334.085	1124.81
334.314	1119.81
334.542	1045.81
334.771	978.81
334.999	943.81
335.227	949.81
335.455	939.81
335.684	1063.81
335.912	1212.81
336.14	1329.81
336.369	1300.81
336.597	1233.81
336.825	1423.81
337.053	1552.81
337.281	1253.81
337.51	1023.81
337.738	995.81
337.966	1114.81
338.194	1183.81
338.422	1143.81
338.65	956.81
338.878	898.81
339.106	926.81
339.334	1057.81
339.562	1111.81
339.79	1003.81
340.018	974.81
340.246	1060.81
340.474	1210.81
340.702	1284.81
340.93	1353.81
341.158	1372.81
341.386	1165.81
341.614	1151.81
341.842	1122.81
342.07	1176.81
342.298	1389.81
342.526	1447.81
342.754	1224.81
342.981	1155.81
343.209	1066.81
343.437	1157.81
343.665	1231.81
343.893	1240.81
344.12	1401.81
344.348	1644.81
344.576	1455.81
344.804	1240.81
345.031	1063.81
345.259	1034.81
345.487	1028.81
345.714	1055.81
345.942	1119.81
346.17	1221.81
346.397	1163.81
346.625	1008.81
346.853	977.81
347.08	970.81
347.308	1021.81
347.535	1136.81
347.763	1149.81
347.99	1020.81
348.218	920.81
348.445	992.81
348.673	1004.81
348.9	989.81
349.128	1074.81
349.355	1127.81
349.583	1083.81
349.81	1020.81
350.037	954.81
350.265	865.81
350.492	820.81
350.72	795.81
350.947	825.81
351.174	915.81
351.402	951.81
351.629	1031.81
351.856	965.81
352.083	909.81
352.311	987.81
352.538	1100.81
352.765	1220.81
352.992	1093.81
353.22	1047.81
353.447	1043.81
353.674	995.81
353.901	982.81
354.128	1018.81
354.355	1052.81
354.583	1008.81
354.81	980.81
355.037	1072.81
355.264	1019.81
355.491	1120.81
355.718	1207.81
355.945	1199.81
356.172	1128.81
356.399	1106.81
356.626	1395.81
356.853	1707.81
357.08	1790.81
357.307	1843.81
357.534	1417.81
357.761	1475.81
357.988	1795.81
358.215	2163.81
358.441	2065.81
358.668	1722.81
358.895	1605.81
359.122	1240.81
359.349	1258.81
359.576	1347.81
359.802	1117.81
360.029	963.81
360.256	1071.81
360.483	1323.81
360.709	1697.81
360.936	1738.81
361.163	1503.81
361.39	1166.81
361.616	1100.81
361.843	1283.81
362.07	1566.81
362.296	1412.81
362.523	1128.81
362.749	942.81
362.976	997.81
363.203	1257.81
363.429	1410.81
363.656	1102.81
363.882	1025.81
364.109	1047.81
364.335	1014.81
364.562	1004.81
364.788	1147.81
365.015	1351.81
365.241	1222.81
365.468	989.81
365.694	832.81
365.92	827.81
366.147	767.81
366.373	802.81
366.599	793.81
366.826	843.81
367.052	847.81
367.278	837.81
367.505	835.81
367.731	898.81
367.957	1060.81
368.184	1098.81
368.41	1067.81
368.636	1090.81
368.862	1099.81
369.089	1055.81
369.315	937.81
369.541	927.81
369.767	897.81
369.993	883.81
370.219	883.81
370.445	928.81
370.672	1033.81
370.898	1175.81
371.124	1144.81
371.35	983.81
371.576	895.81
371.802	980.81
372.028	1239.81
372.254	1406.81
372.48	1180.81
372.706	1066.81
372.932	1121.81
373.158	1160.81
373.384	1413.81
373.61	1937.81
373.835	1937.81
374.061	1442.81
374.287	1199.81
374.513	1457.81
374.739	1746.81
374.965	1798.81
375.191	1725.81
375.416	1181.81
375.642	1023.81
375.868	1231.81
376.094	1394.81
376.319	1199.81
376.545	1351.81
376.771	1419.81
376.997	1196.81
377.222	887.81
377.448	746.81
377.674	769.81
377.899	774.81
378.125	758.81
378.35	768.81
378.576	802.81
378.802	877.81
379.027	960.81
379.253	905.81
379.478	931.81
379.704	1080.81
379.929	1120.81
380.155	1149.81
380.38	980.81
380.606	1056.81
380.831	1173.81
381.057	1035.81
381.282	1008.81
381.507	1235.81
381.733	1539.81
381.958	1593.81
382.184	1722.81
382.409	1839.81
382.634	1730.81
382.86	1788.81
383.085	1497.81
383.31	1181.81
383.535	1244.81
383.761	1276.81
383.986	1184.81
384.211	1484.81
384.436	1415.81
384.662	1087.81
384.887	1021.81
385.112	1079.81
385.337	1097.81
385.562	1036.81
385.787	1104.81
386.013	1297.81
386.238	1325.81
386.463	1061.81
386.688	1017.81
386.913	995.81
387.138	901.81
387.363	983.81
387.588	1017.81
387.813	1018.81
388.038	1159.81
388.263	1000.81
388.488	981.81
388.713	1171.81
388.938	1263.81
389.163	1086.81
389.387	951.81
389.612	960.81
389.837	967.81
390.062	979.81
390.287	1008.81
390.512	1063.81
390.736	951.81
390.961	905.81
391.186	889.81
391.411	859.81
391.636	858.81
391.86	950.81
392.085	1052.81
392.31	1055.81
392.534	1001.81
392.759	979.81
392.984	1024.81
393.208	1011.81
393.433	901.81
393.658	841.81
393.882	808.81
394.107	817.81
394.331	811.81
394.556	830.81
394.78	857.81
395.005	841.81
395.229	893.81
395.454	901.81
395.678	895.81
395.903	944.81
396.127	893.81
396.352	919.81
396.576	1020.81
396.801	1038.81
397.025	1159.81
397.249	1169.81
397.474	948.81
397.698	959.81
397.922	1032.81
398.147	920.81
398.371	934.81
398.595	1002.81
398.82	977.81
399.044	985.81
399.268	983.81
399.492	1037.81
399.717	1087.81
399.941	1143.81
400.165	1100.81
400.389	1063.81
400.613	1084.81
400.837	1081.81
401.062	961.81
401.286	910.81
401.51	895.81
401.734	930.81
401.958	946.81
402.182	933.81
402.406	911.81
402.63	934.81
402.854	962.81
403.078	1123.81
403.302	1335.81
403.526	1379.81
403.75	1217.81
403.974	1073.81
404.198	1115.81
404.422	1256.81
404.645	1506.81
404.869	1642.81
405.093	1211.81
405.317	1025.81
405.541	991.81
405.765	1031.81
405.988	1027.81
406.212	1119.81
406.436	1350.81
406.66	1499.81
406.883	1183.81
407.107	1226.81
407.331	1420.81
407.555	1309.81
407.778	1123.81
408.002	1080.81
408.226	1051.81
408.449	1061.81
408.673	1049.81
408.896	960.81
409.12	952.81
409.344	899.81
409.567	911.81
409.791	904.81
410.014	943.81
410.238	894.81
410.461	899.81
410.685	909.81
410.908	922.81
411.132	921.81
411.355	937.81
411.578	963.81
411.802	936.81
412.025	1025.81
412.249	1011.81
412.472	963.81
412.695	966.81
412.919	952.81
413.142	980.81
413.365	1083.81
413.589	1087.81
413.812	982.81
414.035	910.81
414.258	955.81
414.482	1091.81
414.705	1087.81
414.928	923.81
415.151	861.81
415.374	893.81
415.597	936.81
415.821	950.81
416.044	917.81
416.267	891.81
416.49	876.81
416.713	864.81
416.936	883.81
417.159	871.81
417.382	907.81
417.605	923.81
417.828	935.81
418.051	954.81
418.274	932.81
418.497	950.81
418.72	938.81
418.943	947.81
419.166	1031.81
419.389	1036.81
419.611	1051.81
419.834	1067.81
420.057	1163.81
420.28	1178.81
420.503	1065.81
420.726	935.81
420.948	898.81
421.171	908.81
421.394	891.81
421.617	901.81
421.839	916.81
422.062	971.81
422.285	945.81
422.507	931.81
422.73	956.81
422.953	961.81
423.175	981.81
423.398	996.81
423.621	1039.81
423.843	1115.81
424.066	983.81
424.288	966.81
424.511	918.81
424.733	952.81
424.956	996.81
425.178	1119.81
425.401	1293.81
425.623	1461.81
425.846	1177.81
426.068	1036.81
426.291	1168.81
426.513	1083.81
426.735	941.81
426.958	999.81
427.18	1195.81
427.402	1580.81
427.625	1556.81
427.847	1213.81
428.069	953.81
428.292	928.81
428.514	932.81
428.736	895.81
428.958	970.81
429.181	1179.81
429.403	999.81
429.625	921.81
429.847	888.81
430.069	939.81
430.292	941.81
430.514	876.81
430.736	968.81
430.958	1233.81
431.18	1110.81
431.402	847.81
431.624	850.81
431.846	829.81
432.068	791.81
432.29	842.81
432.512	948.81
432.734	1255.81
432.956	1165.81
433.178	880.81
433.4	844.81
433.622	858.81
433.844	888.81
434.066	953.81
434.287	962.81
434.509	924.81
434.731	950.81
434.953	855.81
435.175	933.81
435.397	1058.81
435.618	900.81
435.84	829.81
436.062	841.81
436.284	852.81
436.505	784.81
436.727	792.81
436.949	804.81
437.17	855.81
437.392	869.81
437.614	827.81
437.835	845.81
438.057	858.81
438.278	1009.81
438.5	1449.81
438.721	1444.81
438.943	986.81
439.165	827.81
439.386	781.81
439.608	797.81
439.829	803.81
440.05	812.81
440.272	872.81
440.493	1053.81
440.715	1267.81
440.936	1003.81
441.158	898.81
441.379	868.81
441.6	1031.81
441.822	1057.81
442.043	891.81
442.264	891.81
442.486	898.81
442.707	873.81
442.928	892.81
443.149	923.81
443.371	908.81
443.592	947.81
443.813	927.81
444.034	935.81
444.255	893.81
444.476	977.81
444.698	950.81
444.919	967.81
445.14	1057.81
445.361	1006.81
445.582	965.81
445.803	944.81
446.024	965.81
446.245	968.81
446.466	933.81
446.687	900.81
446.908	896.81
447.129	844.81
447.35	834.81
447.571	821.81
447.792	818.81
448.013	792.81
448.234	797.81
448.455	802.81
448.675	793.81
448.896	817.81
449.117	806.81
449.338	817.81
449.559	847.81
449.779	898.81
450	865.81
450.221	855.81
450.442	834.81
450.662	785.81
450.883	788.81
451.104	835.81
451.324	790.81
451.545	851.81
451.766	808.81
451.986	777.81
452.207	774.81
452.428	807.81
452.648	790.81
452.869	875.81
453.089	869.81
453.31	817.81
453.53	753.81
453.751	775.81
453.971	733.81
454.192	774.81
454.412	792.81
454.633	769.81
454.853	755.81
455.073	740.81
455.294	745.81
455.514	736.81
455.734	778.81
455.955	803.81
456.175	852.81
456.395	764.81
456.616	716.81
456.836	725.81
457.056	737.81
457.276	700.81
457.497	714.81
457.717	748.81
457.937	738.81
458.157	763.81
458.377	727.81
458.598	745.81
458.818	768.81
459.038	827.81
459.258	817.81
459.478	863.81
459.698	919.81
459.918	895.81
460.138	890.81
460.358	928.81
460.578	887.81
460.798	889.81
461.018	899.81
461.238	860.81
461.458	858.81
461.678	901.81
461.898	947.81
462.118	926.81
462.338	941.81
462.558	975.81
462.777	1007.81
462.997	1025.81
463.217	1014.81
463.437	1056.81
463.657	1018.81
463.876	983.81
464.096	949.81
464.316	960.81
464.536	976.81
464.755	1072.81
464.975	1054.81
465.195	974.81
465.414	1034.81
465.634	989.81
465.854	933.81
466.073	882.81
466.293	866.81
466.512	933.81
466.732	1051.81
466.951	1077.81
467.171	939.81
467.391	883.81
467.61	877.81
467.829	965.81
468.049	937.81
468.268	860.81
468.488	865.81
468.707	920.81
468.927	1093.81
469.146	1171.81
469.365	1051.81
469.585	958.81
469.804	1014.81
470.023	1111.81
470.243	978.81
470.462	958.81
470.681	915.81
470.901	949.81
471.12	994.81
471.339	999.81
471.558	929.81
471.777	960.81
471.997	1036.81
472.216	1151.81
472.435	1115.81
472.654	998.81
472.873	990.81
473.092	1016.81
473.311	1091.81
473.53	989.81
473.749	947.81
473.968	979.81
474.187	979.81
474.406	919.81
474.625	920.81
474.844	972.81
475.063	1038.81
475.282	1042.81
475.501	1092.81
475.72	1137.81
475.939	1123.81
476.158	1108.81
476.377	1257.81
476.596	1489.81
476.814	1547.81
477.033	1267.81
477.252	1068.81
477.471	1008.81
477.69	1018.81
477.908	1143.81
478.127	1145.81
478.346	1047.81
478.564	1175.81
478.783	1113.81
479.002	1162.81
479.22	1287.81
479.439	1465.81
479.658	1213.81
479.876	1137.81
480.095	1231.81
480.313	1259.81
480.532	1135.81
480.751	1131.81
480.969	1143.81
481.188	1299.81
481.406	1331.81
481.624	1265.81
481.843	1151.81
482.061	1080.81
482.28	1209.81
482.498	1509.81
482.717	1413.81
482.935	1223.81
483.153	1161.81
483.372	1078.81
483.59	1052.81
483.808	1066.81
484.027	1050.81
484.245	1044.81
484.463	1001.81
484.681	1047.81
484.9	1115.81
485.118	1224.81
485.336	1125.81
485.554	1041.81
485.772	1077.81
485.99	1163.81
486.209	1247.81
486.427	1240.81
486.645	1204.81
486.863	1244.81
487.081	1247.81
487.299	1425.81
487.517	1385.81
487.735	1250.81
487.953	1254.81
488.171	1309.81
488.389	1196.81
488.607	1118.81
488.825	1199.81
489.043	1303.81
489.261	1461.81
489.479	1622.81
489.696	1312.81
489.914	1185.81
490.132	1115.81
490.35	1127.81
490.568	1130.81
490.786	1119.81
491.003	1129.81
491.221	1180.81
491.439	1163.81
491.657	1153.81
491.874	1270.81
492.092	1535.81
492.31	1875.81
492.527	1789.81
492.745	1522.81
492.963	1351.81
493.18	1313.81
493.398	1339.81
493.615	1325.81
493.833	1274.81
494.05	1259.81
494.268	1291.81
494.485	1268.81
494.703	1209.81
494.92	1243.81
495.138	1208.81
495.355	1239.81
495.573	1267.81
495.79	1440.81
496.008	1905.81
496.225	1591.81
496.442	1385.81
496.66	1399.81
496.877	1456.81
497.094	1417.81
497.312	1306.81
497.529	1327.81
497.746	1355.81
497.963	1409.81
498.181	1517.81
498.398	1661.81
498.615	1682.81
498.832	1713.81
499.049	1697.81
499.267	1559.81
499.484	1613.81
499.701	1628.81
499.918	1768.81
500.135	1914.81
500.352	1973.81
500.569	2007.81
500.786	2125.81
501.003	2103.81
501.22	1858.81
501.437	1754.81
501.654	1694.81
501.871	1648.81
502.088	1671.81
502.305	1504.81
502.522	1557.81
502.739	1553.81
502.956	1401.81
503.172	1356.81
503.389	1328.81
503.606	1282.81
503.823	1321.81
504.04	1335.81
504.256	1343.81
504.473	1388.81
504.69	1395.81
504.907	1386.81
505.123	1403.81
505.34	1457.81
505.557	1412.81
505.773	1389.81
505.99	1330.81
506.207	1386.81
506.423	1281.81
506.64	1193.81
506.856	1268.81
507.073	1427.81
507.289	1378.81
507.506	1384.81
507.722	1460.81
507.939	1475.81
508.155	1484.81
508.372	1325.81
508.588	1290.81
508.805	1254.81
509.021	1209.81
509.238	1171.81
509.454	1180.81
509.67	1185.81
509.887	1210.81
510.103	1363.81
510.319	1321.81
510.536	1195.81
510.752	1101.81
510.968	1096.81
511.184	1041.81
511.401	1056.81
511.617	1037.81
511.833	1060.81
512.049	1091.81
512.265	1128.81
512.481	1146.81
512.698	1259.81
512.914	1368.81
513.13	1247.81
513.346	1147.81
513.562	1195.81
513.778	1177.81
513.994	1178.81
514.21	1287.81
514.426	1242.81
514.642	1166.81
514.858	1143.81
515.074	1179.81
515.29	1299.81
515.506	1436.81
515.721	1363.81
515.937	1257.81
516.153	1212.81
516.369	1172.81
516.585	1226.81
516.801	1407.81
517.016	1661.81
517.232	1557.81
517.448	1573.81
517.664	1405.81
517.879	1321.81
518.095	1279.81
518.311	1283.81
518.527	1364.81
518.742	1420.81
518.958	1500.81
519.173	1451.81
519.389	1374.81
519.605	1462.81
519.82	1539.81
520.036	1727.81
520.251	1714.81
520.467	1653.81
520.682	2559.81
520.898	3055.81
521.113	2883.81
521.329	1795.81
521.544	1576.81
521.76	1546.81
521.975	1371.81
522.19	1323.81
522.406	1332.81
522.621	1491.81
522.836	1559.81
523.052	1657.81
523.267	1299.81
523.482	1353.81
523.698	1413.81
523.913	1408.81
524.128	1224.81
524.343	1179.81
524.559	1239.81
524.774	1139.81
524.989	1155.81
525.204	1203.81
525.419	1300.81
525.634	1253.81
525.849	1230.81
526.064	1265.81
526.28	1276.81
526.495	1513.81
526.71	1561.81
526.925	1417.81
527.14	1467.81
527.355	1435.81
527.57	1172.81
527.785	1267.81
527.999	1185.81
528.214	1126.81
528.429	1114.81
528.644	1096.81
528.859	1049.81
529.074	1008.81
529.289	993.81
529.503	1005.81
529.718	1033.81
529.933	1185.81
530.148	1240.81
530.363	1089.81
530.577	1039.81
530.792	1011.81
531.007	1035.81
531.221	1003.81
531.436	1012.81
531.651	1028.81
531.865	1011.81
532.08	1050.81
532.295	1002.81
532.509	1041.81
532.724	1200.81
532.938	1343.81
533.153	1556.81
533.367	1249.81
533.582	1206.81
533.796	1090.81
534.011	1069.81
534.225	1081.81
534.44	1063.81
534.654	1129.81
534.868	1311.81
535.083	1155.81
535.297	1021.81
535.511	1033.81
535.726	1156.81
535.94	1088.81
536.154	1030.81
536.369	1007.81
536.583	1008.81
536.797	1055.81
537.011	1087.81
537.225	1120.81
537.44	1222.81
537.654	1046.81
537.868	1011.81
538.082	1039.81
538.296	1000.81
538.51	1135.81
538.724	1139.81
538.938	1076.81
539.153	1013.81
539.367	1003.81
539.581	1053.81
539.795	1058.81
540.009	1183.81
540.222	1079.81
540.436	1103.81
540.65	1199.81
540.864	1202.81
541.078	1222.81
541.292	1396.81
541.506	1139.81
541.72	1084.81
541.934	1057.81
542.147	1068.81
542.361	1080.81
542.575	1091.81
542.789	1045.81
543.002	986.81
543.216	1085.81
543.43	963.81
543.644	976.81
543.857	975.81
544.071	970.81
544.285	970.81
544.498	953.81
544.712	933.81
544.925	1021.81
545.139	948.81
545.352	927.81
545.566	931.81
545.779	1063.81
545.993	981.81
546.206	901.81
546.42	889.81
546.633	907.81
546.847	876.81
547.06	859.81
547.274	886.81
547.487	879.81
547.7	961.81
547.914	1031.81
548.127	1138.81
548.34	1119.81
548.554	976.81
548.767	999.81
548.98	1093.81
549.193	998.81
549.407	1017.81
549.62	1219.81
549.833	1099.81
550.046	1180.81
550.259	1182.81
550.473	1030.81
550.686	966.81
550.899	1013.81
551.112	980.81
551.325	1054.81
551.538	1089.81
551.751	951.81
551.964	913.81
552.177	907.81
552.39	890.81
552.603	899.81
552.816	939.81
553.029	888.81
553.242	889.81
553.455	933.81
553.667	1043.81
553.88	984.81
554.093	920.81
554.306	862.81
554.519	835.81
554.732	786.81
554.944	800.81
555.157	789.81
555.37	779.81
555.583	776.81
555.795	807.81
556.008	828.81
556.221	848.81
556.433	801.81
556.646	803.81
556.859	802.81
557.071	824.81
557.284	822.81
557.496	838.81
557.709	856.81
557.921	821.81
558.134	756.81
558.346	721.81
558.559	725.81
558.771	775.81
558.984	865.81
559.196	782.81
559.409	739.81
559.621	713.81
559.833	726.81
560.046	754.81
560.258	729.81
560.47	738.81
560.683	688.81
560.895	703.81
561.107	660.81
561.32	675.81
561.532	698.81
561.744	795.81
561.956	810.81
562.168	737.81
562.381	727.81
562.593	753.81
562.805	752.81
563.017	701.81
563.229	680.81
563.441	684.81
563.653	699.81
563.865	702.81
564.077	698.81
564.289	704.81
564.501	703.81
564.713	729.81
564.925	727.81
565.137	708.81
565.349	707.81
565.561	697.81
565.773	717.81
565.985	781.81
566.197	796.81
566.408	862.81
566.62	893.81
566.832	863.81
567.044	845.81
567.255	923.81
567.467	967.81
567.679	892.81
567.891	885.81
568.102	891.81
568.314	938.81
568.526	879.81
568.737	824.81
568.949	882.81
569.161	779.81
569.372	720.81
569.584	708.81
569.795	692.81
570.007	720.81
570.218	751.81
570.43	747.81
570.641	707.81
570.853	678.81
571.064	659.81
571.276	691.81
571.487	709.81
571.698	673.81
571.91	676.81
572.121	681.81
572.333	639.81
572.544	633.81
572.755	657.81
572.966	634.81
573.178	607.81
573.389	645.81
573.6	667.81
573.811	639.81
574.023	594.81
574.234	565.81
574.445	587.81
574.656	583.81
574.867	587.81
575.078	603.81
575.289	583.81
575.501	634.81
575.712	598.81
575.923	559.81
576.134	545.81
576.345	569.81
576.556	570.81
576.767	564.81
576.978	549.81
577.188	540.81
577.399	515.81
577.61	518.81
577.821	541.81
578.032	556.81
578.243	601.81
578.454	590.81
578.665	578.81
578.875	577.81
579.086	566.81
579.297	567.81
579.508	579.81
579.718	558.81
579.929	541.81
580.14	542.81
580.35	503.81
580.561	476.81
580.772	486.81
580.982	497.81
581.193	485.81
581.403	484.81
581.614	488.81
581.825	489.81
582.035	477.81
582.246	482.81
582.456	480.81
582.667	474.81
582.877	495.81
583.087	478.81
583.298	464.81
583.508	476.81
583.719	474.81
583.929	471.81
584.139	465.81
584.35	466.81
584.56	485.81
584.77	480.81
584.981	504.81
585.191	472.81
585.401	480.81
585.611	465.81
585.821	492.81
586.032	499.81
586.242	500.81
586.452	473.81
586.662	468.81
586.872	502.81
587.082	513.81
587.292	485.81
587.502	468.81
587.713	469.81
587.923	465.81
588.133	501.81
588.343	458.81
588.553	473.81
588.762	459.81
588.972	450.81
589.182	476.81
589.392	457.81
589.602	455.81
589.812	506.81
590.022	501.81
590.232	522.81
590.441	457.81
590.651	463.81
590.861	443.81
591.071	467.81
591.281	439.81
591.49	429.81
591.7	460.81
591.91	460.81
592.119	458.81
592.329	479.81
592.539	468.81
592.748	464.81
592.958	471.81
593.167	464.81
593.377	512.81
593.587	511.81
593.796	494.81
594.006	467.81
594.215	487.81
594.424	484.81
594.634	525.81
594.843	489.81
595.053	465.81
595.262	440.81
595.472	438.81
595.681	455.81
595.89	443.81
596.1	444.81
596.309	458.81
596.518	429.81
596.727	420.81
596.937	440.81
597.146	443.81
597.355	489.81
597.564	465.81
597.774	424.81
597.983	414.81
598.192	407.81
598.401	400.81
598.61	393.81
598.819	419.81
599.028	403.81
599.237	411.81
599.446	388.81
599.655	391.81
599.864	378.81
600.073	380.81
600.282	409.81
600.491	398.81
600.7	387.81
600.909	403.81
601.118	396.81
601.327	377.81
601.536	371.81
601.745	410.81
601.953	416.81
602.162	395.81
602.371	386.81
602.58	400.81
602.789	398.81
602.997	391.81
603.206	383.81
603.415	380.81
603.623	364.81
603.832	350.81
604.041	365.81
604.249	389.81
604.458	413.81
604.666	374.81
604.875	350.81
605.084	368.81
605.292	355.81
605.501	387.81
605.709	373.81
605.918	369.81
606.126	360.81
606.334	356.81
606.543	365.81
606.751	365.81
606.96	348.81
607.168	353.81
607.376	340.81
607.585	346.81
607.793	373.81
608.001	352.81
608.21	351.81
608.418	364.81
608.626	372.81
608.834	369.81
609.043	337.81
609.251	354.81
609.459	341.81
609.667	356.81
609.875	356.81
610.083	357.81
610.291	371.81
610.499	371.81
610.707	337.81
610.916	355.81
611.124	338.81
611.332	338.81
611.54	348.81
611.748	368.81
611.955	359.81
612.163	356.81
612.371	340.81
612.579	336.81
612.787	352.81
612.995	343.81
613.203	327.81
613.411	339.81
613.618	354.81
613.826	365.81
614.034	337.81
614.242	339.81
614.449	313.81
614.657	314.81
614.865	343.81
615.072	357.81
615.28	342.81
615.488	331.81
615.695	340.81
615.903	324.81
616.111	345.81
616.318	345.81
616.526	331.81
616.733	334.81
616.941	324.81
617.148	333.81
617.356	322.81
617.563	332.81
617.771	319.81
617.978	316.81
618.185	319.81
618.393	330.81
618.6	326.81
618.807	316.81
619.015	339.81
619.222	319.81
619.429	330.81
619.637	304.81
619.844	306.81
620.051	319.81
620.258	318.81
620.466	322.81
620.673	301.81
620.88	284.81
621.087	287.81
621.294	307.81
621.501	287.81
621.708	295.81
621.915	305.81
622.122	310.81
622.329	288.81
622.536	303.81
622.743	290.81
622.95	281.81
623.157	289.81
623.364	328.81
623.571	294.81
623.778	297.81
623.985	321.81
624.192	303.81
624.399	325.81
624.606	300.81
624.812	302.81
625.019	314.81
625.226	314.81
625.433	297.81
625.639	280.81
625.846	294.81
626.053	280.81
626.259	291.81
626.466	300.81
626.673	327.81
626.879	281.81
627.086	285.81
627.293	287.81
627.499	277.81
627.706	273.81
627.912	275.81
628.119	261.81
628.325	273.81
628.532	277.81
628.738	277.81
628.945	267.81
629.151	276.81
629.357	258.81
629.564	261.81
629.77	263.81
629.976	266.81
630.183	259.81
630.389	265.81
630.595	289.81
630.802	271.81
631.008	255.81
631.214	258.81
631.42	248.81
631.627	264.81
631.833	260.81
632.039	264.81
632.245	237.81
632.451	245.81
632.657	255.81
632.863	251.81
633.069	243.81
633.275	240.81
633.481	249.81
633.688	237.81
633.893	266.81
634.099	248.81
634.305	226.81
634.511	245.81
634.717	250.81
634.923	249.81
635.129	253.81
635.335	236.81
635.541	236.81
635.747	228.81
635.952	238.81
636.158	244.81
636.364	249.81
636.57	244.81
636.775	250.81
636.981	225.81
637.187	239.81
637.392	258.81
637.598	232.81
637.804	237.81
638.009	250.81
638.215	245.81
638.421	227.81
638.626	231.81
638.832	242.81
639.037	211.81
639.243	220.81
639.448	215.81
639.654	253.81
639.859	220.81
640.065	235.81
640.27	234.81
640.475	224.81
640.681	218.81
640.886	213.81
641.091	222.81
641.297	212.81
641.502	226.81
641.707	239.81
641.913	245.81
642.118	230.81
642.323	229.81
642.528	244.81
642.733	224.81
642.939	224.81
643.144	197.81
643.349	219.81
643.554	214.81
643.759	216.81
643.964	210.81
644.169	224.81
644.374	209.81
644.579	227.81
644.784	216.81
644.989	220.81
645.194	204.81
645.399	216.81
645.604	209.81
645.809	212.81
646.014	224.81
646.219	220.81
646.423	202.81
646.628	204.81
646.833	200.81
647.038	192.81
647.243	204.81
647.447	213.81
647.652	193.81
647.857	196.81
648.062	225.81
648.266	222.81
648.471	209.81
648.676	223.81
648.88	200.81
649.085	203.81
649.289	216.81
649.494	210.81
649.698	217.81
649.903	222.81
650.107	220.81
650.312	204.81
650.516	191.81
650.721	194.81
650.925	197.81
651.13	181.81
651.334	186.81
651.539	180.81
651.743	189.81
651.947	185.81
652.152	178.81
652.356	169.81
652.56	187.81
652.764	166.81
652.969	183.81
653.173	159.81
653.377	166.81
653.581	159.81
653.785	168.81
653.99	160.81
654.194	173.81
654.398	169.81
654.602	149.81
654.806	156.81
655.01	163.81
655.214	168.81
655.418	164.81
655.622	153.81
655.826	168.81
656.03	161.81
656.234	167.81
656.438	153.81
656.642	178.81
656.846	163.81
657.049	160.81
657.253	147.81
657.457	148.81
657.661	144.81
657.865	137.81
658.068	125.81
658.272	110.81
658.476	120.81
658.68	131.81
658.883	129.81
659.087	118.81
659.291	101.81
659.494	116.81
659.698	110.81
659.901	95.81
660.105	113.81
660.309	92.81
660.512	108.81
660.716	98.81
660.919	105.81
661.123	119.81
661.326	111.81
661.53	90.81
661.733	89.81
661.936	93.81
662.14	105.81
662.343	98.81
662.546	95.81
662.75	94.81
662.953	83.81
663.156	91.81
663.36	99.81
663.563	94.81
663.766	71.81
663.969	93.81
664.173	78.81
664.376	92.81
664.579	92.81
664.782	89.81
664.985	81.81
665.188	84.81
665.391	76.81
665.594	83.81
665.797	86.81
666	103.81
666.203	71.81
666.406	81.81
666.609	91.81
666.812	81.81
667.015	76.81
667.218	77.81
667.421	77.81
667.624	89.81
667.827	86.81
668.03	84.81
668.232	88.81
668.435	94.81
668.638	92.81
668.841	73.81
669.043	96.81
669.246	85.81
669.449	77.81
669.651	85.81
669.854	80.81
670.057	84.81
670.259	96.81
670.462	95.81
670.665	74.81
670.867	70.81
671.07	78.81
671.272	89.81
671.475	84.81
671.677	76.81
671.88	91.81
672.082	79.81
672.284	90.81
672.487	76.81
672.689	91.81
672.892	100.81
