Data from NickelSpatula.Lamp.E10.P2_HRD10591_11-57-05-534.txt Node
Date: Tue Jul 23 11:57:05 EDT 2019
User: cochatt
Spectrometer: HR+D1059
Trigger mode: 1
Integration Time (sec): 1.000000E-1
Scans to average: 1
Electric dark correction enabled: true
Nonlinearity correction enabled: false
Boxcar width: 0
XAxis mode: Wavelengths
Number of Pixels in Spectrum: 2048
>>>>>Begin Spectral Data<<<<<
223.165	-24.94
223.4	-24.94
223.635	-24.94
223.869	-18.94
224.104	-36.94
224.338	-16.94
224.573	-16.94
224.808	-14.94
225.042	-0.94
225.277	6.06
225.511	-5.94
225.746	2.06
225.98	16.06
226.215	7.06
226.449	17.06
226.683	32.06
226.918	26.06
227.152	30.06
227.387	29.06
227.621	28.06
227.856	51.06
228.09	47.06
228.324	47.06
228.559	54.06
228.793	72.06
229.027	129.06
229.262	151.06
229.496	162.06
229.73	166.06
229.964	168.06
230.199	207.06
230.433	223.06
230.667	205.06
230.901	216.06
231.136	181.06
231.37	198.06
231.604	211.06
231.838	219.06
232.072	239.06
232.306	246.06
232.541	230.06
232.775	240.06
233.009	264.06
233.243	285.06
233.477	315.06
233.711	338.06
233.945	341.06
234.179	321.06
234.413	335.06
234.647	344.06
234.881	413.06
235.115	401.06
235.349	385.06
235.583	345.06
235.817	328.06
236.051	348.06
236.285	394.06
236.519	473.06
236.753	424.06
236.987	402.06
237.221	379.06
237.455	387.06
237.689	419.06
237.922	439.06
238.156	472.06
238.39	521.06
238.624	629.06
238.858	574.06
239.091	471.06
239.325	493.06
239.559	467.06
239.793	530.06
240.027	628.06
240.26	616.06
240.494	559.06
240.728	574.06
240.961	649.06
241.195	608.06
241.429	609.06
241.662	590.06
241.896	503.06
242.13	447.06
242.363	451.06
242.597	475.06
242.83	535.06
243.064	503.06
243.298	561.06
243.531	610.06
243.765	616.06
243.998	611.06
244.232	587.06
244.465	569.06
244.699	558.06
244.932	650.06
245.166	619.06
245.399	543.06
245.633	504.06
245.866	546.06
246.099	595.06
246.333	700.06
246.566	723.06
246.8	735.06
247.033	719.06
247.266	671.06
247.5	656.06
247.733	650.06
247.966	638.06
248.2	640.06
248.433	720.06
248.666	827.06
248.899	808.06
249.133	827.06
249.366	935.06
249.599	993.06
249.832	913.06
250.066	786.06
250.299	799.06
250.532	785.06
250.765	783.06
250.998	736.06
251.231	714.06
251.465	747.06
251.698	794.06
251.931	779.06
252.164	776.06
252.397	883.06
252.63	996.06
252.863	1111.06
253.096	1135.06
253.329	1114.06
253.562	1049.06
253.795	1195.06
254.028	1297.06
254.261	1311.06
254.494	1183.06
254.727	1120.06
254.96	1084.06
255.193	1116.06
255.426	1094.06
255.659	835.06
255.892	775.06
256.124	823.06
256.357	978.06
256.59	1126.06
256.823	1104.06
257.056	933.06
257.289	903.06
257.521	924.06
257.754	1096.06
257.987	1277.06
258.22	1065.06
258.452	988.06
258.685	1095.06
258.918	1204.06
259.151	1197.06
259.383	1235.06
259.616	1471.06
259.849	1507.06
260.081	1651.06
260.314	1802.06
260.547	1441.06
260.779	1427.06
261.012	1674.06
261.244	1600.06
261.477	1531.06
261.71	1477.06
261.942	1236.06
262.175	1231.06
262.407	1141.06
262.64	1279.06
262.872	1461.06
263.105	1553.06
263.337	1659.06
263.57	1453.06
263.802	1014.06
264.035	857.06
264.267	859.06
264.499	754.06
264.732	683.06
264.964	649.06
265.197	683.06
265.429	765.06
265.661	800.06
265.894	823.06
266.126	897.06
266.358	1008.06
266.591	1225.06
266.823	1427.06
267.055	1308.06
267.287	1197.06
267.52	1211.06
267.752	1251.06
267.984	1363.06
268.216	1326.06
268.448	1106.06
268.681	1062.06
268.913	1159.06
269.145	1170.06
269.377	1281.06
269.609	1279.06
269.841	1192.06
270.073	1254.06
270.306	1314.06
270.538	1346.06
270.77	1340.06
271.002	1345.06
271.234	1406.06
271.466	1411.06
271.698	1383.06
271.93	1355.06
272.162	1384.06
272.394	1352.06
272.626	1326.06
272.858	1385.06
273.09	1427.06
273.322	1233.06
273.553	1190.06
273.785	1432.06
274.017	1845.06
274.249	2270.06
274.481	2369.06
274.713	2613.06
274.945	3011.06
275.176	3032.06
275.408	2704.06
275.64	2481.06
275.872	2544.06
276.104	2144.06
276.335	1823.06
276.567	1835.06
276.799	1906.06
277.031	2011.06
277.262	1531.06
277.494	1196.06
277.726	1171.06
277.957	1292.06
278.189	1393.06
278.421	1425.06
278.652	1354.06
278.884	1315.06
279.115	1206.06
279.347	1141.06
279.579	1136.06
279.81	1154.06
280.042	1153.06
280.273	1163.06
280.505	1080.06
280.736	957.06
280.968	1000.06
281.199	1059.06
281.431	1189.06
281.662	1179.06
281.894	1141.06
282.125	1201.06
282.356	1299.06
282.588	1318.06
282.819	1206.06
283.051	1317.06
283.282	1599.06
283.513	1881.06
283.745	2101.06
283.976	2071.06
284.207	1955.06
284.439	1991.06
284.67	1916.06
284.901	1683.06
285.132	1850.06
285.364	1924.06
285.595	1737.06
285.826	1866.06
286.057	1899.06
286.288	1876.06
286.52	1943.06
286.751	1981.06
286.982	2015.06
287.213	1760.06
287.444	1698.06
287.675	1748.06
287.906	1741.06
288.138	1504.06
288.369	1308.06
288.6	1268.06
288.831	1318.06
289.062	1540.06
289.293	1637.06
289.524	1540.06
289.755	1539.06
289.986	1567.06
290.217	1412.06
290.448	1051.06
290.679	942.06
290.91	876.06
291.141	887.06
291.371	950.06
291.602	961.06
291.833	958.06
292.064	1020.06
292.295	1187.06
292.526	1342.06
292.757	1387.06
292.987	1473.06
293.218	1484.06
293.449	1547.06
293.68	1638.06
293.91	1547.06
294.141	1601.06
294.372	1503.06
294.603	1350.06
294.833	1514.06
295.064	1787.06
295.295	1702.06
295.525	1278.06
295.756	1068.06
295.987	950.06
296.217	980.06
296.448	997.06
296.679	1035.06
296.909	1110.06
297.14	1229.06
297.37	1331.06
297.601	1261.06
297.831	1075.06
298.062	1172.06
298.292	1333.06
298.523	1427.06
298.753	1625.06
298.984	1479.06
299.214	1205.06
299.445	1004.06
299.675	945.06
299.905	931.06
300.136	965.06
300.366	1084.06
300.597	1058.06
300.827	918.06
301.057	910.06
301.288	916.06
301.518	995.06
301.748	1134.06
301.979	1221.06
302.209	1294.06
302.439	1288.06
302.669	1123.06
302.9	1117.06
303.13	1099.06
303.36	1032.06
303.59	996.06
303.82	1025.06
304.051	1168.06
304.281	1229.06
304.511	1239.06
304.741	1100.06
304.971	1134.06
305.201	1211.06
305.431	1131.06
305.661	977.06
305.891	967.06
306.121	976.06
306.352	911.06
306.582	830.06
306.812	811.06
307.042	817.06
307.272	785.06
307.502	797.06
307.731	834.06
307.961	862.06
308.191	829.06
308.421	765.06
308.651	781.06
308.881	716.06
309.111	719.06
309.341	766.06
309.571	869.06
309.8	860.06
310.03	860.06
310.26	895.06
310.49	902.06
310.72	820.06
310.949	836.06
311.179	838.06
311.409	876.06
311.639	1011.06
311.868	1317.06
312.098	1712.06
312.328	1827.06
312.557	1730.06
312.787	1782.06
313.017	1537.06
313.246	1715.06
313.476	1851.06
313.706	1512.06
313.935	1248.06
314.165	979.06
314.394	913.06
314.624	928.06
314.853	963.06
315.083	982.06
315.312	968.06
315.542	978.06
315.771	888.06
316.001	814.06
316.23	792.06
316.46	799.06
316.689	813.06
316.919	832.06
317.148	848.06
317.377	839.06
317.607	846.06
317.836	924.06
318.065	1036.06
318.295	1167.06
318.524	1111.06
318.753	933.06
318.983	893.06
319.212	839.06
319.441	933.06
319.67	1064.06
319.9	1128.06
320.129	1068.06
320.358	945.06
320.587	899.06
320.816	933.06
321.046	1075.06
321.275	1195.06
321.504	1199.06
321.733	1162.06
321.962	1095.06
322.191	1055.06
322.42	1008.06
322.649	1034.06
322.878	1103.06
323.108	1143.06
323.337	984.06
323.566	1003.06
323.795	1011.06
324.024	967.06
324.253	937.06
324.482	900.06
324.71	969.06
324.939	1134.06
325.168	1029.06
325.397	903.06
325.626	840.06
325.855	856.06
326.084	882.06
326.313	817.06
326.542	774.06
326.77	832.06
326.999	840.06
327.228	900.06
327.457	897.06
327.686	929.06
327.914	813.06
328.143	796.06
328.372	781.06
328.6	804.06
328.829	821.06
329.058	831.06
329.287	835.06
329.515	856.06
329.744	835.06
329.972	811.06
330.201	785.06
330.43	819.06
330.658	915.06
330.887	973.06
331.115	983.06
331.344	927.06
331.572	910.06
331.801	864.06
332.03	820.06
332.258	852.06
332.486	897.06
332.715	955.06
332.943	889.06
333.172	882.06
333.4	916.06
333.629	981.06
333.857	1033.06
334.085	1071.06
334.314	1081.06
334.542	1004.06
334.771	920.06
334.999	904.06
335.227	905.06
335.455	917.06
335.684	985.06
335.912	1123.06
336.14	1232.06
336.369	1179.06
336.597	1136.06
336.825	1336.06
337.053	1409.06
337.281	1109.06
337.51	936.06
337.738	919.06
337.966	1009.06
338.194	1105.06
338.422	1040.06
338.65	919.06
338.878	837.06
339.106	859.06
339.334	973.06
339.562	1000.06
339.79	909.06
340.018	908.06
340.246	966.06
340.474	1124.06
340.702	1176.06
340.93	1200.06
341.158	1225.06
341.386	1023.06
341.614	1025.06
341.842	1039.06
342.07	1074.06
342.298	1262.06
342.526	1282.06
342.754	1097.06
342.981	990.06
343.209	975.06
343.437	1061.06
343.665	1087.06
343.893	1119.06
344.12	1240.06
344.348	1451.06
344.576	1313.06
344.804	1072.06
345.031	989.06
345.259	941.06
345.487	949.06
345.714	941.06
345.942	1011.06
346.17	1122.06
346.397	1050.06
346.625	906.06
346.853	879.06
347.08	871.06
347.308	947.06
347.535	1036.06
347.763	1075.06
347.99	934.06
348.218	866.06
348.445	943.06
348.673	903.06
348.9	920.06
349.128	979.06
349.355	981.06
349.583	981.06
349.81	913.06
350.037	894.06
350.265	808.06
350.492	764.06
350.72	758.06
350.947	792.06
351.174	812.06
351.402	879.06
351.629	893.06
351.856	831.06
352.083	833.06
352.311	879.06
352.538	955.06
352.765	1042.06
352.992	931.06
353.22	893.06
353.447	911.06
353.674	889.06
353.901	882.06
354.128	866.06
354.355	895.06
354.583	898.06
354.81	911.06
355.037	968.06
355.264	923.06
355.491	988.06
355.718	1046.06
355.945	996.06
356.172	1010.06
356.399	983.06
356.626	1181.06
356.853	1427.06
357.08	1483.06
357.307	1524.06
357.534	1186.06
357.761	1208.06
357.988	1515.06
358.215	1740.06
358.441	1709.06
358.668	1427.06
358.895	1283.06
359.122	1062.06
359.349	1079.06
359.576	1167.06
359.802	990.06
360.029	869.06
360.256	942.06
360.483	1113.06
360.709	1378.06
360.936	1405.06
361.163	1271.06
361.39	1018.06
361.616	962.06
361.843	1077.06
362.07	1320.06
362.296	1216.06
362.523	961.06
362.749	831.06
362.976	877.06
363.203	1072.06
363.429	1161.06
363.656	968.06
363.882	880.06
364.109	927.06
364.335	895.06
364.562	901.06
364.788	980.06
365.015	1148.06
365.241	1047.06
365.468	867.06
365.694	778.06
365.92	783.06
366.147	712.06
366.373	750.06
366.599	776.06
366.826	731.06
367.052	749.06
367.278	799.06
367.505	777.06
367.731	841.06
367.957	930.06
368.184	952.06
368.41	927.06
368.636	931.06
368.862	949.06
369.089	923.06
369.315	832.06
369.541	834.06
369.767	839.06
369.993	793.06
370.219	819.06
370.445	843.06
370.672	919.06
370.898	964.06
371.124	965.06
371.35	868.06
371.576	823.06
371.802	882.06
372.028	1079.06
372.254	1199.06
372.48	983.06
372.706	930.06
372.932	977.06
373.158	982.06
373.384	1189.06
373.61	1568.06
373.835	1594.06
374.061	1222.06
374.287	1067.06
374.513	1201.06
374.739	1422.06
374.965	1451.06
375.191	1485.06
375.416	1049.06
375.642	973.06
375.868	1087.06
376.094	1171.06
376.319	1062.06
376.545	1149.06
376.771	1209.06
376.997	1036.06
377.222	806.06
377.448	731.06
377.674	731.06
377.899	697.06
378.125	731.06
378.35	747.06
378.576	727.06
378.802	799.06
379.027	868.06
379.253	824.06
379.478	854.06
379.704	929.06
379.929	968.06
380.155	965.06
380.38	858.06
380.606	902.06
380.831	992.06
381.057	947.06
381.282	863.06
381.507	1054.06
381.733	1265.06
381.958	1333.06
382.184	1401.06
382.409	1454.06
382.634	1454.06
382.86	1495.06
383.085	1280.06
383.31	1028.06
383.535	1102.06
383.761	1094.06
383.986	1069.06
384.211	1240.06
384.436	1200.06
384.662	962.06
384.887	929.06
385.112	936.06
385.337	980.06
385.562	938.06
385.787	993.06
386.013	1087.06
386.238	1120.06
386.463	953.06
386.688	902.06
386.913	887.06
387.138	855.06
387.363	887.06
387.588	905.06
387.813	908.06
388.038	991.06
388.263	910.06
388.488	894.06
388.713	1014.06
388.938	1084.06
389.163	940.06
389.387	851.06
389.612	860.06
389.837	883.06
390.062	857.06
390.287	907.06
390.512	940.06
390.736	864.06
390.961	849.06
391.186	835.06
391.411	810.06
391.636	809.06
391.86	864.06
392.085	928.06
392.31	956.06
392.534	905.06
392.759	863.06
392.984	916.06
393.208	907.06
393.433	815.06
393.658	763.06
393.882	776.06
394.107	767.06
394.331	767.06
394.556	789.06
394.78	780.06
395.005	816.06
395.229	827.06
395.454	844.06
395.678	831.06
395.903	866.06
396.127	820.06
396.352	828.06
396.576	913.06
396.801	921.06
397.025	1012.06
397.249	1014.06
397.474	897.06
397.698	870.06
397.922	904.06
398.147	859.06
398.371	897.06
398.595	908.06
398.82	880.06
399.044	904.06
399.268	972.06
399.492	988.06
399.717	1033.06
399.941	1065.06
400.165	1005.06
400.389	998.06
400.613	999.06
400.837	983.06
401.062	894.06
401.286	847.06
401.51	859.06
401.734	861.06
401.958	897.06
402.182	885.06
402.406	895.06
402.63	873.06
402.854	920.06
403.078	1023.06
403.302	1205.06
403.526	1247.06
403.75	1119.06
403.974	1019.06
404.198	1040.06
404.422	1120.06
404.645	1294.06
404.869	1421.06
405.093	1112.06
405.317	943.06
405.541	946.06
405.765	950.06
405.988	967.06
406.212	1035.06
406.436	1182.06
406.66	1300.06
406.883	1058.06
407.107	1079.06
407.331	1249.06
407.555	1219.06
407.778	1055.06
408.002	1037.06
408.226	1046.06
408.449	1021.06
408.673	974.06
408.896	902.06
409.12	913.06
409.344	888.06
409.567	880.06
409.791	859.06
410.014	886.06
410.238	860.06
410.461	863.06
410.685	883.06
410.908	893.06
411.132	906.06
411.355	915.06
411.578	924.06
411.802	899.06
412.025	944.06
412.249	928.06
412.472	918.06
412.695	926.06
412.919	915.06
413.142	937.06
413.365	992.06
413.589	992.06
413.812	920.06
414.035	884.06
414.258	907.06
414.482	989.06
414.705	972.06
414.928	904.06
415.151	869.06
415.374	852.06
415.597	860.06
415.821	888.06
416.044	870.06
416.267	874.06
416.49	828.06
416.713	848.06
416.936	831.06
417.159	845.06
417.382	873.06
417.605	866.06
417.828	884.06
418.051	880.06
418.274	893.06
418.497	893.06
418.72	873.06
418.943	903.06
419.166	957.06
419.389	981.06
419.611	975.06
419.834	969.06
420.057	1056.06
420.28	1041.06
420.503	935.06
420.726	881.06
420.948	864.06
421.171	857.06
421.394	862.06
421.617	821.06
421.839	825.06
422.062	888.06
422.285	873.06
422.507	914.06
422.73	899.06
422.953	914.06
423.175	903.06
423.398	891.06
423.621	981.06
423.843	980.06
424.066	935.06
424.288	902.06
424.511	886.06
424.733	884.06
424.956	920.06
425.178	1006.06
425.401	1116.06
425.623	1271.06
425.846	1055.06
426.068	937.06
426.291	1029.06
426.513	965.06
426.735	903.06
426.958	914.06
427.18	1077.06
427.402	1320.06
427.625	1315.06
427.847	1087.06
428.069	871.06
428.292	851.06
428.514	854.06
428.736	827.06
428.958	901.06
429.181	1022.06
429.403	882.06
429.625	841.06
429.847	830.06
430.069	853.06
430.292	887.06
430.514	829.06
430.736	899.06
430.958	1090.06
431.18	1020.06
431.402	848.06
431.624	765.06
431.846	783.06
432.068	779.06
432.29	795.06
432.512	881.06
432.734	1119.06
432.956	1051.06
433.178	852.06
433.4	826.06
433.622	833.06
433.844	862.06
434.066	880.06
434.287	872.06
434.509	847.06
434.731	869.06
434.953	858.06
435.175	898.06
435.397	968.06
435.618	857.06
435.84	811.06
436.062	808.06
436.284	805.06
436.505	795.06
436.727	758.06
436.949	781.06
437.17	831.06
437.392	812.06
437.614	808.06
437.835	791.06
438.057	814.06
438.278	889.06
438.5	1241.06
438.721	1254.06
438.943	881.06
439.165	779.06
439.386	749.06
439.608	762.06
439.829	755.06
440.05	784.06
440.272	829.06
440.493	950.06
440.715	1112.06
440.936	920.06
441.158	834.06
441.379	843.06
441.6	931.06
441.822	941.06
442.043	871.06
442.264	851.06
442.486	873.06
442.707	841.06
442.928	836.06
443.149	867.06
443.371	876.06
443.592	911.06
443.813	911.06
444.034	897.06
444.255	911.06
444.476	935.06
444.698	911.06
444.919	914.06
445.14	988.06
445.361	964.06
445.582	923.06
445.803	923.06
446.024	907.06
446.245	929.06
446.466	889.06
446.687	875.06
446.908	841.06
447.129	811.06
447.35	747.06
447.571	781.06
447.792	759.06
448.013	783.06
448.234	769.06
448.455	767.06
448.675	766.06
448.896	802.06
449.117	773.06
449.338	799.06
449.559	816.06
449.779	841.06
450	827.06
450.221	796.06
450.442	781.06
450.662	777.06
450.883	791.06
451.104	786.06
451.324	755.06
451.545	773.06
451.766	779.06
451.986	759.06
452.207	744.06
452.428	753.06
452.648	737.06
452.869	748.06
453.089	820.06
453.31	772.06
453.53	740.06
453.751	689.06
453.971	717.06
454.192	755.06
454.412	761.06
454.633	752.06
454.853	724.06
455.073	730.06
455.294	697.06
455.514	731.06
455.734	772.06
455.955	791.06
456.175	804.06
456.395	719.06
456.616	712.06
456.836	705.06
457.056	686.06
457.276	698.06
457.497	681.06
457.717	687.06
457.937	699.06
458.157	697.06
458.377	707.06
458.598	764.06
458.818	767.06
459.038	789.06
459.258	805.06
459.478	840.06
459.698	883.06
459.918	902.06
460.138	853.06
460.358	857.06
460.578	837.06
460.798	834.06
461.018	875.06
461.238	815.06
461.458	849.06
461.678	872.06
461.898	907.06
462.118	888.06
462.338	912.06
462.558	950.06
462.777	953.06
462.997	985.06
463.217	987.06
463.437	1029.06
463.657	1004.06
463.876	952.06
464.096	925.06
464.316	940.06
464.536	941.06
464.755	975.06
464.975	956.06
465.195	958.06
465.414	971.06
465.634	923.06
465.854	916.06
466.073	839.06
466.293	859.06
466.512	920.06
466.732	973.06
466.951	1005.06
467.171	892.06
467.391	876.06
467.61	843.06
467.829	903.06
468.049	913.06
468.268	860.06
468.488	858.06
468.707	885.06
468.927	1015.06
469.146	1101.06
469.365	989.06
469.585	937.06
469.804	988.06
470.023	1068.06
470.243	973.06
470.462	901.06
470.681	892.06
470.901	898.06
471.12	930.06
471.339	967.06
471.558	906.06
471.777	911.06
471.997	952.06
472.216	1049.06
472.435	1039.06
472.654	957.06
472.873	945.06
473.092	941.06
473.311	1001.06
473.53	923.06
473.749	899.06
473.968	943.06
474.187	952.06
474.406	894.06
474.625	903.06
474.844	929.06
475.063	1008.06
475.282	1005.06
475.501	1032.06
475.72	1076.06
475.939	1044.06
476.158	1062.06
476.377	1223.06
476.596	1381.06
476.814	1420.06
477.033	1185.06
477.252	1038.06
477.471	983.06
477.69	996.06
477.908	1090.06
478.127	1095.06
478.346	1035.06
478.564	1085.06
478.783	1067.06
479.002	1096.06
479.22	1248.06
479.439	1392.06
479.658	1180.06
479.876	1071.06
480.095	1185.06
480.313	1191.06
480.532	1124.06
480.751	1075.06
480.969	1081.06
481.188	1245.06
481.406	1284.06
481.624	1217.06
481.843	1100.06
482.061	1054.06
482.28	1148.06
482.498	1389.06
482.717	1298.06
482.935	1155.06
483.153	1088.06
483.372	1053.06
483.59	1019.06
483.808	1039.06
484.027	1005.06
484.245	963.06
484.463	971.06
484.681	972.06
484.9	1095.06
485.118	1120.06
485.336	1078.06
485.554	1045.06
485.772	1055.06
485.99	1143.06
486.209	1199.06
486.427	1175.06
486.645	1173.06
486.863	1201.06
487.081	1161.06
487.299	1302.06
487.517	1267.06
487.735	1169.06
487.953	1211.06
488.171	1183.06
488.389	1157.06
488.607	1067.06
488.825	1108.06
489.043	1215.06
489.261	1363.06
489.479	1414.06
489.696	1247.06
489.914	1145.06
490.132	1101.06
490.35	1080.06
490.568	1091.06
490.786	1099.06
491.003	1136.06
491.221	1114.06
491.439	1111.06
491.657	1088.06
491.874	1187.06
492.092	1412.06
492.31	1632.06
492.527	1628.06
492.745	1442.06
492.963	1272.06
493.18	1269.06
493.398	1249.06
493.615	1257.06
493.833	1227.06
494.05	1236.06
494.268	1231.06
494.485	1212.06
494.703	1149.06
494.92	1221.06
495.138	1193.06
495.355	1197.06
495.573	1216.06
495.79	1295.06
496.008	1596.06
496.225	1441.06
496.442	1289.06
496.66	1287.06
496.877	1357.06
497.094	1363.06
497.312	1280.06
497.529	1257.06
497.746	1238.06
497.963	1360.06
498.181	1399.06
498.398	1531.06
498.615	1593.06
498.832	1685.06
499.049	1687.06
499.267	1498.06
499.484	1512.06
499.701	1586.06
499.918	1714.06
500.135	1831.06
500.352	1847.06
500.569	1937.06
500.786	1988.06
501.003	1951.06
501.22	1817.06
501.437	1701.06
501.654	1614.06
501.871	1561.06
502.088	1563.06
502.305	1435.06
502.522	1477.06
502.739	1463.06
502.956	1347.06
503.172	1345.06
503.389	1265.06
503.606	1254.06
503.823	1250.06
504.04	1295.06
504.256	1286.06
504.473	1307.06
504.69	1299.06
504.907	1361.06
505.123	1330.06
505.34	1422.06
505.557	1365.06
505.773	1281.06
505.99	1267.06
506.207	1329.06
506.423	1230.06
506.64	1166.06
506.856	1245.06
507.073	1337.06
507.289	1279.06
507.506	1297.06
507.722	1377.06
507.939	1392.06
508.155	1377.06
508.372	1273.06
508.588	1202.06
508.805	1192.06
509.021	1206.06
509.238	1147.06
509.454	1124.06
509.67	1128.06
509.887	1159.06
510.103	1288.06
510.319	1269.06
510.536	1121.06
510.752	1064.06
510.968	1024.06
511.184	1009.06
511.401	991.06
511.617	1026.06
511.833	1029.06
512.049	1030.06
512.265	1058.06
512.481	1078.06
512.698	1207.06
512.914	1314.06
513.13	1189.06
513.346	1067.06
513.562	1105.06
513.778	1139.06
513.994	1109.06
514.21	1197.06
514.426	1132.06
514.642	1090.06
514.858	1098.06
515.074	1122.06
515.29	1240.06
515.506	1367.06
515.721	1318.06
515.937	1186.06
516.153	1116.06
516.369	1115.06
516.585	1156.06
516.801	1291.06
517.016	1481.06
517.232	1454.06
517.448	1477.06
517.664	1339.06
517.879	1272.06
518.095	1243.06
518.311	1240.06
518.527	1262.06
518.742	1328.06
518.958	1443.06
519.173	1365.06
519.389	1287.06
519.605	1313.06
519.82	1400.06
520.036	1677.06
520.251	1648.06
520.467	1510.06
520.682	2120.06
520.898	2527.06
521.113	2453.06
521.329	1640.06
521.544	1471.06
521.76	1465.06
521.975	1292.06
522.19	1223.06
522.406	1285.06
522.621	1361.06
522.836	1422.06
523.052	1441.06
523.267	1223.06
523.482	1217.06
523.698	1330.06
523.913	1296.06
524.128	1175.06
524.343	1145.06
524.559	1142.06
524.774	1103.06
524.989	1106.06
525.204	1149.06
525.419	1269.06
525.634	1142.06
525.849	1192.06
526.064	1194.06
526.28	1218.06
526.495	1395.06
526.71	1421.06
526.925	1261.06
527.14	1257.06
527.355	1230.06
527.57	1082.06
527.785	1157.06
527.999	1087.06
528.214	1039.06
528.429	1037.06
528.644	1010.06
528.859	997.06
529.074	953.06
529.289	967.06
529.503	978.06
529.718	996.06
529.933	1116.06
530.148	1115.06
530.363	998.06
530.577	968.06
530.792	965.06
531.007	987.06
531.221	955.06
531.436	964.06
531.651	947.06
531.865	972.06
532.08	1008.06
532.295	954.06
532.509	1014.06
532.724	1133.06
532.938	1205.06
533.153	1380.06
533.367	1134.06
533.582	1137.06
533.796	1080.06
534.011	993.06
534.225	1007.06
534.44	1027.06
534.654	1049.06
534.868	1157.06
535.083	1067.06
535.297	995.06
535.511	1012.06
535.726	1112.06
535.94	1061.06
536.154	963.06
536.369	973.06
536.583	948.06
536.797	984.06
537.011	958.06
537.225	1079.06
537.44	1104.06
537.654	998.06
537.868	990.06
538.082	997.06
538.296	947.06
538.51	1011.06
538.724	1040.06
538.938	1025.06
539.153	925.06
539.367	911.06
539.581	946.06
539.795	998.06
540.009	1097.06
540.222	997.06
540.436	996.06
540.65	1090.06
540.864	1110.06
541.078	1115.06
541.292	1219.06
541.506	1044.06
541.72	1021.06
541.934	1022.06
542.147	1014.06
542.361	1000.06
542.575	1003.06
542.789	963.06
543.002	937.06
543.216	1009.06
543.43	905.06
543.644	920.06
543.857	903.06
544.071	920.06
544.285	927.06
544.498	889.06
544.712	889.06
544.925	942.06
545.139	925.06
545.352	871.06
545.566	897.06
545.779	979.06
545.993	927.06
546.206	879.06
546.42	850.06
546.633	872.06
546.847	836.06
547.06	848.06
547.274	852.06
547.487	894.06
547.7	902.06
547.914	987.06
548.127	1075.06
548.34	1064.06
548.554	935.06
548.767	974.06
548.98	1008.06
549.193	942.06
549.407	979.06
549.62	1154.06
549.833	1071.06
550.046	1129.06
550.259	1141.06
550.473	1007.06
550.686	974.06
550.899	942.06
551.112	956.06
551.325	1036.06
551.538	1031.06
551.751	919.06
551.964	857.06
552.177	879.06
552.39	855.06
552.603	901.06
552.816	888.06
553.029	885.06
553.242	871.06
553.455	920.06
553.667	995.06
553.88	949.06
554.093	897.06
554.306	808.06
554.519	777.06
554.732	801.06
554.944	754.06
555.157	751.06
555.37	771.06
555.583	752.06
555.795	766.06
556.008	806.06
556.221	785.06
556.433	760.06
556.646	745.06
556.859	776.06
557.071	804.06
557.284	785.06
557.496	769.06
557.709	797.06
557.921	764.06
558.134	734.06
558.346	710.06
558.559	709.06
558.771	721.06
558.984	797.06
559.196	751.06
559.409	707.06
559.621	689.06
559.833	687.06
560.046	693.06
560.258	699.06
560.47	724.06
560.683	693.06
560.895	656.06
561.107	690.06
561.32	651.06
561.532	654.06
561.744	721.06
561.956	716.06
562.168	697.06
562.381	686.06
562.593	697.06
562.805	709.06
563.017	691.06
563.229	643.06
563.441	657.06
563.653	679.06
563.865	703.06
564.077	693.06
564.289	625.06
564.501	679.06
564.713	706.06
564.925	729.06
565.137	684.06
565.349	699.06
565.561	680.06
565.773	730.06
565.985	718.06
566.197	744.06
566.408	819.06
566.62	857.06
566.832	835.06
567.044	815.06
567.255	884.06
567.467	950.06
567.679	867.06
567.891	853.06
568.102	895.06
568.314	877.06
568.526	850.06
568.737	804.06
568.949	831.06
569.161	747.06
569.372	712.06
569.584	668.06
569.795	646.06
570.007	668.06
570.218	743.06
570.43	707.06
570.641	672.06
570.853	645.06
571.064	655.06
571.276	667.06
571.487	680.06
571.698	666.06
571.91	668.06
572.121	645.06
572.333	609.06
572.544	612.06
572.755	631.06
572.966	599.06
573.178	599.06
573.389	642.06
573.6	623.06
573.811	617.06
574.023	561.06
574.234	558.06
574.445	595.06
574.656	559.06
574.867	572.06
575.078	571.06
575.289	584.06
575.501	607.06
575.712	574.06
575.923	526.06
576.134	520.06
576.345	526.06
576.556	543.06
576.767	532.06
576.978	510.06
577.188	504.06
577.399	518.06
577.61	532.06
577.821	536.06
578.032	546.06
578.243	571.06
578.454	558.06
578.665	550.06
578.875	542.06
579.086	544.06
579.297	534.06
579.508	551.06
579.718	559.06
579.929	527.06
580.14	516.06
580.35	516.06
580.561	491.06
580.772	457.06
580.982	484.06
581.193	469.06
581.403	457.06
581.614	469.06
581.825	465.06
582.035	463.06
582.246	452.06
582.456	461.06
582.667	461.06
582.877	445.06
583.087	452.06
583.298	461.06
583.508	432.06
583.719	453.06
583.929	445.06
584.139	444.06
584.35	431.06
584.56	457.06
584.77	471.06
584.981	467.06
585.191	452.06
585.401	470.06
585.611	471.06
585.821	481.06
586.032	487.06
586.242	466.06
586.452	469.06
586.662	451.06
586.872	484.06
587.082	487.06
587.292	441.06
587.502	447.06
587.713	457.06
587.923	450.06
588.133	498.06
588.343	475.06
588.553	451.06
588.762	449.06
588.972	458.06
589.182	467.06
589.392	435.06
589.602	438.06
589.812	503.06
590.022	529.06
590.232	501.06
590.441	449.06
590.651	446.06
590.861	446.06
591.071	436.06
591.281	452.06
591.49	428.06
591.7	439.06
591.91	464.06
592.119	431.06
592.329	441.06
592.539	434.06
592.748	443.06
592.958	453.06
593.167	455.06
593.377	486.06
593.587	471.06
593.796	481.06
594.006	449.06
594.215	491.06
594.424	486.06
594.634	491.06
594.843	470.06
595.053	434.06
595.262	438.06
595.472	444.06
595.681	428.06
595.89	424.06
596.1	431.06
596.309	456.06
596.518	422.06
596.727	414.06
596.937	421.06
597.146	436.06
597.355	436.06
597.564	415.06
597.774	411.06
597.983	412.06
598.192	401.06
598.401	389.06
598.61	383.06
598.819	381.06
599.028	381.06
599.237	399.06
599.446	384.06
599.655	373.06
599.864	367.06
600.073	366.06
600.282	371.06
600.491	367.06
600.7	379.06
600.909	367.06
601.118	379.06
601.327	352.06
601.536	375.06
601.745	379.06
601.953	419.06
602.162	382.06
602.371	372.06
602.58	398.06
602.789	379.06
602.997	377.06
603.206	373.06
603.415	370.06
603.623	356.06
603.832	376.06
604.041	371.06
604.249	366.06
604.458	400.06
604.666	354.06
604.875	357.06
605.084	339.06
605.292	349.06
605.501	351.06
605.709	354.06
605.918	340.06
606.126	348.06
606.334	357.06
606.543	370.06
606.751	356.06
606.96	349.06
607.168	324.06
607.376	342.06
607.585	326.06
607.793	352.06
608.001	338.06
608.21	350.06
608.418	351.06
608.626	340.06
608.834	315.06
609.043	326.06
609.251	364.06
609.459	343.06
609.667	340.06
609.875	327.06
610.083	356.06
610.291	345.06
610.499	344.06
610.707	321.06
610.916	325.06
611.124	342.06
611.332	337.06
611.54	337.06
611.748	355.06
611.955	337.06
612.163	330.06
612.371	335.06
612.579	348.06
612.787	326.06
612.995	342.06
613.203	334.06
613.411	335.06
613.618	325.06
613.826	331.06
614.034	353.06
614.242	333.06
614.449	290.06
614.657	317.06
614.865	313.06
615.072	324.06
615.28	331.06
615.488	334.06
615.695	324.06
615.903	292.06
616.111	328.06
616.318	332.06
616.526	335.06
616.733	323.06
616.941	320.06
617.148	319.06
617.356	304.06
617.563	323.06
617.771	307.06
617.978	322.06
618.185	323.06
618.393	303.06
618.6	310.06
618.807	310.06
619.015	322.06
619.222	310.06
619.429	331.06
619.637	312.06
619.844	303.06
620.051	295.06
620.258	291.06
620.466	295.06
620.673	276.06
620.88	310.06
621.087	280.06
621.294	287.06
621.501	294.06
621.708	303.06
621.915	287.06
622.122	287.06
622.329	295.06
622.536	288.06
622.743	292.06
622.95	267.06
623.157	281.06
623.364	279.06
623.571	295.06
623.778	306.06
623.985	330.06
624.192	316.06
624.399	311.06
624.606	306.06
624.812	296.06
625.019	288.06
625.226	319.06
625.433	307.06
625.639	300.06
625.846	274.06
626.053	282.06
626.259	291.06
626.466	285.06
626.673	301.06
626.879	283.06
627.086	271.06
627.293	263.06
627.499	278.06
627.706	259.06
627.912	269.06
628.119	266.06
628.325	261.06
628.532	248.06
628.738	283.06
628.945	265.06
629.151	238.06
629.357	238.06
629.564	261.06
629.77	253.06
629.976	251.06
630.183	237.06
630.389	256.06
630.595	263.06
630.802	255.06
631.008	237.06
631.214	240.06
631.42	250.06
631.627	248.06
631.833	258.06
632.039	253.06
632.245	238.06
632.451	227.06
632.657	228.06
632.863	243.06
633.069	254.06
633.275	257.06
633.481	237.06
633.688	231.06
633.893	251.06
634.099	233.06
634.305	247.06
634.511	235.06
634.717	237.06
634.923	236.06
635.129	240.06
635.335	225.06
635.541	232.06
635.747	231.06
635.952	219.06
636.158	247.06
636.364	249.06
636.57	236.06
636.775	218.06
636.981	255.06
637.187	235.06
637.392	220.06
637.598	248.06
637.804	235.06
638.009	207.06
638.215	225.06
638.421	221.06
638.626	213.06
638.832	236.06
639.037	224.06
639.243	220.06
639.448	238.06
639.654	220.06
639.859	227.06
640.065	211.06
640.27	232.06
640.475	227.06
640.681	205.06
640.886	216.06
641.091	220.06
641.297	231.06
641.502	219.06
641.707	213.06
641.913	222.06
642.118	223.06
642.323	208.06
642.528	224.06
642.733	229.06
642.939	209.06
643.144	222.06
643.349	212.06
643.554	207.06
643.759	204.06
643.964	208.06
644.169	220.06
644.374	211.06
644.579	212.06
644.784	210.06
644.989	205.06
645.194	199.06
645.399	205.06
645.604	199.06
645.809	209.06
646.014	216.06
646.219	201.06
646.423	224.06
646.628	203.06
646.833	212.06
647.038	197.06
647.243	190.06
647.447	193.06
647.652	214.06
647.857	213.06
648.062	218.06
648.266	210.06
648.471	217.06
648.676	199.06
648.88	193.06
649.085	207.06
649.289	217.06
649.494	196.06
649.698	208.06
649.903	195.06
650.107	204.06
650.312	202.06
650.516	203.06
650.721	199.06
650.925	187.06
651.13	176.06
651.334	183.06
651.539	184.06
651.743	180.06
651.947	185.06
652.152	192.06
652.356	183.06
652.56	171.06
652.764	183.06
652.969	177.06
653.173	160.06
653.377	148.06
653.581	155.06
653.785	164.06
653.99	166.06
654.194	155.06
654.398	172.06
654.602	159.06
654.806	150.06
655.01	153.06
655.214	150.06
655.418	154.06
655.622	151.06
655.826	156.06
656.03	159.06
656.234	169.06
656.438	158.06
656.642	172.06
656.846	156.06
657.049	145.06
657.253	154.06
657.457	164.06
657.661	136.06
657.865	137.06
658.068	121.06
658.272	118.06
658.476	115.06
658.68	117.06
658.883	128.06
659.087	104.06
659.291	97.06
659.494	102.06
659.698	117.06
659.901	98.06
660.105	104.06
660.309	111.06
660.512	99.06
660.716	107.06
660.919	103.06
661.123	104.06
661.326	91.06
661.53	108.06
661.733	97.06
661.936	85.06
662.14	88.06
662.343	93.06
662.546	79.06
662.75	80.06
662.953	89.06
663.156	79.06
663.36	70.06
663.563	79.06
663.766	77.06
663.969	77.06
664.173	98.06
664.376	77.06
664.579	92.06
664.782	96.06
664.985	72.06
665.188	87.06
665.391	92.06
665.594	76.06
665.797	83.06
666	86.06
666.203	64.06
666.406	83.06
666.609	96.06
666.812	89.06
667.015	71.06
667.218	89.06
667.421	85.06
667.624	95.06
667.827	83.06
668.03	81.06
668.232	86.06
668.435	82.06
668.638	99.06
668.841	84.06
669.043	81.06
669.246	79.06
669.449	80.06
669.651	75.06
669.854	79.06
670.057	93.06
670.259	88.06
670.462	92.06
670.665	87.06
670.867	87.06
671.07	89.06
671.272	84.06
671.475	89.06
671.677	84.06
671.88	79.06
672.082	80.06
672.284	88.06
672.487	86.06
672.689	85.06
672.892	78.06
