Data from NickelSpatula.Lamp.E10.P2_HRD10591_11-57-47-530.txt Node
Date: Tue Jul 23 11:57:47 EDT 2019
User: cochatt
Spectrometer: HR+D1059
Trigger mode: 1
Integration Time (sec): 1.000000E-1
Scans to average: 1
Electric dark correction enabled: true
Nonlinearity correction enabled: false
Boxcar width: 0
XAxis mode: Wavelengths
Number of Pixels in Spectrum: 2048
>>>>>Begin Spectral Data<<<<<
223.165	-20.12
223.4	-20.12
223.635	-20.12
223.869	-24.12
224.104	-17.12
224.338	-0.12
224.573	-20.12
224.808	-14.12
225.042	-6.12
225.277	-15.12
225.511	-0.12
225.746	5.88
225.98	12.88
226.215	7.88
226.449	10.88
226.683	27.88
226.918	14.88
227.152	36.88
227.387	32.88
227.621	40.88
227.856	42.88
228.09	53.88
228.324	60.88
228.559	50.88
228.793	76.88
229.027	137.88
229.262	161.88
229.496	140.88
229.73	172.88
229.964	185.88
230.199	197.88
230.433	226.88
230.667	212.88
230.901	192.88
231.136	194.88
231.37	203.88
231.604	219.88
231.838	240.88
232.072	242.88
232.306	244.88
232.541	248.88
232.775	251.88
233.009	256.88
233.243	308.88
233.477	307.88
233.711	337.88
233.945	317.88
234.179	299.88
234.413	338.88
234.647	387.88
234.881	463.88
235.115	415.88
235.349	394.88
235.583	334.88
235.817	331.88
236.051	357.88
236.285	417.88
236.519	455.88
236.753	431.88
236.987	424.88
237.221	387.88
237.455	405.88
237.689	413.88
237.922	451.88
238.156	465.88
238.39	513.88
238.624	640.88
238.858	579.88
239.091	495.88
239.325	503.88
239.559	480.88
239.793	536.88
240.027	628.88
240.26	606.88
240.494	553.88
240.728	590.88
240.961	679.88
241.195	647.88
241.429	605.88
241.662	602.88
241.896	502.88
242.13	478.88
242.363	460.88
242.597	463.88
242.83	507.88
243.064	528.88
243.298	579.88
243.531	636.88
243.765	635.88
243.998	614.88
244.232	575.88
244.465	581.88
244.699	603.88
244.932	631.88
245.166	631.88
245.399	559.88
245.633	547.88
245.866	554.88
246.099	625.88
246.333	705.88
246.566	756.88
246.8	740.88
247.033	719.88
247.266	671.88
247.5	667.88
247.733	659.88
247.966	643.88
248.2	667.88
248.433	745.88
248.666	806.88
248.899	800.88
249.133	842.88
249.366	973.88
249.599	995.88
249.832	898.88
250.066	786.88
250.299	819.88
250.532	812.88
250.765	790.88
250.998	717.88
251.231	719.88
251.465	771.88
251.698	812.88
251.931	779.88
252.164	831.88
252.397	914.88
252.63	1005.88
252.863	1147.88
253.096	1177.88
253.329	1125.88
253.562	1065.88
253.795	1179.88
254.028	1358.88
254.261	1377.88
254.494	1229.88
254.727	1121.88
254.96	1079.88
255.193	1129.88
255.426	1098.88
255.659	851.88
255.892	780.88
256.124	856.88
256.357	997.88
256.59	1147.88
256.823	1104.88
257.056	976.88
257.289	891.88
257.521	951.88
257.754	1096.88
257.987	1272.88
258.22	1135.88
258.452	979.88
258.685	1132.88
258.918	1233.88
259.151	1207.88
259.383	1300.88
259.616	1487.88
259.849	1543.88
260.081	1692.88
260.314	1842.88
260.547	1440.88
260.779	1489.88
261.012	1664.88
261.244	1561.88
261.477	1589.88
261.71	1538.88
261.942	1267.88
262.175	1266.88
262.407	1197.88
262.64	1302.88
262.872	1494.88
263.105	1595.88
263.337	1706.88
263.57	1503.88
263.802	1016.88
264.035	891.88
264.267	886.88
264.499	763.88
264.732	717.88
264.964	669.88
265.197	712.88
265.429	780.88
265.661	804.88
265.894	823.88
266.126	891.88
266.358	1037.88
266.591	1226.88
266.823	1451.88
267.055	1393.88
267.287	1245.88
267.52	1233.88
267.752	1341.88
267.984	1413.88
268.216	1321.88
268.448	1101.88
268.681	1098.88
268.913	1206.88
269.145	1259.88
269.377	1239.88
269.609	1279.88
269.841	1195.88
270.073	1280.88
270.306	1388.88
270.538	1403.88
270.77	1375.88
271.002	1379.88
271.234	1434.88
271.466	1482.88
271.698	1436.88
271.93	1393.88
272.162	1389.88
272.394	1377.88
272.626	1362.88
272.858	1385.88
273.09	1421.88
273.322	1304.88
273.553	1244.88
273.785	1476.88
274.017	1917.88
274.249	2364.88
274.481	2465.88
274.713	2683.88
274.945	3066.88
275.176	3159.88
275.408	2808.88
275.64	2561.88
275.872	2555.88
276.104	2213.88
276.335	1874.88
276.567	1866.88
276.799	1952.88
277.031	1991.88
277.262	1582.88
277.494	1248.88
277.726	1163.88
277.957	1267.88
278.189	1480.88
278.421	1441.88
278.652	1415.88
278.884	1339.88
279.115	1267.88
279.347	1177.88
279.579	1161.88
279.81	1192.88
280.042	1201.88
280.273	1221.88
280.505	1137.88
280.736	1004.88
280.968	1011.88
281.199	1070.88
281.431	1217.88
281.662	1187.88
281.894	1155.88
282.125	1243.88
282.356	1335.88
282.588	1387.88
282.819	1225.88
283.051	1363.88
283.282	1656.88
283.513	1905.88
283.745	2136.88
283.976	2152.88
284.207	1963.88
284.439	2079.88
284.67	1993.88
284.901	1732.88
285.132	1913.88
285.364	2001.88
285.595	1848.88
285.826	1920.88
286.057	2011.88
286.288	1927.88
286.52	1936.88
286.751	2082.88
286.982	2032.88
287.213	1789.88
287.444	1689.88
287.675	1804.88
287.906	1762.88
288.138	1577.88
288.369	1337.88
288.6	1291.88
288.831	1338.88
289.062	1521.88
289.293	1699.88
289.524	1617.88
289.755	1575.88
289.986	1595.88
290.217	1433.88
290.448	1096.88
290.679	964.88
290.91	921.88
291.141	915.88
291.371	965.88
291.602	955.88
291.833	970.88
292.064	1033.88
292.295	1168.88
292.526	1352.88
292.757	1444.88
292.987	1541.88
293.218	1525.88
293.449	1608.88
293.68	1637.88
293.91	1555.88
294.141	1623.88
294.372	1484.88
294.603	1385.88
294.833	1565.88
295.064	1827.88
295.295	1700.88
295.525	1301.88
295.756	1137.88
295.987	979.88
296.217	1032.88
296.448	1019.88
296.679	1063.88
296.909	1193.88
297.14	1250.88
297.37	1394.88
297.601	1311.88
297.831	1135.88
298.062	1210.88
298.292	1432.88
298.523	1526.88
298.753	1731.88
298.984	1535.88
299.214	1224.88
299.445	1066.88
299.675	994.88
299.905	991.88
300.136	1080.88
300.366	1136.88
300.597	1139.88
300.827	992.88
301.057	983.88
301.288	970.88
301.518	1071.88
301.748	1207.88
301.979	1266.88
302.209	1391.88
302.439	1383.88
302.669	1201.88
302.9	1228.88
303.13	1119.88
303.36	1053.88
303.59	1055.88
303.82	1077.88
304.051	1236.88
304.281	1263.88
304.511	1259.88
304.741	1107.88
304.971	1161.88
305.201	1227.88
305.431	1167.88
305.661	1035.88
305.891	1045.88
306.121	1019.88
306.352	923.88
306.582	851.88
306.812	813.88
307.042	834.88
307.272	777.88
307.502	803.88
307.731	852.88
307.961	890.88
308.191	851.88
308.421	806.88
308.651	779.88
308.881	771.88
309.111	740.88
309.341	804.88
309.571	889.88
309.8	895.88
310.03	913.88
310.26	971.88
310.49	945.88
310.72	870.88
310.949	850.88
311.179	871.88
311.409	903.88
311.639	1046.88
311.868	1348.88
312.098	1753.88
312.328	1916.88
312.557	1850.88
312.787	1828.88
313.017	1647.88
313.246	1788.88
313.476	1957.88
313.706	1589.88
313.935	1266.88
314.165	1000.88
314.394	947.88
314.624	943.88
314.853	970.88
315.083	1024.88
315.312	982.88
315.542	1013.88
315.771	907.88
316.001	853.88
316.23	821.88
316.46	803.88
316.689	840.88
316.919	872.88
317.148	891.88
317.377	841.88
317.607	836.88
317.836	959.88
318.065	1086.88
318.295	1202.88
318.524	1109.88
318.753	931.88
318.983	913.88
319.212	903.88
319.441	997.88
319.67	1086.88
319.9	1157.88
320.129	1115.88
320.358	973.88
320.587	957.88
320.816	988.88
321.046	1154.88
321.275	1267.88
321.504	1311.88
321.733	1260.88
321.962	1178.88
322.191	1127.88
322.42	1087.88
322.649	1107.88
322.878	1163.88
323.108	1162.88
323.337	1103.88
323.566	1065.88
323.795	1046.88
324.024	1025.88
324.253	957.88
324.482	959.88
324.71	1061.88
324.939	1167.88
325.168	1095.88
325.397	915.88
325.626	900.88
325.855	906.88
326.084	913.88
326.313	871.88
326.542	823.88
326.77	876.88
326.999	895.88
327.228	950.88
327.457	971.88
327.686	991.88
327.914	895.88
328.143	800.88
328.372	835.88
328.6	830.88
328.829	852.88
329.058	887.88
329.287	868.88
329.515	884.88
329.744	833.88
329.972	839.88
330.201	795.88
330.43	823.88
330.658	932.88
330.887	1048.88
331.115	1021.88
331.344	1011.88
331.572	952.88
331.801	885.88
332.03	835.88
332.258	836.88
332.486	929.88
332.715	957.88
332.943	915.88
333.172	886.88
333.4	917.88
333.629	982.88
333.857	1106.88
334.085	1076.88
334.314	1098.88
334.542	1060.88
334.771	961.88
334.999	945.88
335.227	905.88
335.455	932.88
335.684	995.88
335.912	1186.88
336.14	1313.88
336.369	1236.88
336.597	1192.88
336.825	1333.88
337.053	1505.88
337.281	1209.88
337.51	1000.88
337.738	948.88
337.966	1037.88
338.194	1132.88
338.422	1061.88
338.65	935.88
338.878	908.88
339.106	875.88
339.334	998.88
339.562	1037.88
339.79	984.88
340.018	955.88
340.246	1013.88
340.474	1162.88
340.702	1250.88
340.93	1282.88
341.158	1299.88
341.386	1091.88
341.614	1095.88
341.842	1075.88
342.07	1138.88
342.298	1268.88
342.526	1335.88
342.754	1172.88
342.981	1087.88
343.209	1053.88
343.437	1113.88
343.665	1151.88
343.893	1132.88
344.12	1337.88
344.348	1563.88
344.576	1366.88
344.804	1147.88
345.031	1035.88
345.259	971.88
345.487	982.88
345.714	988.88
345.942	1078.88
346.17	1161.88
346.397	1122.88
346.625	991.88
346.853	924.88
347.08	935.88
347.308	988.88
347.535	1121.88
347.763	1105.88
347.99	979.88
348.218	909.88
348.445	949.88
348.673	983.88
348.9	951.88
349.128	994.88
349.355	1053.88
349.583	1044.88
349.81	987.88
350.037	937.88
350.265	806.88
350.492	799.88
350.72	791.88
350.947	821.88
351.174	881.88
351.402	915.88
351.629	965.88
351.856	935.88
352.083	885.88
352.311	958.88
352.538	1021.88
352.765	1112.88
352.992	999.88
353.22	956.88
353.447	968.88
353.674	930.88
353.901	935.88
354.128	918.88
354.355	996.88
354.583	947.88
354.81	969.88
355.037	985.88
355.264	998.88
355.491	1059.88
355.718	1140.88
355.945	1115.88
356.172	1073.88
356.399	1093.88
356.626	1266.88
356.853	1567.88
357.08	1651.88
357.307	1656.88
357.534	1328.88
357.761	1374.88
357.988	1691.88
358.215	1979.88
358.441	1851.88
358.668	1561.88
358.895	1447.88
359.122	1168.88
359.349	1192.88
359.576	1285.88
359.802	1076.88
360.029	921.88
360.256	983.88
360.483	1213.88
360.709	1512.88
360.936	1582.88
361.163	1379.88
361.39	1091.88
361.616	1043.88
361.843	1187.88
362.07	1420.88
362.296	1324.88
362.523	1054.88
362.749	903.88
362.976	981.88
363.203	1160.88
363.429	1285.88
363.656	1041.88
363.882	946.88
364.109	969.88
364.335	969.88
364.562	949.88
364.788	1092.88
365.015	1276.88
365.241	1120.88
365.468	944.88
365.694	830.88
365.92	799.88
366.147	778.88
366.373	742.88
366.599	783.88
366.826	796.88
367.052	783.88
367.278	829.88
367.505	808.88
367.731	865.88
367.957	981.88
368.184	1041.88
368.41	995.88
368.636	992.88
368.862	1053.88
369.089	993.88
369.315	886.88
369.541	874.88
369.767	854.88
369.993	832.88
370.219	823.88
370.445	910.88
370.672	979.88
370.898	1044.88
371.124	1056.88
371.35	915.88
371.576	867.88
371.802	939.88
372.028	1131.88
372.254	1275.88
372.48	1087.88
372.706	999.88
372.932	1061.88
373.158	1128.88
373.384	1333.88
373.61	1708.88
373.835	1779.88
374.061	1323.88
374.287	1116.88
374.513	1313.88
374.739	1569.88
374.965	1611.88
375.191	1568.88
375.416	1112.88
375.642	972.88
375.868	1160.88
376.094	1312.88
376.319	1135.88
376.545	1243.88
376.771	1317.88
376.997	1105.88
377.222	864.88
377.448	753.88
377.674	733.88
377.899	757.88
378.125	736.88
378.35	729.88
378.576	760.88
378.802	812.88
379.027	891.88
379.253	885.88
379.478	924.88
379.704	1033.88
379.929	1081.88
380.155	1036.88
380.38	943.88
380.606	1005.88
380.831	1089.88
381.057	971.88
381.282	963.88
381.507	1159.88
381.733	1427.88
381.958	1459.88
382.184	1576.88
382.409	1612.88
382.634	1585.88
382.86	1689.88
383.085	1360.88
383.31	1105.88
383.535	1207.88
383.761	1219.88
383.986	1139.88
384.211	1350.88
384.436	1331.88
384.662	979.88
384.887	962.88
385.112	996.88
385.337	1046.88
385.562	973.88
385.787	1103.88
386.013	1183.88
386.238	1219.88
386.463	1025.88
386.688	977.88
386.913	923.88
387.138	879.88
387.363	952.88
387.588	958.88
387.813	970.88
388.038	1064.88
388.263	975.88
388.488	932.88
388.713	1104.88
388.938	1197.88
389.163	1004.88
389.387	893.88
389.612	900.88
389.837	917.88
390.062	960.88
390.287	966.88
390.512	1001.88
390.736	920.88
390.961	888.88
391.186	850.88
391.411	799.88
391.636	845.88
391.86	925.88
392.085	971.88
392.31	984.88
392.534	963.88
392.759	925.88
392.984	938.88
393.208	918.88
393.433	886.88
393.658	834.88
393.882	785.88
394.107	787.88
394.331	793.88
394.556	793.88
394.78	808.88
395.005	810.88
395.229	852.88
395.454	853.88
395.678	874.88
395.903	891.88
396.127	868.88
396.352	895.88
396.576	974.88
396.801	992.88
397.025	1081.88
397.249	1104.88
397.474	937.88
397.698	901.88
397.922	958.88
398.147	884.88
398.371	907.88
398.595	957.88
398.82	931.88
399.044	948.88
399.268	994.88
399.492	1021.88
399.717	1025.88
399.941	1093.88
400.165	1041.88
400.389	1024.88
400.613	1021.88
400.837	1013.88
401.062	919.88
401.286	880.88
401.51	917.88
401.734	915.88
401.958	911.88
402.182	899.88
402.406	877.88
402.63	901.88
402.854	941.88
403.078	1071.88
403.302	1301.88
403.526	1306.88
403.75	1209.88
403.974	1013.88
404.198	1081.88
404.422	1188.88
404.645	1385.88
404.869	1533.88
405.093	1145.88
405.317	994.88
405.541	951.88
405.765	1043.88
405.988	988.88
406.212	1075.88
406.436	1269.88
406.66	1417.88
406.883	1104.88
407.107	1143.88
407.331	1339.88
407.555	1280.88
407.778	1079.88
408.002	1056.88
408.226	1067.88
408.449	1057.88
408.673	986.88
408.896	943.88
409.12	889.88
409.344	902.88
409.567	889.88
409.791	917.88
410.014	871.88
410.238	880.88
410.461	870.88
410.685	872.88
410.908	917.88
411.132	909.88
411.355	955.88
411.578	947.88
411.802	935.88
412.025	961.88
412.249	959.88
412.472	947.88
412.695	929.88
412.919	964.88
413.142	945.88
413.365	1025.88
413.589	1044.88
413.812	934.88
414.035	925.88
414.258	966.88
414.482	1025.88
414.705	1064.88
414.928	922.88
415.151	860.88
415.374	883.88
415.597	901.88
415.821	927.88
416.044	899.88
416.267	860.88
416.49	853.88
416.713	853.88
416.936	838.88
417.159	873.88
417.382	861.88
417.605	881.88
417.828	916.88
418.051	922.88
418.274	929.88
418.497	926.88
418.72	932.88
418.943	935.88
419.166	977.88
419.389	1019.88
419.611	1007.88
419.834	1016.88
420.057	1085.88
420.28	1115.88
420.503	1006.88
420.726	891.88
420.948	868.88
421.171	879.88
421.394	870.88
421.617	874.88
421.839	892.88
422.062	915.88
422.285	924.88
422.507	934.88
422.73	967.88
422.953	941.88
423.175	932.88
423.398	916.88
423.621	985.88
423.843	1055.88
424.066	961.88
424.288	924.88
424.511	906.88
424.733	890.88
424.956	930.88
425.178	1056.88
425.401	1220.88
425.623	1371.88
425.846	1128.88
426.068	988.88
426.291	1089.88
426.513	1012.88
426.735	923.88
426.958	982.88
427.18	1141.88
427.402	1467.88
427.625	1455.88
427.847	1159.88
428.069	901.88
428.292	877.88
428.514	913.88
428.736	868.88
428.958	937.88
429.181	1098.88
429.403	964.88
429.625	857.88
429.847	860.88
430.069	913.88
430.292	888.88
430.514	838.88
430.736	923.88
430.958	1175.88
431.18	1044.88
431.402	823.88
431.624	793.88
431.846	816.88
432.068	762.88
432.29	819.88
432.512	913.88
432.734	1177.88
432.956	1090.88
433.178	863.88
433.4	817.88
433.622	838.88
433.844	867.88
434.066	929.88
434.287	917.88
434.509	881.88
434.731	909.88
434.953	866.88
435.175	926.88
435.397	1021.88
435.618	883.88
435.84	841.88
436.062	826.88
436.284	809.88
436.505	800.88
436.727	790.88
436.949	782.88
437.17	837.88
437.392	844.88
437.614	816.88
437.835	813.88
438.057	834.88
438.278	957.88
438.5	1308.88
438.721	1352.88
438.943	924.88
439.165	799.88
439.386	798.88
439.608	785.88
439.829	781.88
440.05	784.88
440.272	844.88
440.493	978.88
440.715	1202.88
440.936	957.88
441.158	866.88
441.379	842.88
441.6	938.88
441.822	1027.88
442.043	883.88
442.264	833.88
442.486	881.88
442.707	872.88
442.928	840.88
443.149	900.88
443.371	913.88
443.592	922.88
443.813	904.88
444.034	896.88
444.255	891.88
444.476	965.88
444.698	934.88
444.919	946.88
445.14	1015.88
445.361	990.88
445.582	981.88
445.803	940.88
446.024	908.88
446.245	889.88
446.466	899.88
446.687	858.88
446.908	875.88
447.129	802.88
447.35	800.88
447.571	789.88
447.792	805.88
448.013	777.88
448.234	790.88
448.455	773.88
448.675	792.88
448.896	821.88
449.117	800.88
449.338	781.88
449.559	844.88
449.779	848.88
450	861.88
450.221	809.88
450.442	817.88
450.662	775.88
450.883	803.88
451.104	778.88
451.324	790.88
451.545	823.88
451.766	787.88
451.986	774.88
452.207	761.88
452.428	771.88
452.648	747.88
452.869	805.88
453.089	850.88
453.31	817.88
453.53	728.88
453.751	754.88
453.971	716.88
454.192	762.88
454.412	779.88
454.633	766.88
454.853	775.88
455.073	739.88
455.294	757.88
455.514	736.88
455.734	771.88
455.955	799.88
456.175	831.88
456.395	717.88
456.616	704.88
456.836	680.88
457.056	691.88
457.276	701.88
457.497	712.88
457.717	711.88
457.937	716.88
458.157	723.88
458.377	731.88
458.598	743.88
458.818	752.88
459.038	804.88
459.258	838.88
459.478	850.88
459.698	904.88
459.918	890.88
460.138	893.88
460.358	890.88
460.578	852.88
460.798	894.88
461.018	878.88
461.238	858.88
461.458	856.88
461.678	879.88
461.898	913.88
462.118	901.88
462.338	933.88
462.558	966.88
462.777	980.88
462.997	999.88
463.217	996.88
463.437	1011.88
463.657	985.88
463.876	924.88
464.096	945.88
464.316	941.88
464.536	977.88
464.755	995.88
464.975	999.88
465.195	936.88
465.414	975.88
465.634	945.88
465.854	923.88
466.073	877.88
466.293	857.88
466.512	943.88
466.732	1031.88
466.951	1013.88
467.171	917.88
467.391	888.88
467.61	877.88
467.829	917.88
468.049	950.88
468.268	875.88
468.488	887.88
468.707	910.88
468.927	1023.88
469.146	1116.88
469.365	1023.88
469.585	930.88
469.804	1010.88
470.023	1079.88
470.243	955.88
470.462	928.88
470.681	893.88
470.901	925.88
471.12	963.88
471.339	949.88
471.558	905.88
471.777	941.88
471.997	975.88
472.216	1083.88
472.435	1063.88
472.654	981.88
472.873	960.88
473.092	982.88
473.311	1016.88
473.53	924.88
473.749	893.88
473.968	980.88
474.187	972.88
474.406	930.88
474.625	917.88
474.844	927.88
475.063	1030.88
475.282	1009.88
475.501	1052.88
475.72	1106.88
475.939	1098.88
476.158	1103.88
476.377	1257.88
476.596	1427.88
476.814	1481.88
477.033	1248.88
477.252	1095.88
477.471	972.88
477.69	988.88
477.908	1101.88
478.127	1176.88
478.346	1076.88
478.564	1135.88
478.783	1079.88
479.002	1115.88
479.22	1251.88
479.439	1412.88
479.658	1219.88
479.876	1106.88
480.095	1213.88
480.313	1201.88
480.532	1132.88
480.751	1105.88
480.969	1117.88
481.188	1256.88
481.406	1285.88
481.624	1215.88
481.843	1101.88
482.061	1075.88
482.28	1176.88
482.498	1433.88
482.717	1370.88
482.935	1195.88
483.153	1123.88
483.372	1065.88
483.59	1089.88
483.808	1061.88
484.027	1025.88
484.245	1009.88
484.463	964.88
484.681	1013.88
484.9	1067.88
485.118	1165.88
485.336	1106.88
485.554	1039.88
485.772	1052.88
485.99	1176.88
486.209	1214.88
486.427	1186.88
486.645	1209.88
486.863	1207.88
487.081	1235.88
487.299	1378.88
487.517	1351.88
487.735	1203.88
487.953	1216.88
488.171	1259.88
488.389	1167.88
488.607	1091.88
488.825	1146.88
489.043	1245.88
489.261	1425.88
489.479	1506.88
489.696	1298.88
489.914	1205.88
490.132	1117.88
490.35	1144.88
490.568	1135.88
490.786	1090.88
491.003	1148.88
491.221	1161.88
491.439	1110.88
491.657	1128.88
491.874	1240.88
492.092	1477.88
492.31	1725.88
492.527	1733.88
492.745	1516.88
492.963	1303.88
493.18	1308.88
493.398	1299.88
493.615	1274.88
493.833	1231.88
494.05	1196.88
494.268	1234.88
494.485	1205.88
494.703	1176.88
494.92	1237.88
495.138	1211.88
495.355	1175.88
495.573	1226.88
495.79	1367.88
496.008	1747.88
496.225	1496.88
496.442	1306.88
496.66	1304.88
496.877	1387.88
497.094	1382.88
497.312	1282.88
497.529	1313.88
497.746	1307.88
497.963	1380.88
498.181	1447.88
498.398	1545.88
498.615	1625.88
498.832	1701.88
499.049	1678.88
499.267	1527.88
499.484	1530.88
499.701	1592.88
499.918	1768.88
500.135	1891.88
500.352	1874.88
500.569	1951.88
500.786	1999.88
501.003	1983.88
501.22	1805.88
501.437	1692.88
501.654	1655.88
501.871	1593.88
502.088	1622.88
502.305	1517.88
502.522	1515.88
502.739	1503.88
502.956	1365.88
503.172	1334.88
503.389	1277.88
503.606	1290.88
503.823	1286.88
504.04	1292.88
504.256	1329.88
504.473	1340.88
504.69	1320.88
504.907	1384.88
505.123	1329.88
505.34	1436.88
505.557	1387.88
505.773	1323.88
505.99	1301.88
506.207	1338.88
506.423	1250.88
506.64	1187.88
506.856	1235.88
507.073	1371.88
507.289	1330.88
507.506	1297.88
507.722	1376.88
507.939	1423.88
508.155	1427.88
508.372	1279.88
508.588	1257.88
508.805	1243.88
509.021	1175.88
509.238	1146.88
509.454	1145.88
509.67	1145.88
509.887	1170.88
510.103	1316.88
510.319	1281.88
510.536	1177.88
510.752	1081.88
510.968	1047.88
511.184	1014.88
511.401	1014.88
511.617	1049.88
511.833	1051.88
512.049	1047.88
512.265	1063.88
512.481	1108.88
512.698	1255.88
512.914	1349.88
513.13	1219.88
513.346	1124.88
513.562	1173.88
513.778	1148.88
513.994	1129.88
514.21	1199.88
514.426	1166.88
514.642	1124.88
514.858	1132.88
515.074	1165.88
515.29	1265.88
515.506	1401.88
515.721	1333.88
515.937	1221.88
516.153	1150.88
516.369	1169.88
516.585	1246.88
516.801	1360.88
517.016	1557.88
517.232	1524.88
517.448	1507.88
517.664	1372.88
517.879	1263.88
518.095	1276.88
518.311	1281.88
518.527	1290.88
518.742	1359.88
518.958	1421.88
519.173	1403.88
519.389	1333.88
519.605	1363.88
519.82	1488.88
520.036	1695.88
520.251	1675.88
520.467	1568.88
520.682	2351.88
520.898	2880.88
521.113	2660.88
521.329	1685.88
521.544	1505.88
521.76	1469.88
521.975	1340.88
522.19	1250.88
522.406	1298.88
522.621	1459.88
522.836	1523.88
523.052	1529.88
523.267	1257.88
523.482	1284.88
523.698	1388.88
523.913	1345.88
524.128	1190.88
524.343	1161.88
524.559	1199.88
524.774	1147.88
524.989	1127.88
525.204	1179.88
525.419	1306.88
525.634	1216.88
525.849	1183.88
526.064	1223.88
526.28	1222.88
526.495	1456.88
526.71	1478.88
526.925	1335.88
527.14	1343.88
527.355	1337.88
527.57	1155.88
527.785	1192.88
527.999	1104.88
528.214	1059.88
528.429	1058.88
528.644	1046.88
528.859	1005.88
529.074	983.88
529.289	955.88
529.503	963.88
529.718	1030.88
529.933	1162.88
530.148	1199.88
530.363	1018.88
530.577	995.88
530.792	991.88
531.007	1015.88
531.221	975.88
531.436	960.88
531.651	1014.88
531.865	1018.88
532.08	1015.88
532.295	975.88
532.509	1013.88
532.724	1146.88
532.938	1264.88
533.153	1477.88
533.367	1181.88
533.582	1163.88
533.796	1077.88
534.011	1024.88
534.225	1047.88
534.44	1030.88
534.654	1077.88
534.868	1203.88
535.083	1108.88
535.297	1000.88
535.511	1005.88
535.726	1136.88
535.94	1049.88
536.154	981.88
536.369	1005.88
536.583	997.88
536.797	1032.88
537.011	1045.88
537.225	1085.88
537.44	1134.88
537.654	1031.88
537.868	1013.88
538.082	1027.88
538.296	971.88
538.51	1099.88
538.724	1065.88
538.938	1022.88
539.153	978.88
539.367	975.88
539.581	1004.88
539.795	1012.88
540.009	1121.88
540.222	1028.88
540.436	1064.88
540.65	1156.88
540.864	1167.88
541.078	1181.88
541.292	1338.88
541.506	1083.88
541.72	1054.88
541.934	1012.88
542.147	1025.88
542.361	1012.88
542.575	1044.88
542.789	1000.88
543.002	955.88
543.216	1048.88
543.43	963.88
543.644	931.88
543.857	964.88
544.071	959.88
544.285	933.88
544.498	914.88
544.712	945.88
544.925	1007.88
545.139	935.88
545.352	900.88
545.566	911.88
545.779	1034.88
545.993	978.88
546.206	878.88
546.42	862.88
546.633	880.88
546.847	851.88
547.06	843.88
547.274	865.88
547.487	852.88
547.7	953.88
547.914	965.88
548.127	1073.88
548.34	1087.88
548.554	959.88
548.767	983.88
548.98	1062.88
549.193	970.88
549.407	1037.88
549.62	1170.88
549.833	1065.88
550.046	1169.88
550.259	1163.88
550.473	1023.88
550.686	970.88
550.899	973.88
551.112	976.88
551.325	1029.88
551.538	1085.88
551.751	940.88
551.964	879.88
552.177	872.88
552.39	849.88
552.603	868.88
552.816	938.88
553.029	869.88
553.242	843.88
553.455	928.88
553.667	1013.88
553.88	971.88
554.093	915.88
554.306	804.88
554.519	786.88
554.732	786.88
554.944	775.88
555.157	795.88
555.37	784.88
555.583	763.88
555.795	772.88
556.008	836.88
556.221	816.88
556.433	790.88
556.646	783.88
556.859	791.88
557.071	806.88
557.284	803.88
557.496	836.88
557.709	810.88
557.921	805.88
558.134	742.88
558.346	715.88
558.559	725.88
558.771	773.88
558.984	784.88
559.196	766.88
559.409	724.88
559.621	710.88
559.833	695.88
560.046	725.88
560.258	691.88
560.47	738.88
560.683	729.88
560.895	701.88
561.107	673.88
561.32	682.88
561.532	697.88
561.744	763.88
561.956	781.88
562.168	709.88
562.381	696.88
562.593	723.88
562.805	747.88
563.017	675.88
563.229	687.88
563.441	678.88
563.653	681.88
563.865	699.88
564.077	709.88
564.289	666.88
564.501	696.88
564.713	754.88
564.925	748.88
565.137	693.88
565.349	688.88
565.561	716.88
565.773	713.88
565.985	752.88
566.197	805.88
566.408	851.88
566.62	840.88
566.832	833.88
567.044	853.88
567.255	895.88
567.467	987.88
567.679	888.88
567.891	886.88
568.102	890.88
568.314	909.88
568.526	839.88
568.737	837.88
568.949	864.88
569.161	784.88
569.372	707.88
569.584	703.88
569.795	680.88
570.007	705.88
570.218	742.88
570.43	722.88
570.641	699.88
570.853	667.88
571.064	646.88
571.276	686.88
571.487	719.88
571.698	666.88
571.91	659.88
572.121	658.88
572.333	628.88
572.544	623.88
572.755	616.88
572.966	608.88
573.178	613.88
573.389	645.88
573.6	651.88
573.811	618.88
574.023	577.88
574.234	560.88
574.445	580.88
574.656	561.88
574.867	574.88
575.078	603.88
575.289	589.88
575.501	664.88
575.712	584.88
575.923	551.88
576.134	543.88
576.345	526.88
576.556	550.88
576.767	534.88
576.978	518.88
577.188	530.88
577.399	518.88
577.61	554.88
577.821	532.88
578.032	547.88
578.243	563.88
578.454	587.88
578.665	566.88
578.875	538.88
579.086	564.88
579.297	548.88
579.508	558.88
579.718	547.88
579.929	541.88
580.14	531.88
580.35	497.88
580.561	502.88
580.772	469.88
580.982	489.88
581.193	482.88
581.403	455.88
581.614	486.88
581.825	464.88
582.035	458.88
582.246	456.88
582.456	465.88
582.667	480.88
582.877	464.88
583.087	453.88
583.298	449.88
583.508	464.88
583.719	471.88
583.929	452.88
584.139	465.88
584.35	453.88
584.56	471.88
584.77	472.88
584.981	475.88
585.191	466.88
585.401	461.88
585.611	486.88
585.821	499.88
586.032	504.88
586.242	480.88
586.452	482.88
586.662	468.88
586.872	499.88
587.082	477.88
587.292	475.88
587.502	472.88
587.713	441.88
587.923	441.88
588.133	517.88
588.343	458.88
588.553	456.88
588.762	461.88
588.972	449.88
589.182	449.88
589.392	437.88
589.602	445.88
589.812	476.88
590.022	485.88
590.232	511.88
590.441	475.88
590.651	476.88
590.861	449.88
591.071	465.88
591.281	456.88
591.49	440.88
591.7	433.88
591.91	461.88
592.119	452.88
592.329	437.88
592.539	459.88
592.748	463.88
592.958	462.88
593.167	475.88
593.377	479.88
593.587	480.88
593.796	486.88
594.006	463.88
594.215	483.88
594.424	506.88
594.634	490.88
594.843	479.88
595.053	465.88
595.262	440.88
595.472	419.88
595.681	447.88
595.89	441.88
596.1	433.88
596.309	468.88
596.518	413.88
596.727	406.88
596.937	407.88
597.146	436.88
597.355	469.88
597.564	416.88
597.774	425.88
597.983	411.88
598.192	416.88
598.401	393.88
598.61	382.88
598.819	390.88
599.028	372.88
599.237	408.88
599.446	385.88
599.655	394.88
599.864	355.88
600.073	379.88
600.282	380.88
600.491	391.88
600.7	373.88
600.909	386.88
601.118	376.88
601.327	367.88
601.536	372.88
601.745	392.88
601.953	403.88
602.162	405.88
602.371	378.88
602.58	383.88
602.789	381.88
602.997	377.88
603.206	375.88
603.415	371.88
603.623	356.88
603.832	366.88
604.041	363.88
604.249	371.88
604.458	377.88
604.666	368.88
604.875	346.88
605.084	359.88
605.292	363.88
605.501	371.88
605.709	379.88
605.918	407.88
606.126	363.88
606.334	367.88
606.543	341.88
606.751	353.88
606.96	349.88
607.168	376.88
607.376	333.88
607.585	358.88
607.793	338.88
608.001	347.88
608.21	347.88
608.418	361.88
608.626	368.88
608.834	343.88
609.043	332.88
609.251	328.88
609.459	328.88
609.667	352.88
609.875	338.88
610.083	352.88
610.291	364.88
610.499	351.88
610.707	349.88
610.916	339.88
611.124	346.88
611.332	330.88
611.54	335.88
611.748	340.88
611.955	327.88
612.163	334.88
612.371	325.88
612.579	323.88
612.787	337.88
612.995	311.88
613.203	325.88
613.411	338.88
613.618	331.88
613.826	333.88
614.034	345.88
614.242	328.88
614.449	324.88
614.657	298.88
614.865	319.88
615.072	332.88
615.28	317.88
615.488	329.88
615.695	336.88
615.903	333.88
616.111	325.88
616.318	325.88
616.526	322.88
616.733	325.88
616.941	320.88
617.148	329.88
617.356	329.88
617.563	314.88
617.771	307.88
617.978	318.88
618.185	316.88
618.393	324.88
618.6	331.88
618.807	337.88
619.015	320.88
619.222	327.88
619.429	337.88
619.637	314.88
619.844	313.88
620.051	298.88
620.258	301.88
620.466	296.88
620.673	300.88
620.88	285.88
621.087	292.88
621.294	296.88
621.501	288.88
621.708	301.88
621.915	305.88
622.122	292.88
622.329	295.88
622.536	297.88
622.743	299.88
622.95	281.88
623.157	295.88
623.364	299.88
623.571	311.88
623.778	295.88
623.985	310.88
624.192	307.88
624.399	302.88
624.606	311.88
624.812	292.88
625.019	275.88
625.226	319.88
625.433	294.88
625.639	306.88
625.846	284.88
626.053	282.88
626.259	287.88
626.466	282.88
626.673	296.88
626.879	276.88
627.086	276.88
627.293	265.88
627.499	275.88
627.706	274.88
627.912	264.88
628.119	261.88
628.325	253.88
628.532	274.88
628.738	269.88
628.945	275.88
629.151	253.88
629.357	264.88
629.564	276.88
629.77	252.88
629.976	247.88
630.183	241.88
630.389	254.88
630.595	259.88
630.802	242.88
631.008	252.88
631.214	260.88
631.42	249.88
631.627	256.88
631.833	258.88
632.039	265.88
632.245	242.88
632.451	242.88
632.657	255.88
632.863	243.88
633.069	244.88
633.275	242.88
633.481	253.88
633.688	248.88
633.893	262.88
634.099	232.88
634.305	253.88
634.511	240.88
634.717	243.88
634.923	239.88
635.129	235.88
635.335	213.88
635.541	231.88
635.747	232.88
635.952	231.88
636.158	218.88
636.364	231.88
636.57	236.88
636.775	263.88
636.981	233.88
637.187	228.88
637.392	211.88
637.598	230.88
637.804	224.88
638.009	217.88
638.215	243.88
638.421	227.88
638.626	219.88
638.832	218.88
639.037	220.88
639.243	229.88
639.448	236.88
639.654	236.88
639.859	225.88
640.065	229.88
640.27	247.88
640.475	227.88
640.681	206.88
640.886	229.88
641.091	216.88
641.297	234.88
641.502	211.88
641.707	216.88
641.913	226.88
642.118	224.88
642.323	225.88
642.528	219.88
642.733	217.88
642.939	221.88
643.144	217.88
643.349	225.88
643.554	217.88
643.759	205.88
643.964	204.88
644.169	213.88
644.374	210.88
644.579	208.88
644.784	199.88
644.989	208.88
645.194	204.88
645.399	193.88
645.604	207.88
645.809	206.88
646.014	224.88
646.219	207.88
646.423	211.88
646.628	209.88
646.833	215.88
647.038	217.88
647.243	207.88
647.447	208.88
647.652	193.88
647.857	220.88
648.062	223.88
648.266	208.88
648.471	211.88
648.676	206.88
648.88	212.88
649.085	204.88
649.289	207.88
649.494	209.88
649.698	218.88
649.903	213.88
650.107	210.88
650.312	196.88
650.516	194.88
650.721	192.88
650.925	195.88
651.13	160.88
651.334	182.88
651.539	191.88
651.743	179.88
651.947	191.88
652.152	168.88
652.356	168.88
652.56	185.88
652.764	179.88
652.969	164.88
653.173	172.88
653.377	171.88
653.581	162.88
653.785	164.88
653.99	178.88
654.194	169.88
654.398	163.88
654.602	164.88
654.806	150.88
655.01	160.88
655.214	166.88
655.418	177.88
655.622	149.88
655.826	159.88
656.03	154.88
656.234	161.88
656.438	164.88
656.642	163.88
656.846	163.88
657.049	159.88
657.253	160.88
657.457	151.88
657.661	129.88
657.865	131.88
658.068	121.88
658.272	108.88
658.476	107.88
658.68	112.88
658.883	118.88
659.087	106.88
659.291	107.88
659.494	112.88
659.698	115.88
659.901	112.88
660.105	106.88
660.309	92.88
660.512	107.88
660.716	96.88
660.919	90.88
661.123	98.88
661.326	95.88
661.53	91.88
661.733	116.88
661.936	89.88
662.14	89.88
662.343	104.88
662.546	91.88
662.75	87.88
662.953	95.88
663.156	97.88
663.36	72.88
663.563	81.88
663.766	91.88
663.969	92.88
664.173	87.88
664.376	94.88
664.579	68.88
664.782	95.88
664.985	95.88
665.188	98.88
665.391	84.88
665.594	87.88
665.797	91.88
666	75.88
666.203	88.88
666.406	85.88
666.609	84.88
666.812	81.88
667.015	76.88
667.218	96.88
667.421	91.88
667.624	93.88
667.827	76.88
668.03	85.88
668.232	91.88
668.435	74.88
668.638	80.88
668.841	81.88
669.043	91.88
669.246	74.88
669.449	83.88
669.651	81.88
669.854	83.88
670.057	67.88
670.259	95.88
670.462	79.88
670.665	72.88
670.867	76.88
671.07	77.88
671.272	77.88
671.475	87.88
671.677	90.88
671.88	83.88
672.082	76.88
672.284	80.88
672.487	87.88
672.689	90.88
672.892	93.88
