Data from NickelSpatula.Lamp.E10.P2_HRD10591_11-57-12-533.txt Node
Date: Tue Jul 23 11:57:12 EDT 2019
User: cochatt
Spectrometer: HR+D1059
Trigger mode: 1
Integration Time (sec): 1.000000E-1
Scans to average: 1
Electric dark correction enabled: true
Nonlinearity correction enabled: false
Boxcar width: 0
XAxis mode: Wavelengths
Number of Pixels in Spectrum: 2048
>>>>>Begin Spectral Data<<<<<
223.165	-15.44
223.4	-15.44
223.635	-15.44
223.869	-17.44
224.104	-12.44
224.338	-8.44
224.573	-20.44
224.808	-8.44
225.042	-9.44
225.277	-14.44
225.511	5.56
225.746	5.56
225.98	2.56
226.215	-0.44
226.449	19.56
226.683	20.56
226.918	27.56
227.152	25.56
227.387	24.56
227.621	29.56
227.856	36.56
228.09	41.56
228.324	39.56
228.559	54.56
228.793	79.56
229.027	147.56
229.262	157.56
229.496	140.56
229.73	157.56
229.964	183.56
230.199	213.56
230.433	208.56
230.667	192.56
230.901	193.56
231.136	196.56
231.37	202.56
231.604	215.56
231.838	233.56
232.072	245.56
232.306	247.56
232.541	246.56
232.775	231.56
233.009	269.56
233.243	281.56
233.477	300.56
233.711	340.56
233.945	321.56
234.179	326.56
234.413	344.56
234.647	383.56
234.881	463.56
235.115	399.56
235.349	391.56
235.583	345.56
235.817	349.56
236.051	368.56
236.285	416.56
236.519	456.56
236.753	428.56
236.987	419.56
237.221	408.56
237.455	415.56
237.689	407.56
237.922	431.56
238.156	453.56
238.39	533.56
238.624	647.56
238.858	568.56
239.091	483.56
239.325	491.56
239.559	473.56
239.793	528.56
240.027	663.56
240.26	601.56
240.494	585.56
240.728	600.56
240.961	669.56
241.195	612.56
241.429	610.56
241.662	592.56
241.896	522.56
242.13	482.56
242.363	440.56
242.597	435.56
242.83	526.56
243.064	552.56
243.298	570.56
243.531	605.56
243.765	631.56
243.998	600.56
244.232	598.56
244.465	568.56
244.699	590.56
244.932	643.56
245.166	624.56
245.399	561.56
245.633	514.56
245.866	549.56
246.099	588.56
246.333	686.56
246.566	773.56
246.8	765.56
247.033	700.56
247.266	656.56
247.5	666.56
247.733	668.56
247.966	649.56
248.2	685.56
248.433	738.56
248.666	837.56
248.899	813.56
249.133	819.56
249.366	945.56
249.599	1019.56
249.832	922.56
250.066	849.56
250.299	814.56
250.532	795.56
250.765	815.56
250.998	691.56
251.231	701.56
251.465	771.56
251.698	828.56
251.931	767.56
252.164	808.56
252.397	896.56
252.63	1043.56
252.863	1107.56
253.096	1165.56
253.329	1153.56
253.562	1095.56
253.795	1212.56
254.028	1311.56
254.261	1346.56
254.494	1201.56
254.727	1111.56
254.96	1107.56
255.193	1176.56
255.426	1097.56
255.659	835.56
255.892	796.56
256.124	855.56
256.357	983.56
256.59	1167.56
256.823	1086.56
257.056	934.56
257.289	903.56
257.521	927.56
257.754	1111.56
257.987	1284.56
258.22	1073.56
258.452	969.56
258.685	1166.56
258.918	1251.56
259.151	1242.56
259.383	1269.56
259.616	1456.56
259.849	1555.56
260.081	1691.56
260.314	1880.56
260.547	1479.56
260.779	1473.56
261.012	1702.56
261.244	1588.56
261.477	1640.56
261.71	1480.56
261.942	1293.56
262.175	1248.56
262.407	1216.56
262.64	1264.56
262.872	1499.56
263.105	1599.56
263.337	1659.56
263.57	1510.56
263.802	1006.56
264.035	891.56
264.267	877.56
264.499	766.56
264.732	717.56
264.964	696.56
265.197	701.56
265.429	742.56
265.661	800.56
265.894	827.56
266.126	876.56
266.358	1009.56
266.591	1203.56
266.823	1433.56
267.055	1385.56
267.287	1243.56
267.52	1236.56
267.752	1291.56
267.984	1435.56
268.216	1376.56
268.448	1125.56
268.681	1081.56
268.913	1188.56
269.145	1261.56
269.377	1320.56
269.609	1286.56
269.841	1193.56
270.073	1257.56
270.306	1347.56
270.538	1379.56
270.77	1408.56
271.002	1397.56
271.234	1451.56
271.466	1494.56
271.698	1391.56
271.93	1410.56
272.162	1395.56
272.394	1392.56
272.626	1347.56
272.858	1431.56
273.09	1410.56
273.322	1273.56
273.553	1223.56
273.785	1476.56
274.017	1921.56
274.249	2334.56
274.481	2423.56
274.713	2646.56
274.945	3088.56
275.176	3149.56
275.408	2817.56
275.64	2564.56
275.872	2533.56
276.104	2205.56
276.335	1863.56
276.567	1858.56
276.799	1947.56
277.031	1983.56
277.262	1620.56
277.494	1237.56
277.726	1166.56
277.957	1277.56
278.189	1451.56
278.421	1447.56
278.652	1399.56
278.884	1348.56
279.115	1195.56
279.347	1195.56
279.579	1204.56
279.81	1205.56
280.042	1181.56
280.273	1224.56
280.505	1094.56
280.736	976.56
280.968	1015.56
281.199	1074.56
281.431	1203.56
281.662	1182.56
281.894	1138.56
282.125	1220.56
282.356	1332.56
282.588	1373.56
282.819	1222.56
283.051	1339.56
283.282	1644.56
283.513	1915.56
283.745	2120.56
283.976	2163.56
284.207	1947.56
284.439	2101.56
284.67	1972.56
284.901	1714.56
285.132	1896.56
285.364	1983.56
285.595	1832.56
285.826	1939.56
286.057	2015.56
286.288	1893.56
286.52	1959.56
286.751	2059.56
286.982	2080.56
287.213	1801.56
287.444	1709.56
287.675	1781.56
287.906	1763.56
288.138	1533.56
288.369	1344.56
288.6	1271.56
288.831	1336.56
289.062	1535.56
289.293	1688.56
289.524	1615.56
289.755	1568.56
289.986	1600.56
290.217	1410.56
290.448	1111.56
290.679	971.56
290.91	903.56
291.141	916.56
291.371	957.56
291.602	945.56
291.833	981.56
292.064	1048.56
292.295	1174.56
292.526	1389.56
292.757	1411.56
292.987	1503.56
293.218	1514.56
293.449	1601.56
293.68	1661.56
293.91	1579.56
294.141	1608.56
294.372	1518.56
294.603	1399.56
294.833	1546.56
295.064	1795.56
295.295	1717.56
295.525	1294.56
295.756	1124.56
295.987	975.56
296.217	1005.56
296.448	1013.56
296.679	1055.56
296.909	1163.56
297.14	1276.56
297.37	1383.56
297.601	1301.56
297.831	1153.56
298.062	1209.56
298.292	1381.56
298.523	1512.56
298.753	1715.56
298.984	1546.56
299.214	1245.56
299.445	1073.56
299.675	1030.56
299.905	955.56
300.136	1020.56
300.366	1128.56
300.597	1117.56
300.827	976.56
301.057	961.56
301.288	998.56
301.518	1053.56
301.748	1199.56
301.979	1281.56
302.209	1381.56
302.439	1355.56
302.669	1208.56
302.9	1199.56
303.13	1105.56
303.36	1059.56
303.59	1027.56
303.82	1078.56
304.051	1181.56
304.281	1289.56
304.511	1255.56
304.741	1160.56
304.971	1165.56
305.201	1250.56
305.431	1167.56
305.661	1040.56
305.891	1031.56
306.121	1055.56
306.352	934.56
306.582	872.56
306.812	841.56
307.042	844.56
307.272	770.56
307.502	814.56
307.731	850.56
307.961	887.56
308.191	847.56
308.421	791.56
308.651	777.56
308.881	760.56
309.111	753.56
309.341	791.56
309.571	903.56
309.8	901.56
310.03	925.56
310.26	965.56
310.49	953.56
310.72	863.56
310.949	860.56
311.179	879.56
311.409	909.56
311.639	1049.56
311.868	1336.56
312.098	1721.56
312.328	1889.56
312.557	1804.56
312.787	1840.56
313.017	1627.56
313.246	1763.56
313.476	1907.56
313.706	1558.56
313.935	1258.56
314.165	1043.56
314.394	952.56
314.624	941.56
314.853	994.56
315.083	1032.56
315.312	977.56
315.542	981.56
315.771	936.56
316.001	863.56
316.23	862.56
316.46	811.56
316.689	825.56
316.919	864.56
317.148	865.56
317.377	876.56
317.607	847.56
317.836	926.56
318.065	1081.56
318.295	1199.56
318.524	1079.56
318.753	960.56
318.983	879.56
319.212	894.56
319.441	969.56
319.67	1075.56
319.9	1183.56
320.129	1097.56
320.358	925.56
320.587	927.56
320.816	974.56
321.046	1145.56
321.275	1238.56
321.504	1249.56
321.733	1201.56
321.962	1197.56
322.191	1089.56
322.42	1055.56
322.649	1079.56
322.878	1157.56
323.108	1137.56
323.337	1092.56
323.566	1049.56
323.795	999.56
324.024	1008.56
324.253	976.56
324.482	940.56
324.71	1005.56
324.939	1149.56
325.168	1103.56
325.397	923.56
325.626	892.56
325.855	889.56
326.084	901.56
326.313	846.56
326.542	819.56
326.77	871.56
326.999	886.56
327.228	956.56
327.457	989.56
327.686	988.56
327.914	855.56
328.143	813.56
328.372	810.56
328.6	817.56
328.829	850.56
329.058	869.56
329.287	861.56
329.515	888.56
329.744	859.56
329.972	819.56
330.201	785.56
330.43	829.56
330.658	916.56
330.887	1043.56
331.115	1056.56
331.344	1001.56
331.572	932.56
331.801	867.56
332.03	843.56
332.258	909.56
332.486	932.56
332.715	971.56
332.943	896.56
333.172	872.56
333.4	925.56
333.629	975.56
333.857	1101.56
334.085	1064.56
334.314	1078.56
334.542	1056.56
334.771	955.56
334.999	922.56
335.227	911.56
335.455	926.56
335.684	1015.56
335.912	1157.56
336.14	1306.56
336.369	1240.56
336.597	1186.56
336.825	1310.56
337.053	1511.56
337.281	1193.56
337.51	981.56
337.738	972.56
337.966	1009.56
338.194	1147.56
338.422	1088.56
338.65	934.56
338.878	868.56
339.106	864.56
339.334	983.56
339.562	1053.56
339.79	984.56
340.018	948.56
340.246	1008.56
340.474	1165.56
340.702	1195.56
340.93	1249.56
341.158	1254.56
341.386	1060.56
341.614	1096.56
341.842	1048.56
342.07	1134.56
342.298	1289.56
342.526	1356.56
342.754	1134.56
342.981	1058.56
343.209	1030.56
343.437	1107.56
343.665	1169.56
343.893	1125.56
344.12	1314.56
344.348	1567.56
344.576	1377.56
344.804	1160.56
345.031	1003.56
345.259	936.56
345.487	959.56
345.714	1000.56
345.942	1068.56
346.17	1151.56
346.397	1110.56
346.625	973.56
346.853	931.56
347.08	909.56
347.308	970.56
347.535	1071.56
347.763	1079.56
347.99	961.56
348.218	905.56
348.445	950.56
348.673	955.56
348.9	984.56
349.128	1013.56
349.355	1042.56
349.583	1025.56
349.81	977.56
350.037	906.56
350.265	803.56
350.492	792.56
350.72	799.56
350.947	813.56
351.174	873.56
351.402	930.56
351.629	936.56
351.856	911.56
352.083	861.56
352.311	925.56
352.538	999.56
352.765	1071.56
352.992	985.56
353.22	936.56
353.447	963.56
353.674	911.56
353.901	901.56
354.128	931.56
354.355	940.56
354.583	971.56
354.81	962.56
355.037	979.56
355.264	953.56
355.491	1023.56
355.718	1120.56
355.945	1061.56
356.172	1065.56
356.399	1053.56
356.626	1260.56
356.853	1509.56
357.08	1589.56
357.307	1667.56
357.534	1309.56
357.761	1306.56
357.988	1675.56
358.215	1906.56
358.441	1791.56
358.668	1512.56
358.895	1418.56
359.122	1159.56
359.349	1142.56
359.576	1262.56
359.802	1063.56
360.029	911.56
360.256	988.56
360.483	1212.56
360.709	1503.56
360.936	1544.56
361.163	1374.56
361.39	1045.56
361.616	1015.56
361.843	1173.56
362.07	1417.56
362.296	1299.56
362.523	1019.56
362.749	913.56
362.976	954.56
363.203	1148.56
363.429	1248.56
363.656	1017.56
363.882	944.56
364.109	965.56
364.335	960.56
364.562	949.56
364.788	1046.56
365.015	1239.56
365.241	1112.56
365.468	919.56
365.694	827.56
365.92	797.56
366.147	752.56
366.373	760.56
366.599	791.56
366.826	795.56
367.052	802.56
367.278	816.56
367.505	783.56
367.731	889.56
367.957	1010.56
368.184	993.56
368.41	963.56
368.636	988.56
368.862	979.56
369.089	951.56
369.315	866.56
369.541	867.56
369.767	857.56
369.993	807.56
370.219	827.56
370.445	867.56
370.672	953.56
370.898	1011.56
371.124	1056.56
371.35	925.56
371.576	866.56
371.802	925.56
372.028	1106.56
372.254	1248.56
372.48	1056.56
372.706	974.56
372.932	1051.56
373.158	1084.56
373.384	1303.56
373.61	1669.56
373.835	1753.56
374.061	1298.56
374.287	1102.56
374.513	1307.56
374.739	1517.56
374.965	1572.56
375.191	1559.56
375.416	1072.56
375.642	987.56
375.868	1157.56
376.094	1270.56
376.319	1145.56
376.545	1221.56
376.771	1270.56
376.997	1126.56
377.222	856.56
377.448	716.56
377.674	747.56
377.899	737.56
378.125	727.56
378.35	736.56
378.576	750.56
378.802	821.56
379.027	886.56
379.253	880.56
379.478	923.56
379.704	1010.56
379.929	1046.56
380.155	1018.56
380.38	911.56
380.606	952.56
380.831	1071.56
381.057	973.56
381.282	927.56
381.507	1104.56
381.733	1359.56
381.958	1417.56
382.184	1494.56
382.409	1572.56
382.634	1558.56
382.86	1629.56
383.085	1336.56
383.31	1111.56
383.535	1141.56
383.761	1151.56
383.986	1108.56
384.211	1326.56
384.436	1299.56
384.662	1003.56
384.887	968.56
385.112	1003.56
385.337	1024.56
385.562	951.56
385.787	1043.56
386.013	1148.56
386.238	1193.56
386.463	992.56
386.688	1004.56
386.913	925.56
387.138	893.56
387.363	943.56
387.588	953.56
387.813	976.56
388.038	1058.56
388.263	938.56
388.488	895.56
388.713	1087.56
388.938	1161.56
389.163	957.56
389.387	893.56
389.612	857.56
389.837	922.56
390.062	917.56
390.287	969.56
390.512	970.56
390.736	930.56
390.961	872.56
391.186	831.56
391.411	853.56
391.636	846.56
391.86	925.56
392.085	1006.56
392.31	978.56
392.534	933.56
392.759	937.56
392.984	954.56
393.208	961.56
393.433	860.56
393.658	807.56
393.882	792.56
394.107	800.56
394.331	784.56
394.556	802.56
394.78	806.56
395.005	824.56
395.229	840.56
395.454	831.56
395.678	856.56
395.903	913.56
396.127	856.56
396.352	886.56
396.576	939.56
396.801	988.56
397.025	1064.56
397.249	1092.56
397.474	891.56
397.698	891.56
397.922	908.56
398.147	895.56
398.371	919.56
398.595	940.56
398.82	925.56
399.044	927.56
399.268	988.56
399.492	1046.56
399.717	1046.56
399.941	1107.56
400.165	1067.56
400.389	1063.56
400.613	1044.56
400.837	1005.56
401.062	923.56
401.286	901.56
401.51	847.56
401.734	907.56
401.958	901.56
402.182	896.56
402.406	891.56
402.63	890.56
402.854	928.56
403.078	1059.56
403.302	1279.56
403.526	1301.56
403.75	1152.56
403.974	1045.56
404.198	1079.56
404.422	1212.56
404.645	1374.56
404.869	1491.56
405.093	1141.56
405.317	990.56
405.541	957.56
405.765	1022.56
405.988	994.56
406.212	1083.56
406.436	1256.56
406.66	1398.56
406.883	1113.56
407.107	1111.56
407.331	1332.56
407.555	1250.56
407.778	1089.56
408.002	1040.56
408.226	1053.56
408.449	1042.56
408.673	996.56
408.896	941.56
409.12	903.56
409.344	945.56
409.567	888.56
409.791	873.56
410.014	884.56
410.238	874.56
410.461	897.56
410.685	884.56
410.908	912.56
411.132	911.56
411.355	918.56
411.578	943.56
411.802	922.56
412.025	977.56
412.249	999.56
412.472	939.56
412.695	961.56
412.919	934.56
413.142	942.56
413.365	1047.56
413.589	1037.56
413.812	948.56
414.035	885.56
414.258	942.56
414.482	1008.56
414.705	1045.56
414.928	906.56
415.151	879.56
415.374	880.56
415.597	888.56
415.821	900.56
416.044	900.56
416.267	868.56
416.49	856.56
416.713	848.56
416.936	832.56
417.159	873.56
417.382	899.56
417.605	915.56
417.828	895.56
418.051	887.56
418.274	919.56
418.497	912.56
418.72	915.56
418.943	917.56
419.166	1005.56
419.389	1025.56
419.611	973.56
419.834	985.56
420.057	1084.56
420.28	1075.56
420.503	999.56
420.726	900.56
420.948	873.56
421.171	873.56
421.394	890.56
421.617	855.56
421.839	886.56
422.062	923.56
422.285	917.56
422.507	934.56
422.73	903.56
422.953	969.56
423.175	913.56
423.398	913.56
423.621	990.56
423.843	1027.56
424.066	983.56
424.288	926.56
424.511	912.56
424.733	892.56
424.956	937.56
425.178	1020.56
425.401	1170.56
425.623	1332.56
425.846	1118.56
426.068	1003.56
426.291	1073.56
426.513	972.56
426.735	942.56
426.958	981.56
427.18	1106.56
427.402	1406.56
427.625	1399.56
427.847	1128.56
428.069	899.56
428.292	923.56
428.514	871.56
428.736	866.56
428.958	880.56
429.181	1057.56
429.403	939.56
429.625	880.56
429.847	833.56
430.069	895.56
430.292	903.56
430.514	845.56
430.736	919.56
430.958	1139.56
431.18	1052.56
431.402	839.56
431.624	797.56
431.846	792.56
432.068	790.56
432.29	849.56
432.512	913.56
432.734	1197.56
432.956	1127.56
433.178	849.56
433.4	820.56
433.622	823.56
433.844	852.56
434.066	884.56
434.287	932.56
434.509	875.56
434.731	896.56
434.953	845.56
435.175	919.56
435.397	1021.56
435.618	872.56
435.84	825.56
436.062	813.56
436.284	822.56
436.505	803.56
436.727	807.56
436.949	796.56
437.17	821.56
437.392	857.56
437.614	838.56
437.835	803.56
438.057	854.56
438.278	967.56
438.5	1312.56
438.721	1335.56
438.943	925.56
439.165	791.56
439.386	784.56
439.608	800.56
439.829	801.56
440.05	813.56
440.272	821.56
440.493	943.56
440.715	1183.56
440.936	963.56
441.158	835.56
441.379	868.56
441.6	959.56
441.822	1009.56
442.043	883.56
442.264	871.56
442.486	888.56
442.707	856.56
442.928	870.56
443.149	875.56
443.371	889.56
443.592	923.56
443.813	924.56
444.034	902.56
444.255	882.56
444.476	942.56
444.698	929.56
444.919	948.56
445.14	985.56
445.361	995.56
445.582	935.56
445.803	947.56
446.024	927.56
446.245	932.56
446.466	907.56
446.687	880.56
446.908	861.56
447.129	827.56
447.35	815.56
447.571	784.56
447.792	791.56
448.013	779.56
448.234	772.56
448.455	813.56
448.675	811.56
448.896	820.56
449.117	782.56
449.338	805.56
449.559	821.56
449.779	863.56
450	833.56
450.221	823.56
450.442	812.56
450.662	767.56
450.883	802.56
451.104	808.56
451.324	814.56
451.545	815.56
451.766	792.56
451.986	781.56
452.207	767.56
452.428	778.56
452.648	789.56
452.869	791.56
453.089	828.56
453.31	806.56
453.53	737.56
453.751	749.56
453.971	729.56
454.192	752.56
454.412	791.56
454.633	730.56
454.853	733.56
455.073	731.56
455.294	728.56
455.514	751.56
455.734	784.56
455.955	802.56
456.175	820.56
456.395	752.56
456.616	717.56
456.836	702.56
457.056	707.56
457.276	675.56
457.497	713.56
457.717	723.56
457.937	709.56
458.157	699.56
458.377	726.56
458.598	735.56
458.818	763.56
459.038	841.56
459.258	828.56
459.478	838.56
459.698	885.56
459.918	881.56
460.138	888.56
460.358	883.56
460.578	872.56
460.798	893.56
461.018	902.56
461.238	835.56
461.458	852.56
461.678	837.56
461.898	923.56
462.118	933.56
462.338	920.56
462.558	963.56
462.777	984.56
462.997	1016.56
463.217	1015.56
463.437	1040.56
463.657	1024.56
463.876	934.56
464.096	935.56
464.316	947.56
464.536	949.56
464.755	973.56
464.975	965.56
465.195	932.56
465.414	993.56
465.634	971.56
465.854	941.56
466.073	856.56
466.293	871.56
466.512	948.56
466.732	999.56
466.951	1005.56
467.171	901.56
467.391	876.56
467.61	848.56
467.829	938.56
468.049	941.56
468.268	876.56
468.488	871.56
468.707	923.56
468.927	1051.56
469.146	1124.56
469.365	1025.56
469.585	939.56
469.804	1012.56
470.023	1091.56
470.243	972.56
470.462	905.56
470.681	885.56
470.901	930.56
471.12	970.56
471.339	989.56
471.558	920.56
471.777	925.56
471.997	997.56
472.216	1103.56
472.435	1068.56
472.654	965.56
472.873	919.56
473.092	1016.56
473.311	1053.56
473.53	974.56
473.749	923.56
473.968	949.56
474.187	949.56
474.406	918.56
474.625	903.56
474.844	941.56
475.063	1028.56
475.282	998.56
475.501	1069.56
475.72	1098.56
475.939	1060.56
476.158	1052.56
476.377	1227.56
476.596	1445.56
476.814	1501.56
477.033	1252.56
477.252	1078.56
477.471	988.56
477.69	988.56
477.908	1094.56
478.127	1162.56
478.346	1057.56
478.564	1147.56
478.783	1069.56
479.002	1103.56
479.22	1275.56
479.439	1393.56
479.658	1215.56
479.876	1108.56
480.095	1203.56
480.313	1231.56
480.532	1134.56
480.751	1106.56
480.969	1134.56
481.188	1264.56
481.406	1303.56
481.624	1233.56
481.843	1064.56
482.061	1034.56
482.28	1219.56
482.498	1435.56
482.717	1356.56
482.935	1188.56
483.153	1116.56
483.372	1043.56
483.59	1045.56
483.808	1035.56
484.027	1012.56
484.245	1003.56
484.463	931.56
484.681	1033.56
484.9	1116.56
485.118	1187.56
485.336	1110.56
485.554	1023.56
485.772	1056.56
485.99	1177.56
486.209	1216.56
486.427	1179.56
486.645	1153.56
486.863	1208.56
487.081	1227.56
487.299	1337.56
487.517	1307.56
487.735	1209.56
487.953	1260.56
488.171	1229.56
488.389	1195.56
488.607	1095.56
488.825	1167.56
489.043	1254.56
489.261	1401.56
489.479	1518.56
489.696	1243.56
489.914	1180.56
490.132	1096.56
490.35	1111.56
490.568	1155.56
490.786	1108.56
491.003	1124.56
491.221	1132.56
491.439	1111.56
491.657	1134.56
491.874	1222.56
492.092	1453.56
492.31	1696.56
492.527	1676.56
492.745	1499.56
492.963	1301.56
493.18	1279.56
493.398	1334.56
493.615	1271.56
493.833	1239.56
494.05	1204.56
494.268	1241.56
494.485	1275.56
494.703	1200.56
494.92	1213.56
495.138	1189.56
495.355	1202.56
495.573	1223.56
495.79	1349.56
496.008	1709.56
496.225	1512.56
496.442	1341.56
496.66	1334.56
496.877	1413.56
497.094	1395.56
497.312	1317.56
497.529	1315.56
497.746	1335.56
497.963	1361.56
498.181	1475.56
498.398	1544.56
498.615	1620.56
498.832	1672.56
499.049	1655.56
499.267	1521.56
499.484	1559.56
499.701	1617.56
499.918	1687.56
500.135	1879.56
500.352	1927.56
500.569	1949.56
500.786	2033.56
501.003	2008.56
501.22	1834.56
501.437	1729.56
501.654	1669.56
501.871	1598.56
502.088	1620.56
502.305	1489.56
502.522	1506.56
502.739	1471.56
502.956	1395.56
503.172	1365.56
503.389	1303.56
503.606	1296.56
503.823	1296.56
504.04	1298.56
504.256	1316.56
504.473	1338.56
504.69	1360.56
504.907	1367.56
505.123	1391.56
505.34	1417.56
505.557	1398.56
505.773	1317.56
505.99	1292.56
506.207	1351.56
506.423	1282.56
506.64	1175.56
506.856	1247.56
507.073	1357.56
507.289	1334.56
507.506	1289.56
507.722	1353.56
507.939	1408.56
508.155	1414.56
508.372	1271.56
508.588	1265.56
508.805	1231.56
509.021	1213.56
509.238	1169.56
509.454	1179.56
509.67	1146.56
509.887	1183.56
510.103	1316.56
510.319	1279.56
510.536	1179.56
510.752	1102.56
510.968	1066.56
511.184	1024.56
511.401	1023.56
511.617	1031.56
511.833	1050.56
512.049	1069.56
512.265	1083.56
512.481	1090.56
512.698	1246.56
512.914	1347.56
513.13	1224.56
513.346	1093.56
513.562	1188.56
513.778	1166.56
513.994	1136.56
514.21	1224.56
514.426	1183.56
514.642	1149.56
514.858	1121.56
515.074	1158.56
515.29	1266.56
515.506	1404.56
515.721	1340.56
515.937	1218.56
516.153	1135.56
516.369	1160.56
516.585	1227.56
516.801	1355.56
517.016	1572.56
517.232	1515.56
517.448	1481.56
517.664	1394.56
517.879	1266.56
518.095	1269.56
518.311	1252.56
518.527	1315.56
518.742	1354.56
518.958	1470.56
519.173	1378.56
519.389	1320.56
519.605	1382.56
519.82	1456.56
520.036	1686.56
520.251	1684.56
520.467	1527.56
520.682	2256.56
520.898	2712.56
521.113	2577.56
521.329	1691.56
521.544	1515.56
521.76	1510.56
521.975	1320.56
522.19	1255.56
522.406	1310.56
522.621	1463.56
522.836	1476.56
523.052	1522.56
523.267	1247.56
523.482	1259.56
523.698	1344.56
523.913	1326.56
524.128	1205.56
524.343	1146.56
524.559	1179.56
524.774	1142.56
524.989	1131.56
525.204	1176.56
525.419	1289.56
525.634	1234.56
525.849	1222.56
526.064	1282.56
526.28	1243.56
526.495	1429.56
526.71	1512.56
526.925	1297.56
527.14	1357.56
527.355	1282.56
527.57	1128.56
527.785	1169.56
527.999	1141.56
528.214	1067.56
528.429	1025.56
528.644	1087.56
528.859	1027.56
529.074	1001.56
529.289	987.56
529.503	989.56
529.718	994.56
529.933	1151.56
530.148	1181.56
530.363	1039.56
530.577	1000.56
530.792	1004.56
531.007	992.56
531.221	967.56
531.436	992.56
531.651	984.56
531.865	992.56
532.08	989.56
532.295	1009.56
532.509	1029.56
532.724	1148.56
532.938	1277.56
533.153	1433.56
533.367	1199.56
533.582	1175.56
533.796	1099.56
534.011	1039.56
534.225	1050.56
534.44	1060.56
534.654	1101.56
534.868	1274.56
535.083	1118.56
535.297	1023.56
535.511	1023.56
535.726	1103.56
535.94	1065.56
536.154	1013.56
536.369	973.56
536.583	969.56
536.797	996.56
537.011	1025.56
537.225	1080.56
537.44	1147.56
537.654	1033.56
537.868	1016.56
538.082	986.56
538.296	971.56
538.51	1056.56
538.724	1097.56
538.938	1032.56
539.153	986.56
539.367	956.56
539.581	961.56
539.795	1052.56
540.009	1111.56
540.222	1065.56
540.436	1036.56
540.65	1135.56
540.864	1101.56
541.078	1139.56
541.292	1296.56
541.506	1090.56
541.72	1019.56
541.934	1053.56
542.147	1043.56
542.361	1013.56
542.575	1037.56
542.789	1015.56
543.002	948.56
543.216	1059.56
543.43	946.56
543.644	918.56
543.857	913.56
544.071	929.56
544.285	935.56
544.498	891.56
544.712	902.56
544.925	967.56
545.139	948.56
545.352	906.56
545.566	923.56
545.779	1034.56
545.993	953.56
546.206	901.56
546.42	869.56
546.633	853.56
546.847	835.56
547.06	859.56
547.274	853.56
547.487	838.56
547.7	963.56
547.914	1015.56
548.127	1083.56
548.34	1064.56
548.554	959.56
548.767	984.56
548.98	1023.56
549.193	975.56
549.407	999.56
549.62	1196.56
549.833	1091.56
550.046	1141.56
550.259	1132.56
550.473	1017.56
550.686	953.56
550.899	964.56
551.112	992.56
551.325	1019.56
551.538	1092.56
551.751	966.56
551.964	897.56
552.177	899.56
552.39	870.56
552.603	902.56
552.816	921.56
553.029	895.56
553.242	885.56
553.455	930.56
553.667	999.56
553.88	959.56
554.093	896.56
554.306	814.56
554.519	817.56
554.732	783.56
554.944	784.56
555.157	775.56
555.37	767.56
555.583	779.56
555.795	809.56
556.008	797.56
556.221	793.56
556.433	786.56
556.646	783.56
556.859	790.56
557.071	803.56
557.284	809.56
557.496	817.56
557.709	827.56
557.921	773.56
558.134	753.56
558.346	703.56
558.559	720.56
558.771	764.56
558.984	801.56
559.196	751.56
559.409	741.56
559.621	690.56
559.833	709.56
560.046	696.56
560.258	716.56
560.47	731.56
560.683	725.56
560.895	684.56
561.107	689.56
561.32	658.56
561.532	689.56
561.744	717.56
561.956	799.56
562.168	705.56
562.381	656.56
562.593	706.56
562.805	725.56
563.017	690.56
563.229	686.56
563.441	663.56
563.653	693.56
563.865	702.56
564.077	683.56
564.289	664.56
564.501	707.56
564.713	709.56
564.925	739.56
565.137	680.56
565.349	698.56
565.561	712.56
565.773	715.56
565.985	736.56
566.197	783.56
566.408	833.56
566.62	860.56
566.832	856.56
567.044	831.56
567.255	919.56
567.467	972.56
567.679	871.56
567.891	888.56
568.102	881.56
568.314	887.56
568.526	846.56
568.737	833.56
568.949	852.56
569.161	760.56
569.372	681.56
569.584	679.56
569.795	675.56
570.007	717.56
570.218	766.56
570.43	713.56
570.641	694.56
570.853	662.56
571.064	658.56
571.276	681.56
571.487	725.56
571.698	667.56
571.91	652.56
572.121	653.56
572.333	607.56
572.544	613.56
572.755	637.56
572.966	602.56
573.178	588.56
573.389	652.56
573.6	650.56
573.811	619.56
574.023	564.56
574.234	559.56
574.445	576.56
574.656	573.56
574.867	579.56
575.078	603.56
575.289	592.56
575.501	618.56
575.712	593.56
575.923	559.56
576.134	527.56
576.345	547.56
576.556	552.56
576.767	532.56
576.978	516.56
577.188	511.56
577.399	507.56
577.61	544.56
577.821	513.56
578.032	539.56
578.243	567.56
578.454	562.56
578.665	561.56
578.875	547.56
579.086	549.56
579.297	577.56
579.508	555.56
579.718	563.56
579.929	546.56
580.14	532.56
580.35	508.56
580.561	514.56
580.772	499.56
580.982	466.56
581.193	461.56
581.403	481.56
581.614	470.56
581.825	459.56
582.035	451.56
582.246	443.56
582.456	463.56
582.667	479.56
582.877	465.56
583.087	442.56
583.298	474.56
583.508	451.56
583.719	458.56
583.929	491.56
584.139	459.56
584.35	440.56
584.56	461.56
584.77	468.56
584.981	479.56
585.191	456.56
585.401	456.56
585.611	494.56
585.821	512.56
586.032	484.56
586.242	480.56
586.452	452.56
586.662	470.56
586.872	491.56
587.082	499.56
587.292	488.56
587.502	464.56
587.713	462.56
587.923	451.56
588.133	509.56
588.343	484.56
588.553	443.56
588.762	442.56
588.972	464.56
589.182	456.56
589.392	440.56
589.602	463.56
589.812	487.56
590.022	512.56
590.232	535.56
590.441	462.56
590.651	451.56
590.861	467.56
591.071	448.56
591.281	449.56
591.49	461.56
591.7	444.56
591.91	450.56
592.119	430.56
592.329	454.56
592.539	446.56
592.748	472.56
592.958	472.56
593.167	456.56
593.377	466.56
593.587	493.56
593.796	493.56
594.006	469.56
594.215	483.56
594.424	514.56
594.634	497.56
594.843	480.56
595.053	469.56
595.262	448.56
595.472	456.56
595.681	432.56
595.89	422.56
596.1	423.56
596.309	447.56
596.518	421.56
596.727	411.56
596.937	424.56
597.146	442.56
597.355	458.56
597.564	427.56
597.774	404.56
597.983	405.56
598.192	417.56
598.401	417.56
598.61	393.56
598.819	397.56
599.028	406.56
599.237	398.56
599.446	380.56
599.655	373.56
599.864	375.56
600.073	361.56
600.282	379.56
600.491	401.56
600.7	388.56
600.909	405.56
601.118	389.56
601.327	373.56
601.536	407.56
601.745	375.56
601.953	401.56
602.162	383.56
602.371	402.56
602.58	408.56
602.789	391.56
602.997	366.56
603.206	381.56
603.415	395.56
603.623	366.56
603.832	372.56
604.041	372.56
604.249	358.56
604.458	387.56
604.666	367.56
604.875	354.56
605.084	371.56
605.292	347.56
605.501	347.56
605.709	389.56
605.918	361.56
606.126	358.56
606.334	360.56
606.543	371.56
606.751	360.56
606.96	356.56
607.168	338.56
607.376	347.56
607.585	361.56
607.793	371.56
608.001	349.56
608.21	360.56
608.418	369.56
608.626	358.56
608.834	335.56
609.043	343.56
609.251	338.56
609.459	335.56
609.667	335.56
609.875	342.56
610.083	347.56
610.291	365.56
610.499	356.56
610.707	338.56
610.916	322.56
611.124	341.56
611.332	331.56
611.54	317.56
611.748	335.56
611.955	324.56
612.163	334.56
612.371	336.56
612.579	322.56
612.787	327.56
612.995	320.56
613.203	333.56
613.411	343.56
613.618	352.56
613.826	348.56
614.034	355.56
614.242	352.56
614.449	328.56
614.657	324.56
614.865	327.56
615.072	317.56
615.28	327.56
615.488	323.56
615.695	324.56
615.903	340.56
616.111	334.56
616.318	340.56
616.526	321.56
616.733	322.56
616.941	325.56
617.148	328.56
617.356	304.56
617.563	326.56
617.771	324.56
617.978	316.56
618.185	320.56
618.393	326.56
618.6	311.56
618.807	310.56
619.015	321.56
619.222	319.56
619.429	311.56
619.637	324.56
619.844	301.56
620.051	309.56
620.258	301.56
620.466	301.56
620.673	287.56
620.88	304.56
621.087	291.56
621.294	295.56
621.501	293.56
621.708	306.56
621.915	309.56
622.122	307.56
622.329	303.56
622.536	299.56
622.743	301.56
622.95	292.56
623.157	293.56
623.364	308.56
623.571	309.56
623.778	313.56
623.985	317.56
624.192	315.56
624.399	298.56
624.606	323.56
624.812	288.56
625.019	295.56
625.226	316.56
625.433	314.56
625.639	284.56
625.846	270.56
626.053	283.56
626.259	271.56
626.466	287.56
626.673	323.56
626.879	271.56
627.086	272.56
627.293	275.56
627.499	283.56
627.706	273.56
627.912	255.56
628.119	272.56
628.325	281.56
628.532	278.56
628.738	268.56
628.945	257.56
629.151	270.56
629.357	260.56
629.564	255.56
629.77	270.56
629.976	273.56
630.183	270.56
630.389	248.56
630.595	260.56
630.802	259.56
631.008	264.56
631.214	230.56
631.42	251.56
631.627	271.56
631.833	252.56
632.039	237.56
632.245	257.56
632.451	230.56
632.657	236.56
632.863	249.56
633.069	226.56
633.275	241.56
633.481	249.56
633.688	250.56
633.893	238.56
634.099	240.56
634.305	239.56
634.511	248.56
634.717	226.56
634.923	237.56
635.129	219.56
635.335	253.56
635.541	231.56
635.747	231.56
635.952	218.56
636.158	245.56
636.364	248.56
636.57	249.56
636.775	249.56
636.981	241.56
637.187	224.56
637.392	225.56
637.598	221.56
637.804	244.56
638.009	223.56
638.215	225.56
638.421	244.56
638.626	222.56
638.832	221.56
639.037	224.56
639.243	246.56
639.448	235.56
639.654	237.56
639.859	227.56
640.065	221.56
640.27	231.56
640.475	241.56
640.681	228.56
640.886	203.56
641.091	218.56
641.297	231.56
641.502	238.56
641.707	235.56
641.913	216.56
642.118	227.56
642.323	225.56
642.528	203.56
642.733	224.56
642.939	223.56
643.144	235.56
643.349	205.56
643.554	215.56
643.759	220.56
643.964	192.56
644.169	240.56
644.374	222.56
644.579	212.56
644.784	232.56
644.989	193.56
645.194	214.56
645.399	198.56
645.604	204.56
645.809	201.56
646.014	212.56
646.219	211.56
646.423	212.56
646.628	200.56
646.833	209.56
647.038	217.56
647.243	196.56
647.447	207.56
647.652	200.56
647.857	212.56
648.062	207.56
648.266	215.56
648.471	204.56
648.676	216.56
648.88	208.56
649.085	208.56
649.289	212.56
649.494	207.56
649.698	213.56
649.903	212.56
650.107	206.56
650.312	206.56
650.516	200.56
650.721	205.56
650.925	184.56
651.13	194.56
651.334	177.56
651.539	190.56
651.743	166.56
651.947	180.56
652.152	192.56
652.356	182.56
652.56	169.56
652.764	178.56
652.969	171.56
653.173	176.56
653.377	169.56
653.581	168.56
653.785	155.56
653.99	175.56
654.194	175.56
654.398	160.56
654.602	157.56
654.806	175.56
655.01	174.56
655.214	161.56
655.418	188.56
655.622	167.56
655.826	152.56
656.03	161.56
656.234	156.56
656.438	159.56
656.642	156.56
656.846	153.56
657.049	153.56
657.253	141.56
657.457	155.56
657.661	139.56
657.865	128.56
658.068	111.56
658.272	137.56
658.476	121.56
658.68	104.56
658.883	106.56
659.087	105.56
659.291	127.56
659.494	99.56
659.698	97.56
659.901	125.56
660.105	98.56
660.309	100.56
660.512	108.56
660.716	102.56
660.919	97.56
661.123	100.56
661.326	105.56
661.53	106.56
661.733	91.56
661.936	103.56
662.14	78.56
662.343	92.56
662.546	110.56
662.75	87.56
662.953	87.56
663.156	82.56
663.36	87.56
663.563	88.56
663.766	76.56
663.969	87.56
664.173	84.56
664.376	85.56
664.579	87.56
664.782	83.56
664.985	88.56
665.188	73.56
665.391	88.56
665.594	88.56
665.797	79.56
666	85.56
666.203	89.56
666.406	75.56
666.609	90.56
666.812	79.56
667.015	81.56
667.218	93.56
667.421	82.56
667.624	77.56
667.827	88.56
668.03	95.56
668.232	87.56
668.435	75.56
668.638	82.56
668.841	85.56
669.043	87.56
669.246	79.56
669.449	88.56
669.651	90.56
669.854	80.56
670.057	92.56
670.259	73.56
670.462	82.56
670.665	77.56
670.867	84.56
671.07	84.56
671.272	87.56
671.475	84.56
671.677	95.56
671.88	75.56
672.082	81.56
672.284	79.56
672.487	78.56
672.689	78.56
672.892	83.56
