Data from NickelSpatula.Lamp.E10.P2_HRD10591_11-57-00-534.txt Node
Date: Tue Jul 23 11:57:00 EDT 2019
User: cochatt
Spectrometer: HR+D1059
Trigger mode: 1
Integration Time (sec): 1.000000E-1
Scans to average: 1
Electric dark correction enabled: true
Nonlinearity correction enabled: false
Boxcar width: 0
XAxis mode: Wavelengths
Number of Pixels in Spectrum: 2048
>>>>>Begin Spectral Data<<<<<
223.165	-21.06
223.4	-21.06
223.635	-21.06
223.869	-31.06
224.104	-2.06
224.338	0.94
224.573	-21.06
224.808	-20.06
225.042	2.94
225.277	-7.06
225.511	-6.06
225.746	-1.06
225.98	11.94
226.215	18.94
226.449	15.94
226.683	18.94
226.918	17.94
227.152	21.94
227.387	37.94
227.621	30.94
227.856	40.94
228.09	33.94
228.324	43.94
228.559	47.94
228.793	74.94
229.027	143.94
229.262	159.94
229.496	164.94
229.73	180.94
229.964	186.94
230.199	205.94
230.433	227.94
230.667	191.94
230.901	184.94
231.136	180.94
231.37	195.94
231.604	216.94
231.838	240.94
232.072	252.94
232.306	230.94
232.541	232.94
232.775	221.94
233.009	244.94
233.243	284.94
233.477	300.94
233.711	315.94
233.945	322.94
234.179	292.94
234.413	319.94
234.647	375.94
234.881	448.94
235.115	400.94
235.349	376.94
235.583	349.94
235.817	324.94
236.051	341.94
236.285	388.94
236.519	436.94
236.753	379.94
236.987	411.94
237.221	375.94
237.455	373.94
237.689	398.94
237.922	447.94
238.156	455.94
238.39	512.94
238.624	613.94
238.858	550.94
239.091	465.94
239.325	454.94
239.559	432.94
239.793	499.94
240.027	600.94
240.26	562.94
240.494	549.94
240.728	570.94
240.961	604.94
241.195	580.94
241.429	588.94
241.662	596.94
241.896	486.94
242.13	463.94
242.363	428.94
242.597	450.94
242.83	509.94
243.064	508.94
243.298	544.94
243.531	604.94
243.765	599.94
243.998	594.94
244.232	575.94
244.465	543.94
244.699	546.94
244.932	629.94
245.166	578.94
245.399	518.94
245.633	506.94
245.866	539.94
246.099	584.94
246.333	685.94
246.566	712.94
246.8	696.94
247.033	678.94
247.266	644.94
247.5	613.94
247.733	610.94
247.966	609.94
248.2	642.94
248.433	702.94
248.666	762.94
248.899	775.94
249.133	773.94
249.366	904.94
249.599	987.94
249.832	878.94
250.066	757.94
250.299	792.94
250.532	760.94
250.765	735.94
250.998	693.94
251.231	656.94
251.465	736.94
251.698	782.94
251.931	750.94
252.164	811.94
252.397	875.94
252.63	976.94
252.863	1086.94
253.096	1096.94
253.329	1033.94
253.562	1034.94
253.795	1134.94
254.028	1236.94
254.261	1258.94
254.494	1141.94
254.727	1033.94
254.96	1024.94
255.193	1115.94
255.426	1008.94
255.659	787.94
255.892	755.94
256.124	824.94
256.357	958.94
256.59	1132.94
256.823	1062.94
257.056	890.94
257.289	879.94
257.521	914.94
257.754	1052.94
257.987	1215.94
258.22	1053.94
258.452	931.94
258.685	1064.94
258.918	1199.94
259.151	1160.94
259.383	1238.94
259.616	1428.94
259.849	1448.94
260.081	1597.94
260.314	1748.94
260.547	1356.94
260.779	1402.94
261.012	1603.94
261.244	1538.94
261.477	1530.94
261.71	1400.94
261.942	1220.94
262.175	1200.94
262.407	1149.94
262.64	1172.94
262.872	1394.94
263.105	1493.94
263.337	1617.94
263.57	1428.94
263.802	974.94
264.035	868.94
264.267	838.94
264.499	757.94
264.732	649.94
264.964	642.94
265.197	690.94
265.429	728.94
265.661	776.94
265.894	812.94
266.126	858.94
266.358	966.94
266.591	1140.94
266.823	1387.94
267.055	1336.94
267.287	1205.94
267.52	1179.94
267.752	1229.94
267.984	1377.94
268.216	1298.94
268.448	1078.94
268.681	1031.94
268.913	1144.94
269.145	1220.94
269.377	1242.94
269.609	1244.94
269.841	1147.94
270.073	1213.94
270.306	1294.94
270.538	1324.94
270.77	1335.94
271.002	1320.94
271.234	1408.94
271.466	1378.94
271.698	1320.94
271.93	1325.94
272.162	1296.94
272.394	1275.94
272.626	1316.94
272.858	1338.94
273.09	1359.94
273.322	1218.94
273.553	1149.94
273.785	1352.94
274.017	1770.94
274.249	2215.94
274.481	2300.94
274.713	2505.94
274.945	2915.94
275.176	2979.94
275.408	2607.94
275.64	2423.94
275.872	2376.94
276.104	2023.94
276.335	1755.94
276.567	1787.94
276.799	1802.94
277.031	1886.94
277.262	1487.94
277.494	1160.94
277.726	1082.94
277.957	1215.94
278.189	1361.94
278.421	1358.94
278.652	1332.94
278.884	1243.94
279.115	1183.94
279.347	1117.94
279.579	1100.94
279.81	1131.94
280.042	1106.94
280.273	1138.94
280.505	1094.94
280.736	990.94
280.968	979.94
281.199	1036.94
281.431	1146.94
281.662	1157.94
281.894	1122.94
282.125	1165.94
282.356	1260.94
282.588	1315.94
282.819	1202.94
283.051	1294.94
283.282	1591.94
283.513	1838.94
283.745	2000.94
283.976	1985.94
284.207	1858.94
284.439	1912.94
284.67	1830.94
284.901	1667.94
285.132	1786.94
285.364	1834.94
285.595	1713.94
285.826	1845.94
286.057	1906.94
286.288	1770.94
286.52	1867.94
286.751	1908.94
286.982	1929.94
287.213	1672.94
287.444	1619.94
287.675	1712.94
287.906	1714.94
288.138	1439.94
288.369	1294.94
288.6	1239.94
288.831	1290.94
289.062	1487.94
289.293	1598.94
289.524	1527.94
289.755	1484.94
289.986	1541.94
290.217	1342.94
290.448	1084.94
290.679	897.94
290.91	890.94
291.141	882.94
291.371	913.94
291.602	939.94
291.833	916.94
292.064	996.94
292.295	1117.94
292.526	1285.94
292.757	1350.94
292.987	1430.94
293.218	1450.94
293.449	1499.94
293.68	1579.94
293.91	1530.94
294.141	1496.94
294.372	1439.94
294.603	1339.94
294.833	1454.94
295.064	1704.94
295.295	1620.94
295.525	1235.94
295.756	1046.94
295.987	942.94
296.217	921.94
296.448	932.94
296.679	1014.94
296.909	1089.94
297.14	1169.94
297.37	1312.94
297.601	1235.94
297.831	1070.94
298.062	1163.94
298.292	1290.94
298.523	1400.94
298.753	1582.94
298.984	1410.94
299.214	1121.94
299.445	998.94
299.675	910.94
299.905	926.94
300.136	961.94
300.366	1052.94
300.597	1006.94
300.827	894.94
301.057	871.94
301.288	925.94
301.518	952.94
301.748	1070.94
301.979	1139.94
302.209	1221.94
302.439	1232.94
302.669	1096.94
302.9	1081.94
303.13	1068.94
303.36	996.94
303.59	980.94
303.82	1023.94
304.051	1121.94
304.281	1218.94
304.511	1201.94
304.741	1037.94
304.971	1109.94
305.201	1167.94
305.431	1082.94
305.661	968.94
305.891	965.94
306.121	957.94
306.352	861.94
306.582	814.94
306.812	764.94
307.042	781.94
307.272	711.94
307.502	759.94
307.731	802.94
307.961	828.94
308.191	795.94
308.421	748.94
308.651	756.94
308.881	711.94
309.111	734.94
309.341	778.94
309.571	824.94
309.8	876.94
310.03	838.94
310.26	863.94
310.49	887.94
310.72	815.94
310.949	796.94
311.179	845.94
311.409	872.94
311.639	1038.94
311.868	1253.94
312.098	1630.94
312.328	1765.94
312.557	1726.94
312.787	1734.94
313.017	1555.94
313.246	1651.94
313.476	1810.94
313.706	1484.94
313.935	1195.94
314.165	957.94
314.394	880.94
314.624	885.94
314.853	944.94
315.083	953.94
315.312	916.94
315.542	923.94
315.771	827.94
316.001	814.94
316.23	773.94
316.46	782.94
316.689	810.94
316.919	842.94
317.148	836.94
317.377	820.94
317.607	831.94
317.836	875.94
318.065	996.94
318.295	1150.94
318.524	1032.94
318.753	884.94
318.983	878.94
319.212	894.94
319.441	911.94
319.67	1029.94
319.9	1082.94
320.129	1011.94
320.358	913.94
320.587	880.94
320.816	928.94
321.046	1052.94
321.275	1169.94
321.504	1137.94
321.733	1100.94
321.962	1098.94
322.191	1019.94
322.42	973.94
322.649	949.94
322.878	1060.94
323.108	1060.94
323.337	1002.94
323.566	1007.94
323.795	959.94
324.024	944.94
324.253	893.94
324.482	890.94
324.71	964.94
324.939	1042.94
325.168	998.94
325.397	861.94
325.626	855.94
325.855	839.94
326.084	855.94
326.313	829.94
326.542	772.94
326.77	820.94
326.999	830.94
327.228	860.94
327.457	898.94
327.686	905.94
327.914	855.94
328.143	783.94
328.372	775.94
328.6	789.94
328.829	790.94
329.058	829.94
329.287	818.94
329.515	847.94
329.744	791.94
329.972	796.94
330.201	754.94
330.43	790.94
330.658	877.94
330.887	1007.94
331.115	953.94
331.344	941.94
331.572	924.94
331.801	823.94
332.03	800.94
332.258	816.94
332.486	882.94
332.715	888.94
332.943	863.94
333.172	843.94
333.4	903.94
333.629	985.94
333.857	1051.94
334.085	1050.94
334.314	1020.94
334.542	957.94
334.771	903.94
334.999	910.94
335.227	894.94
335.455	876.94
335.684	971.94
335.912	1117.94
336.14	1212.94
336.369	1170.94
336.597	1138.94
336.825	1257.94
337.053	1351.94
337.281	1137.94
337.51	932.94
337.738	905.94
337.966	975.94
338.194	1078.94
338.422	1013.94
338.65	878.94
338.878	820.94
339.106	843.94
339.334	921.94
339.562	971.94
339.79	910.94
340.018	886.94
340.246	947.94
340.474	1087.94
340.702	1136.94
340.93	1175.94
341.158	1179.94
341.386	983.94
341.614	1006.94
341.842	996.94
342.07	1069.94
342.298	1216.94
342.526	1264.94
342.754	1052.94
342.981	995.94
343.209	945.94
343.437	996.94
343.665	1090.94
343.893	1060.94
344.12	1222.94
344.348	1418.94
344.576	1246.94
344.804	1055.94
345.031	934.94
345.259	896.94
345.487	943.94
345.714	933.94
345.942	976.94
346.17	1085.94
346.397	1024.94
346.625	933.94
346.853	878.94
347.08	874.94
347.308	892.94
347.535	992.94
347.763	1030.94
347.99	869.94
348.218	860.94
348.445	904.94
348.673	896.94
348.9	897.94
349.128	949.94
349.355	982.94
349.583	950.94
349.81	928.94
350.037	891.94
350.265	760.94
350.492	722.94
350.72	738.94
350.947	782.94
351.174	814.94
351.402	843.94
351.629	859.94
351.856	859.94
352.083	812.94
352.311	863.94
352.538	931.94
352.765	1005.94
352.992	894.94
353.22	878.94
353.447	895.94
353.674	845.94
353.901	838.94
354.128	845.94
354.355	856.94
354.583	854.94
354.81	886.94
355.037	888.94
355.264	890.94
355.491	935.94
355.718	991.94
355.945	978.94
356.172	949.94
356.399	925.94
356.626	1136.94
356.853	1326.94
357.08	1409.94
357.307	1406.94
357.534	1117.94
357.761	1184.94
357.988	1444.94
358.215	1665.94
358.441	1558.94
358.668	1329.94
358.895	1265.94
359.122	1077.94
359.349	1068.94
359.576	1124.94
359.802	956.94
360.029	854.94
360.256	927.94
360.483	1063.94
360.709	1345.94
360.936	1366.94
361.163	1199.94
361.39	974.94
361.616	917.94
361.843	1056.94
362.07	1271.94
362.296	1134.94
362.523	922.94
362.749	874.94
362.976	892.94
363.203	1031.94
363.429	1117.94
363.656	924.94
363.882	860.94
364.109	890.94
364.335	887.94
364.562	861.94
364.788	964.94
365.015	1106.94
365.241	968.94
365.468	847.94
365.694	757.94
365.92	758.94
366.147	753.94
366.373	706.94
366.599	735.94
366.826	738.94
367.052	748.94
367.278	762.94
367.505	762.94
367.731	814.94
367.957	890.94
368.184	892.94
368.41	877.94
368.636	885.94
368.862	897.94
369.089	876.94
369.315	807.94
369.541	827.94
369.767	797.94
369.993	768.94
370.219	786.94
370.445	820.94
370.672	897.94
370.898	931.94
371.124	934.94
371.35	852.94
371.576	789.94
371.802	888.94
372.028	1004.94
372.254	1108.94
372.48	995.94
372.706	924.94
372.932	929.94
373.158	991.94
373.384	1153.94
373.61	1474.94
373.835	1458.94
374.061	1150.94
374.287	1003.94
374.513	1164.94
374.739	1327.94
374.965	1382.94
375.191	1384.94
375.416	997.94
375.642	924.94
375.868	1048.94
376.094	1192.94
376.319	997.94
376.545	1068.94
376.771	1132.94
376.997	976.94
377.222	796.94
377.448	703.94
377.674	707.94
377.899	730.94
378.125	698.94
378.35	705.94
378.576	730.94
378.802	766.94
379.027	828.94
379.253	786.94
379.478	836.94
379.704	910.94
379.929	942.94
380.155	920.94
380.38	831.94
380.606	897.94
380.831	990.94
381.057	900.94
381.282	871.94
381.507	1010.94
381.733	1246.94
381.958	1268.94
382.184	1360.94
382.409	1397.94
382.634	1388.94
382.86	1412.94
383.085	1195.94
383.31	997.94
383.535	1027.94
383.761	1077.94
383.986	1025.94
384.211	1211.94
384.436	1153.94
384.662	929.94
384.887	890.94
385.112	909.94
385.337	903.94
385.562	917.94
385.787	971.94
386.013	1042.94
386.238	1088.94
386.463	913.94
386.688	916.94
386.913	878.94
387.138	822.94
387.363	878.94
387.588	871.94
387.813	902.94
388.038	948.94
388.263	882.94
388.488	860.94
388.713	975.94
388.938	1022.94
389.163	928.94
389.387	849.94
389.612	844.94
389.837	833.94
390.062	880.94
390.287	905.94
390.512	878.94
390.736	890.94
390.961	847.94
391.186	788.94
391.411	782.94
391.636	803.94
391.86	851.94
392.085	881.94
392.31	902.94
392.534	878.94
392.759	840.94
392.984	900.94
393.208	863.94
393.433	805.94
393.658	781.94
393.882	746.94
394.107	753.94
394.331	777.94
394.556	752.94
394.78	795.94
395.005	794.94
395.229	812.94
395.454	826.94
395.678	829.94
395.903	842.94
396.127	814.94
396.352	860.94
396.576	895.94
396.801	887.94
397.025	979.94
397.249	982.94
397.474	871.94
397.698	844.94
397.922	905.94
398.147	855.94
398.371	876.94
398.595	902.94
398.82	897.94
399.044	921.94
399.268	958.94
399.492	995.94
399.717	1008.94
399.941	1020.94
400.165	1028.94
400.389	991.94
400.613	974.94
400.837	953.94
401.062	870.94
401.286	833.94
401.51	880.94
401.734	884.94
401.958	870.94
402.182	850.94
402.406	852.94
402.63	866.94
402.854	899.94
403.078	1018.94
403.302	1200.94
403.526	1250.94
403.75	1124.94
403.974	995.94
404.198	1037.94
404.422	1107.94
404.645	1290.94
404.869	1352.94
405.093	1083.94
405.317	936.94
405.541	966.94
405.765	974.94
405.988	974.94
406.212	1022.94
406.436	1126.94
406.66	1211.94
406.883	1029.94
407.107	1094.94
407.331	1194.94
407.555	1180.94
407.778	1070.94
408.002	1012.94
408.226	1027.94
408.449	1015.94
408.673	977.94
408.896	904.94
409.12	848.94
409.344	865.94
409.567	862.94
409.791	884.94
410.014	894.94
410.238	867.94
410.461	869.94
410.685	886.94
410.908	890.94
411.132	890.94
411.355	882.94
411.578	909.94
411.802	879.94
412.025	904.94
412.249	938.94
412.472	883.94
412.695	921.94
412.919	929.94
413.142	943.94
413.365	980.94
413.589	968.94
413.812	898.94
414.035	895.94
414.258	896.94
414.482	951.94
414.705	950.94
414.928	877.94
415.151	885.94
415.374	859.94
415.597	874.94
415.821	856.94
416.044	862.94
416.267	820.94
416.49	862.94
416.713	846.94
416.936	804.94
417.159	838.94
417.382	864.94
417.605	820.94
417.828	862.94
418.051	870.94
418.274	871.94
418.497	881.94
418.72	878.94
418.943	881.94
419.166	929.94
419.389	977.94
419.611	951.94
419.834	962.94
420.057	1017.94
420.28	1015.94
420.503	930.94
420.726	874.94
420.948	832.94
421.171	818.94
421.394	835.94
421.617	856.94
421.839	833.94
422.062	886.94
422.285	881.94
422.507	880.94
422.73	884.94
422.953	928.94
423.175	894.94
423.398	894.94
423.621	940.94
423.843	946.94
424.066	922.94
424.288	875.94
424.511	880.94
424.733	880.94
424.956	898.94
425.178	991.94
425.401	1132.94
425.623	1214.94
425.846	1052.94
426.068	946.94
426.291	1006.94
426.513	932.94
426.735	883.94
426.958	912.94
427.18	1024.94
427.402	1299.94
427.625	1296.94
427.847	1070.94
428.069	846.94
428.292	852.94
428.514	841.94
428.736	823.94
428.958	891.94
429.181	1014.94
429.403	912.94
429.625	863.94
429.847	832.94
430.069	820.94
430.292	836.94
430.514	829.94
430.736	893.94
430.958	1072.94
431.18	975.94
431.402	796.94
431.624	766.94
431.846	805.94
432.068	760.94
432.29	783.94
432.512	871.94
432.734	1074.94
432.956	989.94
433.178	831.94
433.4	800.94
433.622	811.94
433.844	821.94
434.066	875.94
434.287	846.94
434.509	826.94
434.731	874.94
434.953	828.94
435.175	876.94
435.397	961.94
435.618	867.94
435.84	796.94
436.062	815.94
436.284	789.94
436.505	791.94
436.727	783.94
436.949	777.94
437.17	808.94
437.392	823.94
437.614	785.94
437.835	776.94
438.057	802.94
438.278	891.94
438.5	1182.94
438.721	1234.94
438.943	876.94
439.165	795.94
439.386	779.94
439.608	752.94
439.829	757.94
440.05	784.94
440.272	803.94
440.493	916.94
440.715	1050.94
440.936	910.94
441.158	828.94
441.379	836.94
441.6	926.94
441.822	967.94
442.043	878.94
442.264	843.94
442.486	851.94
442.707	850.94
442.928	826.94
443.149	879.94
443.371	870.94
443.592	912.94
443.813	888.94
444.034	878.94
444.255	902.94
444.476	940.94
444.698	922.94
444.919	933.94
445.14	1014.94
445.361	980.94
445.582	931.94
445.803	913.94
446.024	893.94
446.245	897.94
446.466	881.94
446.687	823.94
446.908	838.94
447.129	791.94
447.35	809.94
447.571	784.94
447.792	773.94
448.013	763.94
448.234	765.94
448.455	756.94
448.675	770.94
448.896	805.94
449.117	778.94
449.338	737.94
449.559	775.94
449.779	836.94
450	831.94
450.221	790.94
450.442	768.94
450.662	775.94
450.883	759.94
451.104	752.94
451.324	771.94
451.545	795.94
451.766	762.94
451.986	773.94
452.207	732.94
452.428	732.94
452.648	741.94
452.869	767.94
453.089	795.94
453.31	802.94
453.53	709.94
453.751	712.94
453.971	700.94
454.192	728.94
454.412	727.94
454.633	721.94
454.853	714.94
455.073	693.94
455.294	724.94
455.514	707.94
455.734	740.94
455.955	757.94
456.175	766.94
456.395	715.94
456.616	679.94
456.836	678.94
457.056	679.94
457.276	683.94
457.497	707.94
457.717	711.94
457.937	720.94
458.157	712.94
458.377	715.94
458.598	726.94
458.818	734.94
459.038	789.94
459.258	791.94
459.478	804.94
459.698	872.94
459.918	860.94
460.138	839.94
460.358	877.94
460.578	814.94
460.798	869.94
461.018	886.94
461.238	824.94
461.458	832.94
461.678	829.94
461.898	901.94
462.118	874.94
462.338	888.94
462.558	899.94
462.777	974.94
462.997	977.94
463.217	1010.94
463.437	998.94
463.657	973.94
463.876	922.94
464.096	925.94
464.316	931.94
464.536	957.94
464.755	985.94
464.975	972.94
465.195	908.94
465.414	944.94
465.634	945.94
465.854	907.94
466.073	851.94
466.293	847.94
466.512	869.94
466.732	956.94
466.951	975.94
467.171	874.94
467.391	828.94
467.61	851.94
467.829	888.94
468.049	870.94
468.268	823.94
468.488	823.94
468.707	854.94
468.927	1020.94
469.146	1076.94
469.365	986.94
469.585	900.94
469.804	975.94
470.023	1058.94
470.243	937.94
470.462	901.94
470.681	843.94
470.901	893.94
471.12	940.94
471.339	918.94
471.558	878.94
471.777	901.94
471.997	922.94
472.216	1049.94
472.435	1056.94
472.654	940.94
472.873	889.94
473.092	956.94
473.311	1003.94
473.53	890.94
473.749	893.94
473.968	946.94
474.187	919.94
474.406	886.94
474.625	887.94
474.844	924.94
475.063	992.94
475.282	983.94
475.501	997.94
475.72	1052.94
475.939	1002.94
476.158	1042.94
476.377	1182.94
476.596	1352.94
476.814	1372.94
477.033	1174.94
477.252	1011.94
477.471	914.94
477.69	964.94
477.908	1074.94
478.127	1112.94
478.346	1052.94
478.564	1087.94
478.783	1047.94
479.002	1048.94
479.22	1222.94
479.439	1367.94
479.658	1182.94
479.876	1094.94
480.095	1164.94
480.313	1155.94
480.532	1103.94
480.751	1048.94
480.969	1074.94
481.188	1232.94
481.406	1239.94
481.624	1173.94
481.843	1091.94
482.061	1034.94
482.28	1148.94
482.498	1365.94
482.717	1322.94
482.935	1174.94
483.153	1078.94
483.372	1042.94
483.59	1024.94
483.808	1021.94
484.027	1005.94
484.245	972.94
484.463	946.94
484.681	995.94
484.9	1052.94
485.118	1134.94
485.336	1080.94
485.554	1006.94
485.772	1030.94
485.99	1109.94
486.209	1139.94
486.427	1155.94
486.645	1117.94
486.863	1178.94
487.081	1157.94
487.299	1276.94
487.517	1198.94
487.735	1112.94
487.953	1171.94
488.171	1230.94
488.389	1112.94
488.607	1062.94
488.825	1083.94
489.043	1164.94
489.261	1322.94
489.479	1359.94
489.696	1213.94
489.914	1081.94
490.132	1066.94
490.35	1055.94
490.568	1083.94
490.786	1058.94
491.003	1097.94
491.221	1122.94
491.439	1078.94
491.657	1106.94
491.874	1164.94
492.092	1333.94
492.31	1544.94
492.527	1548.94
492.745	1394.94
492.963	1249.94
493.18	1258.94
493.398	1231.94
493.615	1216.94
493.833	1183.94
494.05	1172.94
494.268	1170.94
494.485	1166.94
494.703	1149.94
494.92	1190.94
495.138	1136.94
495.355	1149.94
495.573	1170.94
495.79	1271.94
496.008	1508.94
496.225	1392.94
496.442	1284.94
496.66	1264.94
496.877	1340.94
497.094	1275.94
497.312	1255.94
497.529	1236.94
497.746	1268.94
497.963	1316.94
498.181	1382.94
498.398	1487.94
498.615	1557.94
498.832	1615.94
499.049	1672.94
499.267	1499.94
499.484	1509.94
499.701	1534.94
499.918	1729.94
500.135	1815.94
500.352	1825.94
500.569	1899.94
500.786	1886.94
501.003	1908.94
501.22	1730.94
501.437	1638.94
501.654	1575.94
501.871	1551.94
502.088	1535.94
502.305	1445.94
502.522	1448.94
502.739	1440.94
502.956	1346.94
503.172	1314.94
503.389	1250.94
503.606	1232.94
503.823	1236.94
504.04	1284.94
504.256	1279.94
504.473	1253.94
504.69	1315.94
504.907	1305.94
505.123	1285.94
505.34	1365.94
505.557	1373.94
505.773	1312.94
505.99	1259.94
506.207	1283.94
506.423	1220.94
506.64	1143.94
506.856	1176.94
507.073	1299.94
507.289	1253.94
507.506	1278.94
507.722	1332.94
507.939	1332.94
508.155	1339.94
508.372	1214.94
508.588	1220.94
508.805	1175.94
509.021	1186.94
509.238	1113.94
509.454	1115.94
509.67	1133.94
509.887	1128.94
510.103	1244.94
510.319	1226.94
510.536	1130.94
510.752	1046.94
510.968	999.94
511.184	981.94
511.401	985.94
511.617	999.94
511.833	1018.94
512.049	1036.94
512.265	1065.94
512.481	1071.94
512.698	1159.94
512.914	1282.94
513.13	1198.94
513.346	1071.94
513.562	1121.94
513.778	1095.94
513.994	1084.94
514.21	1154.94
514.426	1144.94
514.642	1060.94
514.858	1066.94
515.074	1124.94
515.29	1217.94
515.506	1355.94
515.721	1304.94
515.937	1184.94
516.153	1106.94
516.369	1101.94
516.585	1153.94
516.801	1250.94
517.016	1415.94
517.232	1472.94
517.448	1445.94
517.664	1329.94
517.879	1236.94
518.095	1201.94
518.311	1231.94
518.527	1280.94
518.742	1346.94
518.958	1406.94
519.173	1345.94
519.389	1263.94
519.605	1275.94
519.82	1396.94
520.036	1604.94
520.251	1597.94
520.467	1480.94
520.682	2078.94
520.898	2484.94
521.113	2334.94
521.329	1598.94
521.544	1446.94
521.76	1414.94
521.975	1261.94
522.19	1208.94
522.406	1231.94
522.621	1353.94
522.836	1403.94
523.052	1394.94
523.267	1191.94
523.482	1206.94
523.698	1241.94
523.913	1260.94
524.128	1172.94
524.343	1146.94
524.559	1119.94
524.774	1092.94
524.989	1107.94
525.204	1157.94
525.419	1264.94
525.634	1174.94
525.849	1171.94
526.064	1217.94
526.28	1180.94
526.495	1368.94
526.71	1382.94
526.925	1223.94
527.14	1238.94
527.355	1198.94
527.57	1058.94
527.785	1162.94
527.999	1074.94
528.214	1044.94
528.429	996.94
528.644	978.94
528.859	977.94
529.074	964.94
529.289	966.94
529.503	949.94
529.718	992.94
529.933	1078.94
530.148	1144.94
530.363	1016.94
530.577	942.94
530.792	956.94
531.007	954.94
531.221	960.94
531.436	937.94
531.651	952.94
531.865	955.94
532.08	967.94
532.295	925.94
532.509	975.94
532.724	1051.94
532.938	1169.94
533.153	1338.94
533.367	1114.94
533.582	1103.94
533.796	1024.94
534.011	1008.94
534.225	1015.94
534.44	1008.94
534.654	1052.94
534.868	1146.94
535.083	1054.94
535.297	959.94
535.511	966.94
535.726	1101.94
535.94	1029.94
536.154	976.94
536.369	928.94
536.583	933.94
536.797	953.94
537.011	944.94
537.225	1046.94
537.44	1088.94
537.654	987.94
537.868	968.94
538.082	988.94
538.296	964.94
538.51	977.94
538.724	1033.94
538.938	1002.94
539.153	954.94
539.367	899.94
539.581	935.94
539.795	975.94
540.009	1056.94
540.222	984.94
540.436	995.94
540.65	1038.94
540.864	1074.94
541.078	1077.94
541.292	1200.94
541.506	1046.94
541.72	983.94
541.934	963.94
542.147	968.94
542.361	992.94
542.575	999.94
542.789	938.94
543.002	902.94
543.216	982.94
543.43	922.94
543.644	885.94
543.857	875.94
544.071	910.94
544.285	909.94
544.498	858.94
544.712	888.94
544.925	942.94
545.139	910.94
545.352	875.94
545.566	898.94
545.779	968.94
545.993	909.94
546.206	840.94
546.42	849.94
546.633	860.94
546.847	828.94
547.06	818.94
547.274	810.94
547.487	831.94
547.7	913.94
547.914	939.94
548.127	1058.94
548.34	1042.94
548.554	931.94
548.767	963.94
548.98	1005.94
549.193	911.94
549.407	941.94
549.62	1115.94
549.833	1055.94
550.046	1081.94
550.259	1107.94
550.473	990.94
550.686	924.94
550.899	956.94
551.112	944.94
551.325	997.94
551.538	1055.94
551.751	900.94
551.964	889.94
552.177	880.94
552.39	874.94
552.603	835.94
552.816	896.94
553.029	846.94
553.242	866.94
553.455	923.94
553.667	987.94
553.88	939.94
554.093	856.94
554.306	823.94
554.519	789.94
554.732	794.94
554.944	758.94
555.157	785.94
555.37	734.94
555.583	793.94
555.795	751.94
556.008	783.94
556.221	786.94
556.433	780.94
556.646	759.94
556.859	763.94
557.071	770.94
557.284	788.94
557.496	787.94
557.709	772.94
557.921	747.94
558.134	710.94
558.346	719.94
558.559	700.94
558.771	708.94
558.984	759.94
559.196	711.94
559.409	707.94
559.621	707.94
559.833	700.94
560.046	711.94
560.258	687.94
560.47	710.94
560.683	680.94
560.895	658.94
561.107	668.94
561.32	665.94
561.532	662.94
561.744	695.94
561.956	705.94
562.168	665.94
562.381	659.94
562.593	691.94
562.805	722.94
563.017	665.94
563.229	664.94
563.441	659.94
563.653	674.94
563.865	678.94
564.077	662.94
564.289	658.94
564.501	686.94
564.713	747.94
564.925	723.94
565.137	699.94
565.349	652.94
565.561	665.94
565.773	724.94
565.985	726.94
566.197	757.94
566.408	807.94
566.62	836.94
566.832	840.94
567.044	819.94
567.255	862.94
567.467	956.94
567.679	888.94
567.891	864.94
568.102	882.94
568.314	896.94
568.526	850.94
568.737	810.94
568.949	844.94
569.161	747.94
569.372	685.94
569.584	684.94
569.795	679.94
570.007	678.94
570.218	722.94
570.43	732.94
570.641	675.94
570.853	651.94
571.064	636.94
571.276	667.94
571.487	705.94
571.698	646.94
571.91	643.94
572.121	656.94
572.333	594.94
572.544	577.94
572.755	609.94
572.966	593.94
573.178	570.94
573.389	610.94
573.6	622.94
573.811	594.94
574.023	592.94
574.234	571.94
574.445	574.94
574.656	575.94
574.867	544.94
575.078	594.94
575.289	590.94
575.501	622.94
575.712	561.94
575.923	518.94
576.134	543.94
576.345	524.94
576.556	546.94
576.767	534.94
576.978	521.94
577.188	515.94
577.399	520.94
577.61	507.94
577.821	514.94
578.032	535.94
578.243	548.94
578.454	553.94
578.665	536.94
578.875	544.94
579.086	526.94
579.297	526.94
579.508	520.94
579.718	564.94
579.929	527.94
580.14	533.94
580.35	509.94
580.561	468.94
580.772	487.94
580.982	485.94
581.193	464.94
581.403	449.94
581.614	465.94
581.825	472.94
582.035	432.94
582.246	459.94
582.456	463.94
582.667	471.94
582.877	462.94
583.087	458.94
583.298	456.94
583.508	449.94
583.719	451.94
583.929	431.94
584.139	453.94
584.35	446.94
584.56	461.94
584.77	461.94
584.981	488.94
585.191	461.94
585.401	453.94
585.611	476.94
585.821	465.94
586.032	468.94
586.242	452.94
586.452	445.94
586.662	444.94
586.872	482.94
587.082	464.94
587.292	460.94
587.502	474.94
587.713	459.94
587.923	444.94
588.133	476.94
588.343	464.94
588.553	432.94
588.762	438.94
588.972	447.94
589.182	449.94
589.392	424.94
589.602	450.94
589.812	462.94
590.022	498.94
590.232	502.94
590.441	471.94
590.651	450.94
590.861	442.94
591.071	456.94
591.281	438.94
591.49	435.94
591.7	443.94
591.91	459.94
592.119	435.94
592.329	418.94
592.539	453.94
592.748	456.94
592.958	456.94
593.167	465.94
593.377	451.94
593.587	490.94
593.796	467.94
594.006	455.94
594.215	470.94
594.424	477.94
594.634	504.94
594.843	487.94
595.053	443.94
595.262	439.94
595.472	416.94
595.681	436.94
595.89	423.94
596.1	404.94
596.309	418.94
596.518	419.94
596.727	407.94
596.937	416.94
597.146	428.94
597.355	447.94
597.564	448.94
597.774	399.94
597.983	409.94
598.192	394.94
598.401	398.94
598.61	390.94
598.819	376.94
599.028	395.94
599.237	366.94
599.446	373.94
599.655	359.94
599.864	353.94
600.073	345.94
600.282	365.94
600.491	380.94
600.7	370.94
600.909	378.94
601.118	365.94
601.327	372.94
601.536	365.94
601.745	367.94
601.953	374.94
602.162	362.94
602.371	377.94
602.58	386.94
602.789	362.94
602.997	374.94
603.206	345.94
603.415	354.94
603.623	358.94
603.832	351.94
604.041	346.94
604.249	359.94
604.458	375.94
604.666	334.94
604.875	351.94
605.084	338.94
605.292	352.94
605.501	352.94
605.709	358.94
605.918	346.94
606.126	342.94
606.334	358.94
606.543	354.94
606.751	346.94
606.96	351.94
607.168	349.94
607.376	320.94
607.585	331.94
607.793	374.94
608.001	355.94
608.21	344.94
608.418	357.94
608.626	351.94
608.834	345.94
609.043	329.94
609.251	343.94
609.459	347.94
609.667	343.94
609.875	347.94
610.083	344.94
610.291	346.94
610.499	344.94
610.707	343.94
610.916	328.94
611.124	331.94
611.332	334.94
611.54	341.94
611.748	350.94
611.955	331.94
612.163	332.94
612.371	314.94
612.579	356.94
612.787	332.94
612.995	316.94
613.203	339.94
613.411	322.94
613.618	334.94
613.826	344.94
614.034	334.94
614.242	318.94
614.449	333.94
614.657	318.94
614.865	320.94
615.072	331.94
615.28	317.94
615.488	307.94
615.695	340.94
615.903	320.94
616.111	328.94
616.318	314.94
616.526	317.94
616.733	349.94
616.941	324.94
617.148	309.94
617.356	322.94
617.563	315.94
617.771	311.94
617.978	302.94
618.185	316.94
618.393	312.94
618.6	299.94
618.807	318.94
619.015	302.94
619.222	301.94
619.429	316.94
619.637	307.94
619.844	306.94
620.051	305.94
620.258	296.94
620.466	276.94
620.673	306.94
620.88	278.94
621.087	291.94
621.294	279.94
621.501	276.94
621.708	282.94
621.915	281.94
622.122	304.94
622.329	301.94
622.536	275.94
622.743	294.94
622.95	285.94
623.157	276.94
623.364	303.94
623.571	314.94
623.778	294.94
623.985	315.94
624.192	317.94
624.399	311.94
624.606	306.94
624.812	287.94
625.019	302.94
625.226	309.94
625.433	288.94
625.639	279.94
625.846	273.94
626.053	275.94
626.259	271.94
626.466	274.94
626.673	285.94
626.879	283.94
627.086	273.94
627.293	275.94
627.499	274.94
627.706	260.94
627.912	262.94
628.119	269.94
628.325	245.94
628.532	254.94
628.738	254.94
628.945	277.94
629.151	249.94
629.357	262.94
629.564	260.94
629.77	261.94
629.976	256.94
630.183	241.94
630.389	238.94
630.595	242.94
630.802	264.94
631.008	271.94
631.214	260.94
631.42	239.94
631.627	243.94
631.833	244.94
632.039	246.94
632.245	251.94
632.451	239.94
632.657	236.94
632.863	240.94
633.069	229.94
633.275	223.94
633.481	231.94
633.688	238.94
633.893	240.94
634.099	246.94
634.305	264.94
634.511	243.94
634.717	226.94
634.923	237.94
635.129	222.94
635.335	238.94
635.541	229.94
635.747	214.94
635.952	224.94
636.158	221.94
636.364	242.94
636.57	224.94
636.775	234.94
636.981	244.94
637.187	248.94
637.392	228.94
637.598	223.94
637.804	209.94
638.009	239.94
638.215	232.94
638.421	222.94
638.626	213.94
638.832	216.94
639.037	233.94
639.243	228.94
639.448	224.94
639.654	229.94
639.859	230.94
640.065	206.94
640.27	226.94
640.475	223.94
640.681	226.94
640.886	208.94
641.091	219.94
641.297	215.94
641.502	223.94
641.707	216.94
641.913	220.94
642.118	213.94
642.323	232.94
642.528	212.94
642.733	215.94
642.939	219.94
643.144	208.94
643.349	208.94
643.554	215.94
643.759	214.94
643.964	206.94
644.169	215.94
644.374	198.94
644.579	200.94
644.784	196.94
644.989	199.94
645.194	214.94
645.399	212.94
645.604	199.94
645.809	212.94
646.014	219.94
646.219	202.94
646.423	209.94
646.628	203.94
646.833	206.94
647.038	190.94
647.243	207.94
647.447	214.94
647.652	202.94
647.857	196.94
648.062	210.94
648.266	215.94
648.471	224.94
648.676	207.94
648.88	213.94
649.085	206.94
649.289	203.94
649.494	205.94
649.698	221.94
649.903	196.94
650.107	192.94
650.312	197.94
650.516	187.94
650.721	203.94
650.925	196.94
651.13	190.94
651.334	184.94
651.539	186.94
651.743	172.94
651.947	174.94
652.152	186.94
652.356	164.94
652.56	176.94
652.764	160.94
652.969	170.94
653.173	158.94
653.377	172.94
653.581	166.94
653.785	166.94
653.99	161.94
654.194	150.94
654.398	157.94
654.602	148.94
654.806	142.94
655.01	151.94
655.214	149.94
655.418	140.94
655.622	146.94
655.826	146.94
656.03	160.94
656.234	164.94
656.438	174.94
656.642	164.94
656.846	145.94
657.049	162.94
657.253	133.94
657.457	132.94
657.661	139.94
657.865	126.94
658.068	129.94
658.272	112.94
658.476	120.94
658.68	122.94
658.883	124.94
659.087	123.94
659.291	115.94
659.494	107.94
659.698	95.94
659.901	97.94
660.105	93.94
660.309	94.94
660.512	117.94
660.716	88.94
660.919	73.94
661.123	93.94
661.326	87.94
661.53	95.94
661.733	97.94
661.936	93.94
662.14	90.94
662.343	76.94
662.546	95.94
662.75	78.94
662.953	90.94
663.156	92.94
663.36	76.94
663.563	85.94
663.766	80.94
663.969	68.94
664.173	91.94
664.376	76.94
664.579	74.94
664.782	81.94
664.985	78.94
665.188	89.94
665.391	89.94
665.594	76.94
665.797	75.94
666	85.94
666.203	85.94
666.406	82.94
666.609	80.94
666.812	74.94
667.015	87.94
667.218	84.94
667.421	94.94
667.624	94.94
667.827	87.94
668.03	82.94
668.232	90.94
668.435	79.94
668.638	82.94
668.841	77.94
669.043	75.94
669.246	88.94
669.449	79.94
669.651	83.94
669.854	79.94
670.057	70.94
670.259	77.94
670.462	84.94
670.665	82.94
670.867	72.94
671.07	64.94
671.272	83.94
671.475	80.94
671.677	87.94
671.88	91.94
672.082	83.94
672.284	99.94
672.487	81.94
672.689	84.94
672.892	83.94
