Data from NickelSpatula.Lamp.E10.P2_HRD10591_11-57-18-532.txt Node
Date: Tue Jul 23 11:57:18 EDT 2019
User: cochatt
Spectrometer: HR+D1059
Trigger mode: 1
Integration Time (sec): 1.000000E-1
Scans to average: 1
Electric dark correction enabled: true
Nonlinearity correction enabled: false
Boxcar width: 0
XAxis mode: Wavelengths
Number of Pixels in Spectrum: 2048
>>>>>Begin Spectral Data<<<<<
223.165	-14.62
223.4	-14.62
223.635	-14.62
223.869	-8.62
224.104	-21.62
224.338	-4.62
224.573	-16.62
224.808	-18.62
225.042	-12.62
225.277	-17.62
225.511	2.38
225.746	10.38
225.98	17.38
226.215	17.38
226.449	14.38
226.683	15.38
226.918	-1.62
227.152	39.38
227.387	40.38
227.621	55.38
227.856	41.38
228.09	34.38
228.324	53.38
228.559	51.38
228.793	84.38
229.027	134.38
229.262	149.38
229.496	150.38
229.73	173.38
229.964	189.38
230.199	212.38
230.433	201.38
230.667	211.38
230.901	184.38
231.136	195.38
231.37	218.38
231.604	233.38
231.838	237.38
232.072	232.38
232.306	237.38
232.541	234.38
232.775	237.38
233.009	237.38
233.243	305.38
233.477	313.38
233.711	338.38
233.945	349.38
234.179	311.38
234.413	350.38
234.647	369.38
234.881	458.38
235.115	418.38
235.349	409.38
235.583	342.38
235.817	353.38
236.051	369.38
236.285	401.38
236.519	441.38
236.753	408.38
236.987	417.38
237.221	376.38
237.455	413.38
237.689	418.38
237.922	450.38
238.156	475.38
238.39	551.38
238.624	635.38
238.858	592.38
239.091	463.38
239.325	479.38
239.559	467.38
239.793	523.38
240.027	639.38
240.26	567.38
240.494	573.38
240.728	546.38
240.961	648.38
241.195	624.38
241.429	605.38
241.662	578.38
241.896	501.38
242.13	465.38
242.363	441.38
242.597	452.38
242.83	519.38
243.064	502.38
243.298	563.38
243.531	586.38
243.765	590.38
243.998	609.38
244.232	602.38
244.465	585.38
244.699	553.38
244.932	630.38
245.166	613.38
245.399	540.38
245.633	521.38
245.866	566.38
246.099	605.38
246.333	698.38
246.566	753.38
246.8	739.38
247.033	697.38
247.266	657.38
247.5	668.38
247.733	660.38
247.966	615.38
248.2	646.38
248.433	738.38
248.666	806.38
248.899	796.38
249.133	818.38
249.366	947.38
249.599	997.38
249.832	903.38
250.066	809.38
250.299	809.38
250.532	785.38
250.765	756.38
250.998	730.38
251.231	699.38
251.465	756.38
251.698	802.38
251.931	785.38
252.164	800.38
252.397	904.38
252.63	1018.38
252.863	1119.38
253.096	1154.38
253.329	1101.38
253.562	1023.38
253.795	1167.38
254.028	1273.38
254.261	1317.38
254.494	1192.38
254.727	1104.38
254.96	1073.38
255.193	1130.38
255.426	1066.38
255.659	829.38
255.892	763.38
256.124	824.38
256.357	957.38
256.59	1140.38
256.823	1098.38
257.056	904.38
257.289	862.38
257.521	919.38
257.754	1071.38
257.987	1246.38
258.22	1084.38
258.452	971.38
258.685	1082.38
258.918	1220.38
259.151	1212.38
259.383	1246.38
259.616	1407.38
259.849	1486.38
260.081	1602.38
260.314	1839.38
260.547	1402.38
260.779	1410.38
261.012	1653.38
261.244	1536.38
261.477	1549.38
261.71	1421.38
261.942	1234.38
262.175	1216.38
262.407	1188.38
262.64	1251.38
262.872	1453.38
263.105	1560.38
263.337	1652.38
263.57	1460.38
263.802	971.38
264.035	882.38
264.267	835.38
264.499	756.38
264.732	669.38
264.964	683.38
265.197	688.38
265.429	757.38
265.661	785.38
265.894	818.38
266.126	902.38
266.358	983.38
266.591	1212.38
266.823	1429.38
267.055	1378.38
267.287	1192.38
267.52	1189.38
267.752	1267.38
267.984	1382.38
268.216	1335.38
268.448	1097.38
268.681	1093.38
268.913	1142.38
269.145	1233.38
269.377	1221.38
269.609	1252.38
269.841	1193.38
270.073	1247.38
270.306	1306.38
270.538	1329.38
270.77	1349.38
271.002	1382.38
271.234	1401.38
271.466	1433.38
271.698	1385.38
271.93	1352.38
272.162	1357.38
272.394	1377.38
272.626	1321.38
272.858	1370.38
273.09	1415.38
273.322	1259.38
273.553	1221.38
273.785	1445.38
274.017	1857.38
274.249	2305.38
274.481	2387.38
274.713	2582.38
274.945	2977.38
275.176	3094.38
275.408	2753.38
275.64	2491.38
275.872	2472.38
276.104	2122.38
276.335	1827.38
276.567	1831.38
276.799	1864.38
277.031	1949.38
277.262	1522.38
277.494	1179.38
277.726	1147.38
277.957	1249.38
278.189	1421.38
278.421	1414.38
278.652	1361.38
278.884	1311.38
279.115	1199.38
279.347	1130.38
279.579	1147.38
279.81	1175.38
280.042	1183.38
280.273	1182.38
280.505	1081.38
280.736	989.38
280.968	992.38
281.199	1056.38
281.431	1194.38
281.662	1188.38
281.894	1142.38
282.125	1182.38
282.356	1278.38
282.588	1346.38
282.819	1205.38
283.051	1323.38
283.282	1589.38
283.513	1815.38
283.745	2020.38
283.976	2079.38
284.207	1888.38
284.439	1985.38
284.67	1899.38
284.901	1685.38
285.132	1842.38
285.364	1944.38
285.595	1758.38
285.826	1888.38
286.057	1929.38
286.288	1841.38
286.52	1887.38
286.751	1986.38
286.982	1991.38
287.213	1718.38
287.444	1687.38
287.675	1770.38
287.906	1728.38
288.138	1448.38
288.369	1308.38
288.6	1249.38
288.831	1307.38
289.062	1486.38
289.293	1641.38
289.524	1566.38
289.755	1529.38
289.986	1569.38
290.217	1353.38
290.448	1071.38
290.679	934.38
290.91	881.38
291.141	888.38
291.371	936.38
291.602	955.38
291.833	971.38
292.064	995.38
292.295	1183.38
292.526	1345.38
292.757	1386.38
292.987	1484.38
293.218	1498.38
293.449	1517.38
293.68	1631.38
293.91	1505.38
294.141	1577.38
294.372	1481.38
294.603	1364.38
294.833	1493.38
295.064	1762.38
295.295	1657.38
295.525	1247.38
295.756	1117.38
295.987	989.38
296.217	983.38
296.448	968.38
296.679	1030.38
296.909	1179.38
297.14	1279.38
297.37	1366.38
297.601	1319.38
297.831	1108.38
298.062	1181.38
298.292	1362.38
298.523	1477.38
298.753	1661.38
298.984	1521.38
299.214	1232.38
299.445	1021.38
299.675	974.38
299.905	993.38
300.136	1029.38
300.366	1130.38
300.597	1115.38
300.827	970.38
301.057	937.38
301.288	990.38
301.518	1023.38
301.748	1189.38
301.979	1267.38
302.209	1380.38
302.439	1392.38
302.669	1193.38
302.9	1204.38
303.13	1139.38
303.36	1078.38
303.59	981.38
303.82	1065.38
304.051	1165.38
304.281	1303.38
304.511	1231.38
304.741	1125.38
304.971	1140.38
305.201	1225.38
305.431	1141.38
305.661	1007.38
305.891	1033.38
306.121	1038.38
306.352	937.38
306.582	858.38
306.812	849.38
307.042	821.38
307.272	794.38
307.502	776.38
307.731	802.38
307.961	886.38
308.191	810.38
308.421	803.38
308.651	782.38
308.881	769.38
309.111	738.38
309.341	794.38
309.571	883.38
309.8	883.38
310.03	902.38
310.26	966.38
310.49	908.38
310.72	846.38
310.949	807.38
311.179	842.38
311.409	897.38
311.639	1045.38
311.868	1328.38
312.098	1703.38
312.328	1835.38
312.557	1768.38
312.787	1795.38
313.017	1597.38
313.246	1755.38
313.476	1870.38
313.706	1568.38
313.935	1220.38
314.165	1024.38
314.394	938.38
314.624	917.38
314.853	1000.38
315.083	1010.38
315.312	989.38
315.542	1009.38
315.771	936.38
316.001	833.38
316.23	827.38
316.46	782.38
316.689	833.38
316.919	879.38
317.148	855.38
317.377	846.38
317.607	859.38
317.836	911.38
318.065	1073.38
318.295	1214.38
318.524	1086.38
318.753	959.38
318.983	903.38
319.212	889.38
319.441	962.38
319.67	1092.38
319.9	1143.38
320.129	1081.38
320.358	953.38
320.587	923.38
320.816	984.38
321.046	1123.38
321.275	1244.38
321.504	1245.38
321.733	1209.38
321.962	1154.38
322.191	1107.38
322.42	1058.38
322.649	1081.38
322.878	1166.38
323.108	1138.38
323.337	1069.38
323.566	1064.38
323.795	1024.38
324.024	999.38
324.253	929.38
324.482	929.38
324.71	1058.38
324.939	1162.38
325.168	1091.38
325.397	907.38
325.626	891.38
325.855	884.38
326.084	918.38
326.313	847.38
326.542	819.38
326.77	855.38
326.999	854.38
327.228	927.38
327.457	972.38
327.686	1023.38
327.914	857.38
328.143	833.38
328.372	800.38
328.6	811.38
328.829	866.38
329.058	870.38
329.287	840.38
329.515	886.38
329.744	854.38
329.972	816.38
330.201	779.38
330.43	829.38
330.658	912.38
330.887	1061.38
331.115	1024.38
331.344	974.38
331.572	949.38
331.801	879.38
332.03	808.38
332.258	855.38
332.486	913.38
332.715	951.38
332.943	890.38
333.172	909.38
333.4	921.38
333.629	1028.38
333.857	1084.38
334.085	1065.38
334.314	1078.38
334.542	1021.38
334.771	957.38
334.999	936.38
335.227	889.38
335.455	918.38
335.684	996.38
335.912	1152.38
336.14	1258.38
336.369	1209.38
336.597	1197.38
336.825	1314.38
337.053	1413.38
337.281	1181.38
337.51	961.38
337.738	955.38
337.966	1030.38
338.194	1147.38
338.422	1078.38
338.65	926.38
338.878	843.38
339.106	900.38
339.334	990.38
339.562	1047.38
339.79	977.38
340.018	951.38
340.246	1025.38
340.474	1164.38
340.702	1213.38
340.93	1302.38
341.158	1281.38
341.386	1095.38
341.614	1077.38
341.842	1082.38
342.07	1122.38
342.298	1267.38
342.526	1331.38
342.754	1150.38
342.981	1074.38
343.209	1029.38
343.437	1103.38
343.665	1145.38
343.893	1133.38
344.12	1354.38
344.348	1509.38
344.576	1383.38
344.804	1141.38
345.031	982.38
345.259	928.38
345.487	951.38
345.714	977.38
345.942	1079.38
346.17	1146.38
346.397	1129.38
346.625	986.38
346.853	943.38
347.08	941.38
347.308	986.38
347.535	1081.38
347.763	1099.38
347.99	980.38
348.218	877.38
348.445	961.38
348.673	939.38
348.9	926.38
349.128	1011.38
349.355	1035.38
349.583	1022.38
349.81	1001.38
350.037	921.38
350.265	800.38
350.492	783.38
350.72	784.38
350.947	818.38
351.174	873.38
351.402	905.38
351.629	949.38
351.856	909.38
352.083	857.38
352.311	930.38
352.538	1031.38
352.765	1124.38
352.992	1005.38
353.22	956.38
353.447	960.38
353.674	939.38
353.901	927.38
354.128	945.38
354.355	985.38
354.583	973.38
354.81	966.38
355.037	977.38
355.264	946.38
355.491	1030.38
355.718	1134.38
355.945	1102.38
356.172	1082.38
356.399	1059.38
356.626	1296.38
356.853	1532.38
357.08	1627.38
357.307	1627.38
357.534	1305.38
357.761	1343.38
357.988	1671.38
358.215	1912.38
358.441	1841.38
358.668	1559.38
358.895	1432.38
359.122	1150.38
359.349	1149.38
359.576	1285.38
359.802	1066.38
360.029	927.38
360.256	969.38
360.483	1197.38
360.709	1512.38
360.936	1591.38
361.163	1396.38
361.39	1069.38
361.616	1001.38
361.843	1176.38
362.07	1444.38
362.296	1304.38
362.523	1077.38
362.749	913.38
362.976	987.38
363.203	1178.38
363.429	1310.38
363.656	1039.38
363.882	963.38
364.109	981.38
364.335	980.38
364.562	928.38
364.788	1089.38
365.015	1223.38
365.241	1129.38
365.468	912.38
365.694	832.38
365.92	794.38
366.147	779.38
366.373	780.38
366.599	769.38
366.826	790.38
367.052	811.38
367.278	784.38
367.505	804.38
367.731	888.38
367.957	1008.38
368.184	1019.38
368.41	961.38
368.636	969.38
368.862	1035.38
369.089	983.38
369.315	880.38
369.541	869.38
369.767	849.38
369.993	835.38
370.219	861.38
370.445	868.38
370.672	983.38
370.898	1065.38
371.124	1055.38
371.35	921.38
371.576	879.38
371.802	931.38
372.028	1124.38
372.254	1270.38
372.48	1064.38
372.706	1017.38
372.932	1027.38
373.158	1073.38
373.384	1285.38
373.61	1751.38
373.835	1799.38
374.061	1318.38
374.287	1115.38
374.513	1344.38
374.739	1557.38
374.965	1578.38
375.191	1576.38
375.416	1118.38
375.642	966.38
375.868	1157.38
376.094	1310.38
376.319	1173.38
376.545	1238.38
376.771	1319.38
376.997	1109.38
377.222	844.38
377.448	734.38
377.674	731.38
377.899	715.38
378.125	725.38
378.35	734.38
378.576	797.38
378.802	863.38
379.027	864.38
379.253	859.38
379.478	859.38
379.704	999.38
379.929	1041.38
380.155	1060.38
380.38	918.38
380.606	977.38
380.831	1086.38
381.057	970.38
381.282	938.38
381.507	1139.38
381.733	1398.38
381.958	1442.38
382.184	1554.38
382.409	1623.38
382.634	1588.38
382.86	1643.38
383.085	1345.38
383.31	1064.38
383.535	1155.38
383.761	1177.38
383.986	1078.38
384.211	1362.38
384.436	1291.38
384.662	1015.38
384.887	958.38
385.112	992.38
385.337	1029.38
385.562	960.38
385.787	1059.38
386.013	1201.38
386.238	1171.38
386.463	979.38
386.688	954.38
386.913	919.38
387.138	904.38
387.363	918.38
387.588	969.38
387.813	954.38
388.038	1049.38
388.263	945.38
388.488	943.38
388.713	1104.38
388.938	1155.38
389.163	975.38
389.387	891.38
389.612	912.38
389.837	932.38
390.062	936.38
390.287	983.38
390.512	964.38
390.736	919.38
390.961	879.38
391.186	826.38
391.411	817.38
391.636	829.38
391.86	911.38
392.085	994.38
392.31	998.38
392.534	936.38
392.759	920.38
392.984	963.38
393.208	929.38
393.433	853.38
393.658	787.38
393.882	768.38
394.107	765.38
394.331	777.38
394.556	789.38
394.78	778.38
395.005	817.38
395.229	840.38
395.454	855.38
395.678	853.38
395.903	903.38
396.127	859.38
396.352	873.38
396.576	940.38
396.801	976.38
397.025	1069.38
397.249	1104.38
397.474	912.38
397.698	897.38
397.922	967.38
398.147	886.38
398.371	897.38
398.595	955.38
398.82	921.38
399.044	939.38
399.268	987.38
399.492	1025.38
399.717	1058.38
399.941	1059.38
400.165	1045.38
400.389	1026.38
400.613	1053.38
400.837	1023.38
401.062	875.38
401.286	881.38
401.51	909.38
401.734	886.38
401.958	905.38
402.182	890.38
402.406	895.38
402.63	895.38
402.854	953.38
403.078	1049.38
403.302	1269.38
403.526	1330.38
403.75	1169.38
403.974	1036.38
404.198	1051.38
404.422	1185.38
404.645	1364.38
404.869	1527.38
405.093	1147.38
405.317	952.38
405.541	966.38
405.765	999.38
405.988	1013.38
406.212	1087.38
406.436	1259.38
406.66	1346.38
406.883	1109.38
407.107	1145.38
407.331	1322.38
407.555	1269.38
407.778	1067.38
408.002	991.38
408.226	1027.38
408.449	1027.38
408.673	999.38
408.896	928.38
409.12	901.38
409.344	889.38
409.567	869.38
409.791	885.38
410.014	873.38
410.238	866.38
410.461	891.38
410.685	871.38
410.908	886.38
411.132	905.38
411.355	928.38
411.578	930.38
411.802	922.38
412.025	986.38
412.249	977.38
412.472	946.38
412.695	966.38
412.919	924.38
413.142	960.38
413.365	1030.38
413.589	1063.38
413.812	967.38
414.035	909.38
414.258	936.38
414.482	1027.38
414.705	1053.38
414.928	912.38
415.151	887.38
415.374	845.38
415.597	913.38
415.821	897.38
416.044	889.38
416.267	850.38
416.49	863.38
416.713	832.38
416.936	823.38
417.159	846.38
417.382	872.38
417.605	895.38
417.828	917.38
418.051	891.38
418.274	922.38
418.497	934.38
418.72	893.38
418.943	953.38
419.166	977.38
419.389	1001.38
419.611	989.38
419.834	993.38
420.057	1090.38
420.28	1112.38
420.503	990.38
420.726	863.38
420.948	848.38
421.171	860.38
421.394	852.38
421.617	850.38
421.839	862.38
422.062	930.38
422.285	892.38
422.507	913.38
422.73	936.38
422.953	939.38
423.175	920.38
423.398	932.38
423.621	992.38
423.843	1036.38
424.066	955.38
424.288	919.38
424.511	883.38
424.733	899.38
424.956	943.38
425.178	1039.38
425.401	1173.38
425.623	1375.38
425.846	1098.38
426.068	983.38
426.291	1106.38
426.513	1010.38
426.735	944.38
426.958	959.38
427.18	1121.38
427.402	1449.38
427.625	1415.38
427.847	1169.38
428.069	884.38
428.292	879.38
428.514	898.38
428.736	855.38
428.958	968.38
429.181	1053.38
429.403	938.38
429.625	850.38
429.847	869.38
430.069	879.38
430.292	892.38
430.514	866.38
430.736	941.38
430.958	1115.38
431.18	1051.38
431.402	809.38
431.624	785.38
431.846	790.38
432.068	797.38
432.29	822.38
432.512	890.38
432.734	1185.38
432.956	1087.38
433.178	862.38
433.4	813.38
433.622	853.38
433.844	877.38
434.066	929.38
434.287	869.38
434.509	860.38
434.731	902.38
434.953	841.38
435.175	889.38
435.397	982.38
435.618	862.38
435.84	806.38
436.062	808.38
436.284	801.38
436.505	790.38
436.727	783.38
436.949	819.38
437.17	840.38
437.392	839.38
437.614	821.38
437.835	814.38
438.057	845.38
438.278	955.38
438.5	1343.38
438.721	1334.38
438.943	948.38
439.165	799.38
439.386	772.38
439.608	769.38
439.829	774.38
440.05	791.38
440.272	848.38
440.493	986.38
440.715	1211.38
440.936	961.38
441.158	871.38
441.379	878.38
441.6	964.38
441.822	1041.38
442.043	874.38
442.264	866.38
442.486	851.38
442.707	859.38
442.928	861.38
443.149	867.38
443.371	873.38
443.592	885.38
443.813	906.38
444.034	859.38
444.255	917.38
444.476	925.38
444.698	941.38
444.919	948.38
445.14	1015.38
445.361	986.38
445.582	937.38
445.803	930.38
446.024	924.38
446.245	934.38
446.466	902.38
446.687	874.38
446.908	851.38
447.129	814.38
447.35	801.38
447.571	797.38
447.792	799.38
448.013	804.38
448.234	762.38
448.455	771.38
448.675	797.38
448.896	802.38
449.117	791.38
449.338	776.38
449.559	810.38
449.779	858.38
450	859.38
450.221	810.38
450.442	815.38
450.662	779.38
450.883	789.38
451.104	801.38
451.324	762.38
451.545	790.38
451.766	801.38
451.986	757.38
452.207	730.38
452.428	755.38
452.648	799.38
452.869	781.38
453.089	840.38
453.31	826.38
453.53	744.38
453.751	743.38
453.971	758.38
454.192	744.38
454.412	790.38
454.633	738.38
454.853	730.38
455.073	730.38
455.294	737.38
455.514	737.38
455.734	761.38
455.955	766.38
456.175	808.38
456.395	732.38
456.616	698.38
456.836	704.38
457.056	680.38
457.276	688.38
457.497	700.38
457.717	721.38
457.937	710.38
458.157	705.38
458.377	721.38
458.598	735.38
458.818	757.38
459.038	799.38
459.258	809.38
459.478	817.38
459.698	864.38
459.918	882.38
460.138	865.38
460.358	861.38
460.578	838.38
460.798	869.38
461.018	889.38
461.238	849.38
461.458	858.38
461.678	852.38
461.898	909.38
462.118	902.38
462.338	906.38
462.558	929.38
462.777	965.38
462.997	1007.38
463.217	961.38
463.437	991.38
463.657	1008.38
463.876	914.38
464.096	957.38
464.316	930.38
464.536	945.38
464.755	1000.38
464.975	993.38
465.195	934.38
465.414	993.38
465.634	945.38
465.854	921.38
466.073	865.38
466.293	863.38
466.512	937.38
466.732	991.38
466.951	1037.38
467.171	903.38
467.391	890.38
467.61	850.38
467.829	907.38
468.049	902.38
468.268	859.38
468.488	849.38
468.707	909.38
468.927	1028.38
469.146	1122.38
469.365	1000.38
469.585	938.38
469.804	990.38
470.023	1079.38
470.243	958.38
470.462	905.38
470.681	876.38
470.901	944.38
471.12	946.38
471.339	931.38
471.558	913.38
471.777	897.38
471.997	982.38
472.216	1091.38
472.435	1062.38
472.654	966.38
472.873	933.38
473.092	968.38
473.311	1011.38
473.53	934.38
473.749	908.38
473.968	975.38
474.187	961.38
474.406	894.38
474.625	906.38
474.844	975.38
475.063	1002.38
475.282	1013.38
475.501	1075.38
475.72	1084.38
475.939	1056.38
476.158	1079.38
476.377	1243.38
476.596	1399.38
476.814	1464.38
477.033	1219.38
477.252	1029.38
477.471	972.38
477.69	981.38
477.908	1097.38
478.127	1144.38
478.346	1060.38
478.564	1120.38
478.783	1079.38
479.002	1065.38
479.22	1241.38
479.439	1406.38
479.658	1189.38
479.876	1098.38
480.095	1168.38
480.313	1205.38
480.532	1113.38
480.751	1095.38
480.969	1089.38
481.188	1236.38
481.406	1273.38
481.624	1190.38
481.843	1117.38
482.061	1065.38
482.28	1182.38
482.498	1396.38
482.717	1333.38
482.935	1196.38
483.153	1104.38
483.372	1039.38
483.59	1031.38
483.808	1010.38
484.027	1034.38
484.245	1002.38
484.463	967.38
484.681	1017.38
484.9	1063.38
485.118	1150.38
485.336	1085.38
485.554	1026.38
485.772	1062.38
485.99	1141.38
486.209	1181.38
486.427	1185.38
486.645	1183.38
486.863	1197.38
487.081	1194.38
487.299	1340.38
487.517	1325.38
487.735	1173.38
487.953	1227.38
488.171	1249.38
488.389	1165.38
488.607	1082.38
488.825	1139.38
489.043	1229.38
489.261	1381.38
489.479	1493.38
489.696	1306.38
489.914	1170.38
490.132	1089.38
490.35	1099.38
490.568	1092.38
490.786	1079.38
491.003	1115.38
491.221	1157.38
491.439	1142.38
491.657	1118.38
491.874	1205.38
492.092	1432.38
492.31	1734.38
492.527	1669.38
492.745	1452.38
492.963	1289.38
493.18	1265.38
493.398	1256.38
493.615	1253.38
493.833	1222.38
494.05	1197.38
494.268	1215.38
494.485	1204.38
494.703	1164.38
494.92	1232.38
495.138	1215.38
495.355	1193.38
495.573	1223.38
495.79	1383.38
496.008	1727.38
496.225	1531.38
496.442	1347.38
496.66	1341.38
496.877	1369.38
497.094	1364.38
497.312	1297.38
497.529	1310.38
497.746	1310.38
497.963	1343.38
498.181	1446.38
498.398	1560.38
498.615	1619.38
498.832	1661.38
499.049	1680.38
499.267	1506.38
499.484	1538.38
499.701	1604.38
499.918	1724.38
500.135	1867.38
500.352	1841.38
500.569	1905.38
500.786	1989.38
501.003	1969.38
501.22	1798.38
501.437	1657.38
501.654	1617.38
501.871	1545.38
502.088	1610.38
502.305	1461.38
502.522	1472.38
502.739	1485.38
502.956	1338.38
503.172	1372.38
503.389	1285.38
503.606	1249.38
503.823	1246.38
504.04	1293.38
504.256	1277.38
504.473	1299.38
504.69	1320.38
504.907	1359.38
505.123	1326.38
505.34	1412.38
505.557	1386.38
505.773	1304.38
505.99	1281.38
506.207	1344.38
506.423	1206.38
506.64	1186.38
506.856	1237.38
507.073	1332.38
507.289	1313.38
507.506	1299.38
507.722	1394.38
507.939	1369.38
508.155	1401.38
508.372	1278.38
508.588	1281.38
508.805	1203.38
509.021	1200.38
509.238	1170.38
509.454	1137.38
509.67	1144.38
509.887	1176.38
510.103	1290.38
510.319	1253.38
510.536	1144.38
510.752	1085.38
510.968	1036.38
511.184	998.38
511.401	1045.38
511.617	1001.38
511.833	1007.38
512.049	1028.38
512.265	1073.38
512.481	1120.38
512.698	1203.38
512.914	1318.38
513.13	1235.38
513.346	1108.38
513.562	1167.38
513.778	1151.38
513.994	1166.38
514.21	1192.38
514.426	1155.38
514.642	1131.38
514.858	1120.38
515.074	1159.38
515.29	1264.38
515.506	1381.38
515.721	1289.38
515.937	1183.38
516.153	1163.38
516.369	1177.38
516.585	1197.38
516.801	1294.38
517.016	1567.38
517.232	1511.38
517.448	1489.38
517.664	1364.38
517.879	1264.38
518.095	1216.38
518.311	1243.38
518.527	1303.38
518.742	1363.38
518.958	1417.38
519.173	1387.38
519.389	1322.38
519.605	1363.38
519.82	1463.38
520.036	1695.38
520.251	1656.38
520.467	1558.38
520.682	2302.38
520.898	2768.38
521.113	2647.38
521.329	1648.38
521.544	1463.38
521.76	1497.38
521.975	1317.38
522.19	1263.38
522.406	1273.38
522.621	1413.38
522.836	1471.38
523.052	1523.38
523.267	1263.38
523.482	1242.38
523.698	1331.38
523.913	1290.38
524.128	1153.38
524.343	1139.38
524.559	1142.38
524.774	1094.38
524.989	1118.38
525.204	1149.38
525.419	1264.38
525.634	1194.38
525.849	1230.38
526.064	1226.38
526.28	1227.38
526.495	1441.38
526.71	1473.38
526.925	1294.38
527.14	1394.38
527.355	1335.38
527.57	1090.38
527.785	1154.38
527.999	1107.38
528.214	1061.38
528.429	1060.38
528.644	1069.38
528.859	1022.38
529.074	992.38
529.289	960.38
529.503	973.38
529.718	995.38
529.933	1159.38
530.148	1191.38
530.363	1022.38
530.577	981.38
530.792	975.38
531.007	965.38
531.221	970.38
531.436	952.38
531.651	954.38
531.865	998.38
532.08	996.38
532.295	956.38
532.509	1018.38
532.724	1123.38
532.938	1279.38
533.153	1479.38
533.367	1205.38
533.582	1159.38
533.796	1100.38
534.011	1007.38
534.225	1025.38
534.44	1061.38
534.654	1051.38
534.868	1215.38
535.083	1123.38
535.297	990.38
535.511	1018.38
535.726	1122.38
535.94	1075.38
536.154	1022.38
536.369	990.38
536.583	979.38
536.797	1012.38
537.011	1019.38
537.225	1079.38
537.44	1140.38
537.654	1021.38
537.868	964.38
538.082	1009.38
538.296	967.38
538.51	1067.38
538.724	1065.38
538.938	1022.38
539.153	991.38
539.367	962.38
539.581	981.38
539.795	1026.38
540.009	1111.38
540.222	1072.38
540.436	1039.38
540.65	1135.38
540.864	1124.38
541.078	1194.38
541.292	1289.38
541.506	1059.38
541.72	1051.38
541.934	1032.38
542.147	1019.38
542.361	1041.38
542.575	1026.38
542.789	1009.38
543.002	915.38
543.216	1032.38
543.43	947.38
543.644	907.38
543.857	918.38
544.071	933.38
544.285	913.38
544.498	911.38
544.712	890.38
544.925	969.38
545.139	941.38
545.352	877.38
545.566	901.38
545.779	1029.38
545.993	945.38
546.206	869.38
546.42	864.38
546.633	875.38
546.847	854.38
547.06	850.38
547.274	847.38
547.487	850.38
547.7	925.38
547.914	958.38
548.127	1072.38
548.34	1065.38
548.554	944.38
548.767	981.38
548.98	1041.38
549.193	945.38
549.407	986.38
549.62	1163.38
549.833	1065.38
550.046	1129.38
550.259	1103.38
550.473	999.38
550.686	934.38
550.899	978.38
551.112	952.38
551.325	997.38
551.538	1069.38
551.751	957.38
551.964	883.38
552.177	882.38
552.39	855.38
552.603	879.38
552.816	895.38
553.029	866.38
553.242	857.38
553.455	915.38
553.667	995.38
553.88	954.38
554.093	896.38
554.306	810.38
554.519	803.38
554.732	781.38
554.944	755.38
555.157	783.38
555.37	728.38
555.583	751.38
555.795	777.38
556.008	802.38
556.221	800.38
556.433	773.38
556.646	773.38
556.859	793.38
557.071	816.38
557.284	801.38
557.496	804.38
557.709	799.38
557.921	774.38
558.134	733.38
558.346	717.38
558.559	707.38
558.771	777.38
558.984	797.38
559.196	755.38
559.409	725.38
559.621	692.38
559.833	712.38
560.046	709.38
560.258	718.38
560.47	762.38
560.683	741.38
560.895	679.38
561.107	670.38
561.32	691.38
561.532	691.38
561.744	754.38
561.956	802.38
562.168	688.38
562.381	685.38
562.593	703.38
562.805	731.38
563.017	697.38
563.229	676.38
563.441	652.38
563.653	682.38
563.865	701.38
564.077	689.38
564.289	652.38
564.501	671.38
564.713	754.38
564.925	693.38
565.137	694.38
565.349	697.38
565.561	704.38
565.773	740.38
565.985	734.38
566.197	787.38
566.408	819.38
566.62	840.38
566.832	823.38
567.044	858.38
567.255	878.38
567.467	941.38
567.679	894.38
567.891	877.38
568.102	840.38
568.314	864.38
568.526	831.38
568.737	805.38
568.949	837.38
569.161	761.38
569.372	699.38
569.584	667.38
569.795	688.38
570.007	665.38
570.218	739.38
570.43	705.38
570.641	677.38
570.853	655.38
571.064	626.38
571.276	667.38
571.487	699.38
571.698	643.38
571.91	660.38
572.121	678.38
572.333	610.38
572.544	596.38
572.755	611.38
572.966	595.38
573.178	601.38
573.389	625.38
573.6	606.38
573.811	618.38
574.023	577.38
574.234	571.38
574.445	565.38
574.656	554.38
574.867	583.38
575.078	583.38
575.289	574.38
575.501	612.38
575.712	584.38
575.923	565.38
576.134	552.38
576.345	538.38
576.556	551.38
576.767	543.38
576.978	505.38
577.188	522.38
577.399	530.38
577.61	533.38
577.821	526.38
578.032	551.38
578.243	571.38
578.454	552.38
578.665	564.38
578.875	549.38
579.086	549.38
579.297	549.38
579.508	563.38
579.718	577.38
579.929	555.38
580.14	523.38
580.35	512.38
580.561	478.38
580.772	479.38
580.982	486.38
581.193	478.38
581.403	461.38
581.614	447.38
581.825	460.38
582.035	480.38
582.246	444.38
582.456	453.38
582.667	469.38
582.877	451.38
583.087	468.38
583.298	445.38
583.508	457.38
583.719	449.38
583.929	440.38
584.139	458.38
584.35	447.38
584.56	471.38
584.77	467.38
584.981	458.38
585.191	486.38
585.401	447.38
585.611	499.38
585.821	471.38
586.032	493.38
586.242	477.38
586.452	472.38
586.662	453.38
586.872	493.38
587.082	482.38
587.292	464.38
587.502	457.38
587.713	456.38
587.923	448.38
588.133	497.38
588.343	465.38
588.553	460.38
588.762	446.38
588.972	443.38
589.182	465.38
589.392	444.38
589.602	459.38
589.812	455.38
590.022	507.38
590.232	493.38
590.441	448.38
590.651	454.38
590.861	427.38
591.071	469.38
591.281	449.38
591.49	448.38
591.7	463.38
591.91	454.38
592.119	458.38
592.329	446.38
592.539	443.38
592.748	459.38
592.958	452.38
593.167	475.38
593.377	472.38
593.587	473.38
593.796	486.38
594.006	458.38
594.215	477.38
594.424	480.38
594.634	482.38
594.843	467.38
595.053	466.38
595.262	437.38
595.472	421.38
595.681	427.38
595.89	424.38
596.1	432.38
596.309	438.38
596.518	444.38
596.727	415.38
596.937	408.38
597.146	455.38
597.355	466.38
597.564	437.38
597.774	395.38
597.983	395.38
598.192	421.38
598.401	393.38
598.61	398.38
598.819	389.38
599.028	377.38
599.237	385.38
599.446	385.38
599.655	373.38
599.864	371.38
600.073	370.38
600.282	390.38
600.491	383.38
600.7	374.38
600.909	378.38
601.118	376.38
601.327	363.38
601.536	377.38
601.745	375.38
601.953	425.38
602.162	372.38
602.371	402.38
602.58	405.38
602.789	382.38
602.997	370.38
603.206	397.38
603.415	386.38
603.623	355.38
603.832	363.38
604.041	366.38
604.249	361.38
604.458	378.38
604.666	367.38
604.875	327.38
605.084	329.38
605.292	352.38
605.501	366.38
605.709	352.38
605.918	356.38
606.126	367.38
606.334	347.38
606.543	367.38
606.751	362.38
606.96	345.38
607.168	335.38
607.376	335.38
607.585	341.38
607.793	335.38
608.001	340.38
608.21	322.38
608.418	357.38
608.626	346.38
608.834	351.38
609.043	346.38
609.251	330.38
609.459	342.38
609.667	356.38
609.875	332.38
610.083	349.38
610.291	346.38
610.499	356.38
610.707	354.38
610.916	330.38
611.124	326.38
611.332	338.38
611.54	336.38
611.748	347.38
611.955	344.38
612.163	324.38
612.371	315.38
612.579	329.38
612.787	319.38
612.995	305.38
613.203	326.38
613.411	330.38
613.618	314.38
613.826	373.38
614.034	354.38
614.242	323.38
614.449	328.38
614.657	315.38
614.865	319.38
615.072	304.38
615.28	327.38
615.488	321.38
615.695	320.38
615.903	327.38
616.111	337.38
616.318	320.38
616.526	313.38
616.733	342.38
616.941	314.38
617.148	318.38
617.356	315.38
617.563	326.38
617.771	333.38
617.978	310.38
618.185	326.38
618.393	310.38
618.6	312.38
618.807	303.38
619.015	319.38
619.222	307.38
619.429	331.38
619.637	321.38
619.844	285.38
620.051	295.38
620.258	297.38
620.466	312.38
620.673	290.38
620.88	289.38
621.087	289.38
621.294	276.38
621.501	290.38
621.708	292.38
621.915	304.38
622.122	297.38
622.329	274.38
622.536	301.38
622.743	292.38
622.95	280.38
623.157	290.38
623.364	293.38
623.571	300.38
623.778	307.38
623.985	313.38
624.192	310.38
624.399	309.38
624.606	300.38
624.812	281.38
625.019	297.38
625.226	309.38
625.433	296.38
625.639	293.38
625.846	269.38
626.053	280.38
626.259	281.38
626.466	284.38
626.673	297.38
626.879	278.38
627.086	290.38
627.293	271.38
627.499	273.38
627.706	278.38
627.912	270.38
628.119	260.38
628.325	278.38
628.532	260.38
628.738	253.38
628.945	264.38
629.151	259.38
629.357	262.38
629.564	246.38
629.77	243.38
629.976	250.38
630.183	266.38
630.389	253.38
630.595	245.38
630.802	251.38
631.008	257.38
631.214	252.38
631.42	249.38
631.627	253.38
631.833	262.38
632.039	242.38
632.245	245.38
632.451	240.38
632.657	257.38
632.863	228.38
633.069	241.38
633.275	232.38
633.481	245.38
633.688	243.38
633.893	220.38
634.099	222.38
634.305	232.38
634.511	219.38
634.717	231.38
634.923	229.38
635.129	233.38
635.335	235.38
635.541	236.38
635.747	254.38
635.952	249.38
636.158	249.38
636.364	222.38
636.57	252.38
636.775	225.38
636.981	229.38
637.187	243.38
637.392	231.38
637.598	226.38
637.804	231.38
638.009	223.38
638.215	247.38
638.421	231.38
638.626	214.38
638.832	225.38
639.037	245.38
639.243	228.38
639.448	228.38
639.654	232.38
639.859	224.38
640.065	239.38
640.27	250.38
640.475	263.38
640.681	225.38
640.886	222.38
641.091	227.38
641.297	220.38
641.502	221.38
641.707	209.38
641.913	217.38
642.118	211.38
642.323	213.38
642.528	223.38
642.733	208.38
642.939	220.38
643.144	222.38
643.349	211.38
643.554	209.38
643.759	189.38
643.964	186.38
644.169	203.38
644.374	208.38
644.579	224.38
644.784	218.38
644.989	210.38
645.194	211.38
645.399	226.38
645.604	210.38
645.809	219.38
646.014	208.38
646.219	213.38
646.423	221.38
646.628	207.38
646.833	217.38
647.038	214.38
647.243	209.38
647.447	218.38
647.652	213.38
647.857	203.38
648.062	218.38
648.266	213.38
648.471	201.38
648.676	208.38
648.88	193.38
649.085	213.38
649.289	206.38
649.494	202.38
649.698	224.38
649.903	204.38
650.107	189.38
650.312	200.38
650.516	199.38
650.721	209.38
650.925	196.38
651.13	170.38
651.334	192.38
651.539	194.38
651.743	186.38
651.947	176.38
652.152	200.38
652.356	191.38
652.56	190.38
652.764	176.38
652.969	167.38
653.173	178.38
653.377	157.38
653.581	177.38
653.785	168.38
653.99	165.38
654.194	139.38
654.398	147.38
654.602	146.38
654.806	160.38
655.01	160.38
655.214	155.38
655.418	161.38
655.622	147.38
655.826	147.38
656.03	162.38
656.234	160.38
656.438	151.38
656.642	168.38
656.846	148.38
657.049	170.38
657.253	162.38
657.457	133.38
657.661	133.38
657.865	128.38
658.068	131.38
658.272	130.38
658.476	126.38
658.68	128.38
658.883	117.38
659.087	107.38
659.291	131.38
659.494	115.38
659.698	104.38
659.901	117.38
660.105	114.38
660.309	92.38
660.512	98.38
660.716	101.38
660.919	117.38
661.123	105.38
661.326	113.38
661.53	90.38
661.733	93.38
661.936	97.38
662.14	89.38
662.343	102.38
662.546	105.38
662.75	83.38
662.953	83.38
663.156	90.38
663.36	83.38
663.563	96.38
663.766	85.38
663.969	82.38
664.173	87.38
664.376	86.38
664.579	86.38
664.782	80.38
664.985	84.38
665.188	87.38
665.391	70.38
665.594	77.38
665.797	93.38
666	88.38
666.203	102.38
666.406	71.38
666.609	81.38
666.812	86.38
667.015	86.38
667.218	80.38
667.421	81.38
667.624	91.38
667.827	74.38
668.03	83.38
668.232	74.38
668.435	74.38
668.638	94.38
668.841	84.38
669.043	84.38
669.246	82.38
669.449	94.38
669.651	77.38
669.854	71.38
670.057	72.38
670.259	78.38
670.462	74.38
670.665	75.38
670.867	88.38
671.07	88.38
671.272	81.38
671.475	89.38
671.677	89.38
671.88	70.38
672.082	93.38
672.284	96.38
672.487	67.38
672.689	81.38
672.892	74.38
