Data from NickelSpatula.Lamp.E10.P2_HRD10591_11-59-26-525.txt Node
Date: Tue Jul 23 11:59:26 EDT 2019
User: cochatt
Spectrometer: HR+D1059
Trigger mode: 1
Integration Time (sec): 1.000000E-1
Scans to average: 1
Electric dark correction enabled: true
Nonlinearity correction enabled: false
Boxcar width: 0
XAxis mode: Wavelengths
Number of Pixels in Spectrum: 2048
>>>>>Begin Spectral Data<<<<<
223.165	-19.75
223.4	-19.75
223.635	-19.75
223.869	-20.75
224.104	-25.75
224.338	-18.75
224.573	-20.75
224.808	-21.75
225.042	3.25
225.277	1.25
225.511	0.25
225.746	10.25
225.98	17.25
226.215	9.25
226.449	13.25
226.683	17.25
226.918	19.25
227.152	36.25
227.387	27.25
227.621	32.25
227.856	47.25
228.09	54.25
228.324	50.25
228.559	64.25
228.793	69.25
229.027	150.25
229.262	167.25
229.496	152.25
229.73	171.25
229.964	196.25
230.199	211.25
230.433	220.25
230.667	223.25
230.901	206.25
231.136	205.25
231.37	208.25
231.604	217.25
231.838	234.25
232.072	248.25
232.306	239.25
232.541	242.25
232.775	241.25
233.009	257.25
233.243	295.25
233.477	330.25
233.711	354.25
233.945	331.25
234.179	322.25
234.413	356.25
234.647	380.25
234.881	435.25
235.115	403.25
235.349	400.25
235.583	356.25
235.817	353.25
236.051	394.25
236.285	429.25
236.519	466.25
236.753	451.25
236.987	441.25
237.221	408.25
237.455	412.25
237.689	436.25
237.922	444.25
238.156	474.25
238.39	537.25
238.624	668.25
238.858	579.25
239.091	518.25
239.325	519.25
239.559	490.25
239.793	557.25
240.027	656.25
240.26	607.25
240.494	599.25
240.728	593.25
240.961	701.25
241.195	644.25
241.429	616.25
241.662	601.25
241.896	524.25
242.13	492.25
242.363	451.25
242.597	470.25
242.83	536.25
243.064	557.25
243.298	564.25
243.531	620.25
243.765	635.25
243.998	633.25
244.232	604.25
244.465	597.25
244.699	594.25
244.932	665.25
245.166	619.25
245.399	547.25
245.633	556.25
245.866	573.25
246.099	621.25
246.333	727.25
246.566	767.25
246.8	754.25
247.033	765.25
247.266	678.25
247.5	664.25
247.733	668.25
247.966	680.25
248.2	686.25
248.433	741.25
248.666	849.25
248.899	864.25
249.133	859.25
249.366	988.25
249.599	1074.25
249.832	935.25
250.066	826.25
250.299	824.25
250.532	810.25
250.765	787.25
250.998	736.25
251.231	694.25
251.465	781.25
251.698	841.25
251.931	782.25
252.164	850.25
252.397	934.25
252.63	1035.25
252.863	1163.25
253.096	1196.25
253.329	1159.25
253.562	1105.25
253.795	1239.25
254.028	1380.25
254.261	1348.25
254.494	1251.25
254.727	1155.25
254.96	1102.25
255.193	1176.25
255.426	1123.25
255.659	872.25
255.892	802.25
256.124	855.25
256.357	1000.25
256.59	1222.25
256.823	1144.25
257.056	939.25
257.289	924.25
257.521	978.25
257.754	1137.25
257.987	1258.25
258.22	1127.25
258.452	983.25
258.685	1118.25
258.918	1249.25
259.151	1253.25
259.383	1301.25
259.616	1484.25
259.849	1563.25
260.081	1677.25
260.314	1865.25
260.547	1430.25
260.779	1459.25
261.012	1681.25
261.244	1570.25
261.477	1634.25
261.71	1508.25
261.942	1258.25
262.175	1263.25
262.407	1196.25
262.64	1245.25
262.872	1468.25
263.105	1609.25
263.337	1688.25
263.57	1487.25
263.802	1031.25
264.035	879.25
264.267	872.25
264.499	769.25
264.732	712.25
264.964	688.25
265.197	712.25
265.429	755.25
265.661	814.25
265.894	843.25
266.126	940.25
266.358	997.25
266.591	1235.25
266.823	1463.25
267.055	1365.25
267.287	1251.25
267.52	1249.25
267.752	1288.25
267.984	1415.25
268.216	1341.25
268.448	1086.25
268.681	1101.25
268.913	1173.25
269.145	1265.25
269.377	1310.25
269.609	1307.25
269.841	1185.25
270.073	1315.25
270.306	1340.25
270.538	1358.25
270.77	1377.25
271.002	1398.25
271.234	1426.25
271.466	1513.25
271.698	1412.25
271.93	1401.25
272.162	1423.25
272.394	1413.25
272.626	1396.25
272.858	1426.25
273.09	1491.25
273.322	1306.25
273.553	1251.25
273.785	1545.25
274.017	2005.25
274.249	2438.25
274.481	2478.25
274.713	2715.25
274.945	3136.25
275.176	3272.25
275.408	2825.25
275.64	2598.25
275.872	2604.25
276.104	2192.25
276.335	1898.25
276.567	1915.25
276.799	1903.25
277.031	2024.25
277.262	1597.25
277.494	1238.25
277.726	1174.25
277.957	1305.25
278.189	1470.25
278.421	1441.25
278.652	1413.25
278.884	1362.25
279.115	1227.25
279.347	1175.25
279.579	1190.25
279.81	1210.25
280.042	1189.25
280.273	1231.25
280.505	1148.25
280.736	1014.25
280.968	988.25
281.199	1058.25
281.431	1214.25
281.662	1212.25
281.894	1171.25
282.125	1252.25
282.356	1345.25
282.588	1360.25
282.819	1225.25
283.051	1370.25
283.282	1659.25
283.513	1923.25
283.745	2154.25
283.976	2149.25
284.207	2019.25
284.439	2077.25
284.67	2033.25
284.901	1797.25
285.132	1898.25
285.364	1988.25
285.595	1851.25
285.826	1939.25
286.057	2014.25
286.288	1927.25
286.52	1962.25
286.751	2060.25
286.982	2032.25
287.213	1766.25
287.444	1769.25
287.675	1810.25
287.906	1833.25
288.138	1551.25
288.369	1341.25
288.6	1223.25
288.831	1339.25
289.062	1502.25
289.293	1673.25
289.524	1574.25
289.755	1601.25
289.986	1630.25
290.217	1412.25
290.448	1125.25
290.679	924.25
290.91	916.25
291.141	930.25
291.371	977.25
291.602	962.25
291.833	996.25
292.064	1031.25
292.295	1228.25
292.526	1386.25
292.757	1437.25
292.987	1529.25
293.218	1546.25
293.449	1561.25
293.68	1677.25
293.91	1553.25
294.141	1611.25
294.372	1508.25
294.603	1371.25
294.833	1578.25
295.064	1816.25
295.295	1715.25
295.525	1289.25
295.756	1115.25
295.987	1001.25
296.217	998.25
296.448	1038.25
296.679	1112.25
296.909	1238.25
297.14	1325.25
297.37	1411.25
297.601	1357.25
297.831	1185.25
298.062	1254.25
298.292	1409.25
298.523	1570.25
298.753	1817.25
298.984	1588.25
299.214	1250.25
299.445	1084.25
299.675	1060.25
299.905	1052.25
300.136	1093.25
300.366	1195.25
300.597	1156.25
300.827	1024.25
301.057	1001.25
301.288	1029.25
301.518	1104.25
301.748	1274.25
301.979	1352.25
302.209	1458.25
302.439	1451.25
302.669	1279.25
302.9	1268.25
303.13	1161.25
303.36	1101.25
303.59	1043.25
303.82	1106.25
304.051	1255.25
304.281	1356.25
304.511	1291.25
304.741	1153.25
304.971	1195.25
305.201	1283.25
305.431	1196.25
305.661	1083.25
305.891	1092.25
306.121	1069.25
306.352	998.25
306.582	868.25
306.812	869.25
307.042	859.25
307.272	808.25
307.502	827.25
307.731	876.25
307.961	921.25
308.191	863.25
308.421	799.25
308.651	797.25
308.881	749.25
309.111	759.25
309.341	817.25
309.571	880.25
309.8	873.25
310.03	937.25
310.26	1030.25
310.49	965.25
310.72	868.25
310.949	853.25
311.179	890.25
311.409	911.25
311.639	1107.25
311.868	1376.25
312.098	1778.25
312.328	1887.25
312.557	1807.25
312.787	1854.25
313.017	1633.25
313.246	1783.25
313.476	1900.25
313.706	1603.25
313.935	1272.25
314.165	1043.25
314.394	947.25
314.624	963.25
314.853	986.25
315.083	1047.25
315.312	1001.25
315.542	1028.25
315.771	971.25
316.001	851.25
316.23	839.25
316.46	841.25
316.689	872.25
316.919	859.25
317.148	894.25
317.377	846.25
317.607	864.25
317.836	947.25
318.065	1104.25
318.295	1233.25
318.524	1163.25
318.753	1002.25
318.983	943.25
319.212	936.25
319.441	1001.25
319.67	1145.25
319.9	1204.25
320.129	1120.25
320.358	965.25
320.587	956.25
320.816	1019.25
321.046	1159.25
321.275	1316.25
321.504	1341.25
321.733	1296.25
321.962	1248.25
322.191	1144.25
322.42	1119.25
322.649	1164.25
322.878	1216.25
323.108	1176.25
323.337	1108.25
323.566	1098.25
323.795	1064.25
324.024	1025.25
324.253	976.25
324.482	975.25
324.71	1068.25
324.939	1207.25
325.168	1139.25
325.397	928.25
325.626	931.25
325.855	932.25
326.084	917.25
326.313	889.25
326.542	856.25
326.77	862.25
326.999	880.25
327.228	969.25
327.457	1027.25
327.686	1004.25
327.914	869.25
328.143	819.25
328.372	829.25
328.6	836.25
328.829	915.25
329.058	893.25
329.287	885.25
329.515	928.25
329.744	874.25
329.972	833.25
330.201	805.25
330.43	843.25
330.658	951.25
330.887	1072.25
331.115	1048.25
331.344	1010.25
331.572	965.25
331.801	870.25
332.03	854.25
332.258	884.25
332.486	975.25
332.715	1005.25
332.943	913.25
333.172	926.25
333.4	949.25
333.629	1029.25
333.857	1133.25
334.085	1099.25
334.314	1071.25
334.542	1055.25
334.771	953.25
334.999	954.25
335.227	925.25
335.455	943.25
335.684	1019.25
335.912	1180.25
336.14	1300.25
336.369	1261.25
336.597	1169.25
336.825	1363.25
337.053	1499.25
337.281	1219.25
337.51	957.25
337.738	971.25
337.966	1052.25
338.194	1172.25
338.422	1101.25
338.65	971.25
338.878	874.25
339.106	923.25
339.334	995.25
339.562	1095.25
339.79	1024.25
340.018	940.25
340.246	1027.25
340.474	1151.25
340.702	1266.25
340.93	1348.25
341.158	1329.25
341.386	1093.25
341.614	1121.25
341.842	1140.25
342.07	1141.25
342.298	1311.25
342.526	1384.25
342.754	1212.25
342.981	1126.25
343.209	1081.25
343.437	1147.25
343.665	1213.25
343.893	1171.25
344.12	1421.25
344.348	1580.25
344.576	1403.25
344.804	1189.25
345.031	1043.25
345.259	1006.25
345.487	992.25
345.714	1004.25
345.942	1100.25
346.17	1194.25
346.397	1117.25
346.625	1010.25
346.853	967.25
347.08	949.25
347.308	1002.25
347.535	1118.25
347.763	1172.25
347.99	1015.25
348.218	938.25
348.445	973.25
348.673	987.25
348.9	979.25
349.128	1046.25
349.355	1088.25
349.583	1066.25
349.81	979.25
350.037	946.25
350.265	842.25
350.492	807.25
350.72	780.25
350.947	828.25
351.174	885.25
351.402	951.25
351.629	994.25
351.856	978.25
352.083	896.25
352.311	983.25
352.538	1092.25
352.765	1180.25
352.992	1044.25
353.22	987.25
353.447	987.25
353.674	981.25
353.901	988.25
354.128	988.25
354.355	1036.25
354.583	987.25
354.81	970.25
355.037	1037.25
355.264	1033.25
355.491	1099.25
355.718	1191.25
355.945	1153.25
356.172	1098.25
356.399	1121.25
356.626	1353.25
356.853	1655.25
357.08	1743.25
357.307	1777.25
357.534	1399.25
357.761	1442.25
357.988	1803.25
358.215	2081.25
358.441	1953.25
358.668	1681.25
358.895	1540.25
359.122	1209.25
359.349	1209.25
359.576	1357.25
359.802	1103.25
360.029	918.25
360.256	1029.25
360.483	1301.25
360.709	1622.25
360.936	1683.25
361.163	1457.25
361.39	1171.25
361.616	1070.25
361.843	1230.25
362.07	1539.25
362.296	1403.25
362.523	1107.25
362.749	940.25
362.976	1004.25
363.203	1234.25
363.429	1380.25
363.656	1107.25
363.882	983.25
364.109	1025.25
364.335	1007.25
364.562	998.25
364.788	1147.25
365.015	1332.25
365.241	1192.25
365.468	971.25
365.694	842.25
365.92	830.25
366.147	796.25
366.373	819.25
366.599	793.25
366.826	800.25
367.052	823.25
367.278	855.25
367.505	837.25
367.731	929.25
367.957	1043.25
368.184	1071.25
368.41	1031.25
368.636	1063.25
368.862	1093.25
369.089	1045.25
369.315	937.25
369.541	884.25
369.767	887.25
369.993	865.25
370.219	872.25
370.445	909.25
370.672	1044.25
370.898	1124.25
371.124	1112.25
371.35	964.25
371.576	911.25
371.802	979.25
372.028	1160.25
372.254	1380.25
372.48	1155.25
372.706	1025.25
372.932	1137.25
373.158	1160.25
373.384	1376.25
373.61	1862.25
373.835	1896.25
374.061	1397.25
374.287	1175.25
374.513	1402.25
374.739	1695.25
374.965	1683.25
375.191	1711.25
375.416	1203.25
375.642	1046.25
375.868	1222.25
376.094	1384.25
376.319	1176.25
376.545	1299.25
376.771	1373.25
376.997	1163.25
377.222	874.25
377.448	757.25
377.674	769.25
377.899	764.25
378.125	751.25
378.35	769.25
378.576	785.25
378.802	865.25
379.027	953.25
379.253	927.25
379.478	939.25
379.704	1044.25
379.929	1132.25
380.155	1148.25
380.38	961.25
380.606	1039.25
380.831	1146.25
381.057	1013.25
381.282	985.25
381.507	1145.25
381.733	1465.25
381.958	1554.25
382.184	1647.25
382.409	1717.25
382.634	1690.25
382.86	1820.25
383.085	1489.25
383.31	1157.25
383.535	1223.25
383.761	1226.25
383.986	1184.25
384.211	1484.25
384.436	1412.25
384.662	1047.25
384.887	1012.25
385.112	1047.25
385.337	1027.25
385.562	1036.25
385.787	1141.25
386.013	1215.25
386.238	1264.25
386.463	1021.25
386.688	989.25
386.913	977.25
387.138	906.25
387.363	983.25
387.588	1001.25
387.813	1030.25
388.038	1113.25
388.263	998.25
388.488	988.25
388.713	1129.25
388.938	1239.25
389.163	1033.25
389.387	931.25
389.612	947.25
389.837	974.25
390.062	983.25
390.287	1004.25
390.512	1043.25
390.736	920.25
390.961	889.25
391.186	879.25
391.411	859.25
391.636	879.25
391.86	926.25
392.085	1027.25
392.31	1011.25
392.534	952.25
392.759	949.25
392.984	984.25
393.208	963.25
393.433	873.25
393.658	819.25
393.882	810.25
394.107	773.25
394.331	777.25
394.556	791.25
394.78	817.25
395.005	854.25
395.229	883.25
395.454	899.25
395.678	886.25
395.903	905.25
396.127	872.25
396.352	874.25
396.576	1000.25
396.801	1021.25
397.025	1136.25
397.249	1145.25
397.474	956.25
397.698	926.25
397.922	965.25
398.147	910.25
398.371	900.25
398.595	967.25
398.82	941.25
399.044	955.25
399.268	1036.25
399.492	1043.25
399.717	1061.25
399.941	1099.25
400.165	1091.25
400.389	1044.25
400.613	1072.25
400.837	1051.25
401.062	913.25
401.286	899.25
401.51	922.25
401.734	881.25
401.958	917.25
402.182	895.25
402.406	894.25
402.63	920.25
402.854	965.25
403.078	1085.25
403.302	1289.25
403.526	1367.25
403.75	1160.25
403.974	1048.25
404.198	1100.25
404.422	1218.25
404.645	1453.25
404.869	1600.25
405.093	1180.25
405.317	1002.25
405.541	963.25
405.765	1011.25
405.988	1015.25
406.212	1112.25
406.436	1288.25
406.66	1412.25
406.883	1159.25
407.107	1146.25
407.331	1357.25
407.555	1277.25
407.778	1088.25
408.002	1041.25
408.226	1047.25
408.449	1049.25
408.673	1013.25
408.896	963.25
409.12	927.25
409.344	911.25
409.567	888.25
409.791	891.25
410.014	884.25
410.238	880.25
410.461	893.25
410.685	908.25
410.908	931.25
411.132	939.25
411.355	949.25
411.578	937.25
411.802	930.25
412.025	977.25
412.249	990.25
412.472	943.25
412.695	965.25
412.919	935.25
413.142	993.25
413.365	1023.25
413.589	1047.25
413.812	979.25
414.035	939.25
414.258	937.25
414.482	1046.25
414.705	1062.25
414.928	909.25
415.151	884.25
415.374	899.25
415.597	928.25
415.821	938.25
416.044	905.25
416.267	870.25
416.49	874.25
416.713	876.25
416.936	871.25
417.159	852.25
417.382	887.25
417.605	907.25
417.828	936.25
418.051	917.25
418.274	903.25
418.497	939.25
418.72	924.25
418.943	957.25
419.166	995.25
419.389	1008.25
419.611	973.25
419.834	1025.25
420.057	1132.25
420.28	1107.25
420.503	1029.25
420.726	901.25
420.948	884.25
421.171	863.25
421.394	861.25
421.617	844.25
421.839	867.25
422.062	913.25
422.285	935.25
422.507	925.25
422.73	974.25
422.953	967.25
423.175	961.25
423.398	943.25
423.621	1006.25
423.843	1063.25
424.066	987.25
424.288	939.25
424.511	899.25
424.733	932.25
424.956	967.25
425.178	1079.25
425.401	1245.25
425.623	1433.25
425.846	1177.25
426.068	1060.25
426.291	1109.25
426.513	1019.25
426.735	957.25
426.958	992.25
427.18	1156.25
427.402	1523.25
427.625	1485.25
427.847	1186.25
428.069	907.25
428.292	906.25
428.514	917.25
428.736	858.25
428.958	977.25
429.181	1153.25
429.403	1008.25
429.625	907.25
429.847	854.25
430.069	938.25
430.292	901.25
430.514	888.25
430.736	977.25
430.958	1216.25
431.18	1077.25
431.402	866.25
431.624	803.25
431.846	795.25
432.068	786.25
432.29	827.25
432.512	931.25
432.734	1253.25
432.956	1120.25
433.178	848.25
433.4	850.25
433.622	852.25
433.844	890.25
434.066	938.25
434.287	919.25
434.509	896.25
434.731	917.25
434.953	864.25
435.175	901.25
435.397	1066.25
435.618	901.25
435.84	801.25
436.062	819.25
436.284	791.25
436.505	785.25
436.727	782.25
436.949	801.25
437.17	833.25
437.392	866.25
437.614	840.25
437.835	819.25
438.057	841.25
438.278	999.25
438.5	1448.25
438.721	1397.25
438.943	923.25
439.165	817.25
439.386	777.25
439.608	759.25
439.829	761.25
440.05	785.25
440.272	841.25
440.493	1023.25
440.715	1233.25
440.936	973.25
441.158	859.25
441.379	853.25
441.6	996.25
441.822	1047.25
442.043	897.25
442.264	874.25
442.486	855.25
442.707	860.25
442.928	863.25
443.149	884.25
443.371	885.25
443.592	930.25
443.813	916.25
444.034	888.25
444.255	934.25
444.476	937.25
444.698	939.25
444.919	934.25
445.14	1081.25
445.361	1011.25
445.582	969.25
445.803	935.25
446.024	952.25
446.245	934.25
446.466	941.25
446.687	905.25
446.908	885.25
447.129	844.25
447.35	825.25
447.571	794.25
447.792	787.25
448.013	793.25
448.234	775.25
448.455	769.25
448.675	789.25
448.896	820.25
449.117	795.25
449.338	784.25
449.559	815.25
449.779	883.25
450	842.25
450.221	830.25
450.442	832.25
450.662	782.25
450.883	827.25
451.104	785.25
451.324	798.25
451.545	815.25
451.766	817.25
451.986	771.25
452.207	743.25
452.428	774.25
452.648	771.25
452.869	840.25
453.089	864.25
453.31	838.25
453.53	770.25
453.751	729.25
453.971	752.25
454.192	754.25
454.412	819.25
454.633	777.25
454.853	757.25
455.073	737.25
455.294	702.25
455.514	740.25
455.734	773.25
455.955	779.25
456.175	834.25
456.395	728.25
456.616	711.25
456.836	726.25
457.056	681.25
457.276	704.25
457.497	747.25
457.717	724.25
457.937	678.25
458.157	691.25
458.377	736.25
458.598	740.25
458.818	767.25
459.038	788.25
459.258	831.25
459.478	858.25
459.698	916.25
459.918	901.25
460.138	851.25
460.358	911.25
460.578	856.25
460.798	863.25
461.018	906.25
461.238	843.25
461.458	847.25
461.678	886.25
461.898	938.25
462.118	912.25
462.338	935.25
462.558	966.25
462.777	993.25
462.997	1007.25
463.217	1029.25
463.437	1039.25
463.657	1012.25
463.876	972.25
464.096	969.25
464.316	960.25
464.536	959.25
464.755	1026.25
464.975	1032.25
465.195	933.25
465.414	1002.25
465.634	952.25
465.854	944.25
466.073	852.25
466.293	862.25
466.512	961.25
466.732	1004.25
466.951	1048.25
467.171	915.25
467.391	879.25
467.61	887.25
467.829	929.25
468.049	927.25
468.268	894.25
468.488	894.25
468.707	933.25
468.927	1083.25
469.146	1150.25
469.365	1020.25
469.585	965.25
469.804	1031.25
470.023	1121.25
470.243	987.25
470.462	927.25
470.681	903.25
470.901	916.25
471.12	1005.25
471.339	987.25
471.558	935.25
471.777	931.25
471.997	967.25
472.216	1130.25
472.435	1072.25
472.654	961.25
472.873	965.25
473.092	1018.25
473.311	1059.25
473.53	950.25
473.749	918.25
473.968	994.25
474.187	975.25
474.406	926.25
474.625	934.25
474.844	947.25
475.063	1007.25
475.282	1043.25
475.501	1065.25
475.72	1149.25
475.939	1108.25
476.158	1089.25
476.377	1231.25
476.596	1484.25
476.814	1510.25
477.033	1237.25
477.252	1049.25
477.471	987.25
477.69	1027.25
477.908	1107.25
478.127	1137.25
478.346	1061.25
478.564	1164.25
478.783	1097.25
479.002	1107.25
479.22	1287.25
479.439	1388.25
479.658	1188.25
479.876	1118.25
480.095	1189.25
480.313	1225.25
480.532	1103.25
480.751	1101.25
480.969	1106.25
481.188	1255.25
481.406	1318.25
481.624	1230.25
481.843	1109.25
482.061	1047.25
482.28	1196.25
482.498	1474.25
482.717	1379.25
482.935	1187.25
483.153	1127.25
483.372	1085.25
483.59	1097.25
483.808	1072.25
484.027	1045.25
484.245	981.25
484.463	983.25
484.681	1015.25
484.9	1076.25
485.118	1178.25
485.336	1130.25
485.554	1055.25
485.772	1099.25
485.99	1161.25
486.209	1220.25
486.427	1240.25
486.645	1182.25
486.863	1233.25
487.081	1244.25
487.299	1394.25
487.517	1372.25
487.735	1211.25
487.953	1236.25
488.171	1254.25
488.389	1163.25
488.607	1127.25
488.825	1175.25
489.043	1269.25
489.261	1469.25
489.479	1591.25
489.696	1327.25
489.914	1212.25
490.132	1109.25
490.35	1147.25
490.568	1161.25
490.786	1147.25
491.003	1121.25
491.221	1192.25
491.439	1150.25
491.657	1144.25
491.874	1244.25
492.092	1526.25
492.31	1834.25
492.527	1769.25
492.745	1507.25
492.963	1343.25
493.18	1288.25
493.398	1293.25
493.615	1274.25
493.833	1260.25
494.05	1274.25
494.268	1229.25
494.485	1228.25
494.703	1157.25
494.92	1228.25
495.138	1169.25
495.355	1193.25
495.573	1209.25
495.79	1425.25
496.008	1859.25
496.225	1593.25
496.442	1363.25
496.66	1343.25
496.877	1432.25
497.094	1377.25
497.312	1320.25
497.529	1354.25
497.746	1352.25
497.963	1401.25
498.181	1476.25
498.398	1600.25
498.615	1641.25
498.832	1712.25
499.049	1704.25
499.267	1544.25
499.484	1569.25
499.701	1592.25
499.918	1720.25
500.135	1864.25
500.352	1894.25
500.569	1978.25
500.786	2057.25
501.003	2033.25
501.22	1839.25
501.437	1711.25
501.654	1671.25
501.871	1637.25
502.088	1668.25
502.305	1513.25
502.522	1520.25
502.739	1493.25
502.956	1384.25
503.172	1341.25
503.389	1275.25
503.606	1267.25
503.823	1315.25
504.04	1315.25
504.256	1349.25
504.473	1336.25
504.69	1402.25
504.907	1416.25
505.123	1382.25
505.34	1418.25
505.557	1404.25
505.773	1339.25
505.99	1312.25
506.207	1367.25
506.423	1235.25
506.64	1191.25
506.856	1235.25
507.073	1384.25
507.289	1339.25
507.506	1341.25
507.722	1388.25
507.939	1440.25
508.155	1443.25
508.372	1315.25
508.588	1252.25
508.805	1217.25
509.021	1211.25
509.238	1165.25
509.454	1186.25
509.67	1164.25
509.887	1172.25
510.103	1330.25
510.319	1303.25
510.536	1184.25
510.752	1083.25
510.968	1073.25
511.184	1049.25
511.401	1027.25
511.617	1024.25
511.833	1008.25
512.049	1063.25
512.265	1095.25
512.481	1120.25
512.698	1222.25
512.914	1359.25
513.13	1219.25
513.346	1127.25
513.562	1196.25
513.778	1203.25
513.994	1175.25
514.21	1289.25
514.426	1242.25
514.642	1138.25
514.858	1128.25
515.074	1212.25
515.29	1279.25
515.506	1382.25
515.721	1331.25
515.937	1253.25
516.153	1148.25
516.369	1171.25
516.585	1222.25
516.801	1363.25
517.016	1634.25
517.232	1589.25
517.448	1542.25
517.664	1363.25
517.879	1313.25
518.095	1266.25
518.311	1265.25
518.527	1321.25
518.742	1403.25
518.958	1464.25
519.173	1403.25
519.389	1369.25
519.605	1394.25
519.82	1485.25
520.036	1755.25
520.251	1681.25
520.467	1565.25
520.682	2432.25
520.898	2969.25
521.113	2823.25
521.329	1737.25
521.544	1467.25
521.76	1491.25
521.975	1332.25
522.19	1290.25
522.406	1313.25
522.621	1463.25
522.836	1537.25
523.052	1611.25
523.267	1307.25
523.482	1333.25
523.698	1391.25
523.913	1359.25
524.128	1220.25
524.343	1168.25
524.559	1183.25
524.774	1127.25
524.989	1195.25
525.204	1174.25
525.419	1293.25
525.634	1181.25
525.849	1253.25
526.064	1244.25
526.28	1257.25
526.495	1464.25
526.71	1539.25
526.925	1347.25
527.14	1421.25
527.355	1357.25
527.57	1153.25
527.785	1161.25
527.999	1115.25
528.214	1087.25
528.429	1085.25
528.644	1102.25
528.859	1038.25
529.074	1025.25
529.289	999.25
529.503	1017.25
529.718	1017.25
529.933	1201.25
530.148	1179.25
530.363	1063.25
530.577	1038.25
530.792	996.25
531.007	997.25
531.221	970.25
531.436	987.25
531.651	973.25
531.865	1001.25
532.08	1019.25
532.295	965.25
532.509	1027.25
532.724	1157.25
532.938	1350.25
533.153	1561.25
533.367	1209.25
533.582	1183.25
533.796	1100.25
534.011	1037.25
534.225	1052.25
534.44	1058.25
534.654	1090.25
534.868	1255.25
535.083	1147.25
535.297	1008.25
535.511	988.25
535.726	1124.25
535.94	1081.25
536.154	1023.25
536.369	973.25
536.583	989.25
536.797	1032.25
537.011	1052.25
537.225	1125.25
537.44	1199.25
537.654	995.25
537.868	1026.25
538.082	1047.25
538.296	1037.25
538.51	1097.25
538.724	1111.25
538.938	1029.25
539.153	986.25
539.367	969.25
539.581	988.25
539.795	1042.25
540.009	1169.25
540.222	1075.25
540.436	1083.25
540.65	1183.25
540.864	1196.25
541.078	1205.25
541.292	1364.25
541.506	1117.25
541.72	1083.25
541.934	1049.25
542.147	1037.25
542.361	1023.25
542.575	1083.25
542.789	1028.25
543.002	961.25
543.216	1075.25
543.43	963.25
543.644	952.25
543.857	940.25
544.071	935.25
544.285	941.25
544.498	919.25
544.712	933.25
544.925	1027.25
545.139	950.25
545.352	896.25
545.566	936.25
545.779	1050.25
545.993	969.25
546.206	874.25
546.42	878.25
546.633	874.25
546.847	847.25
547.06	849.25
547.274	856.25
547.487	895.25
547.7	955.25
547.914	992.25
548.127	1100.25
548.34	1071.25
548.554	955.25
548.767	981.25
548.98	1063.25
549.193	979.25
549.407	1008.25
549.62	1155.25
549.833	1071.25
550.046	1148.25
550.259	1151.25
550.473	1008.25
550.686	972.25
550.899	973.25
551.112	957.25
551.325	1040.25
551.538	1065.25
551.751	921.25
551.964	880.25
552.177	851.25
552.39	858.25
552.603	896.25
552.816	906.25
553.029	854.25
553.242	861.25
553.455	920.25
553.667	1042.25
553.88	993.25
554.093	905.25
554.306	841.25
554.519	789.25
554.732	791.25
554.944	783.25
555.157	750.25
555.37	796.25
555.583	787.25
555.795	757.25
556.008	777.25
556.221	798.25
556.433	803.25
556.646	763.25
556.859	771.25
557.071	794.25
557.284	832.25
557.496	821.25
557.709	820.25
557.921	805.25
558.134	747.25
558.346	717.25
558.559	726.25
558.771	747.25
558.984	788.25
559.196	773.25
559.409	748.25
559.621	694.25
559.833	729.25
560.046	698.25
560.258	709.25
560.47	738.25
560.683	722.25
560.895	672.25
561.107	673.25
561.32	674.25
561.532	684.25
561.744	784.25
561.956	786.25
562.168	710.25
562.381	705.25
562.593	730.25
562.805	738.25
563.017	719.25
563.229	670.25
563.441	676.25
563.653	675.25
563.865	703.25
564.077	696.25
564.289	670.25
564.501	687.25
564.713	748.25
564.925	723.25
565.137	700.25
565.349	732.25
565.561	715.25
565.773	695.25
565.985	728.25
566.197	767.25
566.408	821.25
566.62	868.25
566.832	869.25
567.044	856.25
567.255	882.25
567.467	977.25
567.679	888.25
567.891	864.25
568.102	865.25
568.314	906.25
568.526	846.25
568.737	818.25
568.949	868.25
569.161	757.25
569.372	693.25
569.584	690.25
569.795	682.25
570.007	697.25
570.218	763.25
570.43	723.25
570.641	690.25
570.853	672.25
571.064	646.25
571.276	692.25
571.487	708.25
571.698	650.25
571.91	681.25
572.121	649.25
572.333	619.25
572.544	596.25
572.755	610.25
572.966	608.25
573.178	619.25
573.389	655.25
573.6	642.25
573.811	619.25
574.023	585.25
574.234	579.25
574.445	587.25
574.656	554.25
574.867	581.25
575.078	594.25
575.289	596.25
575.501	643.25
575.712	586.25
575.923	555.25
576.134	530.25
576.345	552.25
576.556	564.25
576.767	548.25
576.978	528.25
577.188	508.25
577.399	511.25
577.61	537.25
577.821	568.25
578.032	552.25
578.243	574.25
578.454	568.25
578.665	581.25
578.875	564.25
579.086	550.25
579.297	540.25
579.508	579.25
579.718	567.25
579.929	547.25
580.14	543.25
580.35	524.25
580.561	494.25
580.772	476.25
580.982	492.25
581.193	483.25
581.403	460.25
581.614	467.25
581.825	487.25
582.035	488.25
582.246	466.25
582.456	477.25
582.667	468.25
582.877	475.25
583.087	452.25
583.298	453.25
583.508	461.25
583.719	457.25
583.929	468.25
584.139	474.25
584.35	484.25
584.56	468.25
584.77	491.25
584.981	473.25
585.191	474.25
585.401	469.25
585.611	473.25
585.821	496.25
586.032	495.25
586.242	470.25
586.452	468.25
586.662	449.25
586.872	479.25
587.082	495.25
587.292	481.25
587.502	475.25
587.713	482.25
587.923	466.25
588.133	479.25
588.343	476.25
588.553	453.25
588.762	448.25
588.972	447.25
589.182	462.25
589.392	465.25
589.602	476.25
589.812	487.25
590.022	499.25
590.232	498.25
590.441	467.25
590.651	459.25
590.861	423.25
591.071	469.25
591.281	458.25
591.49	444.25
591.7	442.25
591.91	459.25
592.119	459.25
592.329	467.25
592.539	451.25
592.748	474.25
592.958	488.25
593.167	473.25
593.377	484.25
593.587	499.25
593.796	491.25
594.006	478.25
594.215	489.25
594.424	498.25
594.634	488.25
594.843	499.25
595.053	469.25
595.262	447.25
595.472	428.25
595.681	426.25
595.89	436.25
596.1	433.25
596.309	448.25
596.518	447.25
596.727	411.25
596.937	423.25
597.146	429.25
597.355	488.25
597.564	439.25
597.774	428.25
597.983	420.25
598.192	414.25
598.401	392.25
598.61	388.25
598.819	396.25
599.028	385.25
599.237	403.25
599.446	360.25
599.655	371.25
599.864	373.25
600.073	395.25
600.282	381.25
600.491	385.25
600.7	377.25
600.909	398.25
601.118	373.25
601.327	403.25
601.536	388.25
601.745	379.25
601.953	402.25
602.162	388.25
602.371	402.25
602.58	413.25
602.789	389.25
602.997	383.25
603.206	389.25
603.415	396.25
603.623	379.25
603.832	353.25
604.041	369.25
604.249	362.25
604.458	383.25
604.666	383.25
604.875	369.25
605.084	365.25
605.292	353.25
605.501	380.25
605.709	374.25
605.918	363.25
606.126	345.25
606.334	354.25
606.543	352.25
606.751	368.25
606.96	375.25
607.168	340.25
607.376	349.25
607.585	353.25
607.793	348.25
608.001	339.25
608.21	326.25
608.418	376.25
608.626	369.25
608.834	361.25
609.043	340.25
609.251	353.25
609.459	352.25
609.667	357.25
609.875	357.25
610.083	340.25
610.291	346.25
610.499	371.25
610.707	342.25
610.916	329.25
611.124	357.25
611.332	346.25
611.54	329.25
611.748	346.25
611.955	329.25
612.163	328.25
612.371	330.25
612.579	328.25
612.787	347.25
612.995	339.25
613.203	343.25
613.411	328.25
613.618	338.25
613.826	356.25
614.034	358.25
614.242	351.25
614.449	348.25
614.657	315.25
614.865	334.25
615.072	348.25
615.28	328.25
615.488	311.25
615.695	328.25
615.903	343.25
616.111	340.25
616.318	324.25
616.526	336.25
616.733	333.25
616.941	332.25
617.148	329.25
617.356	322.25
617.563	312.25
617.771	336.25
617.978	306.25
618.185	307.25
618.393	317.25
618.6	321.25
618.807	332.25
619.015	317.25
619.222	321.25
619.429	321.25
619.637	323.25
619.844	311.25
620.051	291.25
620.258	307.25
620.466	303.25
620.673	295.25
620.88	315.25
621.087	279.25
621.294	293.25
621.501	297.25
621.708	306.25
621.915	295.25
622.122	315.25
622.329	291.25
622.536	295.25
622.743	311.25
622.95	290.25
623.157	288.25
623.364	286.25
623.571	305.25
623.778	313.25
623.985	308.25
624.192	318.25
624.399	318.25
624.606	280.25
624.812	298.25
625.019	314.25
625.226	319.25
625.433	295.25
625.639	308.25
625.846	292.25
626.053	288.25
626.259	294.25
626.466	291.25
626.673	307.25
626.879	295.25
627.086	277.25
627.293	271.25
627.499	276.25
627.706	285.25
627.912	268.25
628.119	266.25
628.325	272.25
628.532	262.25
628.738	266.25
628.945	263.25
629.151	272.25
629.357	267.25
629.564	264.25
629.77	252.25
629.976	276.25
630.183	256.25
630.389	260.25
630.595	260.25
630.802	273.25
631.008	257.25
631.214	246.25
631.42	255.25
631.627	252.25
631.833	250.25
632.039	247.25
632.245	238.25
632.451	259.25
632.657	247.25
632.863	241.25
633.069	247.25
633.275	256.25
633.481	247.25
633.688	253.25
633.893	257.25
634.099	233.25
634.305	241.25
634.511	230.25
634.717	251.25
634.923	229.25
635.129	216.25
635.335	234.25
635.541	232.25
635.747	239.25
635.952	226.25
636.158	244.25
636.364	265.25
636.57	224.25
636.775	218.25
636.981	227.25
637.187	224.25
637.392	243.25
637.598	251.25
637.804	248.25
638.009	233.25
638.215	231.25
638.421	234.25
638.626	237.25
638.832	241.25
639.037	230.25
639.243	225.25
639.448	225.25
639.654	253.25
639.859	232.25
640.065	237.25
640.27	229.25
640.475	220.25
640.681	225.25
640.886	220.25
641.091	209.25
641.297	220.25
641.502	210.25
641.707	220.25
641.913	222.25
642.118	223.25
642.323	211.25
642.528	226.25
642.733	225.25
642.939	218.25
643.144	209.25
643.349	229.25
643.554	234.25
643.759	226.25
643.964	212.25
644.169	203.25
644.374	217.25
644.579	216.25
644.784	225.25
644.989	208.25
645.194	219.25
645.399	214.25
645.604	196.25
645.809	214.25
646.014	236.25
646.219	212.25
646.423	198.25
646.628	203.25
646.833	220.25
647.038	212.25
647.243	218.25
647.447	210.25
647.652	216.25
647.857	203.25
648.062	221.25
648.266	205.25
648.471	212.25
648.676	208.25
648.88	207.25
649.085	221.25
649.289	192.25
649.494	215.25
649.698	225.25
649.903	223.25
650.107	185.25
650.312	190.25
650.516	208.25
650.721	183.25
650.925	187.25
651.13	191.25
651.334	187.25
651.539	173.25
651.743	173.25
651.947	181.25
652.152	184.25
652.356	175.25
652.56	165.25
652.764	180.25
652.969	169.25
653.173	172.25
653.377	164.25
653.581	177.25
653.785	171.25
653.99	165.25
654.194	186.25
654.398	181.25
654.602	171.25
654.806	162.25
655.01	175.25
655.214	145.25
655.418	163.25
655.622	166.25
655.826	188.25
656.03	187.25
656.234	188.25
656.438	164.25
656.642	164.25
656.846	172.25
657.049	150.25
657.253	139.25
657.457	144.25
657.661	152.25
657.865	137.25
658.068	120.25
658.272	129.25
658.476	133.25
658.68	111.25
658.883	106.25
659.087	119.25
659.291	102.25
659.494	123.25
659.698	129.25
659.901	99.25
660.105	98.25
660.309	104.25
660.512	106.25
660.716	109.25
660.919	103.25
661.123	95.25
661.326	96.25
661.53	85.25
661.733	112.25
661.936	105.25
662.14	95.25
662.343	98.25
662.546	97.25
662.75	93.25
662.953	89.25
663.156	96.25
663.36	78.25
663.563	87.25
663.766	74.25
663.969	83.25
664.173	81.25
664.376	86.25
664.579	92.25
664.782	79.25
664.985	85.25
665.188	78.25
665.391	84.25
665.594	97.25
665.797	80.25
666	78.25
666.203	83.25
666.406	84.25
666.609	83.25
666.812	85.25
667.015	82.25
667.218	90.25
667.421	83.25
667.624	74.25
667.827	83.25
668.03	80.25
668.232	98.25
668.435	82.25
668.638	85.25
668.841	85.25
669.043	80.25
669.246	81.25
669.449	92.25
669.651	79.25
669.854	96.25
670.057	80.25
670.259	93.25
670.462	86.25
670.665	83.25
670.867	100.25
671.07	70.25
671.272	84.25
671.475	98.25
671.677	93.25
671.88	90.25
672.082	88.25
672.284	76.25
672.487	94.25
672.689	86.25
672.892	93.25
