Data from NickelSpatula.Lamp.E10.P2_HRD10591_11-58-56-526.txt Node
Date: Tue Jul 23 11:58:56 EDT 2019
User: cochatt
Spectrometer: HR+D1059
Trigger mode: 1
Integration Time (sec): 1.000000E-1
Scans to average: 1
Electric dark correction enabled: true
Nonlinearity correction enabled: false
Boxcar width: 0
XAxis mode: Wavelengths
Number of Pixels in Spectrum: 2048
>>>>>Begin Spectral Data<<<<<
223.165	-22.62
223.4	-22.62
223.635	-22.62
223.869	-16.62
224.104	-24.62
224.338	-21.62
224.573	-5.62
224.808	-13.62
225.042	-3.62
225.277	9.38
225.511	-9.62
225.746	0.38
225.98	-0.62
226.215	6.38
226.449	18.38
226.683	23.38
226.918	23.38
227.152	37.38
227.387	33.38
227.621	24.38
227.856	32.38
228.09	48.38
228.324	51.38
228.559	45.38
228.793	79.38
229.027	138.38
229.262	141.38
229.496	156.38
229.73	165.38
229.964	191.38
230.199	215.38
230.433	207.38
230.667	193.38
230.901	215.38
231.136	216.38
231.37	219.38
231.604	221.38
231.838	258.38
232.072	260.38
232.306	247.38
232.541	251.38
232.775	271.38
233.009	274.38
233.243	286.38
233.477	300.38
233.711	335.38
233.945	331.38
234.179	345.38
234.413	363.38
234.647	397.38
234.881	470.38
235.115	421.38
235.349	413.38
235.583	367.38
235.817	355.38
236.051	368.38
236.285	418.38
236.519	471.38
236.753	421.38
236.987	422.38
237.221	420.38
237.455	434.38
237.689	419.38
237.922	470.38
238.156	478.38
238.39	550.38
238.624	666.38
238.858	608.38
239.091	505.38
239.325	528.38
239.559	483.38
239.793	524.38
240.027	656.38
240.26	613.38
240.494	600.38
240.728	595.38
240.961	680.38
241.195	666.38
241.429	636.38
241.662	611.38
241.896	542.38
242.13	486.38
242.363	448.38
242.597	454.38
242.83	542.38
243.064	541.38
243.298	599.38
243.531	648.38
243.765	648.38
243.998	620.38
244.232	640.38
244.465	621.38
244.699	591.38
244.932	666.38
245.166	634.38
245.399	557.38
245.633	562.38
245.866	594.38
246.099	628.38
246.333	720.38
246.566	794.38
246.8	770.38
247.033	768.38
247.266	689.38
247.5	684.38
247.733	673.38
247.966	677.38
248.2	714.38
248.433	794.38
248.666	864.38
248.899	861.38
249.133	838.38
249.366	1023.38
249.599	1057.38
249.832	957.38
250.066	816.38
250.299	867.38
250.532	811.38
250.765	800.38
250.998	720.38
251.231	728.38
251.465	800.38
251.698	840.38
251.931	808.38
252.164	838.38
252.397	925.38
252.63	1050.38
252.863	1184.38
253.096	1205.38
253.329	1154.38
253.562	1118.38
253.795	1269.38
254.028	1373.38
254.261	1424.38
254.494	1270.38
254.727	1150.38
254.96	1142.38
255.193	1224.38
255.426	1165.38
255.659	848.38
255.892	782.38
256.124	868.38
256.357	1054.38
256.59	1185.38
256.823	1146.38
257.056	991.38
257.289	940.38
257.521	971.38
257.754	1130.38
257.987	1306.38
258.22	1133.38
258.452	1021.38
258.685	1159.38
258.918	1305.38
259.151	1270.38
259.383	1314.38
259.616	1506.38
259.849	1589.38
260.081	1734.38
260.314	1966.38
260.547	1494.38
260.779	1473.38
261.012	1740.38
261.244	1618.38
261.477	1634.38
261.71	1544.38
261.942	1310.38
262.175	1298.38
262.407	1263.38
262.64	1306.38
262.872	1530.38
263.105	1658.38
263.337	1723.38
263.57	1556.38
263.802	1044.38
264.035	933.38
264.267	855.38
264.499	791.38
264.732	708.38
264.964	687.38
265.197	732.38
265.429	791.38
265.661	824.38
265.894	878.38
266.126	930.38
266.358	1036.38
266.591	1267.38
266.823	1487.38
267.055	1434.38
267.287	1260.38
267.52	1236.38
267.752	1322.38
267.984	1474.38
268.216	1420.38
268.448	1111.38
268.681	1119.38
268.913	1216.38
269.145	1263.38
269.377	1292.38
269.609	1318.38
269.841	1219.38
270.073	1318.38
270.306	1361.38
270.538	1375.38
270.77	1399.38
271.002	1407.38
271.234	1507.38
271.466	1510.38
271.698	1450.38
271.93	1426.38
272.162	1439.38
272.394	1435.38
272.626	1412.38
272.858	1459.38
273.09	1522.38
273.322	1327.38
273.553	1290.38
273.785	1505.38
274.017	1992.38
274.249	2509.38
274.481	2540.38
274.713	2762.38
274.945	3167.38
275.176	3294.38
275.408	2894.38
275.64	2688.38
275.872	2623.38
276.104	2253.38
276.335	1916.38
276.567	1914.38
276.799	2000.38
277.031	2075.38
277.262	1598.38
277.494	1248.38
277.726	1183.38
277.957	1303.38
278.189	1454.38
278.421	1499.38
278.652	1442.38
278.884	1365.38
279.115	1254.38
279.347	1198.38
279.579	1200.38
279.81	1227.38
280.042	1235.38
280.273	1272.38
280.505	1150.38
280.736	1029.38
280.968	1029.38
281.199	1081.38
281.431	1243.38
281.662	1220.38
281.894	1181.38
282.125	1270.38
282.356	1388.38
282.588	1398.38
282.819	1239.38
283.051	1390.38
283.282	1742.38
283.513	1979.38
283.745	2184.38
283.976	2198.38
284.207	2078.38
284.439	2117.38
284.67	2002.38
284.901	1773.38
285.132	1909.38
285.364	2003.38
285.595	1868.38
285.826	1981.38
286.057	2005.38
286.288	1983.38
286.52	2015.38
286.751	2144.38
286.982	2135.38
287.213	1842.38
287.444	1791.38
287.675	1866.38
287.906	1870.38
288.138	1541.38
288.369	1359.38
288.6	1290.38
288.831	1338.38
289.062	1550.38
289.293	1708.38
289.524	1612.38
289.755	1575.38
289.986	1647.38
290.217	1470.38
290.448	1111.38
290.679	970.38
290.91	915.38
291.141	922.38
291.371	974.38
291.602	979.38
291.833	986.38
292.064	1067.38
292.295	1243.38
292.526	1411.38
292.757	1446.38
292.987	1571.38
293.218	1588.38
293.449	1629.38
293.68	1691.38
293.91	1611.38
294.141	1656.38
294.372	1524.38
294.603	1413.38
294.833	1611.38
295.064	1830.38
295.295	1699.38
295.525	1306.38
295.756	1166.38
295.987	1007.38
296.217	1036.38
296.448	1027.38
296.679	1103.38
296.909	1262.38
297.14	1314.38
297.37	1436.38
297.601	1327.38
297.831	1167.38
298.062	1272.38
298.292	1430.38
298.523	1548.38
298.753	1814.38
298.984	1599.38
299.214	1260.38
299.445	1076.38
299.675	1060.38
299.905	1037.38
300.136	1101.38
300.366	1213.38
300.597	1163.38
300.827	1007.38
301.057	1008.38
301.288	1031.38
301.518	1084.38
301.748	1237.38
301.979	1338.38
302.209	1451.38
302.439	1476.38
302.669	1254.38
302.9	1249.38
303.13	1159.38
303.36	1102.38
303.59	1063.38
303.82	1113.38
304.051	1249.38
304.281	1357.38
304.511	1290.38
304.741	1158.38
304.971	1232.38
305.201	1294.38
305.431	1203.38
305.661	1068.38
305.891	1088.38
306.121	1115.38
306.352	969.38
306.582	890.38
306.812	865.38
307.042	863.38
307.272	794.38
307.502	826.38
307.731	890.38
307.961	951.38
308.191	860.38
308.421	814.38
308.651	788.38
308.881	780.38
309.111	789.38
309.341	830.38
309.571	902.38
309.8	900.38
310.03	966.38
310.26	1031.38
310.49	970.38
310.72	839.38
310.949	858.38
311.179	884.38
311.409	915.38
311.639	1102.38
311.868	1382.38
312.098	1828.38
312.328	1951.38
312.557	1886.38
312.787	1874.38
313.017	1665.38
313.246	1820.38
313.476	1980.38
313.706	1593.38
313.935	1310.38
314.165	1082.38
314.394	984.38
314.624	967.38
314.853	1004.38
315.083	1045.38
315.312	995.38
315.542	1013.38
315.771	963.38
316.001	847.38
316.23	832.38
316.46	836.38
316.689	859.38
316.919	891.38
317.148	890.38
317.377	877.38
317.607	886.38
317.836	942.38
318.065	1107.38
318.295	1247.38
318.524	1151.38
318.753	967.38
318.983	938.38
319.212	924.38
319.441	1008.38
319.67	1153.38
319.9	1225.38
320.129	1155.38
320.358	989.38
320.587	921.38
320.816	1028.38
321.046	1184.38
321.275	1365.38
321.504	1355.38
321.733	1293.38
321.962	1248.38
322.191	1184.38
322.42	1133.38
322.649	1141.38
322.878	1226.38
323.108	1182.38
323.337	1094.38
323.566	1098.38
323.795	1052.38
324.024	999.38
324.253	963.38
324.482	987.38
324.71	1069.38
324.939	1210.38
325.168	1135.38
325.397	933.38
325.626	905.38
325.855	897.38
326.084	933.38
326.313	868.38
326.542	823.38
326.77	869.38
326.999	910.38
327.228	954.38
327.457	1037.38
327.686	1026.38
327.914	893.38
328.143	838.38
328.372	815.38
328.6	834.38
328.829	883.38
329.058	886.38
329.287	870.38
329.515	899.38
329.744	876.38
329.972	852.38
330.201	803.38
330.43	844.38
330.658	963.38
330.887	1073.38
331.115	1016.38
331.344	1002.38
331.572	983.38
331.801	903.38
332.03	848.38
332.258	881.38
332.486	941.38
332.715	979.38
332.943	907.38
333.172	895.38
333.4	929.38
333.629	1040.38
333.857	1106.38
334.085	1120.38
334.314	1081.38
334.542	1027.38
334.771	977.38
334.999	946.38
335.227	921.38
335.455	963.38
335.684	1038.38
335.912	1212.38
336.14	1301.38
336.369	1267.38
336.597	1221.38
336.825	1377.38
337.053	1547.38
337.281	1279.38
337.51	1021.38
337.738	965.38
337.966	1069.38
338.194	1165.38
338.422	1108.38
338.65	952.38
338.878	877.38
339.106	918.38
339.334	1045.38
339.562	1102.38
339.79	1025.38
340.018	953.38
340.246	1043.38
340.474	1187.38
340.702	1258.38
340.93	1356.38
341.158	1326.38
341.386	1095.38
341.614	1112.38
341.842	1126.38
342.07	1164.38
342.298	1360.38
342.526	1417.38
342.754	1210.38
342.981	1098.38
343.209	1053.38
343.437	1137.38
343.665	1194.38
343.893	1179.38
344.12	1386.38
344.348	1638.38
344.576	1445.38
344.804	1235.38
345.031	1034.38
345.259	964.38
345.487	1010.38
345.714	1025.38
345.942	1083.38
346.17	1176.38
346.397	1125.38
346.625	991.38
346.853	992.38
347.08	941.38
347.308	1005.38
347.535	1137.38
347.763	1164.38
347.99	995.38
348.218	900.38
348.445	966.38
348.673	981.38
348.9	981.38
349.128	1060.38
349.355	1116.38
349.583	1074.38
349.81	1003.38
350.037	955.38
350.265	827.38
350.492	782.38
350.72	799.38
350.947	815.38
351.174	880.38
351.402	942.38
351.629	991.38
351.856	942.38
352.083	905.38
352.311	966.38
352.538	1112.38
352.765	1152.38
352.992	1065.38
353.22	980.38
353.447	1006.38
353.674	991.38
353.901	990.38
354.128	962.38
354.355	1011.38
354.583	993.38
354.81	966.38
355.037	1043.38
355.264	1014.38
355.491	1084.38
355.718	1179.38
355.945	1152.38
356.172	1116.38
356.399	1093.38
356.626	1375.38
356.853	1660.38
357.08	1703.38
357.307	1776.38
357.534	1338.38
357.761	1431.38
357.988	1756.38
358.215	2107.38
358.441	1987.38
358.668	1682.38
358.895	1502.38
359.122	1232.38
359.349	1220.38
359.576	1316.38
359.802	1077.38
360.029	960.38
360.256	1030.38
360.483	1282.38
360.709	1636.38
360.936	1685.38
361.163	1474.38
361.39	1146.38
361.616	1060.38
361.843	1228.38
362.07	1544.38
362.296	1364.38
362.523	1094.38
362.749	938.38
362.976	984.38
363.203	1204.38
363.429	1351.38
363.656	1109.38
363.882	983.38
364.109	991.38
364.335	998.38
364.562	995.38
364.788	1123.38
365.015	1316.38
365.241	1170.38
365.468	988.38
365.694	854.38
365.92	805.38
366.147	783.38
366.373	780.38
366.599	810.38
366.826	796.38
367.052	815.38
367.278	832.38
367.505	842.38
367.731	907.38
367.957	1030.38
368.184	1030.38
368.41	1025.38
368.636	1032.38
368.862	1070.38
369.089	1057.38
369.315	930.38
369.541	894.38
369.767	894.38
369.993	844.38
370.219	856.38
370.445	904.38
370.672	1046.38
370.898	1068.38
371.124	1090.38
371.35	961.38
371.576	909.38
371.802	989.38
372.028	1167.38
372.254	1372.38
372.48	1137.38
372.706	1026.38
372.932	1079.38
373.158	1137.38
373.384	1351.38
373.61	1846.38
373.835	1864.38
374.061	1405.38
374.287	1196.38
374.513	1404.38
374.739	1669.38
374.965	1702.38
375.191	1675.38
375.416	1178.38
375.642	1009.38
375.868	1219.38
376.094	1389.38
376.319	1154.38
376.545	1302.38
376.771	1377.38
376.997	1166.38
377.222	859.38
377.448	747.38
377.674	768.38
377.899	755.38
378.125	714.38
378.35	780.38
378.576	813.38
378.802	858.38
379.027	916.38
379.253	911.38
379.478	918.38
379.704	1052.38
379.929	1078.38
380.155	1119.38
380.38	951.38
380.606	984.38
380.831	1141.38
381.057	1050.38
381.282	980.38
381.507	1180.38
381.733	1474.38
381.958	1502.38
382.184	1653.38
382.409	1718.38
382.634	1666.38
382.86	1792.38
383.085	1459.38
383.31	1127.38
383.535	1215.38
383.761	1239.38
383.986	1151.38
384.211	1415.38
384.436	1335.38
384.662	1059.38
384.887	1020.38
385.112	1049.38
385.337	1069.38
385.562	987.38
385.787	1110.38
386.013	1208.38
386.238	1257.38
386.463	1044.38
386.688	994.38
386.913	938.38
387.138	902.38
387.363	993.38
387.588	1013.38
387.813	987.38
388.038	1080.38
388.263	958.38
388.488	947.38
388.713	1141.38
388.938	1245.38
389.163	1039.38
389.387	931.38
389.612	910.38
389.837	950.38
390.062	974.38
390.287	1020.38
390.512	999.38
390.736	958.38
390.961	894.38
391.186	865.38
391.411	853.38
391.636	863.38
391.86	909.38
392.085	1043.38
392.31	992.38
392.534	934.38
392.759	960.38
392.984	978.38
393.208	965.38
393.433	885.38
393.658	791.38
393.882	810.38
394.107	794.38
394.331	796.38
394.556	782.38
394.78	830.38
395.005	831.38
395.229	854.38
395.454	874.38
395.678	926.38
395.903	930.38
396.127	895.38
396.352	860.38
396.576	976.38
396.801	991.38
397.025	1100.38
397.249	1116.38
397.474	959.38
397.698	930.38
397.922	962.38
398.147	902.38
398.371	888.38
398.595	976.38
398.82	945.38
399.044	942.38
399.268	1000.38
399.492	1022.38
399.717	1044.38
399.941	1100.38
400.165	1050.38
400.389	1048.38
400.613	1072.38
400.837	1016.38
401.062	939.38
401.286	911.38
401.51	904.38
401.734	924.38
401.958	945.38
402.182	902.38
402.406	900.38
402.63	953.38
402.854	929.38
403.078	1068.38
403.302	1306.38
403.526	1341.38
403.75	1211.38
403.974	1082.38
404.198	1122.38
404.422	1227.38
404.645	1437.38
404.869	1589.38
405.093	1168.38
405.317	987.38
405.541	992.38
405.765	1029.38
405.988	1018.38
406.212	1084.38
406.436	1305.38
406.66	1412.38
406.883	1157.38
407.107	1190.38
407.331	1373.38
407.555	1345.38
407.778	1080.38
408.002	1056.38
408.226	1081.38
408.449	1047.38
408.673	1025.38
408.896	958.38
409.12	913.38
409.344	901.38
409.567	920.38
409.791	902.38
410.014	880.38
410.238	886.38
410.461	886.38
410.685	917.38
410.908	899.38
411.132	942.38
411.355	906.38
411.578	954.38
411.802	949.38
412.025	979.38
412.249	1022.38
412.472	931.38
412.695	961.38
412.919	950.38
413.142	1006.38
413.365	1068.38
413.589	1068.38
413.812	962.38
414.035	908.38
414.258	924.38
414.482	1055.38
414.705	1063.38
414.928	907.38
415.151	898.38
415.374	889.38
415.597	928.38
415.821	934.38
416.044	900.38
416.267	885.38
416.49	882.38
416.713	849.38
416.936	874.38
417.159	858.38
417.382	869.38
417.605	922.38
417.828	902.38
418.051	911.38
418.274	923.38
418.497	936.38
418.72	932.38
418.943	961.38
419.166	999.38
419.389	1023.38
419.611	1000.38
419.834	1022.38
420.057	1127.38
420.28	1131.38
420.503	1026.38
420.726	898.38
420.948	893.38
421.171	877.38
421.394	862.38
421.617	850.38
421.839	879.38
422.062	932.38
422.285	925.38
422.507	954.38
422.73	949.38
422.953	970.38
423.175	955.38
423.398	933.38
423.621	1008.38
423.843	1069.38
424.066	996.38
424.288	955.38
424.511	912.38
424.733	903.38
424.956	934.38
425.178	1101.38
425.401	1234.38
425.623	1416.38
425.846	1168.38
426.068	1022.38
426.291	1140.38
426.513	1062.38
426.735	946.38
426.958	1021.38
427.18	1178.38
427.402	1510.38
427.625	1470.38
427.847	1207.38
428.069	948.38
428.292	893.38
428.514	866.38
428.736	857.38
428.958	975.38
429.181	1163.38
429.403	965.38
429.625	899.38
429.847	891.38
430.069	907.38
430.292	916.38
430.514	899.38
430.736	954.38
430.958	1186.38
431.18	1116.38
431.402	837.38
431.624	807.38
431.846	812.38
432.068	786.38
432.29	827.38
432.512	914.38
432.734	1226.38
432.956	1118.38
433.178	867.38
433.4	852.38
433.622	845.38
433.844	902.38
434.066	943.38
434.287	916.38
434.509	894.38
434.731	933.38
434.953	854.38
435.175	922.38
435.397	1056.38
435.618	874.38
435.84	813.38
436.062	832.38
436.284	806.38
436.505	790.38
436.727	777.38
436.949	797.38
437.17	831.38
437.392	863.38
437.614	882.38
437.835	834.38
438.057	840.38
438.278	996.38
438.5	1385.38
438.721	1394.38
438.943	942.38
439.165	820.38
439.386	786.38
439.608	773.38
439.829	789.38
440.05	789.38
440.272	839.38
440.493	1018.38
440.715	1256.38
440.936	984.38
441.158	866.38
441.379	856.38
441.6	979.38
441.822	1055.38
442.043	875.38
442.264	855.38
442.486	874.38
442.707	875.38
442.928	902.38
443.149	904.38
443.371	906.38
443.592	934.38
443.813	944.38
444.034	908.38
444.255	870.38
444.476	933.38
444.698	905.38
444.919	951.38
445.14	1075.38
445.361	1034.38
445.582	974.38
445.803	910.38
446.024	974.38
446.245	959.38
446.466	924.38
446.687	890.38
446.908	884.38
447.129	836.38
447.35	822.38
447.571	771.38
447.792	807.38
448.013	792.38
448.234	788.38
448.455	813.38
448.675	816.38
448.896	800.38
449.117	797.38
449.338	806.38
449.559	834.38
449.779	879.38
450	890.38
450.221	856.38
450.442	844.38
450.662	803.38
450.883	791.38
451.104	834.38
451.324	804.38
451.545	798.38
451.766	813.38
451.986	796.38
452.207	770.38
452.428	782.38
452.648	782.38
452.869	822.38
453.089	849.38
453.31	831.38
453.53	776.38
453.751	751.38
453.971	723.38
454.192	757.38
454.412	796.38
454.633	742.38
454.853	770.38
455.073	741.38
455.294	728.38
455.514	739.38
455.734	778.38
455.955	800.38
456.175	812.38
456.395	767.38
456.616	735.38
456.836	730.38
457.056	717.38
457.276	684.38
457.497	684.38
457.717	702.38
457.937	723.38
458.157	726.38
458.377	738.38
458.598	749.38
458.818	774.38
459.038	797.38
459.258	827.38
459.478	871.38
459.698	894.38
459.918	922.38
460.138	885.38
460.358	890.38
460.578	846.38
460.798	877.38
461.018	904.38
461.238	834.38
461.458	846.38
461.678	894.38
461.898	954.38
462.118	931.38
462.338	917.38
462.558	942.38
462.777	1005.38
462.997	998.38
463.217	1006.38
463.437	1044.38
463.657	1018.38
463.876	983.38
464.096	976.38
464.316	969.38
464.536	981.38
464.755	1036.38
464.975	979.38
465.195	965.38
465.414	1006.38
465.634	973.38
465.854	943.38
466.073	849.38
466.293	869.38
466.512	952.38
466.732	1059.38
466.951	1043.38
467.171	954.38
467.391	882.38
467.61	878.38
467.829	908.38
468.049	951.38
468.268	894.38
468.488	882.38
468.707	920.38
468.927	1082.38
469.146	1124.38
469.365	1041.38
469.585	956.38
469.804	1000.38
470.023	1116.38
470.243	987.38
470.462	934.38
470.681	923.38
470.901	917.38
471.12	971.38
471.339	1015.38
471.558	924.38
471.777	929.38
471.997	999.38
472.216	1123.38
472.435	1087.38
472.654	981.38
472.873	978.38
473.092	1022.38
473.311	1079.38
473.53	944.38
473.749	923.38
473.968	975.38
474.187	994.38
474.406	946.38
474.625	941.38
474.844	970.38
475.063	1061.38
475.282	1054.38
475.501	1057.38
475.72	1142.38
475.939	1100.38
476.158	1074.38
476.377	1274.38
476.596	1450.38
476.814	1518.38
477.033	1258.38
477.252	1043.38
477.471	990.38
477.69	999.38
477.908	1099.38
478.127	1158.38
478.346	1038.38
478.564	1150.38
478.783	1077.38
479.002	1125.38
479.22	1269.38
479.439	1396.38
479.658	1234.38
479.876	1102.38
480.095	1196.38
480.313	1231.38
480.532	1137.38
480.751	1120.38
480.969	1135.38
481.188	1287.38
481.406	1306.38
481.624	1242.38
481.843	1144.38
482.061	1062.38
482.28	1203.38
482.498	1467.38
482.717	1379.38
482.935	1186.38
483.153	1147.38
483.372	1056.38
483.59	1063.38
483.808	1039.38
484.027	1030.38
484.245	1005.38
484.463	977.38
484.681	1033.38
484.9	1107.38
485.118	1197.38
485.336	1116.38
485.554	1061.38
485.772	1117.38
485.99	1166.38
486.209	1223.38
486.427	1246.38
486.645	1205.38
486.863	1235.38
487.081	1274.38
487.299	1395.38
487.517	1359.38
487.735	1230.38
487.953	1230.38
488.171	1263.38
488.389	1170.38
488.607	1113.38
488.825	1162.38
489.043	1287.38
489.261	1500.38
489.479	1618.38
489.696	1299.38
489.914	1202.38
490.132	1106.38
490.35	1102.38
490.568	1152.38
490.786	1139.38
491.003	1121.38
491.221	1150.38
491.439	1143.38
491.657	1154.38
491.874	1242.38
492.092	1519.38
492.31	1818.38
492.527	1784.38
492.745	1544.38
492.963	1338.38
493.18	1302.38
493.398	1346.38
493.615	1314.38
493.833	1267.38
494.05	1255.38
494.268	1307.38
494.485	1236.38
494.703	1210.38
494.92	1215.38
495.138	1213.38
495.355	1223.38
495.573	1235.38
495.79	1394.38
496.008	1851.38
496.225	1606.38
496.442	1347.38
496.66	1349.38
496.877	1444.38
497.094	1402.38
497.312	1315.38
497.529	1307.38
497.746	1334.38
497.963	1406.38
498.181	1495.38
498.398	1601.38
498.615	1682.38
498.832	1711.38
499.049	1707.38
499.267	1493.38
499.484	1526.38
499.701	1643.38
499.918	1757.38
500.135	1893.38
500.352	1912.38
500.569	1989.38
500.786	2073.38
501.003	2042.38
501.22	1804.38
501.437	1739.38
501.654	1693.38
501.871	1584.38
502.088	1649.38
502.305	1520.38
502.522	1538.38
502.739	1490.38
502.956	1411.38
503.172	1401.38
503.389	1326.38
503.606	1284.38
503.823	1319.38
504.04	1310.38
504.256	1339.38
504.473	1376.38
504.69	1372.38
504.907	1410.38
505.123	1388.38
505.34	1445.38
505.557	1418.38
505.773	1343.38
505.99	1281.38
506.207	1367.38
506.423	1287.38
506.64	1183.38
506.856	1266.38
507.073	1371.38
507.289	1333.38
507.506	1320.38
507.722	1418.38
507.939	1476.38
508.155	1447.38
508.372	1308.38
508.588	1287.38
508.805	1224.38
509.021	1212.38
509.238	1172.38
509.454	1181.38
509.67	1200.38
509.887	1187.38
510.103	1355.38
510.319	1335.38
510.536	1197.38
510.752	1122.38
510.968	1045.38
511.184	1040.38
511.401	1052.38
511.617	1026.38
511.833	1036.38
512.049	1043.38
512.265	1132.38
512.481	1125.38
512.698	1246.38
512.914	1382.38
513.13	1236.38
513.346	1146.38
513.562	1196.38
513.778	1175.38
513.994	1147.38
514.21	1246.38
514.426	1214.38
514.642	1153.38
514.858	1160.38
515.074	1174.38
515.29	1254.38
515.506	1430.38
515.721	1345.38
515.937	1239.38
516.153	1160.38
516.369	1164.38
516.585	1204.38
516.801	1466.38
517.016	1657.38
517.232	1579.38
517.448	1522.38
517.664	1386.38
517.879	1330.38
518.095	1251.38
518.311	1260.38
518.527	1368.38
518.742	1392.38
518.958	1477.38
519.173	1408.38
519.389	1376.38
519.605	1421.38
519.82	1487.38
520.036	1742.38
520.251	1712.38
520.467	1645.38
520.682	2439.38
520.898	2954.38
521.113	2847.38
521.329	1742.38
521.544	1534.38
521.76	1508.38
521.975	1358.38
522.19	1301.38
522.406	1361.38
522.621	1488.38
522.836	1526.38
523.052	1571.38
523.267	1315.38
523.482	1341.38
523.698	1422.38
523.913	1358.38
524.128	1206.38
524.343	1166.38
524.559	1201.38
524.774	1132.38
524.989	1180.38
525.204	1183.38
525.419	1282.38
525.634	1250.38
525.849	1262.38
526.064	1258.38
526.28	1258.38
526.495	1474.38
526.71	1519.38
526.925	1375.38
527.14	1434.38
527.355	1394.38
527.57	1172.38
527.785	1217.38
527.999	1134.38
528.214	1074.38
528.429	1064.38
528.644	1059.38
528.859	1023.38
529.074	1024.38
529.289	993.38
529.503	1025.38
529.718	1029.38
529.933	1195.38
530.148	1233.38
530.363	1040.38
530.577	1018.38
530.792	979.38
531.007	1016.38
531.221	958.38
531.436	984.38
531.651	1007.38
531.865	1020.38
532.08	1040.38
532.295	1000.38
532.509	1017.38
532.724	1200.38
532.938	1334.38
533.153	1552.38
533.367	1195.38
533.582	1178.38
533.796	1082.38
534.011	1050.38
534.225	1087.38
534.44	1062.38
534.654	1136.38
534.868	1270.38
535.083	1134.38
535.297	988.38
535.511	1038.38
535.726	1163.38
535.94	1076.38
536.154	1029.38
536.369	979.38
536.583	1024.38
536.797	1027.38
537.011	1039.38
537.225	1111.38
537.44	1201.38
537.654	1020.38
537.868	1020.38
538.082	1032.38
538.296	1018.38
538.51	1081.38
538.724	1107.38
538.938	1056.38
539.153	979.38
539.367	974.38
539.581	1005.38
539.795	1052.38
540.009	1189.38
540.222	1052.38
540.436	1068.38
540.65	1165.38
540.864	1187.38
541.078	1230.38
541.292	1404.38
541.506	1110.38
541.72	1076.38
541.934	1022.38
542.147	1037.38
542.361	1026.38
542.575	1078.38
542.789	1013.38
543.002	970.38
543.216	1090.38
543.43	954.38
543.644	914.38
543.857	926.38
544.071	940.38
544.285	959.38
544.498	939.38
544.712	925.38
544.925	989.38
545.139	969.38
545.352	866.38
545.566	914.38
545.779	1048.38
545.993	973.38
546.206	911.38
546.42	908.38
546.633	885.38
546.847	851.38
547.06	848.38
547.274	850.38
547.487	886.38
547.7	961.38
547.914	995.38
548.127	1132.38
548.34	1110.38
548.554	975.38
548.767	1019.38
548.98	1072.38
549.193	1005.38
549.407	1020.38
549.62	1204.38
549.833	1135.38
550.046	1156.38
550.259	1159.38
550.473	1021.38
550.686	995.38
550.899	1004.38
551.112	996.38
551.325	1050.38
551.538	1092.38
551.751	939.38
551.964	914.38
552.177	879.38
552.39	897.38
552.603	894.38
552.816	947.38
553.029	871.38
553.242	878.38
553.455	943.38
553.667	1023.38
553.88	954.38
554.093	913.38
554.306	869.38
554.519	814.38
554.732	800.38
554.944	770.38
555.157	769.38
555.37	759.38
555.583	767.38
555.795	788.38
556.008	807.38
556.221	822.38
556.433	803.38
556.646	768.38
556.859	776.38
557.071	790.38
557.284	811.38
557.496	840.38
557.709	810.38
557.921	791.38
558.134	738.38
558.346	736.38
558.559	726.38
558.771	754.38
558.984	850.38
559.196	747.38
559.409	736.38
559.621	708.38
559.833	723.38
560.046	730.38
560.258	690.38
560.47	753.38
560.683	727.38
560.895	691.38
561.107	676.38
561.32	702.38
561.532	685.38
561.744	770.38
561.956	814.38
562.168	711.38
562.381	702.38
562.593	732.38
562.805	743.38
563.017	710.38
563.229	682.38
563.441	655.38
563.653	672.38
563.865	709.38
564.077	684.38
564.289	682.38
564.501	699.38
564.713	751.38
564.925	707.38
565.137	680.38
565.349	701.38
565.561	725.38
565.773	716.38
565.985	722.38
566.197	759.38
566.408	860.38
566.62	855.38
566.832	843.38
567.044	847.38
567.255	882.38
567.467	979.38
567.679	871.38
567.891	880.38
568.102	865.38
568.314	908.38
568.526	851.38
568.737	804.38
568.949	859.38
569.161	759.38
569.372	698.38
569.584	680.38
569.795	693.38
570.007	693.38
570.218	765.38
570.43	723.38
570.641	700.38
570.853	678.38
571.064	642.38
571.276	707.38
571.487	720.38
571.698	667.38
571.91	668.38
572.121	663.38
572.333	622.38
572.544	628.38
572.755	648.38
572.966	608.38
573.178	633.38
573.389	656.38
573.6	648.38
573.811	630.38
574.023	574.38
574.234	582.38
574.445	607.38
574.656	553.38
574.867	596.38
575.078	602.38
575.289	595.38
575.501	625.38
575.712	605.38
575.923	554.38
576.134	535.38
576.345	550.38
576.556	577.38
576.767	546.38
576.978	535.38
577.188	510.38
577.399	519.38
577.61	512.38
577.821	543.38
578.032	557.38
578.243	587.38
578.454	588.38
578.665	570.38
578.875	574.38
579.086	563.38
579.297	565.38
579.508	577.38
579.718	556.38
579.929	551.38
580.14	557.38
580.35	512.38
580.561	482.38
580.772	472.38
580.982	484.38
581.193	483.38
581.403	480.38
581.614	462.38
581.825	476.38
582.035	483.38
582.246	470.38
582.456	474.38
582.667	459.38
582.877	451.38
583.087	455.38
583.298	445.38
583.508	476.38
583.719	452.38
583.929	454.38
584.139	451.38
584.35	452.38
584.56	479.38
584.77	478.38
584.981	497.38
585.191	436.38
585.401	452.38
585.611	472.38
585.821	476.38
586.032	494.38
586.242	465.38
586.452	484.38
586.662	465.38
586.872	514.38
587.082	472.38
587.292	485.38
587.502	479.38
587.713	440.38
587.923	467.38
588.133	517.38
588.343	504.38
588.553	477.38
588.762	450.38
588.972	449.38
589.182	472.38
589.392	457.38
589.602	471.38
589.812	476.38
590.022	490.38
590.232	517.38
590.441	436.38
590.651	467.38
590.861	455.38
591.071	478.38
591.281	446.38
591.49	439.38
591.7	456.38
591.91	455.38
592.119	456.38
592.329	454.38
592.539	469.38
592.748	463.38
592.958	468.38
593.167	450.38
593.377	461.38
593.587	491.38
593.796	491.38
594.006	458.38
594.215	460.38
594.424	475.38
594.634	494.38
594.843	489.38
595.053	479.38
595.262	444.38
595.472	413.38
595.681	434.38
595.89	427.38
596.1	430.38
596.309	446.38
596.518	422.38
596.727	422.38
596.937	418.38
597.146	430.38
597.355	490.38
597.564	434.38
597.774	422.38
597.983	413.38
598.192	428.38
598.401	373.38
598.61	384.38
598.819	387.38
599.028	391.38
599.237	381.38
599.446	372.38
599.655	362.38
599.864	374.38
600.073	375.38
600.282	378.38
600.491	388.38
600.7	364.38
600.909	393.38
601.118	379.38
601.327	396.38
601.536	371.38
601.745	390.38
601.953	403.38
602.162	395.38
602.371	398.38
602.58	399.38
602.789	376.38
602.997	382.38
603.206	385.38
603.415	377.38
603.623	372.38
603.832	366.38
604.041	364.38
604.249	365.38
604.458	384.38
604.666	379.38
604.875	337.38
605.084	360.38
605.292	339.38
605.501	370.38
605.709	370.38
605.918	354.38
606.126	348.38
606.334	369.38
606.543	372.38
606.751	357.38
606.96	357.38
607.168	342.38
607.376	333.38
607.585	341.38
607.793	328.38
608.001	370.38
608.21	344.38
608.418	372.38
608.626	359.38
608.834	342.38
609.043	335.38
609.251	346.38
609.459	352.38
609.667	331.38
609.875	346.38
610.083	351.38
610.291	354.38
610.499	367.38
610.707	336.38
610.916	335.38
611.124	330.38
611.332	353.38
611.54	341.38
611.748	343.38
611.955	330.38
612.163	340.38
612.371	319.38
612.579	347.38
612.787	322.38
612.995	325.38
613.203	328.38
613.411	316.38
613.618	337.38
613.826	344.38
614.034	362.38
614.242	330.38
614.449	331.38
614.657	312.38
614.865	313.38
615.072	324.38
615.28	302.38
615.488	304.38
615.695	340.38
615.903	335.38
616.111	347.38
616.318	318.38
616.526	306.38
616.733	318.38
616.941	330.38
617.148	321.38
617.356	320.38
617.563	319.38
617.771	327.38
617.978	311.38
618.185	330.38
618.393	322.38
618.6	311.38
618.807	325.38
619.015	328.38
619.222	313.38
619.429	327.38
619.637	308.38
619.844	278.38
620.051	300.38
620.258	316.38
620.466	302.38
620.673	299.38
620.88	288.38
621.087	285.38
621.294	279.38
621.501	286.38
621.708	298.38
621.915	306.38
622.122	284.38
622.329	281.38
622.536	295.38
622.743	300.38
622.95	295.38
623.157	284.38
623.364	332.38
623.571	281.38
623.778	289.38
623.985	309.38
624.192	320.38
624.399	310.38
624.606	291.38
624.812	296.38
625.019	284.38
625.226	307.38
625.433	319.38
625.639	288.38
625.846	295.38
626.053	288.38
626.259	263.38
626.466	269.38
626.673	314.38
626.879	270.38
627.086	290.38
627.293	266.38
627.499	260.38
627.706	263.38
627.912	263.38
628.119	259.38
628.325	259.38
628.532	267.38
628.738	271.38
628.945	253.38
629.151	272.38
629.357	287.38
629.564	269.38
629.77	259.38
629.976	241.38
630.183	264.38
630.389	264.38
630.595	251.38
630.802	231.38
631.008	237.38
631.214	252.38
631.42	248.38
631.627	250.38
631.833	244.38
632.039	252.38
632.245	237.38
632.451	227.38
632.657	257.38
632.863	239.38
633.069	240.38
633.275	232.38
633.481	246.38
633.688	243.38
633.893	234.38
634.099	246.38
634.305	232.38
634.511	235.38
634.717	233.38
634.923	230.38
635.129	231.38
635.335	236.38
635.541	233.38
635.747	228.38
635.952	232.38
636.158	243.38
636.364	226.38
636.57	220.38
636.775	230.38
636.981	221.38
637.187	228.38
637.392	220.38
637.598	238.38
637.804	226.38
638.009	239.38
638.215	235.38
638.421	220.38
638.626	216.38
638.832	219.38
639.037	222.38
639.243	212.38
639.448	231.38
639.654	244.38
639.859	217.38
640.065	233.38
640.27	240.38
640.475	225.38
640.681	223.38
640.886	210.38
641.091	230.38
641.297	229.38
641.502	207.38
641.707	216.38
641.913	223.38
642.118	224.38
642.323	214.38
642.528	215.38
642.733	221.38
642.939	222.38
643.144	218.38
643.349	220.38
643.554	214.38
643.759	215.38
643.964	209.38
644.169	214.38
644.374	206.38
644.579	210.38
644.784	207.38
644.989	210.38
645.194	207.38
645.399	207.38
645.604	205.38
645.809	214.38
646.014	206.38
646.219	203.38
646.423	208.38
646.628	221.38
646.833	220.38
647.038	215.38
647.243	204.38
647.447	209.38
647.652	219.38
647.857	208.38
648.062	228.38
648.266	205.38
648.471	209.38
648.676	201.38
648.88	204.38
649.085	211.38
649.289	213.38
649.494	210.38
649.698	222.38
649.903	210.38
650.107	207.38
650.312	201.38
650.516	199.38
650.721	200.38
650.925	177.38
651.13	194.38
651.334	180.38
651.539	177.38
651.743	183.38
651.947	175.38
652.152	174.38
652.356	182.38
652.56	165.38
652.764	184.38
652.969	172.38
653.173	155.38
653.377	164.38
653.581	168.38
653.785	166.38
653.99	180.38
654.194	167.38
654.398	158.38
654.602	158.38
654.806	161.38
655.01	155.38
655.214	168.38
655.418	170.38
655.622	155.38
655.826	155.38
656.03	154.38
656.234	179.38
656.438	145.38
656.642	153.38
656.846	159.38
657.049	142.38
657.253	141.38
657.457	130.38
657.661	130.38
657.865	112.38
658.068	133.38
658.272	130.38
658.476	130.38
658.68	123.38
658.883	115.38
659.087	116.38
659.291	113.38
659.494	122.38
659.698	109.38
659.901	115.38
660.105	93.38
660.309	96.38
660.512	107.38
660.716	96.38
660.919	101.38
661.123	108.38
661.326	102.38
661.53	108.38
661.733	92.38
661.936	98.38
662.14	79.38
662.343	92.38
662.546	81.38
662.75	96.38
662.953	85.38
663.156	77.38
663.36	76.38
663.563	90.38
663.766	83.38
663.969	82.38
664.173	81.38
664.376	78.38
664.579	84.38
664.782	75.38
664.985	88.38
665.188	84.38
665.391	79.38
665.594	78.38
665.797	67.38
666	95.38
666.203	70.38
666.406	76.38
666.609	75.38
666.812	76.38
667.015	82.38
667.218	71.38
667.421	72.38
667.624	79.38
667.827	84.38
668.03	86.38
668.232	86.38
668.435	94.38
668.638	74.38
668.841	84.38
669.043	83.38
669.246	87.38
669.449	79.38
669.651	87.38
669.854	85.38
670.057	83.38
670.259	72.38
670.462	71.38
670.665	81.38
670.867	85.38
671.07	82.38
671.272	73.38
671.475	75.38
671.677	68.38
671.88	88.38
672.082	73.38
672.284	75.38
672.487	83.38
672.689	63.38
672.892	71.38
