Data from NickelSpatula.Lamp.E10.P2_HRD10591_11-58-34-528.txt Node
Date: Tue Jul 23 11:58:34 EDT 2019
User: cochatt
Spectrometer: HR+D1059
Trigger mode: 1
Integration Time (sec): 1.000000E-1
Scans to average: 1
Electric dark correction enabled: true
Nonlinearity correction enabled: false
Boxcar width: 0
XAxis mode: Wavelengths
Number of Pixels in Spectrum: 2048
>>>>>Begin Spectral Data<<<<<
223.165	-12.25
223.4	-12.25
223.635	-12.25
223.869	-8.25
224.104	-22.25
224.338	-11.25
224.573	4.75
224.808	-13.25
225.042	-7.25
225.277	2.75
225.511	-13.25
225.746	0.75
225.98	3.75
226.215	3.75
226.449	14.75
226.683	12.75
226.918	15.75
227.152	28.75
227.387	44.75
227.621	25.75
227.856	25.75
228.09	52.75
228.324	46.75
228.559	53.75
228.793	80.75
229.027	136.75
229.262	142.75
229.496	153.75
229.73	154.75
229.964	176.75
230.199	208.75
230.433	210.75
230.667	202.75
230.901	209.75
231.136	186.75
231.37	211.75
231.604	229.75
231.838	241.75
232.072	243.75
232.306	254.75
232.541	237.75
232.775	241.75
233.009	264.75
233.243	293.75
233.477	298.75
233.711	361.75
233.945	337.75
234.179	326.75
234.413	354.75
234.647	401.75
234.881	476.75
235.115	438.75
235.349	386.75
235.583	368.75
235.817	350.75
236.051	400.75
236.285	420.75
236.519	472.75
236.753	431.75
236.987	433.75
237.221	413.75
237.455	428.75
237.689	425.75
237.922	473.75
238.156	490.75
238.39	534.75
238.624	662.75
238.858	589.75
239.091	497.75
239.325	528.75
239.559	482.75
239.793	539.75
240.027	676.75
240.26	610.75
240.494	585.75
240.728	580.75
240.961	657.75
241.195	640.75
241.429	617.75
241.662	634.75
241.896	533.75
242.13	494.75
242.363	460.75
242.597	448.75
242.83	542.75
243.064	556.75
243.298	560.75
243.531	629.75
243.765	644.75
243.998	623.75
244.232	611.75
244.465	592.75
244.699	578.75
244.932	653.75
245.166	634.75
245.399	540.75
245.633	540.75
245.866	567.75
246.099	651.75
246.333	722.75
246.566	791.75
246.8	760.75
247.033	765.75
247.266	663.75
247.5	688.75
247.733	681.75
247.966	671.75
248.2	681.75
248.433	742.75
248.666	833.75
248.899	861.75
249.133	866.75
249.366	965.75
249.599	1054.75
249.832	968.75
250.066	822.75
250.299	872.75
250.532	836.75
250.765	793.75
250.998	719.75
251.231	714.75
251.465	775.75
251.698	852.75
251.931	807.75
252.164	840.75
252.397	935.75
252.63	1077.75
252.863	1174.75
253.096	1211.75
253.329	1163.75
253.562	1097.75
253.795	1288.75
254.028	1360.75
254.261	1406.75
254.494	1248.75
254.727	1158.75
254.96	1132.75
255.193	1178.75
255.426	1147.75
255.659	877.75
255.892	791.75
256.124	862.75
256.357	1047.75
256.59	1222.75
256.823	1110.75
257.056	959.75
257.289	904.75
257.521	945.75
257.754	1124.75
257.987	1267.75
258.22	1102.75
258.452	993.75
258.685	1152.75
258.918	1295.75
259.151	1243.75
259.383	1306.75
259.616	1519.75
259.849	1590.75
260.081	1715.75
260.314	1900.75
260.547	1476.75
260.779	1456.75
261.012	1732.75
261.244	1628.75
261.477	1671.75
261.71	1521.75
261.942	1305.75
262.175	1276.75
262.407	1240.75
262.64	1254.75
262.872	1528.75
263.105	1652.75
263.337	1704.75
263.57	1550.75
263.802	1033.75
264.035	902.75
264.267	882.75
264.499	789.75
264.732	708.75
264.964	693.75
265.197	729.75
265.429	780.75
265.661	843.75
265.894	863.75
266.126	925.75
266.358	1001.75
266.591	1246.75
266.823	1498.75
267.055	1385.75
267.287	1257.75
267.52	1273.75
267.752	1313.75
267.984	1438.75
268.216	1378.75
268.448	1089.75
268.681	1102.75
268.913	1208.75
269.145	1280.75
269.377	1320.75
269.609	1292.75
269.841	1188.75
270.073	1318.75
270.306	1363.75
270.538	1368.75
270.77	1371.75
271.002	1400.75
271.234	1452.75
271.466	1502.75
271.698	1481.75
271.93	1460.75
272.162	1428.75
272.394	1385.75
272.626	1410.75
272.858	1472.75
273.09	1498.75
273.322	1314.75
273.553	1304.75
273.785	1507.75
274.017	1996.75
274.249	2409.75
274.481	2570.75
274.713	2785.75
274.945	3235.75
275.176	3314.75
275.408	2880.75
275.64	2661.75
275.872	2640.75
276.104	2271.75
276.335	1949.75
276.567	1904.75
276.799	1960.75
277.031	2072.75
277.262	1602.75
277.494	1249.75
277.726	1184.75
277.957	1326.75
278.189	1489.75
278.421	1463.75
278.652	1394.75
278.884	1348.75
279.115	1255.75
279.347	1186.75
279.579	1215.75
279.81	1203.75
280.042	1203.75
280.273	1220.75
280.505	1126.75
280.736	993.75
280.968	1025.75
281.199	1109.75
281.431	1234.75
281.662	1213.75
281.894	1162.75
282.125	1241.75
282.356	1326.75
282.588	1392.75
282.819	1256.75
283.051	1367.75
283.282	1717.75
283.513	1966.75
283.745	2193.75
283.976	2209.75
284.207	2012.75
284.439	2103.75
284.67	2022.75
284.901	1763.75
285.132	1943.75
285.364	1993.75
285.595	1879.75
285.826	1991.75
286.057	2031.75
286.288	1964.75
286.52	2064.75
286.751	2131.75
286.982	2126.75
287.213	1845.75
287.444	1816.75
287.675	1845.75
287.906	1810.75
288.138	1536.75
288.369	1341.75
288.6	1256.75
288.831	1331.75
289.062	1554.75
289.293	1688.75
289.524	1604.75
289.755	1599.75
289.986	1645.75
290.217	1426.75
290.448	1128.75
290.679	924.75
290.91	901.75
291.141	940.75
291.371	998.75
291.602	943.75
291.833	991.75
292.064	1042.75
292.295	1212.75
292.526	1438.75
292.757	1446.75
292.987	1529.75
293.218	1543.75
293.449	1607.75
293.68	1661.75
293.91	1578.75
294.141	1616.75
294.372	1521.75
294.603	1398.75
294.833	1576.75
295.064	1842.75
295.295	1746.75
295.525	1304.75
295.756	1128.75
295.987	1016.75
296.217	1017.75
296.448	1032.75
296.679	1116.75
296.909	1222.75
297.14	1291.75
297.37	1446.75
297.601	1337.75
297.831	1204.75
298.062	1244.75
298.292	1448.75
298.523	1548.75
298.753	1758.75
298.984	1575.75
299.214	1253.75
299.445	1078.75
299.675	1009.75
299.905	1026.75
300.136	1071.75
300.366	1188.75
300.597	1131.75
300.827	1011.75
301.057	977.75
301.288	1010.75
301.518	1057.75
301.748	1210.75
301.979	1316.75
302.209	1443.75
302.439	1415.75
302.669	1219.75
302.9	1231.75
303.13	1154.75
303.36	1096.75
303.59	1054.75
303.82	1096.75
304.051	1215.75
304.281	1330.75
304.511	1298.75
304.741	1128.75
304.971	1205.75
305.201	1262.75
305.431	1192.75
305.661	1024.75
305.891	1061.75
306.121	1091.75
306.352	969.75
306.582	867.75
306.812	860.75
307.042	858.75
307.272	793.75
307.502	806.75
307.731	876.75
307.961	905.75
308.191	841.75
308.421	796.75
308.651	802.75
308.881	784.75
309.111	767.75
309.341	768.75
309.571	879.75
309.8	903.75
310.03	929.75
310.26	1002.75
310.49	946.75
310.72	861.75
310.949	865.75
311.179	889.75
311.409	930.75
311.639	1104.75
311.868	1399.75
312.098	1798.75
312.328	1938.75
312.557	1836.75
312.787	1836.75
313.017	1650.75
313.246	1829.75
313.476	1979.75
313.706	1620.75
313.935	1266.75
314.165	1012.75
314.394	929.75
314.624	930.75
314.853	1013.75
315.083	1016.75
315.312	1026.75
315.542	1024.75
315.771	965.75
316.001	864.75
316.23	860.75
316.46	828.75
316.689	826.75
316.919	863.75
317.148	891.75
317.377	889.75
317.607	872.75
317.836	960.75
318.065	1104.75
318.295	1234.75
318.524	1153.75
318.753	984.75
318.983	906.75
319.212	930.75
319.441	993.75
319.67	1092.75
319.9	1196.75
320.129	1112.75
320.358	950.75
320.587	934.75
320.816	1027.75
321.046	1167.75
321.275	1344.75
321.504	1347.75
321.733	1277.75
321.962	1208.75
322.191	1141.75
322.42	1070.75
322.649	1136.75
322.878	1181.75
323.108	1200.75
323.337	1104.75
323.566	1091.75
323.795	1039.75
324.024	1030.75
324.253	969.75
324.482	959.75
324.71	1048.75
324.939	1183.75
325.168	1076.75
325.397	928.75
325.626	900.75
325.855	917.75
326.084	904.75
326.313	873.75
326.542	820.75
326.77	878.75
326.999	900.75
327.228	938.75
327.457	1012.75
327.686	1007.75
327.914	896.75
328.143	804.75
328.372	807.75
328.6	816.75
328.829	874.75
329.058	885.75
329.287	884.75
329.515	888.75
329.744	889.75
329.972	804.75
330.201	784.75
330.43	830.75
330.658	949.75
330.887	1074.75
331.115	1016.75
331.344	996.75
331.572	957.75
331.801	894.75
332.03	850.75
332.258	865.75
332.486	955.75
332.715	982.75
332.943	904.75
333.172	881.75
333.4	962.75
333.629	1012.75
333.857	1116.75
334.085	1085.75
334.314	1093.75
334.542	1058.75
334.771	950.75
334.999	944.75
335.227	914.75
335.455	918.75
335.684	997.75
335.912	1169.75
336.14	1328.75
336.369	1264.75
336.597	1215.75
336.825	1367.75
337.053	1532.75
337.281	1208.75
337.51	1000.75
337.738	954.75
337.966	1034.75
338.194	1174.75
338.422	1102.75
338.65	944.75
338.878	858.75
339.106	929.75
339.334	1007.75
339.562	1085.75
339.79	1004.75
340.018	950.75
340.246	1022.75
340.474	1183.75
340.702	1268.75
340.93	1312.75
341.158	1267.75
341.386	1080.75
341.614	1096.75
341.842	1076.75
342.07	1152.75
342.298	1304.75
342.526	1362.75
342.754	1185.75
342.981	1081.75
343.209	1032.75
343.437	1104.75
343.665	1169.75
343.893	1164.75
344.12	1384.75
344.348	1597.75
344.576	1395.75
344.804	1160.75
345.031	1023.75
345.259	969.75
345.487	997.75
345.714	1010.75
345.942	1088.75
346.17	1190.75
346.397	1141.75
346.625	980.75
346.853	951.75
347.08	962.75
347.308	1001.75
347.535	1113.75
347.763	1162.75
347.99	972.75
348.218	921.75
348.445	944.75
348.673	961.75
348.9	991.75
349.128	1038.75
349.355	1066.75
349.583	1038.75
349.81	1013.75
350.037	926.75
350.265	836.75
350.492	804.75
350.72	791.75
350.947	818.75
351.174	881.75
351.402	935.75
351.629	975.75
351.856	930.75
352.083	873.75
352.311	994.75
352.538	1070.75
352.765	1144.75
352.992	1025.75
353.22	977.75
353.447	992.75
353.674	957.75
353.901	954.75
354.128	981.75
354.355	988.75
354.583	972.75
354.81	932.75
355.037	1005.75
355.264	969.75
355.491	1060.75
355.718	1152.75
355.945	1122.75
356.172	1076.75
356.399	1066.75
356.626	1348.75
356.853	1588.75
357.08	1660.75
357.307	1726.75
357.534	1351.75
357.761	1374.75
357.988	1713.75
358.215	2014.75
358.441	1903.75
358.668	1604.75
358.895	1490.75
359.122	1200.75
359.349	1201.75
359.576	1277.75
359.802	1052.75
360.029	927.75
360.256	1040.75
360.483	1259.75
360.709	1537.75
360.936	1637.75
361.163	1432.75
361.39	1113.75
361.616	1058.75
361.843	1216.75
362.07	1463.75
362.296	1338.75
362.523	1049.75
362.749	920.75
362.976	978.75
363.203	1207.75
363.429	1322.75
363.656	1050.75
363.882	957.75
364.109	978.75
364.335	994.75
364.562	952.75
364.788	1122.75
365.015	1303.75
365.241	1167.75
365.468	933.75
365.694	812.75
365.92	805.75
366.147	794.75
366.373	786.75
366.599	806.75
366.826	800.75
367.052	829.75
367.278	839.75
367.505	831.75
367.731	921.75
367.957	993.75
368.184	1025.75
368.41	1022.75
368.636	986.75
368.862	1015.75
369.089	1018.75
369.315	907.75
369.541	888.75
369.767	893.75
369.993	829.75
370.219	851.75
370.445	904.75
370.672	993.75
370.898	1091.75
371.124	1060.75
371.35	937.75
371.576	866.75
371.802	961.75
372.028	1143.75
372.254	1310.75
372.48	1150.75
372.706	1022.75
372.932	1078.75
373.158	1109.75
373.384	1361.75
373.61	1792.75
373.835	1821.75
374.061	1339.75
374.287	1151.75
374.513	1373.75
374.739	1636.75
374.965	1684.75
375.191	1663.75
375.416	1152.75
375.642	1009.75
375.868	1182.75
376.094	1336.75
376.319	1136.75
376.545	1295.75
376.771	1347.75
376.997	1121.75
377.222	841.75
377.448	741.75
377.674	771.75
377.899	733.75
378.125	709.75
378.35	733.75
378.576	778.75
378.802	844.75
379.027	908.75
379.253	895.75
379.478	903.75
379.704	1034.75
379.929	1076.75
380.155	1063.75
380.38	946.75
380.606	1013.75
380.831	1093.75
381.057	994.75
381.282	966.75
381.507	1166.75
381.733	1441.75
381.958	1498.75
382.184	1611.75
382.409	1678.75
382.634	1629.75
382.86	1708.75
383.085	1432.75
383.31	1119.75
383.535	1216.75
383.761	1198.75
383.986	1155.75
384.211	1378.75
384.436	1315.75
384.662	1069.75
384.887	968.75
385.112	1031.75
385.337	1026.75
385.562	966.75
385.787	1108.75
386.013	1232.75
386.238	1232.75
386.463	1009.75
386.688	981.75
386.913	930.75
387.138	885.75
387.363	944.75
387.588	973.75
387.813	982.75
388.038	1076.75
388.263	998.75
388.488	938.75
388.713	1075.75
388.938	1162.75
389.163	997.75
389.387	905.75
389.612	922.75
389.837	939.75
390.062	950.75
390.287	991.75
390.512	992.75
390.736	934.75
390.961	874.75
391.186	860.75
391.411	810.75
391.636	848.75
391.86	924.75
392.085	1007.75
392.31	997.75
392.534	932.75
392.759	946.75
392.984	984.75
393.208	969.75
393.433	846.75
393.658	827.75
393.882	783.75
394.107	784.75
394.331	783.75
394.556	792.75
394.78	797.75
395.005	832.75
395.229	847.75
395.454	858.75
395.678	884.75
395.903	916.75
396.127	880.75
396.352	887.75
396.576	942.75
396.801	991.75
397.025	1089.75
397.249	1087.75
397.474	949.75
397.698	900.75
397.922	937.75
398.147	922.75
398.371	914.75
398.595	954.75
398.82	936.75
399.044	920.75
399.268	989.75
399.492	1062.75
399.717	1072.75
399.941	1095.75
400.165	1060.75
400.389	1056.75
400.613	1056.75
400.837	1020.75
401.062	919.75
401.286	902.75
401.51	898.75
401.734	912.75
401.958	944.75
402.182	890.75
402.406	916.75
402.63	913.75
402.854	938.75
403.078	1064.75
403.302	1269.75
403.526	1297.75
403.75	1197.75
403.974	1044.75
404.198	1051.75
404.422	1239.75
404.645	1437.75
404.869	1548.75
405.093	1143.75
405.317	1004.75
405.541	981.75
405.765	997.75
405.988	983.75
406.212	1111.75
406.436	1282.75
406.66	1404.75
406.883	1129.75
407.107	1174.75
407.331	1366.75
407.555	1284.75
407.778	1084.75
408.002	1072.75
408.226	1036.75
408.449	1050.75
408.673	1034.75
408.896	957.75
409.12	927.75
409.344	889.75
409.567	889.75
409.791	909.75
410.014	843.75
410.238	886.75
410.461	902.75
410.685	893.75
410.908	908.75
411.132	912.75
411.355	950.75
411.578	954.75
411.802	944.75
412.025	1008.75
412.249	965.75
412.472	935.75
412.695	953.75
412.919	951.75
413.142	964.75
413.365	1046.75
413.589	1075.75
413.812	966.75
414.035	899.75
414.258	950.75
414.482	1061.75
414.705	1070.75
414.928	913.75
415.151	862.75
415.374	889.75
415.597	892.75
415.821	896.75
416.044	887.75
416.267	889.75
416.49	885.75
416.713	868.75
416.936	881.75
417.159	844.75
417.382	862.75
417.605	904.75
417.828	888.75
418.051	906.75
418.274	924.75
418.497	916.75
418.72	917.75
418.943	970.75
419.166	970.75
419.389	1017.75
419.611	1006.75
419.834	1020.75
420.057	1097.75
420.28	1117.75
420.503	1024.75
420.726	910.75
420.948	838.75
421.171	892.75
421.394	878.75
421.617	867.75
421.839	889.75
422.062	936.75
422.285	906.75
422.507	948.75
422.73	943.75
422.953	973.75
423.175	948.75
423.398	931.75
423.621	1014.75
423.843	1049.75
424.066	977.75
424.288	944.75
424.511	914.75
424.733	925.75
424.956	973.75
425.178	1076.75
425.401	1221.75
425.623	1401.75
425.846	1141.75
426.068	987.75
426.291	1111.75
426.513	999.75
426.735	943.75
426.958	999.75
427.18	1150.75
427.402	1492.75
427.625	1430.75
427.847	1178.75
428.069	900.75
428.292	898.75
428.514	898.75
428.736	836.75
428.958	954.75
429.181	1111.75
429.403	970.75
429.625	859.75
429.847	866.75
430.069	858.75
430.292	911.75
430.514	872.75
430.736	958.75
430.958	1177.75
431.18	1074.75
431.402	863.75
431.624	824.75
431.846	816.75
432.068	790.75
432.29	824.75
432.512	931.75
432.734	1210.75
432.956	1126.75
433.178	853.75
433.4	820.75
433.622	854.75
433.844	864.75
434.066	932.75
434.287	890.75
434.509	880.75
434.731	922.75
434.953	863.75
435.175	888.75
435.397	1038.75
435.618	912.75
435.84	819.75
436.062	825.75
436.284	821.75
436.505	796.75
436.727	790.75
436.949	792.75
437.17	816.75
437.392	862.75
437.614	855.75
437.835	804.75
438.057	836.75
438.278	945.75
438.5	1402.75
438.721	1366.75
438.943	944.75
439.165	820.75
439.386	768.75
439.608	800.75
439.829	788.75
440.05	779.75
440.272	850.75
440.493	1002.75
440.715	1215.75
440.936	970.75
441.158	851.75
441.379	838.75
441.6	979.75
441.822	1002.75
442.043	878.75
442.264	880.75
442.486	878.75
442.707	834.75
442.928	851.75
443.149	878.75
443.371	904.75
443.592	945.75
443.813	902.75
444.034	880.75
444.255	912.75
444.476	949.75
444.698	929.75
444.919	940.75
445.14	1038.75
445.361	1041.75
445.582	965.75
445.803	926.75
446.024	922.75
446.245	947.75
446.466	912.75
446.687	867.75
446.908	900.75
447.129	854.75
447.35	805.75
447.571	813.75
447.792	772.75
448.013	785.75
448.234	799.75
448.455	788.75
448.675	790.75
448.896	809.75
449.117	807.75
449.338	781.75
449.559	829.75
449.779	886.75
450	826.75
450.221	826.75
450.442	816.75
450.662	779.75
450.883	777.75
451.104	822.75
451.324	752.75
451.545	801.75
451.766	791.75
451.986	768.75
452.207	766.75
452.428	775.75
452.648	755.75
452.869	831.75
453.089	826.75
453.31	825.75
453.53	770.75
453.751	753.75
453.971	736.75
454.192	772.75
454.412	781.75
454.633	727.75
454.853	760.75
455.073	741.75
455.294	735.75
455.514	729.75
455.734	773.75
455.955	812.75
456.175	823.75
456.395	742.75
456.616	677.75
456.836	710.75
457.056	694.75
457.276	699.75
457.497	721.75
457.717	699.75
457.937	703.75
458.157	714.75
458.377	726.75
458.598	742.75
458.818	746.75
459.038	819.75
459.258	830.75
459.478	861.75
459.698	881.75
459.918	904.75
460.138	865.75
460.358	886.75
460.578	866.75
460.798	887.75
461.018	896.75
461.238	844.75
461.458	890.75
461.678	886.75
461.898	953.75
462.118	931.75
462.338	907.75
462.558	961.75
462.777	972.75
462.997	980.75
463.217	1010.75
463.437	1018.75
463.657	1010.75
463.876	930.75
464.096	977.75
464.316	980.75
464.536	965.75
464.755	993.75
464.975	1004.75
465.195	998.75
465.414	1010.75
465.634	968.75
465.854	917.75
466.073	865.75
466.293	862.75
466.512	929.75
466.732	1008.75
466.951	1038.75
467.171	930.75
467.391	865.75
467.61	878.75
467.829	919.75
468.049	910.75
468.268	872.75
468.488	864.75
468.707	914.75
468.927	1097.75
469.146	1168.75
469.365	1046.75
469.585	962.75
469.804	994.75
470.023	1078.75
470.243	966.75
470.462	901.75
470.681	928.75
470.901	906.75
471.12	984.75
471.339	1000.75
471.558	907.75
471.777	946.75
471.997	1020.75
472.216	1129.75
472.435	1093.75
472.654	952.75
472.873	936.75
473.092	1026.75
473.311	1061.75
473.53	965.75
473.749	952.75
473.968	994.75
474.187	984.75
474.406	958.75
474.625	940.75
474.844	973.75
475.063	1032.75
475.282	1044.75
475.501	1085.75
475.72	1153.75
475.939	1093.75
476.158	1108.75
476.377	1302.75
476.596	1454.75
476.814	1481.75
477.033	1260.75
477.252	1084.75
477.471	1032.75
477.69	1009.75
477.908	1067.75
478.127	1200.75
478.346	1068.75
478.564	1132.75
478.783	1078.75
479.002	1104.75
479.22	1282.75
479.439	1417.75
479.658	1216.75
479.876	1133.75
480.095	1194.75
480.313	1247.75
480.532	1138.75
480.751	1074.75
480.969	1136.75
481.188	1287.75
481.406	1289.75
481.624	1230.75
481.843	1130.75
482.061	1071.75
482.28	1171.75
482.498	1436.75
482.717	1358.75
482.935	1209.75
483.153	1157.75
483.372	1061.75
483.59	1076.75
483.808	1070.75
484.027	1048.75
484.245	998.75
484.463	969.75
484.681	1053.75
484.9	1120.75
485.118	1207.75
485.336	1117.75
485.554	1063.75
485.772	1076.75
485.99	1166.75
486.209	1233.75
486.427	1235.75
486.645	1213.75
486.863	1280.75
487.081	1237.75
487.299	1386.75
487.517	1347.75
487.735	1204.75
487.953	1208.75
488.171	1245.75
488.389	1165.75
488.607	1116.75
488.825	1167.75
489.043	1240.75
489.261	1432.75
489.479	1530.75
489.696	1308.75
489.914	1193.75
490.132	1128.75
490.35	1106.75
490.568	1135.75
490.786	1112.75
491.003	1157.75
491.221	1158.75
491.439	1136.75
491.657	1123.75
491.874	1204.75
492.092	1509.75
492.31	1776.75
492.527	1769.75
492.745	1505.75
492.963	1333.75
493.18	1294.75
493.398	1298.75
493.615	1314.75
493.833	1237.75
494.05	1216.75
494.268	1225.75
494.485	1243.75
494.703	1171.75
494.92	1214.75
495.138	1206.75
495.355	1188.75
495.573	1222.75
495.79	1404.75
496.008	1823.75
496.225	1548.75
496.442	1390.75
496.66	1383.75
496.877	1456.75
497.094	1398.75
497.312	1332.75
497.529	1294.75
497.746	1341.75
497.963	1394.75
498.181	1476.75
498.398	1612.75
498.615	1656.75
498.832	1744.75
499.049	1690.75
499.267	1533.75
499.484	1554.75
499.701	1640.75
499.918	1770.75
500.135	1861.75
500.352	1914.75
500.569	2016.75
500.786	2053.75
501.003	2056.75
501.22	1821.75
501.437	1716.75
501.654	1657.75
501.871	1623.75
502.088	1654.75
502.305	1494.75
502.522	1492.75
502.739	1485.75
502.956	1380.75
503.172	1389.75
503.389	1303.75
503.606	1247.75
503.823	1298.75
504.04	1313.75
504.256	1320.75
504.473	1342.75
504.69	1378.75
504.907	1354.75
505.123	1380.75
505.34	1469.75
505.557	1394.75
505.773	1325.75
505.99	1266.75
506.207	1363.75
506.423	1280.75
506.64	1193.75
506.856	1247.75
507.073	1353.75
507.289	1325.75
507.506	1354.75
507.722	1449.75
507.939	1390.75
508.155	1499.75
508.372	1328.75
508.588	1261.75
508.805	1216.75
509.021	1215.75
509.238	1153.75
509.454	1211.75
509.67	1190.75
509.887	1202.75
510.103	1338.75
510.319	1319.75
510.536	1162.75
510.752	1119.75
510.968	1052.75
511.184	1003.75
511.401	1047.75
511.617	1051.75
511.833	1059.75
512.049	1037.75
512.265	1113.75
512.481	1138.75
512.698	1259.75
512.914	1399.75
513.13	1226.75
513.346	1143.75
513.562	1188.75
513.778	1130.75
513.994	1114.75
514.21	1214.75
514.426	1196.75
514.642	1142.75
514.858	1161.75
515.074	1180.75
515.29	1276.75
515.506	1415.75
515.721	1331.75
515.937	1241.75
516.153	1174.75
516.369	1129.75
516.585	1240.75
516.801	1368.75
517.016	1605.75
517.232	1553.75
517.448	1547.75
517.664	1380.75
517.879	1289.75
518.095	1291.75
518.311	1268.75
518.527	1354.75
518.742	1396.75
518.958	1471.75
519.173	1380.75
519.389	1367.75
519.605	1399.75
519.82	1490.75
520.036	1751.75
520.251	1703.75
520.467	1603.75
520.682	2360.75
520.898	2897.75
521.113	2697.75
521.329	1733.75
521.544	1512.75
521.76	1500.75
521.975	1347.75
522.19	1286.75
522.406	1350.75
522.621	1503.75
522.836	1503.75
523.052	1532.75
523.267	1261.75
523.482	1336.75
523.698	1405.75
523.913	1350.75
524.128	1196.75
524.343	1175.75
524.559	1182.75
524.774	1142.75
524.989	1173.75
525.204	1167.75
525.419	1328.75
525.634	1198.75
525.849	1260.75
526.064	1241.75
526.28	1284.75
526.495	1482.75
526.71	1526.75
526.925	1370.75
527.14	1398.75
527.355	1361.75
527.57	1134.75
527.785	1229.75
527.999	1120.75
528.214	1054.75
528.429	1090.75
528.644	1084.75
528.859	1007.75
529.074	974.75
529.289	966.75
529.503	992.75
529.718	1010.75
529.933	1169.75
530.148	1230.75
530.363	1080.75
530.577	996.75
530.792	1005.75
531.007	1022.75
531.221	964.75
531.436	979.75
531.651	992.75
531.865	1014.75
532.08	1060.75
532.295	1022.75
532.509	1029.75
532.724	1183.75
532.938	1308.75
533.153	1523.75
533.367	1224.75
533.582	1162.75
533.796	1084.75
534.011	1045.75
534.225	1074.75
534.44	1057.75
534.654	1089.75
534.868	1243.75
535.083	1095.75
535.297	985.75
535.511	1027.75
535.726	1137.75
535.94	1076.75
536.154	1037.75
536.369	972.75
536.583	989.75
536.797	1010.75
537.011	1017.75
537.225	1135.75
537.44	1192.75
537.654	1043.75
537.868	1008.75
538.082	1017.75
538.296	996.75
538.51	1108.75
538.724	1082.75
538.938	1034.75
539.153	997.75
539.367	979.75
539.581	969.75
539.795	1028.75
540.009	1165.75
540.222	1058.75
540.436	1047.75
540.65	1162.75
540.864	1158.75
541.078	1195.75
541.292	1365.75
541.506	1105.75
541.72	1064.75
541.934	1054.75
542.147	1027.75
542.361	1012.75
542.575	1056.75
542.789	1003.75
543.002	965.75
543.216	1084.75
543.43	928.75
543.644	932.75
543.857	939.75
544.071	947.75
544.285	944.75
544.498	916.75
544.712	909.75
544.925	1008.75
545.139	960.75
545.352	923.75
545.566	940.75
545.779	1052.75
545.993	956.75
546.206	877.75
546.42	885.75
546.633	864.75
546.847	887.75
547.06	856.75
547.274	864.75
547.487	874.75
547.7	958.75
547.914	1000.75
548.127	1119.75
548.34	1083.75
548.554	964.75
548.767	958.75
548.98	1075.75
549.193	973.75
549.407	1006.75
549.62	1206.75
549.833	1099.75
550.046	1134.75
550.259	1176.75
550.473	1032.75
550.686	966.75
550.899	988.75
551.112	982.75
551.325	1037.75
551.538	1086.75
551.751	941.75
551.964	892.75
552.177	899.75
552.39	866.75
552.603	913.75
552.816	936.75
553.029	861.75
553.242	867.75
553.455	952.75
553.667	1001.75
553.88	993.75
554.093	886.75
554.306	849.75
554.519	794.75
554.732	804.75
554.944	780.75
555.157	791.75
555.37	777.75
555.583	780.75
555.795	785.75
556.008	808.75
556.221	807.75
556.433	813.75
556.646	778.75
556.859	784.75
557.071	792.75
557.284	808.75
557.496	826.75
557.709	805.75
557.921	782.75
558.134	724.75
558.346	730.75
558.559	723.75
558.771	797.75
558.984	824.75
559.196	782.75
559.409	725.75
559.621	720.75
559.833	714.75
560.046	729.75
560.258	701.75
560.47	753.75
560.683	720.75
560.895	671.75
561.107	700.75
561.32	658.75
561.532	654.75
561.744	769.75
561.956	792.75
562.168	714.75
562.381	697.75
562.593	710.75
562.805	732.75
563.017	684.75
563.229	677.75
563.441	672.75
563.653	692.75
563.865	703.75
564.077	700.75
564.289	670.75
564.501	686.75
564.713	755.75
564.925	745.75
565.137	698.75
565.349	703.75
565.561	717.75
565.773	715.75
565.985	740.75
566.197	772.75
566.408	842.75
566.62	858.75
566.832	848.75
567.044	854.75
567.255	863.75
567.467	977.75
567.679	868.75
567.891	872.75
568.102	894.75
568.314	916.75
568.526	822.75
568.737	819.75
568.949	880.75
569.161	758.75
569.372	694.75
569.584	670.75
569.795	674.75
570.007	692.75
570.218	752.75
570.43	720.75
570.641	669.75
570.853	657.75
571.064	668.75
571.276	698.75
571.487	706.75
571.698	657.75
571.91	680.75
572.121	649.75
572.333	628.75
572.544	611.75
572.755	608.75
572.966	612.75
573.178	610.75
573.389	633.75
573.6	646.75
573.811	626.75
574.023	593.75
574.234	568.75
574.445	582.75
574.656	583.75
574.867	570.75
575.078	592.75
575.289	580.75
575.501	625.75
575.712	599.75
575.923	562.75
576.134	541.75
576.345	535.75
576.556	552.75
576.767	547.75
576.978	524.75
577.188	529.75
577.399	520.75
577.61	533.75
577.821	541.75
578.032	550.75
578.243	560.75
578.454	556.75
578.665	580.75
578.875	569.75
579.086	557.75
579.297	544.75
579.508	552.75
579.718	564.75
579.929	550.75
580.14	548.75
580.35	506.75
580.561	502.75
580.772	479.75
580.982	490.75
581.193	476.75
581.403	472.75
581.614	464.75
581.825	472.75
582.035	463.75
582.246	464.75
582.456	480.75
582.667	473.75
582.877	464.75
583.087	455.75
583.298	440.75
583.508	450.75
583.719	451.75
583.929	454.75
584.139	460.75
584.35	469.75
584.56	493.75
584.77	488.75
584.981	490.75
585.191	480.75
585.401	480.75
585.611	474.75
585.821	504.75
586.032	494.75
586.242	479.75
586.452	471.75
586.662	467.75
586.872	502.75
587.082	485.75
587.292	484.75
587.502	472.75
587.713	485.75
587.923	478.75
588.133	488.75
588.343	473.75
588.553	456.75
588.762	457.75
588.972	475.75
589.182	457.75
589.392	446.75
589.602	447.75
589.812	456.75
590.022	496.75
590.232	506.75
590.441	480.75
590.651	464.75
590.861	471.75
591.071	452.75
591.281	443.75
591.49	446.75
591.7	438.75
591.91	438.75
592.119	444.75
592.329	446.75
592.539	465.75
592.748	457.75
592.958	478.75
593.167	469.75
593.377	493.75
593.587	501.75
593.796	479.75
594.006	492.75
594.215	476.75
594.424	507.75
594.634	494.75
594.843	466.75
595.053	473.75
595.262	438.75
595.472	450.75
595.681	413.75
595.89	414.75
596.1	429.75
596.309	437.75
596.518	435.75
596.727	424.75
596.937	416.75
597.146	441.75
597.355	474.75
597.564	438.75
597.774	419.75
597.983	421.75
598.192	407.75
598.401	399.75
598.61	376.75
598.819	404.75
599.028	392.75
599.237	406.75
599.446	370.75
599.655	368.75
599.864	380.75
600.073	385.75
600.282	388.75
600.491	377.75
600.7	414.75
600.909	390.75
601.118	398.75
601.327	393.75
601.536	384.75
601.745	375.75
601.953	406.75
602.162	404.75
602.371	384.75
602.58	394.75
602.789	396.75
602.997	377.75
603.206	384.75
603.415	373.75
603.623	348.75
603.832	382.75
604.041	366.75
604.249	364.75
604.458	380.75
604.666	352.75
604.875	359.75
605.084	353.75
605.292	373.75
605.501	354.75
605.709	361.75
605.918	366.75
606.126	336.75
606.334	351.75
606.543	344.75
606.751	383.75
606.96	361.75
607.168	356.75
607.376	347.75
607.585	328.75
607.793	325.75
608.001	338.75
608.21	372.75
608.418	368.75
608.626	353.75
608.834	358.75
609.043	359.75
609.251	348.75
609.459	334.75
609.667	360.75
609.875	341.75
610.083	351.75
610.291	353.75
610.499	351.75
610.707	347.75
610.916	327.75
611.124	335.75
611.332	332.75
611.54	320.75
611.748	330.75
611.955	333.75
612.163	343.75
612.371	312.75
612.579	329.75
612.787	338.75
612.995	321.75
613.203	325.75
613.411	314.75
613.618	340.75
613.826	351.75
614.034	353.75
614.242	340.75
614.449	324.75
614.657	336.75
614.865	321.75
615.072	343.75
615.28	320.75
615.488	329.75
615.695	309.75
615.903	339.75
616.111	348.75
616.318	345.75
616.526	321.75
616.733	325.75
616.941	325.75
617.148	314.75
617.356	324.75
617.563	308.75
617.771	314.75
617.978	302.75
618.185	315.75
618.393	309.75
618.6	301.75
618.807	301.75
619.015	321.75
619.222	306.75
619.429	316.75
619.637	295.75
619.844	291.75
620.051	323.75
620.258	306.75
620.466	303.75
620.673	298.75
620.88	301.75
621.087	300.75
621.294	296.75
621.501	267.75
621.708	308.75
621.915	294.75
622.122	289.75
622.329	291.75
622.536	274.75
622.743	284.75
622.95	291.75
623.157	290.75
623.364	304.75
623.571	290.75
623.778	297.75
623.985	323.75
624.192	313.75
624.399	314.75
624.606	311.75
624.812	287.75
625.019	283.75
625.226	319.75
625.433	304.75
625.639	273.75
625.846	284.75
626.053	286.75
626.259	260.75
626.466	284.75
626.673	304.75
626.879	281.75
627.086	274.75
627.293	282.75
627.499	261.75
627.706	262.75
627.912	274.75
628.119	277.75
628.325	264.75
628.532	279.75
628.738	260.75
628.945	258.75
629.151	256.75
629.357	257.75
629.564	265.75
629.77	263.75
629.976	241.75
630.183	249.75
630.389	251.75
630.595	249.75
630.802	256.75
631.008	268.75
631.214	248.75
631.42	241.75
631.627	257.75
631.833	271.75
632.039	260.75
632.245	259.75
632.451	238.75
632.657	241.75
632.863	250.75
633.069	246.75
633.275	244.75
633.481	258.75
633.688	249.75
633.893	244.75
634.099	247.75
634.305	236.75
634.511	232.75
634.717	225.75
634.923	234.75
635.129	241.75
635.335	237.75
635.541	232.75
635.747	240.75
635.952	221.75
636.158	231.75
636.364	245.75
636.57	271.75
636.775	240.75
636.981	230.75
637.187	232.75
637.392	225.75
637.598	241.75
637.804	226.75
638.009	214.75
638.215	232.75
638.421	217.75
638.626	225.75
638.832	215.75
639.037	239.75
639.243	223.75
639.448	242.75
639.654	236.75
639.859	223.75
640.065	244.75
640.27	235.75
640.475	235.75
640.681	205.75
640.886	217.75
641.091	218.75
641.297	222.75
641.502	221.75
641.707	218.75
641.913	226.75
642.118	221.75
642.323	228.75
642.528	215.75
642.733	222.75
642.939	218.75
643.144	206.75
643.349	207.75
643.554	222.75
643.759	214.75
643.964	223.75
644.169	216.75
644.374	210.75
644.579	210.75
644.784	199.75
644.989	208.75
645.194	204.75
645.399	216.75
645.604	201.75
645.809	222.75
646.014	212.75
646.219	206.75
646.423	193.75
646.628	201.75
646.833	221.75
647.038	214.75
647.243	207.75
647.447	204.75
647.652	201.75
647.857	206.75
648.062	217.75
648.266	211.75
648.471	213.75
648.676	201.75
648.88	210.75
649.085	228.75
649.289	205.75
649.494	208.75
649.698	225.75
649.903	201.75
650.107	201.75
650.312	207.75
650.516	195.75
650.721	202.75
650.925	190.75
651.13	181.75
651.334	197.75
651.539	196.75
651.743	183.75
651.947	181.75
652.152	191.75
652.356	176.75
652.56	183.75
652.764	187.75
652.969	158.75
653.173	173.75
653.377	174.75
653.581	170.75
653.785	172.75
653.99	151.75
654.194	152.75
654.398	168.75
654.602	161.75
654.806	158.75
655.01	161.75
655.214	151.75
655.418	137.75
655.622	157.75
655.826	159.75
656.03	163.75
656.234	160.75
656.438	169.75
656.642	172.75
656.846	157.75
657.049	151.75
657.253	156.75
657.457	143.75
657.661	132.75
657.865	135.75
658.068	130.75
658.272	126.75
658.476	110.75
658.68	128.75
658.883	115.75
659.087	110.75
659.291	116.75
659.494	105.75
659.698	112.75
659.901	109.75
660.105	120.75
660.309	111.75
660.512	113.75
660.716	109.75
660.919	98.75
661.123	104.75
661.326	103.75
661.53	113.75
661.733	95.75
661.936	98.75
662.14	90.75
662.343	64.75
662.546	78.75
662.75	72.75
662.953	100.75
663.156	77.75
663.36	95.75
663.563	86.75
663.766	94.75
663.969	99.75
664.173	82.75
664.376	74.75
664.579	82.75
664.782	93.75
664.985	94.75
665.188	93.75
665.391	76.75
665.594	89.75
665.797	87.75
666	88.75
666.203	79.75
666.406	69.75
666.609	73.75
666.812	89.75
667.015	94.75
667.218	88.75
667.421	83.75
667.624	85.75
667.827	90.75
668.03	83.75
668.232	74.75
668.435	87.75
668.638	88.75
668.841	88.75
669.043	81.75
669.246	100.75
669.449	68.75
669.651	76.75
669.854	74.75
670.057	81.75
670.259	89.75
670.462	75.75
670.665	87.75
670.867	76.75
671.07	81.75
671.272	95.75
671.475	79.75
671.677	90.75
671.88	86.75
672.082	87.75
672.284	93.75
672.487	75.75
672.689	76.75
672.892	86.75
