Data from NickelSpatula.Lamp.E10.P2_HRD10591_11-58-55-526.txt Node
Date: Tue Jul 23 11:58:55 EDT 2019
User: cochatt
Spectrometer: HR+D1059
Trigger mode: 1
Integration Time (sec): 1.000000E-1
Scans to average: 1
Electric dark correction enabled: true
Nonlinearity correction enabled: false
Boxcar width: 0
XAxis mode: Wavelengths
Number of Pixels in Spectrum: 2048
>>>>>Begin Spectral Data<<<<<
223.165	-21.5
223.4	-21.5
223.635	-21.5
223.869	-9.5
224.104	-20.5
224.338	-8.5
224.573	-21.5
224.808	-13.5
225.042	-9.5
225.277	2.5
225.511	-17.5
225.746	-17.5
225.98	9.5
226.215	4.5
226.449	24.5
226.683	23.5
226.918	36.5
227.152	38.5
227.387	31.5
227.621	40.5
227.856	47.5
228.09	57.5
228.324	48.5
228.559	54.5
228.793	96.5
229.027	151.5
229.262	148.5
229.496	169.5
229.73	168.5
229.964	190.5
230.199	221.5
230.433	229.5
230.667	202.5
230.901	195.5
231.136	193.5
231.37	217.5
231.604	241.5
231.838	251.5
232.072	266.5
232.306	267.5
232.541	247.5
232.775	225.5
233.009	283.5
233.243	281.5
233.477	316.5
233.711	354.5
233.945	332.5
234.179	324.5
234.413	354.5
234.647	369.5
234.881	476.5
235.115	420.5
235.349	407.5
235.583	356.5
235.817	352.5
236.051	377.5
236.285	428.5
236.519	458.5
236.753	414.5
236.987	436.5
237.221	420.5
237.455	417.5
237.689	450.5
237.922	459.5
238.156	495.5
238.39	575.5
238.624	644.5
238.858	586.5
239.091	498.5
239.325	490.5
239.559	472.5
239.793	528.5
240.027	634.5
240.26	580.5
240.494	555.5
240.728	587.5
240.961	696.5
241.195	671.5
241.429	634.5
241.662	603.5
241.896	530.5
242.13	456.5
242.363	456.5
242.597	489.5
242.83	544.5
243.064	552.5
243.298	579.5
243.531	601.5
243.765	624.5
243.998	615.5
244.232	578.5
244.465	583.5
244.699	581.5
244.932	660.5
245.166	616.5
245.399	549.5
245.633	518.5
245.866	569.5
246.099	630.5
246.333	715.5
246.566	795.5
246.8	774.5
247.033	721.5
247.266	686.5
247.5	675.5
247.733	672.5
247.966	643.5
248.2	691.5
248.433	782.5
248.666	846.5
248.899	830.5
249.133	857.5
249.366	988.5
249.599	1037.5
249.832	950.5
250.066	832.5
250.299	831.5
250.532	799.5
250.765	791.5
250.998	722.5
251.231	694.5
251.465	766.5
251.698	810.5
251.931	827.5
252.164	811.5
252.397	954.5
252.63	1046.5
252.863	1140.5
253.096	1191.5
253.329	1104.5
253.562	1105.5
253.795	1225.5
254.028	1350.5
254.261	1387.5
254.494	1224.5
254.727	1156.5
254.96	1148.5
255.193	1174.5
255.426	1128.5
255.659	819.5
255.892	763.5
256.124	839.5
256.357	999.5
256.59	1170.5
256.823	1141.5
257.056	955.5
257.289	930.5
257.521	943.5
257.754	1136.5
257.987	1277.5
258.22	1106.5
258.452	1012.5
258.685	1144.5
258.918	1266.5
259.151	1234.5
259.383	1324.5
259.616	1481.5
259.849	1567.5
260.081	1675.5
260.314	1880.5
260.547	1454.5
260.779	1458.5
261.012	1682.5
261.244	1604.5
261.477	1599.5
261.71	1558.5
261.942	1278.5
262.175	1264.5
262.407	1227.5
262.64	1215.5
262.872	1502.5
263.105	1636.5
263.337	1696.5
263.57	1521.5
263.802	1047.5
264.035	892.5
264.267	871.5
264.499	753.5
264.732	698.5
264.964	712.5
265.197	720.5
265.429	789.5
265.661	815.5
265.894	860.5
266.126	895.5
266.358	1028.5
266.591	1217.5
266.823	1512.5
267.055	1387.5
267.287	1243.5
267.52	1232.5
267.752	1297.5
267.984	1446.5
268.216	1376.5
268.448	1100.5
268.681	1080.5
268.913	1224.5
269.145	1258.5
269.377	1286.5
269.609	1309.5
269.841	1200.5
270.073	1251.5
270.306	1366.5
270.538	1338.5
270.77	1390.5
271.002	1428.5
271.234	1418.5
271.466	1477.5
271.698	1434.5
271.93	1418.5
272.162	1404.5
272.394	1418.5
272.626	1391.5
272.858	1474.5
273.09	1449.5
273.322	1351.5
273.553	1238.5
273.785	1510.5
274.017	1968.5
274.249	2390.5
274.481	2540.5
274.713	2706.5
274.945	3175.5
275.176	3202.5
275.408	2832.5
275.64	2597.5
275.872	2569.5
276.104	2247.5
276.335	1887.5
276.567	1869.5
276.799	1948.5
277.031	1994.5
277.262	1591.5
277.494	1211.5
277.726	1186.5
277.957	1287.5
278.189	1476.5
278.421	1475.5
278.652	1427.5
278.884	1355.5
279.115	1249.5
279.347	1178.5
279.579	1200.5
279.81	1173.5
280.042	1205.5
280.273	1223.5
280.505	1105.5
280.736	1030.5
280.968	1013.5
281.199	1069.5
281.431	1219.5
281.662	1197.5
281.894	1145.5
282.125	1243.5
282.356	1367.5
282.588	1389.5
282.819	1251.5
283.051	1362.5
283.282	1665.5
283.513	1936.5
283.745	2146.5
283.976	2152.5
284.207	1980.5
284.439	2091.5
284.67	1999.5
284.901	1799.5
285.132	1894.5
285.364	2022.5
285.595	1887.5
285.826	1918.5
286.057	1990.5
286.288	1916.5
286.52	1928.5
286.751	2120.5
286.982	2046.5
287.213	1744.5
287.444	1743.5
287.675	1835.5
287.906	1840.5
288.138	1514.5
288.369	1352.5
288.6	1299.5
288.831	1326.5
289.062	1522.5
289.293	1680.5
289.524	1576.5
289.755	1561.5
289.986	1610.5
290.217	1413.5
290.448	1096.5
290.679	973.5
290.91	882.5
291.141	914.5
291.371	943.5
291.602	974.5
291.833	998.5
292.064	1043.5
292.295	1206.5
292.526	1381.5
292.757	1430.5
292.987	1526.5
293.218	1567.5
293.449	1584.5
293.68	1661.5
293.91	1600.5
294.141	1628.5
294.372	1518.5
294.603	1405.5
294.833	1588.5
295.064	1779.5
295.295	1686.5
295.525	1293.5
295.756	1142.5
295.987	977.5
296.217	1010.5
296.448	1007.5
296.679	1107.5
296.909	1218.5
297.14	1313.5
297.37	1439.5
297.601	1306.5
297.831	1131.5
298.062	1213.5
298.292	1447.5
298.523	1561.5
298.753	1768.5
298.984	1593.5
299.214	1287.5
299.445	1077.5
299.675	1046.5
299.905	1010.5
300.136	1058.5
300.366	1146.5
300.597	1126.5
300.827	1008.5
301.057	951.5
301.288	1038.5
301.518	1060.5
301.748	1226.5
301.979	1347.5
302.209	1407.5
302.439	1454.5
302.669	1233.5
302.9	1243.5
303.13	1118.5
303.36	1054.5
303.59	1019.5
303.82	1061.5
304.051	1221.5
304.281	1326.5
304.511	1264.5
304.741	1142.5
304.971	1147.5
305.201	1289.5
305.431	1172.5
305.661	1070.5
305.891	1024.5
306.121	1059.5
306.352	946.5
306.582	893.5
306.812	854.5
307.042	859.5
307.272	804.5
307.502	799.5
307.731	871.5
307.961	904.5
308.191	841.5
308.421	817.5
308.651	785.5
308.881	766.5
309.111	759.5
309.341	806.5
309.571	866.5
309.8	901.5
310.03	918.5
310.26	1000.5
310.49	977.5
310.72	843.5
310.949	857.5
311.179	864.5
311.409	926.5
311.639	1061.5
311.868	1370.5
312.098	1749.5
312.328	1916.5
312.557	1844.5
312.787	1869.5
313.017	1631.5
313.246	1751.5
313.476	1926.5
313.706	1610.5
313.935	1286.5
314.165	1037.5
314.394	935.5
314.624	946.5
314.853	1005.5
315.083	1063.5
315.312	1025.5
315.542	1020.5
315.771	946.5
316.001	853.5
316.23	815.5
316.46	833.5
316.689	858.5
316.919	900.5
317.148	908.5
317.377	872.5
317.607	873.5
317.836	917.5
318.065	1116.5
318.295	1236.5
318.524	1138.5
318.753	979.5
318.983	923.5
319.212	924.5
319.441	990.5
319.67	1122.5
319.9	1185.5
320.129	1078.5
320.358	938.5
320.587	948.5
320.816	1009.5
321.046	1139.5
321.275	1302.5
321.504	1278.5
321.733	1263.5
321.962	1214.5
322.191	1129.5
322.42	1084.5
322.649	1093.5
322.878	1222.5
323.108	1177.5
323.337	1067.5
323.566	1084.5
323.795	1052.5
324.024	995.5
324.253	964.5
324.482	958.5
324.71	1058.5
324.939	1200.5
325.168	1104.5
325.397	915.5
325.626	888.5
325.855	905.5
326.084	888.5
326.313	883.5
326.542	826.5
326.77	869.5
326.999	848.5
327.228	956.5
327.457	995.5
327.686	992.5
327.914	878.5
328.143	834.5
328.372	810.5
328.6	843.5
328.829	852.5
329.058	910.5
329.287	905.5
329.515	906.5
329.744	874.5
329.972	839.5
330.201	798.5
330.43	860.5
330.658	927.5
330.887	1056.5
331.115	1018.5
331.344	971.5
331.572	945.5
331.801	881.5
332.03	848.5
332.258	880.5
332.486	945.5
332.715	970.5
332.943	891.5
333.172	897.5
333.4	957.5
333.629	1032.5
333.857	1099.5
334.085	1096.5
334.314	1070.5
334.542	1058.5
334.771	939.5
334.999	912.5
335.227	916.5
335.455	933.5
335.684	1001.5
335.912	1161.5
336.14	1283.5
336.369	1215.5
336.597	1211.5
336.825	1400.5
337.053	1504.5
337.281	1218.5
337.51	952.5
337.738	962.5
337.966	1036.5
338.194	1185.5
338.422	1105.5
338.65	960.5
338.878	859.5
339.106	899.5
339.334	1025.5
339.562	1098.5
339.79	985.5
340.018	954.5
340.246	1018.5
340.474	1174.5
340.702	1242.5
340.93	1305.5
341.158	1303.5
341.386	1115.5
341.614	1099.5
341.842	1104.5
342.07	1139.5
342.298	1308.5
342.526	1370.5
342.754	1163.5
342.981	1099.5
343.209	1047.5
343.437	1120.5
343.665	1203.5
343.893	1184.5
344.12	1339.5
344.348	1568.5
344.576	1442.5
344.804	1186.5
345.031	1019.5
345.259	960.5
345.487	986.5
345.714	1032.5
345.942	1066.5
346.17	1163.5
346.397	1131.5
346.625	970.5
346.853	928.5
347.08	918.5
347.308	968.5
347.535	1091.5
347.763	1134.5
347.99	949.5
348.218	920.5
348.445	920.5
348.673	954.5
348.9	966.5
349.128	1040.5
349.355	1052.5
349.583	1037.5
349.81	995.5
350.037	959.5
350.265	825.5
350.492	794.5
350.72	771.5
350.947	828.5
351.174	875.5
351.402	902.5
351.629	983.5
351.856	930.5
352.083	908.5
352.311	988.5
352.538	1062.5
352.765	1132.5
352.992	1017.5
353.22	951.5
353.447	982.5
353.674	962.5
353.901	960.5
354.128	942.5
354.355	976.5
354.583	978.5
354.81	1005.5
355.037	1021.5
355.264	961.5
355.491	1071.5
355.718	1150.5
355.945	1128.5
356.172	1066.5
356.399	1058.5
356.626	1337.5
356.853	1594.5
357.08	1701.5
357.307	1757.5
357.534	1344.5
357.761	1381.5
357.988	1719.5
358.215	2020.5
358.441	1927.5
358.668	1607.5
358.895	1502.5
359.122	1205.5
359.349	1179.5
359.576	1295.5
359.802	1077.5
360.029	928.5
360.256	1019.5
360.483	1237.5
360.709	1572.5
360.936	1634.5
361.163	1410.5
361.39	1130.5
361.616	1072.5
361.843	1211.5
362.07	1466.5
362.296	1355.5
362.523	1060.5
362.749	927.5
362.976	984.5
363.203	1166.5
363.429	1330.5
363.656	1067.5
363.882	981.5
364.109	992.5
364.335	961.5
364.562	961.5
364.788	1083.5
365.015	1309.5
365.241	1138.5
365.468	950.5
365.694	808.5
365.92	793.5
366.147	768.5
366.373	758.5
366.599	794.5
366.826	778.5
367.052	805.5
367.278	822.5
367.505	806.5
367.731	888.5
367.957	989.5
368.184	1026.5
368.41	989.5
368.636	978.5
368.862	1026.5
369.089	978.5
369.315	918.5
369.541	903.5
369.767	863.5
369.993	826.5
370.219	839.5
370.445	905.5
370.672	984.5
370.898	1044.5
371.124	1061.5
371.35	952.5
371.576	900.5
371.802	972.5
372.028	1134.5
372.254	1332.5
372.48	1116.5
372.706	990.5
372.932	1070.5
373.158	1147.5
373.384	1353.5
373.61	1769.5
373.835	1819.5
374.061	1386.5
374.287	1156.5
374.513	1342.5
374.739	1594.5
374.965	1688.5
375.191	1670.5
375.416	1125.5
375.642	1014.5
375.868	1183.5
376.094	1311.5
376.319	1124.5
376.545	1282.5
376.771	1313.5
376.997	1150.5
377.222	885.5
377.448	742.5
377.674	752.5
377.899	751.5
378.125	725.5
378.35	753.5
378.576	778.5
378.802	863.5
379.027	908.5
379.253	852.5
379.478	898.5
379.704	1007.5
379.929	1090.5
380.155	1058.5
380.38	937.5
380.606	981.5
380.831	1106.5
381.057	1000.5
381.282	964.5
381.507	1167.5
381.733	1439.5
381.958	1519.5
382.184	1614.5
382.409	1667.5
382.634	1635.5
382.86	1718.5
383.085	1418.5
383.31	1120.5
383.535	1166.5
383.761	1205.5
383.986	1114.5
384.211	1385.5
384.436	1332.5
384.662	1027.5
384.887	975.5
385.112	1021.5
385.337	1029.5
385.562	965.5
385.787	1092.5
386.013	1200.5
386.238	1213.5
386.463	1036.5
386.688	994.5
386.913	934.5
387.138	889.5
387.363	908.5
387.588	950.5
387.813	956.5
388.038	1071.5
388.263	993.5
388.488	939.5
388.713	1074.5
388.938	1189.5
389.163	1010.5
389.387	889.5
389.612	912.5
389.837	947.5
390.062	942.5
390.287	980.5
390.512	978.5
390.736	950.5
390.961	878.5
391.186	849.5
391.411	850.5
391.636	832.5
391.86	923.5
392.085	1028.5
392.31	990.5
392.534	931.5
392.759	943.5
392.984	956.5
393.208	958.5
393.433	881.5
393.658	787.5
393.882	772.5
394.107	776.5
394.331	819.5
394.556	791.5
394.78	803.5
395.005	851.5
395.229	871.5
395.454	858.5
395.678	879.5
395.903	892.5
396.127	854.5
396.352	894.5
396.576	978.5
396.801	971.5
397.025	1060.5
397.249	1115.5
397.474	944.5
397.698	916.5
397.922	951.5
398.147	906.5
398.371	904.5
398.595	961.5
398.82	946.5
399.044	927.5
399.268	977.5
399.492	1036.5
399.717	1052.5
399.941	1081.5
400.165	1052.5
400.389	1006.5
400.613	1036.5
400.837	1001.5
401.062	904.5
401.286	875.5
401.51	894.5
401.734	904.5
401.958	892.5
402.182	892.5
402.406	901.5
402.63	890.5
402.854	954.5
403.078	1046.5
403.302	1283.5
403.526	1308.5
403.75	1196.5
403.974	1053.5
404.198	1107.5
404.422	1202.5
404.645	1433.5
404.869	1576.5
405.093	1167.5
405.317	974.5
405.541	973.5
405.765	1000.5
405.988	987.5
406.212	1076.5
406.436	1273.5
406.66	1394.5
406.883	1115.5
407.107	1160.5
407.331	1360.5
407.555	1316.5
407.778	1129.5
408.002	1035.5
408.226	1016.5
408.449	1033.5
408.673	999.5
408.896	933.5
409.12	910.5
409.344	916.5
409.567	903.5
409.791	891.5
410.014	877.5
410.238	892.5
410.461	873.5
410.685	898.5
410.908	885.5
411.132	935.5
411.355	935.5
411.578	935.5
411.802	951.5
412.025	976.5
412.249	977.5
412.472	964.5
412.695	917.5
412.919	955.5
413.142	971.5
413.365	1027.5
413.589	1036.5
413.812	977.5
414.035	898.5
414.258	920.5
414.482	1003.5
414.705	1039.5
414.928	906.5
415.151	889.5
415.374	872.5
415.597	935.5
415.821	915.5
416.044	875.5
416.267	861.5
416.49	883.5
416.713	868.5
416.936	851.5
417.159	867.5
417.382	879.5
417.605	889.5
417.828	927.5
418.051	920.5
418.274	923.5
418.497	926.5
418.72	928.5
418.943	931.5
419.166	971.5
419.389	1035.5
419.611	1024.5
419.834	1019.5
420.057	1107.5
420.28	1080.5
420.503	1001.5
420.726	881.5
420.948	886.5
421.171	894.5
421.394	900.5
421.617	896.5
421.839	891.5
422.062	908.5
422.285	918.5
422.507	916.5
422.73	947.5
422.953	954.5
423.175	948.5
423.398	946.5
423.621	1003.5
423.843	1040.5
424.066	965.5
424.288	951.5
424.511	899.5
424.733	901.5
424.956	953.5
425.178	1086.5
425.401	1210.5
425.623	1364.5
425.846	1144.5
426.068	993.5
426.291	1091.5
426.513	1013.5
426.735	937.5
426.958	992.5
427.18	1141.5
427.402	1460.5
427.625	1440.5
427.847	1175.5
428.069	883.5
428.292	886.5
428.514	882.5
428.736	864.5
428.958	937.5
429.181	1092.5
429.403	966.5
429.625	864.5
429.847	865.5
430.069	872.5
430.292	903.5
430.514	866.5
430.736	948.5
430.958	1175.5
431.18	1070.5
431.402	852.5
431.624	789.5
431.846	822.5
432.068	778.5
432.29	815.5
432.512	899.5
432.734	1182.5
432.956	1115.5
433.178	863.5
433.4	834.5
433.622	852.5
433.844	849.5
434.066	953.5
434.287	891.5
434.509	879.5
434.731	907.5
434.953	860.5
435.175	918.5
435.397	1023.5
435.618	859.5
435.84	813.5
436.062	819.5
436.284	811.5
436.505	774.5
436.727	786.5
436.949	796.5
437.17	840.5
437.392	878.5
437.614	842.5
437.835	842.5
438.057	827.5
438.278	946.5
438.5	1359.5
438.721	1369.5
438.943	939.5
439.165	809.5
439.386	777.5
439.608	787.5
439.829	768.5
440.05	800.5
440.272	842.5
440.493	994.5
440.715	1234.5
440.936	985.5
441.158	833.5
441.379	852.5
441.6	952.5
441.822	1004.5
442.043	870.5
442.264	865.5
442.486	895.5
442.707	878.5
442.928	863.5
443.149	886.5
443.371	920.5
443.592	944.5
443.813	890.5
444.034	884.5
444.255	897.5
444.476	928.5
444.698	940.5
444.919	951.5
445.14	1084.5
445.361	1014.5
445.582	927.5
445.803	915.5
446.024	908.5
446.245	918.5
446.466	936.5
446.687	855.5
446.908	886.5
447.129	836.5
447.35	814.5
447.571	790.5
447.792	790.5
448.013	771.5
448.234	755.5
448.455	799.5
448.675	772.5
448.896	833.5
449.117	798.5
449.338	800.5
449.559	809.5
449.779	872.5
450	862.5
450.221	843.5
450.442	826.5
450.662	784.5
450.883	796.5
451.104	820.5
451.324	780.5
451.545	789.5
451.766	802.5
451.986	787.5
452.207	754.5
452.428	789.5
452.648	751.5
452.869	792.5
453.089	848.5
453.31	838.5
453.53	730.5
453.751	726.5
453.971	753.5
454.192	767.5
454.412	789.5
454.633	729.5
454.853	744.5
455.073	726.5
455.294	729.5
455.514	708.5
455.734	737.5
455.955	790.5
456.175	826.5
456.395	729.5
456.616	707.5
456.836	709.5
457.056	715.5
457.276	692.5
457.497	691.5
457.717	683.5
457.937	719.5
458.157	738.5
458.377	751.5
458.598	761.5
458.818	762.5
459.038	774.5
459.258	820.5
459.478	835.5
459.698	893.5
459.918	917.5
460.138	891.5
460.358	852.5
460.578	867.5
460.798	883.5
461.018	894.5
461.238	863.5
461.458	863.5
461.678	904.5
461.898	930.5
462.118	872.5
462.338	921.5
462.558	959.5
462.777	964.5
462.997	982.5
463.217	1013.5
463.437	1022.5
463.657	1003.5
463.876	969.5
464.096	944.5
464.316	936.5
464.536	968.5
464.755	997.5
464.975	1002.5
465.195	941.5
465.414	998.5
465.634	940.5
465.854	932.5
466.073	861.5
466.293	875.5
466.512	938.5
466.732	1010.5
466.951	1036.5
467.171	906.5
467.391	862.5
467.61	869.5
467.829	922.5
468.049	933.5
468.268	864.5
468.488	862.5
468.707	913.5
468.927	1089.5
469.146	1150.5
469.365	1040.5
469.585	918.5
469.804	992.5
470.023	1076.5
470.243	967.5
470.462	921.5
470.681	892.5
470.901	902.5
471.12	955.5
471.339	979.5
471.558	924.5
471.777	926.5
471.997	997.5
472.216	1112.5
472.435	1048.5
472.654	959.5
472.873	950.5
473.092	1016.5
473.311	1026.5
473.53	938.5
473.749	911.5
473.968	971.5
474.187	966.5
474.406	932.5
474.625	921.5
474.844	935.5
475.063	995.5
475.282	1052.5
475.501	1071.5
475.72	1144.5
475.939	1093.5
476.158	1077.5
476.377	1257.5
476.596	1456.5
476.814	1479.5
477.033	1227.5
477.252	1042.5
477.471	996.5
477.69	1016.5
477.908	1106.5
478.127	1153.5
478.346	1106.5
478.564	1135.5
478.783	1098.5
479.002	1088.5
479.22	1285.5
479.439	1403.5
479.658	1213.5
479.876	1103.5
480.095	1212.5
480.313	1222.5
480.532	1118.5
480.751	1090.5
480.969	1116.5
481.188	1266.5
481.406	1326.5
481.624	1201.5
481.843	1131.5
482.061	1083.5
482.28	1194.5
482.498	1437.5
482.717	1342.5
482.935	1176.5
483.153	1123.5
483.372	1023.5
483.59	1044.5
483.808	1044.5
484.027	999.5
484.245	1007.5
484.463	975.5
484.681	996.5
484.9	1089.5
485.118	1189.5
485.336	1127.5
485.554	1041.5
485.772	1087.5
485.99	1164.5
486.209	1224.5
486.427	1227.5
486.645	1193.5
486.863	1238.5
487.081	1241.5
487.299	1363.5
487.517	1326.5
487.735	1195.5
487.953	1217.5
488.171	1258.5
488.389	1173.5
488.607	1150.5
488.825	1151.5
489.043	1232.5
489.261	1437.5
489.479	1534.5
489.696	1299.5
489.914	1188.5
490.132	1093.5
490.35	1122.5
490.568	1138.5
490.786	1112.5
491.003	1138.5
491.221	1158.5
491.439	1128.5
491.657	1125.5
491.874	1237.5
492.092	1465.5
492.31	1754.5
492.527	1752.5
492.745	1489.5
492.963	1284.5
493.18	1312.5
493.398	1280.5
493.615	1285.5
493.833	1257.5
494.05	1211.5
494.268	1249.5
494.485	1229.5
494.703	1194.5
494.92	1232.5
495.138	1201.5
495.355	1206.5
495.573	1218.5
495.79	1387.5
496.008	1751.5
496.225	1585.5
496.442	1333.5
496.66	1308.5
496.877	1431.5
497.094	1418.5
497.312	1280.5
497.529	1285.5
497.746	1290.5
497.963	1330.5
498.181	1430.5
498.398	1534.5
498.615	1665.5
498.832	1682.5
499.049	1695.5
499.267	1553.5
499.484	1540.5
499.701	1596.5
499.918	1714.5
500.135	1894.5
500.352	1900.5
500.569	1960.5
500.786	2027.5
501.003	1979.5
501.22	1796.5
501.437	1724.5
501.654	1647.5
501.871	1584.5
502.088	1607.5
502.305	1488.5
502.522	1487.5
502.739	1488.5
502.956	1350.5
503.172	1353.5
503.389	1310.5
503.606	1251.5
503.823	1291.5
504.04	1332.5
504.256	1317.5
504.473	1310.5
504.69	1331.5
504.907	1372.5
505.123	1353.5
505.34	1414.5
505.557	1424.5
505.773	1336.5
505.99	1252.5
506.207	1336.5
506.423	1265.5
506.64	1194.5
506.856	1215.5
507.073	1360.5
507.289	1342.5
507.506	1345.5
507.722	1403.5
507.939	1416.5
508.155	1427.5
508.372	1278.5
508.588	1245.5
508.805	1211.5
509.021	1230.5
509.238	1155.5
509.454	1156.5
509.67	1196.5
509.887	1213.5
510.103	1340.5
510.319	1309.5
510.536	1182.5
510.752	1078.5
510.968	1048.5
511.184	1014.5
511.401	1054.5
511.617	1022.5
511.833	1059.5
512.049	1072.5
512.265	1057.5
512.481	1123.5
512.698	1237.5
512.914	1381.5
513.13	1232.5
513.346	1124.5
513.562	1158.5
513.778	1167.5
513.994	1128.5
514.21	1215.5
514.426	1189.5
514.642	1131.5
514.858	1121.5
515.074	1200.5
515.29	1278.5
515.506	1376.5
515.721	1301.5
515.937	1224.5
516.153	1148.5
516.369	1144.5
516.585	1204.5
516.801	1395.5
517.016	1586.5
517.232	1540.5
517.448	1538.5
517.664	1341.5
517.879	1255.5
518.095	1282.5
518.311	1282.5
518.527	1311.5
518.742	1381.5
518.958	1407.5
519.173	1382.5
519.389	1349.5
519.605	1382.5
519.82	1470.5
520.036	1726.5
520.251	1685.5
520.467	1558.5
520.682	2325.5
520.898	2804.5
521.113	2673.5
521.329	1682.5
521.544	1473.5
521.76	1493.5
521.975	1308.5
522.19	1277.5
522.406	1312.5
522.621	1415.5
522.836	1503.5
523.052	1547.5
523.267	1294.5
523.482	1286.5
523.698	1337.5
523.913	1355.5
524.128	1207.5
524.343	1165.5
524.559	1200.5
524.774	1143.5
524.989	1157.5
525.204	1172.5
525.419	1317.5
525.634	1212.5
525.849	1260.5
526.064	1232.5
526.28	1240.5
526.495	1467.5
526.71	1487.5
526.925	1331.5
527.14	1414.5
527.355	1320.5
527.57	1141.5
527.785	1169.5
527.999	1103.5
528.214	1072.5
528.429	1058.5
528.644	1059.5
528.859	986.5
529.074	1016.5
529.289	960.5
529.503	1000.5
529.718	1008.5
529.933	1166.5
530.148	1184.5
530.363	1029.5
530.577	999.5
530.792	982.5
531.007	987.5
531.221	970.5
531.436	975.5
531.651	966.5
531.865	967.5
532.08	1033.5
532.295	995.5
532.509	1026.5
532.724	1148.5
532.938	1267.5
533.153	1481.5
533.367	1185.5
533.582	1164.5
533.796	1075.5
534.011	1016.5
534.225	1028.5
534.44	1048.5
534.654	1101.5
534.868	1255.5
535.083	1103.5
535.297	980.5
535.511	1014.5
535.726	1129.5
535.94	1091.5
536.154	974.5
536.369	983.5
536.583	1011.5
536.797	1009.5
537.011	1050.5
537.225	1101.5
537.44	1191.5
537.654	1007.5
537.868	1000.5
538.082	1012.5
538.296	979.5
538.51	1072.5
538.724	1076.5
538.938	1032.5
539.153	959.5
539.367	968.5
539.581	975.5
539.795	1050.5
540.009	1139.5
540.222	1076.5
540.436	1036.5
540.65	1117.5
540.864	1144.5
541.078	1186.5
541.292	1314.5
541.506	1087.5
541.72	1062.5
541.934	1040.5
542.147	1000.5
542.361	1034.5
542.575	1063.5
542.789	1017.5
543.002	975.5
543.216	1076.5
543.43	933.5
543.644	945.5
543.857	932.5
544.071	934.5
544.285	936.5
544.498	932.5
544.712	906.5
544.925	975.5
545.139	926.5
545.352	903.5
545.566	917.5
545.779	1053.5
545.993	947.5
546.206	898.5
546.42	919.5
546.633	918.5
546.847	864.5
547.06	860.5
547.274	854.5
547.487	888.5
547.7	965.5
547.914	1001.5
548.127	1095.5
548.34	1066.5
548.554	956.5
548.767	1006.5
548.98	1057.5
549.193	971.5
549.407	992.5
549.62	1154.5
549.833	1100.5
550.046	1171.5
550.259	1174.5
550.473	1025.5
550.686	963.5
550.899	975.5
551.112	976.5
551.325	1028.5
551.538	1059.5
551.751	962.5
551.964	860.5
552.177	880.5
552.39	864.5
552.603	871.5
552.816	924.5
553.029	875.5
553.242	857.5
553.455	941.5
553.667	1030.5
553.88	967.5
554.093	904.5
554.306	837.5
554.519	802.5
554.732	788.5
554.944	794.5
555.157	771.5
555.37	773.5
555.583	783.5
555.795	748.5
556.008	780.5
556.221	786.5
556.433	804.5
556.646	793.5
556.859	770.5
557.071	821.5
557.284	822.5
557.496	852.5
557.709	820.5
557.921	821.5
558.134	737.5
558.346	696.5
558.559	720.5
558.771	784.5
558.984	806.5
559.196	776.5
559.409	726.5
559.621	698.5
559.833	733.5
560.046	734.5
560.258	715.5
560.47	742.5
560.683	720.5
560.895	677.5
561.107	670.5
561.32	690.5
561.532	676.5
561.744	741.5
561.956	778.5
562.168	715.5
562.381	678.5
562.593	716.5
562.805	720.5
563.017	684.5
563.229	690.5
563.441	672.5
563.653	686.5
563.865	707.5
564.077	686.5
564.289	678.5
564.501	691.5
564.713	740.5
564.925	739.5
565.137	708.5
565.349	698.5
565.561	691.5
565.773	686.5
565.985	715.5
566.197	785.5
566.408	825.5
566.62	841.5
566.832	851.5
567.044	838.5
567.255	904.5
567.467	970.5
567.679	889.5
567.891	866.5
568.102	898.5
568.314	924.5
568.526	852.5
568.737	834.5
568.949	852.5
569.161	768.5
569.372	717.5
569.584	686.5
569.795	679.5
570.007	689.5
570.218	740.5
570.43	722.5
570.641	689.5
570.853	660.5
571.064	674.5
571.276	681.5
571.487	720.5
571.698	662.5
571.91	667.5
572.121	668.5
572.333	624.5
572.544	649.5
572.755	610.5
572.966	611.5
573.178	612.5
573.389	624.5
573.6	638.5
573.811	656.5
574.023	570.5
574.234	542.5
574.445	573.5
574.656	547.5
574.867	566.5
575.078	582.5
575.289	568.5
575.501	618.5
575.712	584.5
575.923	543.5
576.134	542.5
576.345	536.5
576.556	564.5
576.767	505.5
576.978	519.5
577.188	514.5
577.399	529.5
577.61	539.5
577.821	508.5
578.032	517.5
578.243	553.5
578.454	580.5
578.665	567.5
578.875	558.5
579.086	547.5
579.297	557.5
579.508	552.5
579.718	585.5
579.929	554.5
580.14	526.5
580.35	533.5
580.561	491.5
580.772	504.5
580.982	504.5
581.193	464.5
581.403	481.5
581.614	457.5
581.825	462.5
582.035	458.5
582.246	464.5
582.456	471.5
582.667	494.5
582.877	454.5
583.087	454.5
583.298	476.5
583.508	456.5
583.719	459.5
583.929	458.5
584.139	441.5
584.35	456.5
584.56	490.5
584.77	474.5
584.981	474.5
585.191	455.5
585.401	461.5
585.611	479.5
585.821	490.5
586.032	501.5
586.242	461.5
586.452	469.5
586.662	487.5
586.872	495.5
587.082	498.5
587.292	458.5
587.502	452.5
587.713	457.5
587.923	466.5
588.133	505.5
588.343	491.5
588.553	454.5
588.762	458.5
588.972	448.5
589.182	463.5
589.392	445.5
589.602	450.5
589.812	457.5
590.022	480.5
590.232	481.5
590.441	452.5
590.651	467.5
590.861	461.5
591.071	478.5
591.281	464.5
591.49	449.5
591.7	468.5
591.91	460.5
592.119	447.5
592.329	452.5
592.539	455.5
592.748	461.5
592.958	471.5
593.167	480.5
593.377	473.5
593.587	516.5
593.796	498.5
594.006	478.5
594.215	472.5
594.424	491.5
594.634	498.5
594.843	484.5
595.053	459.5
595.262	437.5
595.472	431.5
595.681	414.5
595.89	410.5
596.1	446.5
596.309	446.5
596.518	425.5
596.727	420.5
596.937	408.5
597.146	434.5
597.355	460.5
597.564	449.5
597.774	425.5
597.983	414.5
598.192	390.5
598.401	387.5
598.61	392.5
598.819	397.5
599.028	379.5
599.237	383.5
599.446	394.5
599.655	377.5
599.864	375.5
600.073	370.5
600.282	394.5
600.491	378.5
600.7	383.5
600.909	396.5
601.118	380.5
601.327	371.5
601.536	373.5
601.745	361.5
601.953	396.5
602.162	407.5
602.371	394.5
602.58	405.5
602.789	367.5
602.997	364.5
603.206	384.5
603.415	382.5
603.623	378.5
603.832	376.5
604.041	367.5
604.249	368.5
604.458	373.5
604.666	385.5
604.875	349.5
605.084	359.5
605.292	368.5
605.501	371.5
605.709	372.5
605.918	363.5
606.126	361.5
606.334	367.5
606.543	359.5
606.751	376.5
606.96	347.5
607.168	356.5
607.376	354.5
607.585	350.5
607.793	358.5
608.001	350.5
608.21	360.5
608.418	366.5
608.626	350.5
608.834	350.5
609.043	347.5
609.251	355.5
609.459	340.5
609.667	327.5
609.875	355.5
610.083	329.5
610.291	367.5
610.499	357.5
610.707	344.5
610.916	357.5
611.124	319.5
611.332	342.5
611.54	342.5
611.748	351.5
611.955	336.5
612.163	320.5
612.371	340.5
612.579	344.5
612.787	338.5
612.995	336.5
613.203	339.5
613.411	335.5
613.618	315.5
613.826	351.5
614.034	368.5
614.242	322.5
614.449	339.5
614.657	311.5
614.865	329.5
615.072	323.5
615.28	329.5
615.488	333.5
615.695	320.5
615.903	327.5
616.111	331.5
616.318	324.5
616.526	334.5
616.733	322.5
616.941	328.5
617.148	331.5
617.356	318.5
617.563	316.5
617.771	319.5
617.978	331.5
618.185	299.5
618.393	302.5
618.6	314.5
618.807	327.5
619.015	345.5
619.222	330.5
619.429	358.5
619.637	307.5
619.844	291.5
620.051	289.5
620.258	306.5
620.466	308.5
620.673	275.5
620.88	308.5
621.087	294.5
621.294	294.5
621.501	292.5
621.708	303.5
621.915	303.5
622.122	297.5
622.329	303.5
622.536	296.5
622.743	281.5
622.95	301.5
623.157	286.5
623.364	316.5
623.571	296.5
623.778	292.5
623.985	306.5
624.192	318.5
624.399	302.5
624.606	301.5
624.812	295.5
625.019	303.5
625.226	325.5
625.433	304.5
625.639	310.5
625.846	276.5
626.053	274.5
626.259	264.5
626.466	281.5
626.673	315.5
626.879	280.5
627.086	290.5
627.293	269.5
627.499	281.5
627.706	278.5
627.912	275.5
628.119	267.5
628.325	286.5
628.532	247.5
628.738	277.5
628.945	244.5
629.151	252.5
629.357	251.5
629.564	248.5
629.77	269.5
629.976	255.5
630.183	268.5
630.389	262.5
630.595	278.5
630.802	257.5
631.008	252.5
631.214	257.5
631.42	243.5
631.627	254.5
631.833	229.5
632.039	263.5
632.245	242.5
632.451	227.5
632.657	262.5
632.863	258.5
633.069	241.5
633.275	258.5
633.481	239.5
633.688	258.5
633.893	244.5
634.099	228.5
634.305	244.5
634.511	240.5
634.717	262.5
634.923	233.5
635.129	239.5
635.335	240.5
635.541	222.5
635.747	235.5
635.952	220.5
636.158	236.5
636.364	245.5
636.57	229.5
636.775	239.5
636.981	215.5
637.187	242.5
637.392	245.5
637.598	227.5
637.804	229.5
638.009	229.5
638.215	229.5
638.421	229.5
638.626	234.5
638.832	211.5
639.037	219.5
639.243	234.5
639.448	229.5
639.654	240.5
639.859	232.5
640.065	217.5
640.27	234.5
640.475	234.5
640.681	236.5
640.886	231.5
641.091	228.5
641.297	231.5
641.502	231.5
641.707	230.5
641.913	214.5
642.118	231.5
642.323	220.5
642.528	233.5
642.733	217.5
642.939	221.5
643.144	212.5
643.349	210.5
643.554	218.5
643.759	227.5
643.964	221.5
644.169	221.5
644.374	211.5
644.579	214.5
644.784	214.5
644.989	205.5
645.194	214.5
645.399	224.5
645.604	197.5
645.809	219.5
646.014	221.5
646.219	209.5
646.423	205.5
646.628	196.5
646.833	211.5
647.038	225.5
647.243	213.5
647.447	216.5
647.652	206.5
647.857	195.5
648.062	188.5
648.266	206.5
648.471	216.5
648.676	225.5
648.88	216.5
649.085	206.5
649.289	206.5
649.494	203.5
649.698	226.5
649.903	223.5
650.107	197.5
650.312	203.5
650.516	207.5
650.721	206.5
650.925	199.5
651.13	181.5
651.334	177.5
651.539	199.5
651.743	169.5
651.947	190.5
652.152	182.5
652.356	194.5
652.56	176.5
652.764	184.5
652.969	188.5
653.173	186.5
653.377	170.5
653.581	185.5
653.785	168.5
653.99	154.5
654.194	169.5
654.398	165.5
654.602	147.5
654.806	169.5
655.01	167.5
655.214	176.5
655.418	152.5
655.622	164.5
655.826	155.5
656.03	154.5
656.234	163.5
656.438	162.5
656.642	178.5
656.846	151.5
657.049	158.5
657.253	142.5
657.457	149.5
657.661	143.5
657.865	130.5
658.068	121.5
658.272	121.5
658.476	122.5
658.68	117.5
658.883	120.5
659.087	114.5
659.291	99.5
659.494	126.5
659.698	120.5
659.901	121.5
660.105	114.5
660.309	100.5
660.512	105.5
660.716	104.5
660.919	105.5
661.123	115.5
661.326	118.5
661.53	97.5
661.733	80.5
661.936	120.5
662.14	105.5
662.343	91.5
662.546	99.5
662.75	97.5
662.953	88.5
663.156	91.5
663.36	82.5
663.563	111.5
663.766	90.5
663.969	84.5
664.173	89.5
664.376	90.5
664.579	94.5
664.782	81.5
664.985	86.5
665.188	91.5
665.391	82.5
665.594	96.5
665.797	80.5
666	88.5
666.203	82.5
666.406	91.5
666.609	96.5
666.812	84.5
667.015	86.5
667.218	83.5
667.421	71.5
667.624	87.5
667.827	82.5
668.03	85.5
668.232	89.5
668.435	92.5
668.638	80.5
668.841	89.5
669.043	72.5
669.246	96.5
669.449	81.5
669.651	80.5
669.854	95.5
670.057	81.5
670.259	85.5
670.462	85.5
670.665	89.5
670.867	73.5
671.07	73.5
671.272	84.5
671.475	90.5
671.677	82.5
671.88	96.5
672.082	80.5
672.284	70.5
672.487	87.5
672.689	72.5
672.892	94.5
