Data from NickelSpatula.Lamp.E10.P2_HRD10591_11-59-02-526.txt Node
Date: Tue Jul 23 11:59:02 EDT 2019
User: cochatt
Spectrometer: HR+D1059
Trigger mode: 1
Integration Time (sec): 1.000000E-1
Scans to average: 1
Electric dark correction enabled: true
Nonlinearity correction enabled: false
Boxcar width: 0
XAxis mode: Wavelengths
Number of Pixels in Spectrum: 2048
>>>>>Begin Spectral Data<<<<<
223.165	-13.31
223.4	-13.31
223.635	-13.31
223.869	-11.31
224.104	-2.31
224.338	-0.31
224.573	-30.31
224.808	-22.31
225.042	-9.31
225.277	4.69
225.511	4.69
225.746	-0.31
225.98	-10.31
226.215	16.69
226.449	17.69
226.683	22.69
226.918	10.69
227.152	22.69
227.387	30.69
227.621	42.69
227.856	43.69
228.09	47.69
228.324	56.69
228.559	66.69
228.793	75.69
229.027	161.69
229.262	160.69
229.496	161.69
229.73	176.69
229.964	187.69
230.199	227.69
230.433	223.69
230.667	217.69
230.901	216.69
231.136	186.69
231.37	227.69
231.604	210.69
231.838	232.69
232.072	273.69
232.306	267.69
232.541	252.69
232.775	244.69
233.009	289.69
233.243	315.69
233.477	328.69
233.711	347.69
233.945	343.69
234.179	314.69
234.413	348.69
234.647	397.69
234.881	485.69
235.115	431.69
235.349	428.69
235.583	363.69
235.817	356.69
236.051	391.69
236.285	407.69
236.519	475.69
236.753	432.69
236.987	426.69
237.221	416.69
237.455	421.69
237.689	460.69
237.922	494.69
238.156	494.69
238.39	575.69
238.624	670.69
238.858	630.69
239.091	507.69
239.325	529.69
239.559	482.69
239.793	531.69
240.027	658.69
240.26	622.69
240.494	586.69
240.728	612.69
240.961	714.69
241.195	665.69
241.429	656.69
241.662	634.69
241.896	532.69
242.13	483.69
242.363	456.69
242.597	475.69
242.83	552.69
243.064	564.69
243.298	636.69
243.531	656.69
243.765	649.69
243.998	634.69
244.232	605.69
244.465	617.69
244.699	599.69
244.932	680.69
245.166	630.69
245.399	578.69
245.633	544.69
245.866	602.69
246.099	598.69
246.333	723.69
246.566	809.69
246.8	816.69
247.033	752.69
247.266	708.69
247.5	696.69
247.733	679.69
247.966	680.69
248.2	670.69
248.433	792.69
248.666	863.69
248.899	863.69
249.133	883.69
249.366	1019.69
249.599	1078.69
249.832	966.69
250.066	841.69
250.299	858.69
250.532	808.69
250.765	808.69
250.998	746.69
251.231	760.69
251.465	802.69
251.698	843.69
251.931	837.69
252.164	839.69
252.397	940.69
252.63	1096.69
252.863	1179.69
253.096	1236.69
253.329	1175.69
253.562	1126.69
253.795	1258.69
254.028	1399.69
254.261	1428.69
254.494	1304.69
254.727	1174.69
254.96	1144.69
255.193	1218.69
255.426	1143.69
255.659	846.69
255.892	807.69
256.124	857.69
256.357	1033.69
256.59	1243.69
256.823	1173.69
257.056	956.69
257.289	936.69
257.521	1030.69
257.754	1148.69
257.987	1278.69
258.22	1113.69
258.452	1028.69
258.685	1170.69
258.918	1306.69
259.151	1288.69
259.383	1320.69
259.616	1522.69
259.849	1580.69
260.081	1758.69
260.314	1935.69
260.547	1496.69
260.779	1527.69
261.012	1770.69
261.244	1611.69
261.477	1687.69
261.71	1578.69
261.942	1324.69
262.175	1328.69
262.407	1246.69
262.64	1310.69
262.872	1535.69
263.105	1698.69
263.337	1813.69
263.57	1584.69
263.802	1076.69
264.035	907.69
264.267	891.69
264.499	798.69
264.732	722.69
264.964	718.69
265.197	736.69
265.429	808.69
265.661	821.69
265.894	872.69
266.126	904.69
266.358	1056.69
266.591	1262.69
266.823	1492.69
267.055	1398.69
267.287	1285.69
267.52	1300.69
267.752	1334.69
267.984	1438.69
268.216	1374.69
268.448	1145.69
268.681	1141.69
268.913	1217.69
269.145	1306.69
269.377	1319.69
269.609	1324.69
269.841	1234.69
270.073	1314.69
270.306	1387.69
270.538	1406.69
270.77	1424.69
271.002	1432.69
271.234	1501.69
271.466	1542.69
271.698	1517.69
271.93	1458.69
272.162	1460.69
272.394	1445.69
272.626	1470.69
272.858	1467.69
273.09	1499.69
273.322	1344.69
273.553	1311.69
273.785	1510.69
274.017	2074.69
274.249	2502.69
274.481	2616.69
274.713	2828.69
274.945	3269.69
275.176	3322.69
275.408	2947.69
275.64	2698.69
275.872	2664.69
276.104	2267.69
276.335	1950.69
276.567	1976.69
276.799	2051.69
277.031	2110.69
277.262	1620.69
277.494	1256.69
277.726	1215.69
277.957	1346.69
278.189	1505.69
278.421	1502.69
278.652	1448.69
278.884	1416.69
279.115	1278.69
279.347	1231.69
279.579	1218.69
279.81	1212.69
280.042	1210.69
280.273	1272.69
280.505	1173.69
280.736	1007.69
280.968	1014.69
281.199	1130.69
281.431	1230.69
281.662	1256.69
281.894	1173.69
282.125	1251.69
282.356	1383.69
282.588	1403.69
282.819	1272.69
283.051	1392.69
283.282	1724.69
283.513	1947.69
283.745	2211.69
283.976	2201.69
284.207	2081.69
284.439	2090.69
284.67	2087.69
284.901	1846.69
285.132	1999.69
285.364	2110.69
285.595	1914.69
285.826	2012.69
286.057	2092.69
286.288	1987.69
286.52	2013.69
286.751	2149.69
286.982	2140.69
287.213	1834.69
287.444	1802.69
287.675	1918.69
287.906	1888.69
288.138	1586.69
288.369	1391.69
288.6	1309.69
288.831	1356.69
289.062	1575.69
289.293	1748.69
289.524	1604.69
289.755	1591.69
289.986	1703.69
290.217	1474.69
290.448	1129.69
290.679	986.69
290.91	931.69
291.141	912.69
291.371	1007.69
291.602	994.69
291.833	998.69
292.064	1092.69
292.295	1220.69
292.526	1384.69
292.757	1447.69
292.987	1576.69
293.218	1609.69
293.449	1603.69
293.68	1694.69
293.91	1657.69
294.141	1624.69
294.372	1546.69
294.603	1450.69
294.833	1604.69
295.064	1873.69
295.295	1754.69
295.525	1340.69
295.756	1159.69
295.987	1015.69
296.217	1013.69
296.448	1076.69
296.679	1144.69
296.909	1246.69
297.14	1330.69
297.37	1433.69
297.601	1372.69
297.831	1191.69
298.062	1288.69
298.292	1444.69
298.523	1614.69
298.753	1817.69
298.984	1608.69
299.214	1300.69
299.445	1108.69
299.675	1072.69
299.905	1055.69
300.136	1104.69
300.366	1214.69
300.597	1154.69
300.827	1053.69
301.057	1000.69
301.288	1033.69
301.518	1117.69
301.748	1286.69
301.979	1381.69
302.209	1492.69
302.439	1493.69
302.669	1264.69
302.9	1263.69
303.13	1208.69
303.36	1107.69
303.59	1082.69
303.82	1112.69
304.051	1299.69
304.281	1351.69
304.511	1296.69
304.741	1177.69
304.971	1215.69
305.201	1287.69
305.431	1243.69
305.661	1060.69
305.891	1102.69
306.121	1087.69
306.352	971.69
306.582	903.69
306.812	878.69
307.042	869.69
307.272	820.69
307.502	814.69
307.731	895.69
307.961	934.69
308.191	859.69
308.421	840.69
308.651	783.69
308.881	776.69
309.111	811.69
309.341	818.69
309.571	928.69
309.8	932.69
310.03	951.69
310.26	1010.69
310.49	984.69
310.72	876.69
310.949	837.69
311.179	888.69
311.409	922.69
311.639	1100.69
311.868	1430.69
312.098	1849.69
312.328	1971.69
312.557	1928.69
312.787	1902.69
313.017	1706.69
313.246	1829.69
313.476	1992.69
313.706	1668.69
313.935	1314.69
314.165	1077.69
314.394	984.69
314.624	946.69
314.853	1033.69
315.083	1070.69
315.312	1036.69
315.542	1062.69
315.771	966.69
316.001	877.69
316.23	858.69
316.46	870.69
316.689	871.69
316.919	901.69
317.148	942.69
317.377	895.69
317.607	892.69
317.836	946.69
318.065	1115.69
318.295	1251.69
318.524	1168.69
318.753	983.69
318.983	939.69
319.212	972.69
319.441	1017.69
319.67	1163.69
319.9	1235.69
320.129	1161.69
320.358	1022.69
320.587	970.69
320.816	1020.69
321.046	1204.69
321.275	1348.69
321.504	1370.69
321.733	1311.69
321.962	1261.69
322.191	1193.69
322.42	1143.69
322.649	1140.69
322.878	1233.69
323.108	1219.69
323.337	1148.69
323.566	1140.69
323.795	1081.69
324.024	1032.69
324.253	971.69
324.482	996.69
324.71	1120.69
324.939	1225.69
325.168	1124.69
325.397	951.69
325.626	953.69
325.855	915.69
326.084	939.69
326.313	895.69
326.542	861.69
326.77	889.69
326.999	884.69
327.228	981.69
327.457	1016.69
327.686	1008.69
327.914	896.69
328.143	844.69
328.372	845.69
328.6	830.69
328.829	883.69
329.058	902.69
329.287	915.69
329.515	936.69
329.744	883.69
329.972	865.69
330.201	816.69
330.43	832.69
330.658	958.69
330.887	1112.69
331.115	1040.69
331.344	1033.69
331.572	1005.69
331.801	911.69
332.03	864.69
332.258	883.69
332.486	974.69
332.715	985.69
332.943	927.69
333.172	937.69
333.4	948.69
333.629	1031.69
333.857	1113.69
334.085	1136.69
334.314	1146.69
334.542	1056.69
334.771	972.69
334.999	970.69
335.227	913.69
335.455	934.69
335.684	1036.69
335.912	1159.69
336.14	1359.69
336.369	1288.69
336.597	1247.69
336.825	1394.69
337.053	1554.69
337.281	1266.69
337.51	997.69
337.738	978.69
337.966	1102.69
338.194	1177.69
338.422	1148.69
338.65	970.69
338.878	900.69
339.106	937.69
339.334	1032.69
339.562	1096.69
339.79	1017.69
340.018	978.69
340.246	1066.69
340.474	1227.69
340.702	1316.69
340.93	1366.69
341.158	1351.69
341.386	1108.69
341.614	1126.69
341.842	1150.69
342.07	1196.69
342.298	1346.69
342.526	1401.69
342.754	1216.69
342.981	1122.69
343.209	1090.69
343.437	1167.69
343.665	1206.69
343.893	1206.69
344.12	1383.69
344.348	1658.69
344.576	1442.69
344.804	1233.69
345.031	1067.69
345.259	965.69
345.487	1010.69
345.714	1035.69
345.942	1113.69
346.17	1223.69
346.397	1133.69
346.625	1034.69
346.853	983.69
347.08	970.69
347.308	1037.69
347.535	1119.69
347.763	1182.69
347.99	1033.69
348.218	935.69
348.445	972.69
348.673	983.69
348.9	1004.69
349.128	1073.69
349.355	1124.69
349.583	1099.69
349.81	1027.69
350.037	947.69
350.265	831.69
350.492	818.69
350.72	835.69
350.947	853.69
351.174	907.69
351.402	963.69
351.629	972.69
351.856	982.69
352.083	928.69
352.311	986.69
352.538	1104.69
352.765	1159.69
352.992	1066.69
353.22	987.69
353.447	1041.69
353.674	988.69
353.901	976.69
354.128	1006.69
354.355	1022.69
354.583	1016.69
354.81	975.69
355.037	1026.69
355.264	1051.69
355.491	1075.69
355.718	1218.69
355.945	1168.69
356.172	1130.69
356.399	1102.69
356.626	1362.69
356.853	1655.69
357.08	1763.69
357.307	1802.69
357.534	1419.69
357.761	1450.69
357.988	1820.69
358.215	2128.69
358.441	2030.69
358.668	1699.69
358.895	1495.69
359.122	1240.69
359.349	1253.69
359.576	1378.69
359.802	1122.69
360.029	982.69
360.256	1030.69
360.483	1304.69
360.709	1660.69
360.936	1707.69
361.163	1467.69
361.39	1146.69
361.616	1070.69
361.843	1249.69
362.07	1562.69
362.296	1406.69
362.523	1082.69
362.749	960.69
362.976	994.69
363.203	1238.69
363.429	1381.69
363.656	1104.69
363.882	1006.69
364.109	1022.69
364.335	1002.69
364.562	994.69
364.788	1139.69
365.015	1392.69
365.241	1186.69
365.468	962.69
365.694	871.69
365.92	835.69
366.147	808.69
366.373	794.69
366.599	815.69
366.826	810.69
367.052	831.69
367.278	832.69
367.505	807.69
367.731	913.69
367.957	1022.69
368.184	1047.69
368.41	1065.69
368.636	1059.69
368.862	1074.69
369.089	1040.69
369.315	955.69
369.541	919.69
369.767	912.69
369.993	859.69
370.219	876.69
370.445	926.69
370.672	1042.69
370.898	1123.69
371.124	1115.69
371.35	977.69
371.576	915.69
371.802	998.69
372.028	1206.69
372.254	1404.69
372.48	1162.69
372.706	1044.69
372.932	1124.69
373.158	1182.69
373.384	1426.69
373.61	1910.69
373.835	1930.69
374.061	1409.69
374.287	1197.69
374.513	1424.69
374.739	1700.69
374.965	1739.69
375.191	1759.69
375.416	1190.69
375.642	1052.69
375.868	1255.69
376.094	1399.69
376.319	1213.69
376.545	1324.69
376.771	1383.69
376.997	1202.69
377.222	865.69
377.448	789.69
377.674	751.69
377.899	752.69
378.125	751.69
378.35	768.69
378.576	819.69
378.802	859.69
379.027	964.69
379.253	903.69
379.478	939.69
379.704	1078.69
379.929	1135.69
380.155	1108.69
380.38	976.69
380.606	1006.69
380.831	1165.69
381.057	1072.69
381.282	994.69
381.507	1187.69
381.733	1490.69
381.958	1601.69
382.184	1690.69
382.409	1763.69
382.634	1750.69
382.86	1832.69
383.085	1464.69
383.31	1154.69
383.535	1233.69
383.761	1253.69
383.986	1180.69
384.211	1470.69
384.436	1386.69
384.662	1068.69
384.887	1044.69
385.112	1045.69
385.337	1072.69
385.562	998.69
385.787	1111.69
386.013	1255.69
386.238	1283.69
386.463	1044.69
386.688	1030.69
386.913	936.69
387.138	952.69
387.363	1000.69
387.588	1003.69
387.813	1024.69
388.038	1114.69
388.263	1012.69
388.488	972.69
388.713	1161.69
388.938	1245.69
389.163	1054.69
389.387	914.69
389.612	916.69
389.837	974.69
390.062	982.69
390.287	1013.69
390.512	1020.69
390.736	950.69
390.961	904.69
391.186	862.69
391.411	863.69
391.636	859.69
391.86	953.69
392.085	1036.69
392.31	1018.69
392.534	971.69
392.759	950.69
392.984	1032.69
393.208	976.69
393.433	879.69
393.658	820.69
393.882	810.69
394.107	793.69
394.331	816.69
394.556	825.69
394.78	847.69
395.005	852.69
395.229	889.69
395.454	896.69
395.678	889.69
395.903	939.69
396.127	867.69
396.352	907.69
396.576	997.69
396.801	1032.69
397.025	1138.69
397.249	1134.69
397.474	961.69
397.698	920.69
397.922	1009.69
398.147	919.69
398.371	921.69
398.595	994.69
398.82	968.69
399.044	966.69
399.268	1031.69
399.492	1059.69
399.717	1096.69
399.941	1096.69
400.165	1033.69
400.389	1042.69
400.613	1079.69
400.837	1046.69
401.062	911.69
401.286	922.69
401.51	924.69
401.734	942.69
401.958	953.69
402.182	926.69
402.406	937.69
402.63	919.69
402.854	954.69
403.078	1090.69
403.302	1316.69
403.526	1378.69
403.75	1227.69
403.974	1076.69
404.198	1126.69
404.422	1247.69
404.645	1463.69
404.869	1618.69
405.093	1191.69
405.317	1034.69
405.541	996.69
405.765	1025.69
405.988	1040.69
406.212	1123.69
406.436	1364.69
406.66	1489.69
406.883	1134.69
407.107	1216.69
407.331	1433.69
407.555	1312.69
407.778	1123.69
408.002	1104.69
408.226	1059.69
408.449	1054.69
408.673	1035.69
408.896	967.69
409.12	905.69
409.344	956.69
409.567	885.69
409.791	901.69
410.014	908.69
410.238	894.69
410.461	918.69
410.685	923.69
410.908	935.69
411.132	949.69
411.355	939.69
411.578	946.69
411.802	948.69
412.025	1012.69
412.249	1007.69
412.472	966.69
412.695	979.69
412.919	962.69
413.142	964.69
413.365	1070.69
413.589	1070.69
413.812	953.69
414.035	947.69
414.258	975.69
414.482	1078.69
414.705	1108.69
414.928	917.69
415.151	894.69
415.374	893.69
415.597	909.69
415.821	935.69
416.044	900.69
416.267	884.69
416.49	898.69
416.713	889.69
416.936	854.69
417.159	871.69
417.382	912.69
417.605	923.69
417.828	950.69
418.051	932.69
418.274	954.69
418.497	948.69
418.72	929.69
418.943	988.69
419.166	998.69
419.389	1061.69
419.611	1028.69
419.834	1038.69
420.057	1126.69
420.28	1146.69
420.503	1060.69
420.726	950.69
420.948	890.69
421.171	910.69
421.394	876.69
421.617	859.69
421.839	892.69
422.062	956.69
422.285	952.69
422.507	959.69
422.73	934.69
422.953	984.69
423.175	961.69
423.398	944.69
423.621	1040.69
423.843	1081.69
424.066	1008.69
424.288	951.69
424.511	913.69
424.733	916.69
424.956	964.69
425.178	1096.69
425.401	1262.69
425.623	1425.69
425.846	1162.69
426.068	1019.69
426.291	1147.69
426.513	1067.69
426.735	963.69
426.958	999.69
427.18	1178.69
427.402	1538.69
427.625	1520.69
427.847	1198.69
428.069	902.69
428.292	896.69
428.514	910.69
428.736	889.69
428.958	950.69
429.181	1131.69
429.403	1002.69
429.625	898.69
429.847	872.69
430.069	926.69
430.292	928.69
430.514	889.69
430.736	973.69
430.958	1235.69
431.18	1116.69
431.402	866.69
431.624	838.69
431.846	837.69
432.068	806.69
432.29	839.69
432.512	929.69
432.734	1286.69
432.956	1176.69
433.178	871.69
433.4	862.69
433.622	857.69
433.844	886.69
434.066	965.69
434.287	928.69
434.509	889.69
434.731	949.69
434.953	872.69
435.175	949.69
435.397	1049.69
435.618	920.69
435.84	855.69
436.062	801.69
436.284	865.69
436.505	814.69
436.727	802.69
436.949	795.69
437.17	850.69
437.392	865.69
437.614	839.69
437.835	829.69
438.057	855.69
438.278	991.69
438.5	1428.69
438.721	1400.69
438.943	939.69
439.165	837.69
439.386	794.69
439.608	790.69
439.829	770.69
440.05	800.69
440.272	856.69
440.493	1010.69
440.715	1260.69
440.936	979.69
441.158	868.69
441.379	874.69
441.6	987.69
441.822	1049.69
442.043	887.69
442.264	883.69
442.486	905.69
442.707	894.69
442.928	883.69
443.149	924.69
443.371	914.69
443.592	958.69
443.813	939.69
444.034	899.69
444.255	908.69
444.476	962.69
444.698	977.69
444.919	948.69
445.14	1090.69
445.361	1009.69
445.582	964.69
445.803	950.69
446.024	934.69
446.245	930.69
446.466	944.69
446.687	908.69
446.908	892.69
447.129	843.69
447.35	806.69
447.571	822.69
447.792	818.69
448.013	803.69
448.234	812.69
448.455	798.69
448.675	796.69
448.896	823.69
449.117	779.69
449.338	809.69
449.559	823.69
449.779	878.69
450	887.69
450.221	843.69
450.442	818.69
450.662	793.69
450.883	828.69
451.104	810.69
451.324	792.69
451.545	821.69
451.766	818.69
451.986	788.69
452.207	787.69
452.428	784.69
452.648	757.69
452.869	822.69
453.089	867.69
453.31	839.69
453.53	752.69
453.751	724.69
453.971	731.69
454.192	776.69
454.412	798.69
454.633	743.69
454.853	759.69
455.073	741.69
455.294	753.69
455.514	740.69
455.734	812.69
455.955	786.69
456.175	827.69
456.395	757.69
456.616	679.69
456.836	715.69
457.056	705.69
457.276	707.69
457.497	724.69
457.717	750.69
457.937	724.69
458.157	741.69
458.377	746.69
458.598	732.69
458.818	789.69
459.038	815.69
459.258	818.69
459.478	864.69
459.698	926.69
459.918	887.69
460.138	883.69
460.358	892.69
460.578	871.69
460.798	909.69
461.018	902.69
461.238	856.69
461.458	850.69
461.678	920.69
461.898	951.69
462.118	938.69
462.338	958.69
462.558	967.69
462.777	1028.69
462.997	1040.69
463.217	1012.69
463.437	1074.69
463.657	1055.69
463.876	991.69
464.096	965.69
464.316	993.69
464.536	1020.69
464.755	1026.69
464.975	994.69
465.195	986.69
465.414	1010.69
465.634	985.69
465.854	968.69
466.073	884.69
466.293	840.69
466.512	932.69
466.732	1036.69
466.951	1056.69
467.171	942.69
467.391	917.69
467.61	890.69
467.829	965.69
468.049	936.69
468.268	879.69
468.488	861.69
468.707	916.69
468.927	1066.69
469.146	1166.69
469.365	1042.69
469.585	986.69
469.804	1051.69
470.023	1116.69
470.243	953.69
470.462	925.69
470.681	910.69
470.901	938.69
471.12	1001.69
471.339	996.69
471.558	937.69
471.777	953.69
471.997	1038.69
472.216	1130.69
472.435	1092.69
472.654	978.69
472.873	970.69
473.092	1026.69
473.311	1078.69
473.53	982.69
473.749	967.69
473.968	1001.69
474.187	1000.69
474.406	968.69
474.625	952.69
474.844	961.69
475.063	1047.69
475.282	1060.69
475.501	1078.69
475.72	1126.69
475.939	1124.69
476.158	1122.69
476.377	1286.69
476.596	1471.69
476.814	1538.69
477.033	1262.69
477.252	1080.69
477.471	1024.69
477.69	1012.69
477.908	1113.69
478.127	1155.69
478.346	1088.69
478.564	1179.69
478.783	1094.69
479.002	1122.69
479.22	1318.69
479.439	1458.69
479.658	1237.69
479.876	1124.69
480.095	1234.69
480.313	1266.69
480.532	1115.69
480.751	1094.69
480.969	1140.69
481.188	1297.69
481.406	1349.69
481.624	1209.69
481.843	1140.69
482.061	1082.69
482.28	1236.69
482.498	1475.69
482.717	1402.69
482.935	1206.69
483.153	1138.69
483.372	1099.69
483.59	1078.69
483.808	1070.69
484.027	1046.69
484.245	1004.69
484.463	992.69
484.681	1034.69
484.9	1110.69
485.118	1218.69
485.336	1136.69
485.554	1053.69
485.772	1097.69
485.99	1174.69
486.209	1220.69
486.427	1239.69
486.645	1220.69
486.863	1292.69
487.081	1232.69
487.299	1390.69
487.517	1360.69
487.735	1223.69
487.953	1230.69
488.171	1307.69
488.389	1206.69
488.607	1148.69
488.825	1159.69
489.043	1282.69
489.261	1468.69
489.479	1574.69
489.696	1327.69
489.914	1216.69
490.132	1141.69
490.35	1170.69
490.568	1137.69
490.786	1144.69
491.003	1155.69
491.221	1178.69
491.439	1164.69
491.657	1175.69
491.874	1236.69
492.092	1541.69
492.31	1830.69
492.527	1815.69
492.745	1570.69
492.963	1372.69
493.18	1312.69
493.398	1297.69
493.615	1299.69
493.833	1266.69
494.05	1251.69
494.268	1304.69
494.485	1257.69
494.703	1215.69
494.92	1253.69
495.138	1232.69
495.355	1223.69
495.573	1241.69
495.79	1427.69
496.008	1899.69
496.225	1608.69
496.442	1422.69
496.66	1360.69
496.877	1456.69
497.094	1396.69
497.312	1339.69
497.529	1340.69
497.746	1360.69
497.963	1442.69
498.181	1510.69
498.398	1607.69
498.615	1662.69
498.832	1755.69
499.049	1694.69
499.267	1554.69
499.484	1548.69
499.701	1587.69
499.918	1758.69
500.135	1883.69
500.352	1919.69
500.569	2017.69
500.786	2086.69
501.003	2030.69
501.22	1857.69
501.437	1731.69
501.654	1654.69
501.871	1637.69
502.088	1679.69
502.305	1511.69
502.522	1512.69
502.739	1533.69
502.956	1423.69
503.172	1410.69
503.389	1342.69
503.606	1314.69
503.823	1312.69
504.04	1342.69
504.256	1333.69
504.473	1351.69
504.69	1419.69
504.907	1390.69
505.123	1412.69
505.34	1458.69
505.557	1462.69
505.773	1378.69
505.99	1330.69
506.207	1383.69
506.423	1267.69
506.64	1218.69
506.856	1279.69
507.073	1395.69
507.289	1362.69
507.506	1366.69
507.722	1444.69
507.939	1457.69
508.155	1504.69
508.372	1330.69
508.588	1297.69
508.805	1254.69
509.021	1242.69
509.238	1205.69
509.454	1209.69
509.67	1222.69
509.887	1195.69
510.103	1360.69
510.319	1330.69
510.536	1225.69
510.752	1098.69
510.968	1081.69
511.184	1022.69
511.401	1038.69
511.617	1056.69
511.833	1053.69
512.049	1086.69
512.265	1113.69
512.481	1138.69
512.698	1270.69
512.914	1385.69
513.13	1252.69
513.346	1124.69
513.562	1171.69
513.778	1158.69
513.994	1149.69
514.21	1260.69
514.426	1242.69
514.642	1151.69
514.858	1186.69
515.074	1211.69
515.29	1321.69
515.506	1431.69
515.721	1401.69
515.937	1254.69
516.153	1195.69
516.369	1152.69
516.585	1195.69
516.801	1413.69
517.016	1625.69
517.232	1583.69
517.448	1574.69
517.664	1384.69
517.879	1305.69
518.095	1334.69
518.311	1303.69
518.527	1326.69
518.742	1417.69
518.958	1504.69
519.173	1413.69
519.389	1392.69
519.605	1418.69
519.82	1545.69
520.036	1791.69
520.251	1745.69
520.467	1590.69
520.682	2419.69
520.898	2994.69
521.113	2851.69
521.329	1733.69
521.544	1561.69
521.76	1543.69
521.975	1344.69
522.19	1312.69
522.406	1349.69
522.621	1492.69
522.836	1557.69
523.052	1568.69
523.267	1295.69
523.482	1322.69
523.698	1388.69
523.913	1399.69
524.128	1230.69
524.343	1192.69
524.559	1214.69
524.774	1154.69
524.989	1188.69
525.204	1240.69
525.419	1350.69
525.634	1262.69
525.849	1270.69
526.064	1267.69
526.28	1294.69
526.495	1516.69
526.71	1556.69
526.925	1412.69
527.14	1442.69
527.355	1420.69
527.57	1190.69
527.785	1220.69
527.999	1135.69
528.214	1080.69
528.429	1081.69
528.644	1093.69
528.859	1060.69
529.074	985.69
529.289	978.69
529.503	1018.69
529.718	1050.69
529.933	1215.69
530.148	1207.69
530.363	1058.69
530.577	1025.69
530.792	1014.69
531.007	1008.69
531.221	996.69
531.436	971.69
531.651	1005.69
531.865	1011.69
532.08	1034.69
532.295	991.69
532.509	1055.69
532.724	1192.69
532.938	1326.69
533.153	1554.69
533.367	1242.69
533.582	1219.69
533.796	1104.69
534.011	1043.69
534.225	1084.69
534.44	1059.69
534.654	1111.69
534.868	1272.69
535.083	1120.69
535.297	1039.69
535.511	1027.69
535.726	1199.69
535.94	1092.69
536.154	1037.69
536.369	1030.69
536.583	1014.69
536.797	1056.69
537.011	1091.69
537.225	1132.69
537.44	1232.69
537.654	1056.69
537.868	1029.69
538.082	1030.69
538.296	1042.69
538.51	1112.69
538.724	1104.69
538.938	1043.69
539.153	1005.69
539.367	1015.69
539.581	1011.69
539.795	1076.69
540.009	1178.69
540.222	1056.69
540.436	1089.69
540.65	1171.69
540.864	1216.69
541.078	1214.69
541.292	1362.69
541.506	1108.69
541.72	1100.69
541.934	1049.69
542.147	1040.69
542.361	1046.69
542.575	1090.69
542.789	1050.69
543.002	986.69
543.216	1060.69
543.43	985.69
543.644	946.69
543.857	963.69
544.071	977.69
544.285	985.69
544.498	935.69
544.712	919.69
544.925	1016.69
545.139	965.69
545.352	926.69
545.566	949.69
545.779	1088.69
545.993	990.69
546.206	907.69
546.42	913.69
546.633	894.69
546.847	887.69
547.06	888.69
547.274	883.69
547.487	887.69
547.7	972.69
547.914	1030.69
548.127	1138.69
548.34	1145.69
548.554	975.69
548.767	998.69
548.98	1063.69
549.193	998.69
549.407	1025.69
549.62	1213.69
549.833	1090.69
550.046	1154.69
550.259	1188.69
550.473	1057.69
550.686	1015.69
550.899	1028.69
551.112	991.69
551.325	1072.69
551.538	1101.69
551.751	950.69
551.964	907.69
552.177	908.69
552.39	894.69
552.603	887.69
552.816	969.69
553.029	861.69
553.242	887.69
553.455	954.69
553.667	1046.69
553.88	976.69
554.093	927.69
554.306	861.69
554.519	817.69
554.732	797.69
554.944	770.69
555.157	770.69
555.37	779.69
555.583	789.69
555.795	787.69
556.008	791.69
556.221	807.69
556.433	815.69
556.646	799.69
556.859	795.69
557.071	837.69
557.284	827.69
557.496	852.69
557.709	818.69
557.921	794.69
558.134	754.69
558.346	715.69
558.559	755.69
558.771	795.69
558.984	830.69
559.196	774.69
559.409	735.69
559.621	708.69
559.833	716.69
560.046	736.69
560.258	728.69
560.47	763.69
560.683	717.69
560.895	682.69
561.107	694.69
561.32	695.69
561.532	712.69
561.744	777.69
561.956	804.69
562.168	758.69
562.381	725.69
562.593	755.69
562.805	768.69
563.017	707.69
563.229	723.69
563.441	674.69
563.653	680.69
563.865	703.69
564.077	712.69
564.289	679.69
564.501	690.69
564.713	755.69
564.925	718.69
565.137	702.69
565.349	723.69
565.561	708.69
565.773	717.69
565.985	773.69
566.197	806.69
566.408	856.69
566.62	870.69
566.832	872.69
567.044	854.69
567.255	914.69
567.467	976.69
567.679	900.69
567.891	877.69
568.102	907.69
568.314	920.69
568.526	851.69
568.737	816.69
568.949	872.69
569.161	775.69
569.372	701.69
569.584	694.69
569.795	684.69
570.007	706.69
570.218	778.69
570.43	765.69
570.641	716.69
570.853	702.69
571.064	658.69
571.276	694.69
571.487	706.69
571.698	688.69
571.91	662.69
572.121	680.69
572.333	625.69
572.544	634.69
572.755	634.69
572.966	632.69
573.178	626.69
573.389	650.69
573.6	666.69
573.811	645.69
574.023	598.69
574.234	571.69
574.445	593.69
574.656	576.69
574.867	613.69
575.078	607.69
575.289	592.69
575.501	635.69
575.712	610.69
575.923	568.69
576.134	546.69
576.345	554.69
576.556	562.69
576.767	534.69
576.978	512.69
577.188	523.69
577.399	532.69
577.61	558.69
577.821	523.69
578.032	541.69
578.243	587.69
578.454	568.69
578.665	575.69
578.875	576.69
579.086	574.69
579.297	546.69
579.508	595.69
579.718	566.69
579.929	546.69
580.14	574.69
580.35	535.69
580.561	502.69
580.772	464.69
580.982	470.69
581.193	490.69
581.403	470.69
581.614	497.69
581.825	473.69
582.035	497.69
582.246	464.69
582.456	459.69
582.667	498.69
582.877	473.69
583.087	475.69
583.298	471.69
583.508	459.69
583.719	475.69
583.929	450.69
584.139	457.69
584.35	443.69
584.56	475.69
584.77	480.69
584.981	472.69
585.191	487.69
585.401	508.69
585.611	499.69
585.821	505.69
586.032	504.69
586.242	478.69
586.452	483.69
586.662	482.69
586.872	516.69
587.082	505.69
587.292	473.69
587.502	465.69
587.713	470.69
587.923	466.69
588.133	525.69
588.343	490.69
588.553	460.69
588.762	465.69
588.972	463.69
589.182	476.69
589.392	455.69
589.602	456.69
589.812	481.69
590.022	515.69
590.232	502.69
590.441	470.69
590.651	458.69
590.861	451.69
591.071	459.69
591.281	442.69
591.49	458.69
591.7	456.69
591.91	467.69
592.119	451.69
592.329	475.69
592.539	472.69
592.748	458.69
592.958	463.69
593.167	481.69
593.377	500.69
593.587	497.69
593.796	480.69
594.006	496.69
594.215	481.69
594.424	474.69
594.634	496.69
594.843	488.69
595.053	473.69
595.262	436.69
595.472	464.69
595.681	449.69
595.89	439.69
596.1	450.69
596.309	454.69
596.518	424.69
596.727	448.69
596.937	425.69
597.146	448.69
597.355	472.69
597.564	459.69
597.774	414.69
597.983	404.69
598.192	409.69
598.401	385.69
598.61	404.69
598.819	399.69
599.028	399.69
599.237	395.69
599.446	393.69
599.655	380.69
599.864	396.69
600.073	380.69
600.282	388.69
600.491	403.69
600.7	384.69
600.909	404.69
601.118	374.69
601.327	373.69
601.536	383.69
601.745	398.69
601.953	380.69
602.162	398.69
602.371	399.69
602.58	415.69
602.789	383.69
602.997	364.69
603.206	386.69
603.415	386.69
603.623	377.69
603.832	364.69
604.041	362.69
604.249	372.69
604.458	396.69
604.666	372.69
604.875	359.69
605.084	355.69
605.292	357.69
605.501	382.69
605.709	368.69
605.918	370.69
606.126	349.69
606.334	360.69
606.543	377.69
606.751	350.69
606.96	338.69
607.168	359.69
607.376	368.69
607.585	350.69
607.793	366.69
608.001	358.69
608.21	350.69
608.418	372.69
608.626	357.69
608.834	330.69
609.043	375.69
609.251	355.69
609.459	342.69
609.667	355.69
609.875	338.69
610.083	350.69
610.291	361.69
610.499	357.69
610.707	323.69
610.916	338.69
611.124	351.69
611.332	333.69
611.54	344.69
611.748	359.69
611.955	351.69
612.163	353.69
612.371	364.69
612.579	350.69
612.787	342.69
612.995	327.69
613.203	353.69
613.411	335.69
613.618	332.69
613.826	358.69
614.034	361.69
614.242	345.69
614.449	341.69
614.657	332.69
614.865	338.69
615.072	325.69
615.28	326.69
615.488	335.69
615.695	323.69
615.903	330.69
616.111	327.69
616.318	331.69
616.526	349.69
616.733	316.69
616.941	332.69
617.148	351.69
617.356	332.69
617.563	321.69
617.771	321.69
617.978	319.69
618.185	308.69
618.393	322.69
618.6	309.69
618.807	325.69
619.015	337.69
619.222	315.69
619.429	336.69
619.637	328.69
619.844	302.69
620.051	313.69
620.258	311.69
620.466	323.69
620.673	298.69
620.88	279.69
621.087	297.69
621.294	291.69
621.501	285.69
621.708	310.69
621.915	286.69
622.122	299.69
622.329	293.69
622.536	309.69
622.743	299.69
622.95	292.69
623.157	313.69
623.364	320.69
623.571	309.69
623.778	302.69
623.985	315.69
624.192	312.69
624.399	320.69
624.606	292.69
624.812	316.69
625.019	311.69
625.226	321.69
625.433	314.69
625.639	285.69
625.846	276.69
626.053	306.69
626.259	280.69
626.466	263.69
626.673	313.69
626.879	282.69
627.086	275.69
627.293	311.69
627.499	281.69
627.706	262.69
627.912	261.69
628.119	276.69
628.325	271.69
628.532	276.69
628.738	264.69
628.945	249.69
629.151	267.69
629.357	270.69
629.564	269.69
629.77	270.69
629.976	255.69
630.183	246.69
630.389	278.69
630.595	268.69
630.802	266.69
631.008	261.69
631.214	256.69
631.42	247.69
631.627	249.69
631.833	262.69
632.039	247.69
632.245	253.69
632.451	240.69
632.657	252.69
632.863	236.69
633.069	243.69
633.275	246.69
633.481	256.69
633.688	261.69
633.893	248.69
634.099	236.69
634.305	230.69
634.511	239.69
634.717	244.69
634.923	241.69
635.129	234.69
635.335	228.69
635.541	244.69
635.747	240.69
635.952	234.69
636.158	251.69
636.364	254.69
636.57	246.69
636.775	226.69
636.981	238.69
637.187	224.69
637.392	220.69
637.598	218.69
637.804	232.69
638.009	230.69
638.215	221.69
638.421	229.69
638.626	216.69
638.832	234.69
639.037	230.69
639.243	222.69
639.448	227.69
639.654	246.69
639.859	227.69
640.065	217.69
640.27	245.69
640.475	242.69
640.681	238.69
640.886	223.69
641.091	238.69
641.297	244.69
641.502	228.69
641.707	237.69
641.913	219.69
642.118	241.69
642.323	234.69
642.528	249.69
642.733	232.69
642.939	225.69
643.144	211.69
643.349	226.69
643.554	216.69
643.759	221.69
643.964	217.69
644.169	225.69
644.374	215.69
644.579	232.69
644.784	229.69
644.989	220.69
645.194	219.69
645.399	210.69
645.604	210.69
645.809	221.69
646.014	227.69
646.219	208.69
646.423	210.69
646.628	208.69
646.833	234.69
647.038	204.69
647.243	218.69
647.447	204.69
647.652	212.69
647.857	216.69
648.062	210.69
648.266	224.69
648.471	234.69
648.676	215.69
648.88	220.69
649.085	217.69
649.289	196.69
649.494	222.69
649.698	205.69
649.903	222.69
650.107	213.69
650.312	212.69
650.516	202.69
650.721	199.69
650.925	186.69
651.13	191.69
651.334	183.69
651.539	188.69
651.743	194.69
651.947	183.69
652.152	198.69
652.356	187.69
652.56	188.69
652.764	168.69
652.969	186.69
653.173	161.69
653.377	157.69
653.581	154.69
653.785	162.69
653.99	162.69
654.194	171.69
654.398	170.69
654.602	150.69
654.806	166.69
655.01	145.69
655.214	169.69
655.418	168.69
655.622	178.69
655.826	171.69
656.03	171.69
656.234	158.69
656.438	164.69
656.642	182.69
656.846	166.69
657.049	162.69
657.253	147.69
657.457	140.69
657.661	144.69
657.865	130.69
658.068	133.69
658.272	143.69
658.476	118.69
658.68	122.69
658.883	133.69
659.087	122.69
659.291	123.69
659.494	116.69
659.698	112.69
659.901	100.69
660.105	105.69
660.309	92.69
660.512	112.69
660.716	112.69
660.919	113.69
661.123	97.69
661.326	103.69
661.53	100.69
661.733	102.69
661.936	93.69
662.14	99.69
662.343	85.69
662.546	87.69
662.75	95.69
662.953	98.69
663.156	95.69
663.36	93.69
663.563	77.69
663.766	82.69
663.969	75.69
664.173	100.69
664.376	93.69
664.579	89.69
664.782	89.69
664.985	92.69
665.188	79.69
665.391	93.69
665.594	80.69
665.797	95.69
666	85.69
666.203	82.69
666.406	80.69
666.609	105.69
666.812	78.69
667.015	83.69
667.218	84.69
667.421	81.69
667.624	80.69
667.827	74.69
668.03	82.69
668.232	84.69
668.435	86.69
668.638	94.69
668.841	96.69
669.043	84.69
669.246	94.69
669.449	77.69
669.651	94.69
669.854	73.69
670.057	100.69
670.259	73.69
670.462	81.69
670.665	80.69
670.867	76.69
671.07	90.69
671.272	87.69
671.475	86.69
671.677	88.69
671.88	85.69
672.082	90.69
672.284	84.69
672.487	89.69
672.689	95.69
672.892	81.69
