Data from NickelSpatula.Lamp.E10.P2_HRD10591_11-58-03-530.txt Node
Date: Tue Jul 23 11:58:03 EDT 2019
User: cochatt
Spectrometer: HR+D1059
Trigger mode: 1
Integration Time (sec): 1.000000E-1
Scans to average: 1
Electric dark correction enabled: true
Nonlinearity correction enabled: false
Boxcar width: 0
XAxis mode: Wavelengths
Number of Pixels in Spectrum: 2048
>>>>>Begin Spectral Data<<<<<
223.165	-21.75
223.4	-21.75
223.635	-21.75
223.869	-17.75
224.104	-16.75
224.338	-15.75
224.573	-2.75
224.808	-20.75
225.042	-9.75
225.277	7.25
225.511	-21.75
225.746	3.25
225.98	11.25
226.215	13.25
226.449	7.25
226.683	22.25
226.918	26.25
227.152	36.25
227.387	48.25
227.621	32.25
227.856	55.25
228.09	59.25
228.324	59.25
228.559	53.25
228.793	70.25
229.027	142.25
229.262	143.25
229.496	157.25
229.73	144.25
229.964	180.25
230.199	218.25
230.433	211.25
230.667	205.25
230.901	193.25
231.136	192.25
231.37	207.25
231.604	209.25
231.838	233.25
232.072	229.25
232.306	244.25
232.541	241.25
232.775	246.25
233.009	253.25
233.243	288.25
233.477	305.25
233.711	339.25
233.945	338.25
234.179	315.25
234.413	339.25
234.647	366.25
234.881	452.25
235.115	419.25
235.349	421.25
235.583	365.25
235.817	354.25
236.051	385.25
236.285	402.25
236.519	470.25
236.753	418.25
236.987	410.25
237.221	405.25
237.455	423.25
237.689	442.25
237.922	470.25
238.156	469.25
238.39	549.25
238.624	628.25
238.858	590.25
239.091	495.25
239.325	490.25
239.559	479.25
239.793	544.25
240.027	648.25
240.26	587.25
240.494	571.25
240.728	601.25
240.961	672.25
241.195	608.25
241.429	612.25
241.662	614.25
241.896	511.25
242.13	464.25
242.363	469.25
242.597	457.25
242.83	548.25
243.064	527.25
243.298	597.25
243.531	642.25
243.765	641.25
243.998	609.25
244.232	606.25
244.465	577.25
244.699	582.25
244.932	652.25
245.166	610.25
245.399	550.25
245.633	528.25
245.866	557.25
246.099	612.25
246.333	717.25
246.566	735.25
246.8	742.25
247.033	738.25
247.266	695.25
247.5	689.25
247.733	674.25
247.966	651.25
248.2	667.25
248.433	745.25
248.666	835.25
248.899	819.25
249.133	853.25
249.366	950.25
249.599	1025.25
249.832	934.25
250.066	797.25
250.299	818.25
250.532	819.25
250.765	795.25
250.998	727.25
251.231	707.25
251.465	788.25
251.698	814.25
251.931	797.25
252.164	841.25
252.397	916.25
252.63	1045.25
252.863	1154.25
253.096	1201.25
253.329	1120.25
253.562	1081.25
253.795	1220.25
254.028	1351.25
254.261	1408.25
254.494	1197.25
254.727	1144.25
254.96	1101.25
255.193	1162.25
255.426	1132.25
255.659	871.25
255.892	773.25
256.124	849.25
256.357	1038.25
256.59	1162.25
256.823	1114.25
257.056	957.25
257.289	912.25
257.521	977.25
257.754	1119.25
257.987	1240.25
258.22	1117.25
258.452	984.25
258.685	1141.25
258.918	1278.25
259.151	1251.25
259.383	1264.25
259.616	1467.25
259.849	1541.25
260.081	1703.25
260.314	1835.25
260.547	1482.25
260.779	1492.25
261.012	1681.25
261.244	1600.25
261.477	1640.25
261.71	1499.25
261.942	1276.25
262.175	1273.25
262.407	1262.25
262.64	1279.25
262.872	1490.25
263.105	1633.25
263.337	1688.25
263.57	1482.25
263.802	1052.25
264.035	893.25
264.267	878.25
264.499	762.25
264.732	692.25
264.964	693.25
265.197	713.25
265.429	790.25
265.661	805.25
265.894	841.25
266.126	921.25
266.358	1031.25
266.591	1263.25
266.823	1481.25
267.055	1408.25
267.287	1261.25
267.52	1226.25
267.752	1306.25
267.984	1442.25
268.216	1384.25
268.448	1119.25
268.681	1099.25
268.913	1161.25
269.145	1263.25
269.377	1301.25
269.609	1308.25
269.841	1245.25
270.073	1300.25
270.306	1364.25
270.538	1366.25
270.77	1406.25
271.002	1406.25
271.234	1500.25
271.466	1491.25
271.698	1434.25
271.93	1389.25
272.162	1409.25
272.394	1391.25
272.626	1384.25
272.858	1449.25
273.09	1457.25
273.322	1306.25
273.553	1262.25
273.785	1504.25
274.017	1961.25
274.249	2357.25
274.481	2529.25
274.713	2717.25
274.945	3105.25
275.176	3182.25
275.408	2832.25
275.64	2621.25
275.872	2602.25
276.104	2204.25
276.335	1903.25
276.567	1909.25
276.799	1973.25
277.031	1999.25
277.262	1619.25
277.494	1237.25
277.726	1228.25
277.957	1298.25
278.189	1465.25
278.421	1471.25
278.652	1432.25
278.884	1341.25
279.115	1250.25
279.347	1192.25
279.579	1190.25
279.81	1189.25
280.042	1212.25
280.273	1267.25
280.505	1153.25
280.736	1031.25
280.968	1010.25
281.199	1079.25
281.431	1267.25
281.662	1218.25
281.894	1174.25
282.125	1258.25
282.356	1363.25
282.588	1379.25
282.819	1254.25
283.051	1358.25
283.282	1698.25
283.513	1929.25
283.745	2177.25
283.976	2168.25
284.207	1998.25
284.439	2109.25
284.67	2014.25
284.901	1797.25
285.132	1914.25
285.364	2011.25
285.595	1869.25
285.826	1966.25
286.057	2050.25
286.288	1985.25
286.52	2022.25
286.751	2101.25
286.982	2089.25
287.213	1807.25
287.444	1713.25
287.675	1861.25
287.906	1833.25
288.138	1553.25
288.369	1356.25
288.6	1293.25
288.831	1344.25
289.062	1575.25
289.293	1689.25
289.524	1553.25
289.755	1579.25
289.986	1650.25
290.217	1440.25
290.448	1168.25
290.679	971.25
290.91	934.25
291.141	920.25
291.371	975.25
291.602	970.25
291.833	987.25
292.064	1064.25
292.295	1233.25
292.526	1419.25
292.757	1445.25
292.987	1553.25
293.218	1550.25
293.449	1606.25
293.68	1680.25
293.91	1593.25
294.141	1627.25
294.372	1534.25
294.603	1410.25
294.833	1579.25
295.064	1826.25
295.295	1725.25
295.525	1320.25
295.756	1165.25
295.987	987.25
296.217	1006.25
296.448	1045.25
296.679	1131.25
296.909	1243.25
297.14	1304.25
297.37	1439.25
297.601	1339.25
297.831	1169.25
298.062	1257.25
298.292	1380.25
298.523	1565.25
298.753	1754.25
298.984	1576.25
299.214	1301.25
299.445	1069.25
299.675	1066.25
299.905	1032.25
300.136	1106.25
300.366	1197.25
300.597	1154.25
300.827	1026.25
301.057	1001.25
301.288	1005.25
301.518	1085.25
301.748	1254.25
301.979	1345.25
302.209	1390.25
302.439	1431.25
302.669	1264.25
302.9	1215.25
303.13	1151.25
303.36	1105.25
303.59	1071.25
303.82	1118.25
304.051	1245.25
304.281	1309.25
304.511	1309.25
304.741	1139.25
304.971	1163.25
305.201	1274.25
305.431	1229.25
305.661	1075.25
305.891	1063.25
306.121	1074.25
306.352	949.25
306.582	884.25
306.812	859.25
307.042	882.25
307.272	803.25
307.502	803.25
307.731	868.25
307.961	931.25
308.191	848.25
308.421	799.25
308.651	797.25
308.881	782.25
309.111	785.25
309.341	815.25
309.571	913.25
309.8	921.25
310.03	920.25
310.26	985.25
310.49	985.25
310.72	874.25
310.949	863.25
311.179	874.25
311.409	942.25
311.639	1049.25
311.868	1395.25
312.098	1789.25
312.328	1917.25
312.557	1851.25
312.787	1893.25
313.017	1690.25
313.246	1825.25
313.476	1940.25
313.706	1606.25
313.935	1323.25
314.165	1063.25
314.394	952.25
314.624	982.25
314.853	1034.25
315.083	1054.25
315.312	1000.25
315.542	1019.25
315.771	963.25
316.001	873.25
316.23	847.25
316.46	843.25
316.689	847.25
316.919	873.25
317.148	877.25
317.377	885.25
317.607	872.25
317.836	985.25
318.065	1122.25
318.295	1243.25
318.524	1181.25
318.753	995.25
318.983	934.25
319.212	901.25
319.441	987.25
319.67	1138.25
319.9	1199.25
320.129	1159.25
320.358	986.25
320.587	943.25
320.816	1028.25
321.046	1203.25
321.275	1364.25
321.504	1350.25
321.733	1281.25
321.962	1226.25
322.191	1157.25
322.42	1115.25
322.649	1131.25
322.878	1223.25
323.108	1193.25
323.337	1106.25
323.566	1105.25
323.795	1069.25
324.024	1069.25
324.253	985.25
324.482	955.25
324.71	1098.25
324.939	1197.25
325.168	1125.25
325.397	928.25
325.626	951.25
325.855	901.25
326.084	911.25
326.313	866.25
326.542	841.25
326.77	879.25
326.999	911.25
327.228	962.25
327.457	1008.25
327.686	1009.25
327.914	899.25
328.143	837.25
328.372	827.25
328.6	830.25
328.829	886.25
329.058	901.25
329.287	905.25
329.515	912.25
329.744	889.25
329.972	842.25
330.201	791.25
330.43	845.25
330.658	932.25
330.887	1066.25
331.115	1038.25
331.344	993.25
331.572	956.25
331.801	896.25
332.03	859.25
332.258	864.25
332.486	953.25
332.715	978.25
332.943	943.25
333.172	918.25
333.4	965.25
333.629	1037.25
333.857	1139.25
334.085	1119.25
334.314	1097.25
334.542	1063.25
334.771	966.25
334.999	932.25
335.227	929.25
335.455	945.25
335.684	1019.25
335.912	1200.25
336.14	1320.25
336.369	1287.25
336.597	1227.25
336.825	1400.25
337.053	1523.25
337.281	1241.25
337.51	995.25
337.738	995.25
337.966	1077.25
338.194	1165.25
338.422	1115.25
338.65	927.25
338.878	885.25
339.106	903.25
339.334	1015.25
339.562	1119.25
339.79	988.25
340.018	947.25
340.246	1060.25
340.474	1194.25
340.702	1272.25
340.93	1345.25
341.158	1351.25
341.386	1125.25
341.614	1100.25
341.842	1126.25
342.07	1160.25
342.298	1349.25
342.526	1402.25
342.754	1203.25
342.981	1104.25
343.209	1064.25
343.437	1145.25
343.665	1193.25
343.893	1183.25
344.12	1385.25
344.348	1585.25
344.576	1436.25
344.804	1185.25
345.031	1040.25
345.259	976.25
345.487	999.25
345.714	1021.25
345.942	1089.25
346.17	1161.25
346.397	1091.25
346.625	1005.25
346.853	992.25
347.08	937.25
347.308	992.25
347.535	1122.25
347.763	1161.25
347.99	1002.25
348.218	933.25
348.445	976.25
348.673	991.25
348.9	954.25
349.128	1063.25
349.355	1072.25
349.583	1042.25
349.81	1027.25
350.037	953.25
350.265	852.25
350.492	815.25
350.72	833.25
350.947	848.25
351.174	905.25
351.402	929.25
351.629	1005.25
351.856	953.25
352.083	896.25
352.311	964.25
352.538	1083.25
352.765	1174.25
352.992	1033.25
353.22	1011.25
353.447	1025.25
353.674	984.25
353.901	978.25
354.128	958.25
354.355	1008.25
354.583	974.25
354.81	1012.25
355.037	1057.25
355.264	1015.25
355.491	1085.25
355.718	1198.25
355.945	1118.25
356.172	1107.25
356.399	1084.25
356.626	1314.25
356.853	1626.25
357.08	1705.25
357.307	1757.25
357.534	1377.25
357.761	1395.25
357.988	1739.25
358.215	2052.25
358.441	1935.25
358.668	1625.25
358.895	1502.25
359.122	1225.25
359.349	1208.25
359.576	1326.25
359.802	1101.25
360.029	948.25
360.256	1033.25
360.483	1265.25
360.709	1589.25
360.936	1658.25
361.163	1441.25
361.39	1144.25
361.616	1069.25
361.843	1239.25
362.07	1505.25
362.296	1398.25
362.523	1073.25
362.749	946.25
362.976	1001.25
363.203	1204.25
363.429	1343.25
363.656	1105.25
363.882	1016.25
364.109	1031.25
364.335	1004.25
364.562	998.25
364.788	1113.25
365.015	1295.25
365.241	1174.25
365.468	964.25
365.694	839.25
365.92	825.25
366.147	765.25
366.373	800.25
366.599	808.25
366.826	833.25
367.052	846.25
367.278	825.25
367.505	818.25
367.731	921.25
367.957	1051.25
368.184	1036.25
368.41	999.25
368.636	1030.25
368.862	1055.25
369.089	1025.25
369.315	890.25
369.541	912.25
369.767	893.25
369.993	838.25
370.219	841.25
370.445	907.25
370.672	1047.25
370.898	1108.25
371.124	1070.25
371.35	967.25
371.576	895.25
371.802	988.25
372.028	1149.25
372.254	1319.25
372.48	1140.25
372.706	1018.25
372.932	1106.25
373.158	1139.25
373.384	1331.25
373.61	1802.25
373.835	1851.25
374.061	1382.25
374.287	1191.25
374.513	1383.25
374.739	1655.25
374.965	1741.25
375.191	1672.25
375.416	1156.25
375.642	1045.25
375.868	1221.25
376.094	1347.25
376.319	1160.25
376.545	1304.25
376.771	1391.25
376.997	1158.25
377.222	883.25
377.448	742.25
377.674	754.25
377.899	745.25
378.125	736.25
378.35	785.25
378.576	798.25
378.802	855.25
379.027	938.25
379.253	908.25
379.478	930.25
379.704	1038.25
379.929	1127.25
380.155	1103.25
380.38	980.25
380.606	1015.25
380.831	1113.25
381.057	1054.25
381.282	990.25
381.507	1125.25
381.733	1433.25
381.958	1494.25
382.184	1611.25
382.409	1735.25
382.634	1664.25
382.86	1729.25
383.085	1439.25
383.31	1163.25
383.535	1221.25
383.761	1253.25
383.986	1159.25
384.211	1411.25
384.436	1359.25
384.662	1046.25
384.887	1011.25
385.112	1035.25
385.337	1042.25
385.562	987.25
385.787	1105.25
386.013	1236.25
386.238	1227.25
386.463	1053.25
386.688	988.25
386.913	954.25
387.138	911.25
387.363	974.25
387.588	1011.25
387.813	1019.25
388.038	1130.25
388.263	997.25
388.488	973.25
388.713	1128.25
388.938	1215.25
389.163	1039.25
389.387	895.25
389.612	927.25
389.837	962.25
390.062	972.25
390.287	1023.25
390.512	1034.25
390.736	958.25
390.961	913.25
391.186	867.25
391.411	851.25
391.636	851.25
391.86	925.25
392.085	1015.25
392.31	1008.25
392.534	950.25
392.759	935.25
392.984	991.25
393.208	984.25
393.433	864.25
393.658	823.25
393.882	803.25
394.107	782.25
394.331	823.25
394.556	800.25
394.78	821.25
395.005	833.25
395.229	851.25
395.454	877.25
395.678	881.25
395.903	924.25
396.127	902.25
396.352	886.25
396.576	971.25
396.801	1025.25
397.025	1109.25
397.249	1147.25
397.474	933.25
397.698	926.25
397.922	971.25
398.147	925.25
398.371	951.25
398.595	979.25
398.82	949.25
399.044	964.25
399.268	1029.25
399.492	1049.25
399.717	1072.25
399.941	1087.25
400.165	1065.25
400.389	1049.25
400.613	1064.25
400.837	1041.25
401.062	920.25
401.286	890.25
401.51	918.25
401.734	930.25
401.958	910.25
402.182	953.25
402.406	922.25
402.63	911.25
402.854	971.25
403.078	1110.25
403.302	1346.25
403.526	1330.25
403.75	1200.25
403.974	1064.25
404.198	1112.25
404.422	1228.25
404.645	1433.25
404.869	1548.25
405.093	1171.25
405.317	1039.25
405.541	991.25
405.765	1025.25
405.988	1026.25
406.212	1094.25
406.436	1296.25
406.66	1453.25
406.883	1180.25
407.107	1180.25
407.331	1377.25
407.555	1312.25
407.778	1098.25
408.002	1069.25
408.226	1057.25
408.449	1050.25
408.673	1023.25
408.896	942.25
409.12	925.25
409.344	927.25
409.567	887.25
409.791	896.25
410.014	901.25
410.238	899.25
410.461	922.25
410.685	905.25
410.908	913.25
411.132	939.25
411.355	961.25
411.578	948.25
411.802	958.25
412.025	984.25
412.249	1012.25
412.472	973.25
412.695	959.25
412.919	948.25
413.142	986.25
413.365	1040.25
413.589	1075.25
413.812	948.25
414.035	893.25
414.258	922.25
414.482	1059.25
414.705	1084.25
414.928	926.25
415.151	892.25
415.374	858.25
415.597	911.25
415.821	934.25
416.044	879.25
416.267	877.25
416.49	867.25
416.713	855.25
416.936	855.25
417.159	881.25
417.382	895.25
417.605	909.25
417.828	914.25
418.051	922.25
418.274	961.25
418.497	943.25
418.72	931.25
418.943	943.25
419.166	1018.25
419.389	1031.25
419.611	1002.25
419.834	1029.25
420.057	1122.25
420.28	1134.25
420.503	1011.25
420.726	912.25
420.948	889.25
421.171	889.25
421.394	911.25
421.617	874.25
421.839	889.25
422.062	908.25
422.285	935.25
422.507	959.25
422.73	937.25
422.953	968.25
423.175	958.25
423.398	957.25
423.621	1035.25
423.843	1064.25
424.066	967.25
424.288	924.25
424.511	887.25
424.733	905.25
424.956	980.25
425.178	1115.25
425.401	1222.25
425.623	1343.25
425.846	1165.25
426.068	1015.25
426.291	1116.25
426.513	1054.25
426.735	959.25
426.958	1009.25
427.18	1190.25
427.402	1483.25
427.625	1494.25
427.847	1182.25
428.069	935.25
428.292	913.25
428.514	909.25
428.736	883.25
428.958	942.25
429.181	1097.25
429.403	968.25
429.625	899.25
429.847	870.25
430.069	905.25
430.292	941.25
430.514	861.25
430.736	952.25
430.958	1187.25
431.18	1071.25
431.402	866.25
431.624	810.25
431.846	820.25
432.068	801.25
432.29	825.25
432.512	925.25
432.734	1215.25
432.956	1126.25
433.178	879.25
433.4	861.25
433.622	853.25
433.844	888.25
434.066	952.25
434.287	903.25
434.509	881.25
434.731	951.25
434.953	895.25
435.175	923.25
435.397	1047.25
435.618	935.25
435.84	826.25
436.062	843.25
436.284	849.25
436.505	809.25
436.727	798.25
436.949	783.25
437.17	842.25
437.392	868.25
437.614	835.25
437.835	853.25
438.057	833.25
438.278	981.25
438.5	1392.25
438.721	1369.25
438.943	970.25
439.165	820.25
439.386	802.25
439.608	789.25
439.829	775.25
440.05	813.25
440.272	849.25
440.493	1018.25
440.715	1255.25
440.936	962.25
441.158	881.25
441.379	908.25
441.6	981.25
441.822	1055.25
442.043	907.25
442.264	894.25
442.486	880.25
442.707	874.25
442.928	868.25
443.149	894.25
443.371	891.25
443.592	942.25
443.813	898.25
444.034	903.25
444.255	913.25
444.476	948.25
444.698	961.25
444.919	949.25
445.14	1040.25
445.361	1029.25
445.582	928.25
445.803	943.25
446.024	952.25
446.245	924.25
446.466	942.25
446.687	859.25
446.908	866.25
447.129	852.25
447.35	849.25
447.571	822.25
447.792	817.25
448.013	794.25
448.234	791.25
448.455	801.25
448.675	791.25
448.896	810.25
449.117	776.25
449.338	824.25
449.559	834.25
449.779	855.25
450	859.25
450.221	840.25
450.442	849.25
450.662	788.25
450.883	819.25
451.104	815.25
451.324	786.25
451.545	815.25
451.766	773.25
451.986	793.25
452.207	780.25
452.428	787.25
452.648	784.25
452.869	823.25
453.089	871.25
453.31	827.25
453.53	767.25
453.751	753.25
453.971	729.25
454.192	777.25
454.412	801.25
454.633	762.25
454.853	770.25
455.073	737.25
455.294	730.25
455.514	729.25
455.734	787.25
455.955	796.25
456.175	837.25
456.395	762.25
456.616	725.25
456.836	718.25
457.056	705.25
457.276	706.25
457.497	717.25
457.717	710.25
457.937	718.25
458.157	722.25
458.377	739.25
458.598	756.25
458.818	752.25
459.038	794.25
459.258	834.25
459.478	865.25
459.698	903.25
459.918	915.25
460.138	885.25
460.358	875.25
460.578	877.25
460.798	866.25
461.018	896.25
461.238	855.25
461.458	891.25
461.678	901.25
461.898	960.25
462.118	935.25
462.338	928.25
462.558	969.25
462.777	1001.25
462.997	1029.25
463.217	1017.25
463.437	1022.25
463.657	1029.25
463.876	961.25
464.096	969.25
464.316	991.25
464.536	979.25
464.755	1017.25
464.975	1025.25
465.195	979.25
465.414	1009.25
465.634	962.25
465.854	967.25
466.073	882.25
466.293	882.25
466.512	937.25
466.732	1028.25
466.951	1022.25
467.171	922.25
467.391	855.25
467.61	882.25
467.829	949.25
468.049	931.25
468.268	889.25
468.488	868.25
468.707	920.25
468.927	1090.25
469.146	1151.25
469.365	1059.25
469.585	938.25
469.804	1018.25
470.023	1113.25
470.243	963.25
470.462	962.25
470.681	914.25
470.901	945.25
471.12	956.25
471.339	1005.25
471.558	916.25
471.777	930.25
471.997	997.25
472.216	1121.25
472.435	1065.25
472.654	974.25
472.873	939.25
473.092	1016.25
473.311	1049.25
473.53	942.25
473.749	905.25
473.968	995.25
474.187	949.25
474.406	953.25
474.625	934.25
474.844	981.25
475.063	1027.25
475.282	1025.25
475.501	1064.25
475.72	1120.25
475.939	1077.25
476.158	1098.25
476.377	1240.25
476.596	1428.25
476.814	1521.25
477.033	1273.25
477.252	1062.25
477.471	994.25
477.69	1008.25
477.908	1087.25
478.127	1151.25
478.346	1051.25
478.564	1153.25
478.783	1109.25
479.002	1117.25
479.22	1276.25
479.439	1393.25
479.658	1223.25
479.876	1129.25
480.095	1217.25
480.313	1238.25
480.532	1132.25
480.751	1108.25
480.969	1125.25
481.188	1271.25
481.406	1306.25
481.624	1230.25
481.843	1099.25
482.061	1094.25
482.28	1201.25
482.498	1469.25
482.717	1419.25
482.935	1217.25
483.153	1117.25
483.372	1093.25
483.59	1046.25
483.808	1053.25
484.027	1049.25
484.245	1017.25
484.463	970.25
484.681	1017.25
484.9	1124.25
485.118	1197.25
485.336	1115.25
485.554	1030.25
485.772	1079.25
485.99	1162.25
486.209	1219.25
486.427	1249.25
486.645	1209.25
486.863	1237.25
487.081	1238.25
487.299	1361.25
487.517	1382.25
487.735	1217.25
487.953	1262.25
488.171	1291.25
488.389	1192.25
488.607	1116.25
488.825	1180.25
489.043	1266.25
489.261	1454.25
489.479	1579.25
489.696	1313.25
489.914	1184.25
490.132	1128.25
490.35	1126.25
490.568	1139.25
490.786	1125.25
491.003	1149.25
491.221	1171.25
491.439	1155.25
491.657	1157.25
491.874	1268.25
492.092	1497.25
492.31	1801.25
492.527	1765.25
492.745	1518.25
492.963	1318.25
493.18	1331.25
493.398	1291.25
493.615	1279.25
493.833	1275.25
494.05	1250.25
494.268	1297.25
494.485	1229.25
494.703	1184.25
494.92	1246.25
495.138	1175.25
495.355	1197.25
495.573	1233.25
495.79	1407.25
496.008	1846.25
496.225	1591.25
496.442	1393.25
496.66	1346.25
496.877	1411.25
497.094	1395.25
497.312	1330.25
497.529	1310.25
497.746	1307.25
497.963	1360.25
498.181	1455.25
498.398	1591.25
498.615	1608.25
498.832	1700.25
499.049	1711.25
499.267	1541.25
499.484	1563.25
499.701	1631.25
499.918	1766.25
500.135	1870.25
500.352	1909.25
500.569	2001.25
500.786	2050.25
501.003	2053.25
501.22	1838.25
501.437	1742.25
501.654	1698.25
501.871	1625.25
502.088	1649.25
502.305	1505.25
502.522	1502.25
502.739	1508.25
502.956	1370.25
503.172	1387.25
503.389	1315.25
503.606	1286.25
503.823	1308.25
504.04	1327.25
504.256	1337.25
504.473	1345.25
504.69	1350.25
504.907	1385.25
505.123	1355.25
505.34	1436.25
505.557	1409.25
505.773	1317.25
505.99	1285.25
506.207	1343.25
506.423	1282.25
506.64	1193.25
506.856	1263.25
507.073	1396.25
507.289	1355.25
507.506	1329.25
507.722	1411.25
507.939	1450.25
508.155	1461.25
508.372	1291.25
508.588	1259.25
508.805	1224.25
509.021	1231.25
509.238	1164.25
509.454	1179.25
509.67	1161.25
509.887	1197.25
510.103	1315.25
510.319	1277.25
510.536	1199.25
510.752	1088.25
510.968	1047.25
511.184	1069.25
511.401	1058.25
511.617	1054.25
511.833	1036.25
512.049	1061.25
512.265	1135.25
512.481	1135.25
512.698	1227.25
512.914	1366.25
513.13	1231.25
513.346	1107.25
513.562	1181.25
513.778	1167.25
513.994	1142.25
514.21	1240.25
514.426	1226.25
514.642	1189.25
514.858	1129.25
515.074	1202.25
515.29	1285.25
515.506	1451.25
515.721	1348.25
515.937	1253.25
516.153	1173.25
516.369	1152.25
516.585	1248.25
516.801	1377.25
517.016	1608.25
517.232	1572.25
517.448	1531.25
517.664	1361.25
517.879	1280.25
518.095	1262.25
518.311	1277.25
518.527	1305.25
518.742	1391.25
518.958	1456.25
519.173	1414.25
519.389	1371.25
519.605	1396.25
519.82	1475.25
520.036	1720.25
520.251	1680.25
520.467	1576.25
520.682	2461.25
520.898	2996.25
521.113	2802.25
521.329	1708.25
521.544	1508.25
521.76	1479.25
521.975	1325.25
522.19	1293.25
522.406	1330.25
522.621	1456.25
522.836	1535.25
523.052	1533.25
523.267	1286.25
523.482	1290.25
523.698	1391.25
523.913	1333.25
524.128	1217.25
524.343	1191.25
524.559	1190.25
524.774	1130.25
524.989	1186.25
525.204	1185.25
525.419	1298.25
525.634	1246.25
525.849	1254.25
526.064	1234.25
526.28	1278.25
526.495	1458.25
526.71	1543.25
526.925	1353.25
527.14	1411.25
527.355	1368.25
527.57	1131.25
527.785	1223.25
527.999	1133.25
528.214	1094.25
528.429	1085.25
528.644	1079.25
528.859	1025.25
529.074	997.25
529.289	983.25
529.503	989.25
529.718	1049.25
529.933	1174.25
530.148	1237.25
530.363	1044.25
530.577	1000.25
530.792	1034.25
531.007	995.25
531.221	946.25
531.436	986.25
531.651	983.25
531.865	1034.25
532.08	1045.25
532.295	1007.25
532.509	1023.25
532.724	1170.25
532.938	1339.25
533.153	1508.25
533.367	1250.25
533.582	1177.25
533.796	1085.25
534.011	1061.25
534.225	1062.25
534.44	1074.25
534.654	1093.25
534.868	1265.25
535.083	1143.25
535.297	1059.25
535.511	1016.25
535.726	1142.25
535.94	1047.25
536.154	1048.25
536.369	967.25
536.583	996.25
536.797	999.25
537.011	1092.25
537.225	1123.25
537.44	1197.25
537.654	1007.25
537.868	1010.25
538.082	1011.25
538.296	1006.25
538.51	1080.25
538.724	1109.25
538.938	1071.25
539.153	1008.25
539.367	979.25
539.581	992.25
539.795	1047.25
540.009	1181.25
540.222	1057.25
540.436	1071.25
540.65	1128.25
540.864	1135.25
541.078	1219.25
541.292	1392.25
541.506	1152.25
541.72	1078.25
541.934	1033.25
542.147	1058.25
542.361	1022.25
542.575	1096.25
542.789	1026.25
543.002	957.25
543.216	1077.25
543.43	963.25
543.644	962.25
543.857	946.25
544.071	950.25
544.285	935.25
544.498	929.25
544.712	920.25
544.925	1025.25
545.139	948.25
545.352	917.25
545.566	922.25
545.779	1088.25
545.993	953.25
546.206	902.25
546.42	885.25
546.633	883.25
546.847	866.25
547.06	880.25
547.274	872.25
547.487	887.25
547.7	955.25
547.914	988.25
548.127	1102.25
548.34	1073.25
548.554	986.25
548.767	990.25
548.98	1046.25
549.193	967.25
549.407	1005.25
549.62	1176.25
549.833	1101.25
550.046	1144.25
550.259	1159.25
550.473	1027.25
550.686	978.25
550.899	1010.25
551.112	972.25
551.325	1064.25
551.538	1098.25
551.751	941.25
551.964	893.25
552.177	901.25
552.39	886.25
552.603	887.25
552.816	928.25
553.029	900.25
553.242	902.25
553.455	953.25
553.667	1033.25
553.88	950.25
554.093	893.25
554.306	857.25
554.519	803.25
554.732	790.25
554.944	795.25
555.157	767.25
555.37	782.25
555.583	763.25
555.795	783.25
556.008	811.25
556.221	792.25
556.433	775.25
556.646	759.25
556.859	801.25
557.071	825.25
557.284	825.25
557.496	861.25
557.709	820.25
557.921	807.25
558.134	743.25
558.346	737.25
558.559	709.25
558.771	732.25
558.984	829.25
559.196	785.25
559.409	742.25
559.621	712.25
559.833	737.25
560.046	713.25
560.258	698.25
560.47	728.25
560.683	720.25
560.895	697.25
561.107	649.25
561.32	674.25
561.532	682.25
561.744	772.25
561.956	787.25
562.168	729.25
562.381	694.25
562.593	713.25
562.805	733.25
563.017	723.25
563.229	671.25
563.441	671.25
563.653	686.25
563.865	702.25
564.077	696.25
564.289	673.25
564.501	694.25
564.713	755.25
564.925	731.25
565.137	691.25
565.349	703.25
565.561	709.25
565.773	702.25
565.985	751.25
566.197	804.25
566.408	850.25
566.62	835.25
566.832	858.25
567.044	866.25
567.255	916.25
567.467	970.25
567.679	888.25
567.891	890.25
568.102	938.25
568.314	912.25
568.526	852.25
568.737	827.25
568.949	851.25
569.161	784.25
569.372	729.25
569.584	687.25
569.795	699.25
570.007	711.25
570.218	741.25
570.43	725.25
570.641	709.25
570.853	669.25
571.064	671.25
571.276	687.25
571.487	728.25
571.698	662.25
571.91	654.25
572.121	673.25
572.333	651.25
572.544	630.25
572.755	627.25
572.966	631.25
573.178	616.25
573.389	652.25
573.6	656.25
573.811	631.25
574.023	597.25
574.234	554.25
574.445	564.25
574.656	551.25
574.867	591.25
575.078	606.25
575.289	587.25
575.501	615.25
575.712	598.25
575.923	550.25
576.134	535.25
576.345	562.25
576.556	550.25
576.767	541.25
576.978	527.25
577.188	503.25
577.399	519.25
577.61	524.25
577.821	539.25
578.032	547.25
578.243	586.25
578.454	572.25
578.665	560.25
578.875	551.25
579.086	571.25
579.297	570.25
579.508	582.25
579.718	569.25
579.929	551.25
580.14	554.25
580.35	517.25
580.561	487.25
580.772	488.25
580.982	500.25
581.193	485.25
581.403	487.25
581.614	465.25
581.825	476.25
582.035	479.25
582.246	453.25
582.456	472.25
582.667	495.25
582.877	481.25
583.087	467.25
583.298	479.25
583.508	459.25
583.719	446.25
583.929	482.25
584.139	474.25
584.35	460.25
584.56	485.25
584.77	461.25
584.981	492.25
585.191	493.25
585.401	491.25
585.611	488.25
585.821	503.25
586.032	513.25
586.242	465.25
586.452	475.25
586.662	473.25
586.872	513.25
587.082	482.25
587.292	490.25
587.502	465.25
587.713	459.25
587.923	489.25
588.133	537.25
588.343	480.25
588.553	479.25
588.762	439.25
588.972	480.25
589.182	472.25
589.392	455.25
589.602	474.25
589.812	471.25
590.022	517.25
590.232	509.25
590.441	452.25
590.651	450.25
590.861	455.25
591.071	461.25
591.281	469.25
591.49	453.25
591.7	459.25
591.91	431.25
592.119	415.25
592.329	473.25
592.539	460.25
592.748	466.25
592.958	468.25
593.167	456.25
593.377	480.25
593.587	486.25
593.796	482.25
594.006	479.25
594.215	506.25
594.424	472.25
594.634	493.25
594.843	489.25
595.053	478.25
595.262	417.25
595.472	459.25
595.681	465.25
595.89	449.25
596.1	454.25
596.309	442.25
596.518	425.25
596.727	425.25
596.937	428.25
597.146	439.25
597.355	462.25
597.564	441.25
597.774	430.25
597.983	411.25
598.192	422.25
598.401	398.25
598.61	385.25
598.819	401.25
599.028	409.25
599.237	385.25
599.446	391.25
599.655	381.25
599.864	378.25
600.073	375.25
600.282	376.25
600.491	373.25
600.7	391.25
600.909	389.25
601.118	394.25
601.327	406.25
601.536	398.25
601.745	410.25
601.953	405.25
602.162	378.25
602.371	394.25
602.58	411.25
602.789	403.25
602.997	381.25
603.206	382.25
603.415	382.25
603.623	376.25
603.832	377.25
604.041	376.25
604.249	361.25
604.458	399.25
604.666	373.25
604.875	374.25
605.084	355.25
605.292	353.25
605.501	374.25
605.709	367.25
605.918	362.25
606.126	360.25
606.334	369.25
606.543	359.25
606.751	365.25
606.96	366.25
607.168	342.25
607.376	344.25
607.585	337.25
607.793	370.25
608.001	361.25
608.21	341.25
608.418	375.25
608.626	377.25
608.834	343.25
609.043	357.25
609.251	334.25
609.459	339.25
609.667	328.25
609.875	322.25
610.083	349.25
610.291	351.25
610.499	343.25
610.707	347.25
610.916	325.25
611.124	337.25
611.332	317.25
611.54	328.25
611.748	324.25
611.955	342.25
612.163	334.25
612.371	334.25
612.579	329.25
612.787	333.25
612.995	351.25
613.203	346.25
613.411	339.25
613.618	329.25
613.826	329.25
614.034	345.25
614.242	317.25
614.449	327.25
614.657	328.25
614.865	339.25
615.072	343.25
615.28	346.25
615.488	320.25
615.695	327.25
615.903	339.25
616.111	344.25
616.318	337.25
616.526	318.25
616.733	349.25
616.941	328.25
617.148	314.25
617.356	330.25
617.563	315.25
617.771	325.25
617.978	327.25
618.185	332.25
618.393	317.25
618.6	304.25
618.807	331.25
619.015	338.25
619.222	327.25
619.429	321.25
619.637	315.25
619.844	320.25
620.051	308.25
620.258	321.25
620.466	299.25
620.673	295.25
620.88	312.25
621.087	298.25
621.294	299.25
621.501	309.25
621.708	303.25
621.915	286.25
622.122	299.25
622.329	290.25
622.536	299.25
622.743	316.25
622.95	301.25
623.157	298.25
623.364	316.25
623.571	301.25
623.778	301.25
623.985	326.25
624.192	311.25
624.399	300.25
624.606	282.25
624.812	282.25
625.019	329.25
625.226	319.25
625.433	303.25
625.639	285.25
625.846	297.25
626.053	278.25
626.259	287.25
626.466	282.25
626.673	303.25
626.879	295.25
627.086	271.25
627.293	285.25
627.499	286.25
627.706	277.25
627.912	281.25
628.119	266.25
628.325	266.25
628.532	270.25
628.738	293.25
628.945	258.25
629.151	266.25
629.357	265.25
629.564	270.25
629.77	261.25
629.976	272.25
630.183	273.25
630.389	276.25
630.595	264.25
630.802	259.25
631.008	253.25
631.214	251.25
631.42	242.25
631.627	271.25
631.833	266.25
632.039	269.25
632.245	249.25
632.451	244.25
632.657	249.25
632.863	243.25
633.069	243.25
633.275	253.25
633.481	244.25
633.688	232.25
633.893	245.25
634.099	243.25
634.305	228.25
634.511	245.25
634.717	246.25
634.923	238.25
635.129	231.25
635.335	245.25
635.541	235.25
635.747	238.25
635.952	227.25
636.158	230.25
636.364	258.25
636.57	242.25
636.775	238.25
636.981	234.25
637.187	227.25
637.392	222.25
637.598	211.25
637.804	227.25
638.009	232.25
638.215	250.25
638.421	239.25
638.626	243.25
638.832	224.25
639.037	210.25
639.243	241.25
639.448	233.25
639.654	245.25
639.859	222.25
640.065	237.25
640.27	247.25
640.475	225.25
640.681	225.25
640.886	227.25
641.091	227.25
641.297	244.25
641.502	223.25
641.707	227.25
641.913	222.25
642.118	231.25
642.323	227.25
642.528	222.25
642.733	229.25
642.939	196.25
643.144	200.25
643.349	227.25
643.554	202.25
643.759	218.25
643.964	213.25
644.169	210.25
644.374	202.25
644.579	211.25
644.784	219.25
644.989	205.25
645.194	215.25
645.399	201.25
645.604	219.25
645.809	211.25
646.014	217.25
646.219	213.25
646.423	200.25
646.628	212.25
646.833	207.25
647.038	218.25
647.243	209.25
647.447	213.25
647.652	201.25
647.857	192.25
648.062	223.25
648.266	231.25
648.471	211.25
648.676	214.25
648.88	221.25
649.085	213.25
649.289	206.25
649.494	206.25
649.698	218.25
649.903	215.25
650.107	200.25
650.312	209.25
650.516	207.25
650.721	213.25
650.925	189.25
651.13	185.25
651.334	180.25
651.539	193.25
651.743	194.25
651.947	174.25
652.152	191.25
652.356	176.25
652.56	194.25
652.764	174.25
652.969	170.25
653.173	178.25
653.377	154.25
653.581	164.25
653.785	177.25
653.99	168.25
654.194	176.25
654.398	152.25
654.602	158.25
654.806	169.25
655.01	160.25
655.214	160.25
655.418	162.25
655.622	161.25
655.826	167.25
656.03	169.25
656.234	166.25
656.438	177.25
656.642	162.25
656.846	149.25
657.049	154.25
657.253	163.25
657.457	151.25
657.661	145.25
657.865	137.25
658.068	129.25
658.272	118.25
658.476	139.25
658.68	113.25
658.883	118.25
659.087	125.25
659.291	116.25
659.494	115.25
659.698	113.25
659.901	121.25
660.105	118.25
660.309	107.25
660.512	103.25
660.716	94.25
660.919	104.25
661.123	106.25
661.326	106.25
661.53	105.25
661.733	95.25
661.936	94.25
662.14	93.25
662.343	82.25
662.546	92.25
662.75	86.25
662.953	101.25
663.156	92.25
663.36	105.25
663.563	89.25
663.766	91.25
663.969	81.25
664.173	89.25
664.376	90.25
664.579	81.25
664.782	86.25
664.985	78.25
665.188	85.25
665.391	93.25
665.594	71.25
665.797	82.25
666	81.25
666.203	79.25
666.406	82.25
666.609	84.25
666.812	85.25
667.015	90.25
667.218	85.25
667.421	87.25
667.624	87.25
667.827	90.25
668.03	65.25
668.232	68.25
668.435	88.25
668.638	88.25
668.841	95.25
669.043	82.25
669.246	73.25
669.449	81.25
669.651	80.25
669.854	101.25
670.057	82.25
670.259	71.25
670.462	86.25
670.665	82.25
670.867	95.25
671.07	79.25
671.272	96.25
671.475	88.25
671.677	89.25
671.88	99.25
672.082	68.25
672.284	94.25
672.487	79.25
672.689	87.25
672.892	69.25
