Data from NickelSpatula.Lamp.E10.P2_HRD10591_11-59-10-526.txt Node
Date: Tue Jul 23 11:59:10 EDT 2019
User: cochatt
Spectrometer: HR+D1059
Trigger mode: 1
Integration Time (sec): 1.000000E-1
Scans to average: 1
Electric dark correction enabled: true
Nonlinearity correction enabled: false
Boxcar width: 0
XAxis mode: Wavelengths
Number of Pixels in Spectrum: 2048
>>>>>Begin Spectral Data<<<<<
223.165	-19.06
223.4	-19.06
223.635	-19.06
223.869	-10.06
224.104	-12.06
224.338	-24.06
224.573	-19.06
224.808	-18.06
225.042	-2.06
225.277	-1.06
225.511	-15.06
225.746	10.94
225.98	4.94
226.215	15.94
226.449	20.94
226.683	10.94
226.918	16.94
227.152	39.94
227.387	19.94
227.621	36.94
227.856	44.94
228.09	40.94
228.324	62.94
228.559	50.94
228.793	72.94
229.027	135.94
229.262	151.94
229.496	169.94
229.73	175.94
229.964	183.94
230.199	217.94
230.433	225.94
230.667	223.94
230.901	208.94
231.136	196.94
231.37	214.94
231.604	212.94
231.838	252.94
232.072	258.94
232.306	258.94
232.541	242.94
232.775	256.94
233.009	272.94
233.243	290.94
233.477	324.94
233.711	341.94
233.945	324.94
234.179	334.94
234.413	375.94
234.647	392.94
234.881	482.94
235.115	471.94
235.349	399.94
235.583	365.94
235.817	363.94
236.051	404.94
236.285	436.94
236.519	485.94
236.753	455.94
236.987	452.94
237.221	409.94
237.455	430.94
237.689	456.94
237.922	477.94
238.156	497.94
238.39	577.94
238.624	690.94
238.858	618.94
239.091	502.94
239.325	518.94
239.559	491.94
239.793	540.94
240.027	649.94
240.26	598.94
240.494	566.94
240.728	611.94
240.961	701.94
241.195	661.94
241.429	646.94
241.662	659.94
241.896	556.94
242.13	500.94
242.363	456.94
242.597	479.94
242.83	531.94
243.064	560.94
243.298	607.94
243.531	654.94
243.765	634.94
243.998	655.94
244.232	642.94
244.465	605.94
244.699	590.94
244.932	681.94
245.166	654.94
245.399	576.94
245.633	559.94
245.866	597.94
246.099	643.94
246.333	733.94
246.566	769.94
246.8	785.94
247.033	751.94
247.266	714.94
247.5	714.94
247.733	729.94
247.966	692.94
248.2	704.94
248.433	787.94
248.666	876.94
248.899	854.94
249.133	880.94
249.366	1013.94
249.599	1113.94
249.832	964.94
250.066	822.94
250.299	854.94
250.532	833.94
250.765	848.94
250.998	767.94
251.231	727.94
251.465	828.94
251.698	853.94
251.931	829.94
252.164	838.94
252.397	972.94
252.63	1114.94
252.863	1159.94
253.096	1254.94
253.329	1184.94
253.562	1139.94
253.795	1310.94
254.028	1436.94
254.261	1432.94
254.494	1297.94
254.727	1196.94
254.96	1166.94
255.193	1241.94
255.426	1174.94
255.659	897.94
255.892	839.94
256.124	880.94
256.357	1062.94
256.59	1249.94
256.823	1159.94
257.056	990.94
257.289	969.94
257.521	999.94
257.754	1165.94
257.987	1326.94
258.22	1140.94
258.452	1050.94
258.685	1182.94
258.918	1304.94
259.151	1255.94
259.383	1326.94
259.616	1590.94
259.849	1615.94
260.081	1774.94
260.314	2013.94
260.547	1490.94
260.779	1534.94
261.012	1768.94
261.244	1660.94
261.477	1665.94
261.71	1585.94
261.942	1357.94
262.175	1312.94
262.407	1253.94
262.64	1308.94
262.872	1556.94
263.105	1708.94
263.337	1757.94
263.57	1546.94
263.802	1074.94
264.035	902.94
264.267	899.94
264.499	797.94
264.732	727.94
264.964	711.94
265.197	737.94
265.429	794.94
265.661	841.94
265.894	867.94
266.126	937.94
266.358	1073.94
266.591	1314.94
266.823	1550.94
267.055	1430.94
267.287	1292.94
267.52	1276.94
267.752	1343.94
267.984	1490.94
268.216	1447.94
268.448	1152.94
268.681	1166.94
268.913	1217.94
269.145	1320.94
269.377	1356.94
269.609	1352.94
269.841	1268.94
270.073	1309.94
270.306	1420.94
270.538	1417.94
270.77	1474.94
271.002	1445.94
271.234	1477.94
271.466	1554.94
271.698	1492.94
271.93	1467.94
272.162	1469.94
272.394	1470.94
272.626	1454.94
272.858	1486.94
273.09	1497.94
273.322	1357.94
273.553	1309.94
273.785	1556.94
274.017	1998.94
274.249	2499.94
274.481	2636.94
274.713	2839.94
274.945	3278.94
275.176	3352.94
275.408	2981.94
275.64	2687.94
275.872	2729.94
276.104	2284.94
276.335	1972.94
276.567	1948.94
276.799	2013.94
277.031	2156.94
277.262	1651.94
277.494	1253.94
277.726	1241.94
277.957	1359.94
278.189	1501.94
278.421	1526.94
278.652	1476.94
278.884	1405.94
279.115	1334.94
279.347	1216.94
279.579	1250.94
279.81	1245.94
280.042	1234.94
280.273	1279.94
280.505	1159.94
280.736	1056.94
280.968	1052.94
281.199	1097.94
281.431	1260.94
281.662	1258.94
281.894	1189.94
282.125	1281.94
282.356	1404.94
282.588	1387.94
282.819	1311.94
283.051	1425.94
283.282	1736.94
283.513	2001.94
283.745	2272.94
283.976	2236.94
284.207	2069.94
284.439	2143.94
284.67	2078.94
284.901	1859.94
285.132	2000.94
285.364	2119.94
285.595	1903.94
285.826	2084.94
286.057	2131.94
286.288	2030.94
286.52	2048.94
286.751	2193.94
286.982	2193.94
287.213	1845.94
287.444	1806.94
287.675	1880.94
287.906	1877.94
288.138	1576.94
288.369	1388.94
288.6	1325.94
288.831	1370.94
289.062	1571.94
289.293	1756.94
289.524	1680.94
289.755	1624.94
289.986	1681.94
290.217	1524.94
290.448	1129.94
290.679	974.94
290.91	925.94
291.141	932.94
291.371	1025.94
291.602	1015.94
291.833	995.94
292.064	1065.94
292.295	1233.94
292.526	1450.94
292.757	1496.94
292.987	1590.94
293.218	1619.94
293.449	1640.94
293.68	1724.94
293.91	1602.94
294.141	1672.94
294.372	1573.94
294.603	1462.94
294.833	1671.94
295.064	1872.94
295.295	1816.94
295.525	1314.94
295.756	1176.94
295.987	1029.94
296.217	1035.94
296.448	1076.94
296.679	1111.94
296.909	1264.94
297.14	1342.94
297.37	1522.94
297.601	1404.94
297.831	1192.94
298.062	1286.94
298.292	1504.94
298.523	1639.94
298.753	1842.94
298.984	1665.94
299.214	1298.94
299.445	1126.94
299.675	1070.94
299.905	1061.94
300.136	1123.94
300.366	1227.94
300.597	1201.94
300.827	1072.94
301.057	1029.94
301.288	1068.94
301.518	1122.94
301.748	1308.94
301.979	1377.94
302.209	1494.94
302.439	1474.94
302.669	1266.94
302.9	1294.94
303.13	1159.94
303.36	1144.94
303.59	1076.94
303.82	1134.94
304.051	1256.94
304.281	1353.94
304.511	1328.94
304.741	1178.94
304.971	1265.94
305.201	1365.94
305.431	1256.94
305.661	1126.94
305.891	1152.94
306.121	1102.94
306.352	1016.94
306.582	905.94
306.812	871.94
307.042	911.94
307.272	849.94
307.502	813.94
307.731	898.94
307.961	986.94
308.191	915.94
308.421	835.94
308.651	807.94
308.881	779.94
309.111	814.94
309.341	857.94
309.571	915.94
309.8	963.94
310.03	972.94
310.26	1052.94
310.49	1017.94
310.72	896.94
310.949	862.94
311.179	899.94
311.409	974.94
311.639	1140.94
311.868	1408.94
312.098	1850.94
312.328	1990.94
312.557	1929.94
312.787	1913.94
313.017	1722.94
313.246	1863.94
313.476	2024.94
313.706	1701.94
313.935	1340.94
314.165	1046.94
314.394	993.94
314.624	997.94
314.853	1030.94
315.083	1053.94
315.312	1035.94
315.542	1022.94
315.771	992.94
316.001	933.94
316.23	866.94
316.46	878.94
316.689	902.94
316.919	894.94
317.148	889.94
317.377	896.94
317.607	903.94
317.836	966.94
318.065	1153.94
318.295	1302.94
318.524	1149.94
318.753	1012.94
318.983	969.94
319.212	944.94
319.441	1051.94
319.67	1148.94
319.9	1247.94
320.129	1181.94
320.358	1021.94
320.587	959.94
320.816	1066.94
321.046	1235.94
321.275	1400.94
321.504	1382.94
321.733	1355.94
321.962	1257.94
322.191	1212.94
322.42	1158.94
322.649	1190.94
322.878	1278.94
323.108	1246.94
323.337	1166.94
323.566	1150.94
323.795	1088.94
324.024	1065.94
324.253	1010.94
324.482	1005.94
324.71	1095.94
324.939	1245.94
325.168	1150.94
325.397	933.94
325.626	951.94
325.855	916.94
326.084	966.94
326.313	918.94
326.542	856.94
326.77	905.94
326.999	920.94
327.228	1000.94
327.457	1021.94
327.686	1063.94
327.914	924.94
328.143	853.94
328.372	850.94
328.6	862.94
328.829	918.94
329.058	932.94
329.287	934.94
329.515	913.94
329.744	892.94
329.972	849.94
330.201	827.94
330.43	900.94
330.658	964.94
330.887	1107.94
331.115	1065.94
331.344	1023.94
331.572	1002.94
331.801	929.94
332.03	858.94
332.258	900.94
332.486	976.94
332.715	1024.94
332.943	924.94
333.172	949.94
333.4	972.94
333.629	1052.94
333.857	1159.94
334.085	1145.94
334.314	1124.94
334.542	1064.94
334.771	994.94
334.999	982.94
335.227	940.94
335.455	942.94
335.684	1081.94
335.912	1198.94
336.14	1367.94
336.369	1308.94
336.597	1250.94
336.825	1438.94
337.053	1560.94
337.281	1266.94
337.51	1031.94
337.738	1008.94
337.966	1094.94
338.194	1212.94
338.422	1124.94
338.65	996.94
338.878	927.94
339.106	927.94
339.334	1062.94
339.562	1107.94
339.79	1025.94
340.018	979.94
340.246	1041.94
340.474	1238.94
340.702	1337.94
340.93	1381.94
341.158	1368.94
341.386	1154.94
341.614	1176.94
341.842	1130.94
342.07	1169.94
342.298	1358.94
342.526	1460.94
342.754	1254.94
342.981	1150.94
343.209	1090.94
343.437	1176.94
343.665	1235.94
343.893	1205.94
344.12	1442.94
344.348	1642.94
344.576	1481.94
344.804	1201.94
345.031	1061.94
345.259	1003.94
345.487	1010.94
345.714	1087.94
345.942	1131.94
346.17	1202.94
346.397	1188.94
346.625	1014.94
346.853	1023.94
347.08	988.94
347.308	1034.94
347.535	1152.94
347.763	1201.94
347.99	1044.94
348.218	945.94
348.445	989.94
348.673	978.94
348.9	996.94
349.128	1074.94
349.355	1156.94
349.583	1088.94
349.81	1041.94
350.037	981.94
350.265	887.94
350.492	846.94
350.72	842.94
350.947	870.94
351.174	910.94
351.402	994.94
351.629	1002.94
351.856	955.94
352.083	931.94
352.311	1021.94
352.538	1135.94
352.765	1222.94
352.992	1056.94
353.22	995.94
353.447	1052.94
353.674	1046.94
353.901	1022.94
354.128	1004.94
354.355	1040.94
354.583	1007.94
354.81	1023.94
355.037	1074.94
355.264	1028.94
355.491	1127.94
355.718	1237.94
355.945	1177.94
356.172	1132.94
356.399	1148.94
356.626	1409.94
356.853	1718.94
357.08	1782.94
357.307	1846.94
357.534	1416.94
357.761	1486.94
357.988	1841.94
358.215	2173.94
358.441	2048.94
358.668	1710.94
358.895	1607.94
359.122	1268.94
359.349	1253.94
359.576	1413.94
359.802	1126.94
360.029	983.94
360.256	1072.94
360.483	1337.94
360.709	1711.94
360.936	1732.94
361.163	1526.94
361.39	1190.94
361.616	1091.94
361.843	1261.94
362.07	1590.94
362.296	1404.94
362.523	1119.94
362.749	982.94
362.976	1028.94
363.203	1251.94
363.429	1383.94
363.656	1140.94
363.882	1032.94
364.109	1052.94
364.335	1034.94
364.562	1000.94
364.788	1173.94
365.015	1347.94
365.241	1208.94
365.468	1011.94
365.694	890.94
365.92	840.94
366.147	788.94
366.373	806.94
366.599	809.94
366.826	829.94
367.052	837.94
367.278	878.94
367.505	844.94
367.731	923.94
367.957	1056.94
368.184	1064.94
368.41	1049.94
368.636	1112.94
368.862	1094.94
369.089	1070.94
369.315	965.94
369.541	916.94
369.767	929.94
369.993	868.94
370.219	886.94
370.445	974.94
370.672	1073.94
370.898	1146.94
371.124	1128.94
371.35	994.94
371.576	905.94
371.802	1026.94
372.028	1238.94
372.254	1404.94
372.48	1184.94
372.706	1064.94
372.932	1166.94
373.158	1196.94
373.384	1399.94
373.61	1952.94
373.835	1952.94
374.061	1446.94
374.287	1221.94
374.513	1469.94
374.739	1736.94
374.965	1800.94
375.191	1743.94
375.416	1212.94
375.642	1035.94
375.868	1276.94
376.094	1411.94
376.319	1243.94
376.545	1300.94
376.771	1433.94
376.997	1204.94
377.222	909.94
377.448	784.94
377.674	790.94
377.899	753.94
378.125	777.94
378.35	773.94
378.576	789.94
378.802	879.94
379.027	956.94
379.253	952.94
379.478	975.94
379.704	1095.94
379.929	1125.94
380.155	1125.94
380.38	1001.94
380.606	1064.94
380.831	1144.94
381.057	1072.94
381.282	1061.94
381.507	1241.94
381.733	1552.94
381.958	1617.94
382.184	1726.94
382.409	1770.94
382.634	1776.94
382.86	1864.94
383.085	1497.94
383.31	1176.94
383.535	1282.94
383.761	1299.94
383.986	1234.94
384.211	1542.94
384.436	1422.94
384.662	1082.94
384.887	1048.94
385.112	1106.94
385.337	1127.94
385.562	1042.94
385.787	1164.94
386.013	1308.94
386.238	1315.94
386.463	1040.94
386.688	1020.94
386.913	1000.94
387.138	921.94
387.363	1023.94
387.588	1060.94
387.813	1032.94
388.038	1150.94
388.263	1035.94
388.488	1029.94
388.713	1157.94
388.938	1289.94
389.163	1076.94
389.387	917.94
389.612	950.94
389.837	997.94
390.062	1028.94
390.287	1061.94
390.512	1049.94
390.736	962.94
390.961	914.94
391.186	865.94
391.411	846.94
391.636	879.94
391.86	944.94
392.085	1047.94
392.31	1056.94
392.534	969.94
392.759	981.94
392.984	1030.94
393.208	1010.94
393.433	894.94
393.658	822.94
393.882	794.94
394.107	810.94
394.331	836.94
394.556	809.94
394.78	840.94
395.005	869.94
395.229	885.94
395.454	893.94
395.678	893.94
395.903	918.94
396.127	884.94
396.352	897.94
396.576	979.94
396.801	1042.94
397.025	1167.94
397.249	1178.94
397.474	964.94
397.698	934.94
397.922	1006.94
398.147	938.94
398.371	934.94
398.595	978.94
398.82	960.94
399.044	965.94
399.268	1031.94
399.492	1079.94
399.717	1098.94
399.941	1145.94
400.165	1071.94
400.389	1047.94
400.613	1095.94
400.837	1081.94
401.062	958.94
401.286	914.94
401.51	940.94
401.734	941.94
401.958	925.94
402.182	903.94
402.406	925.94
402.63	926.94
402.854	983.94
403.078	1098.94
403.302	1354.94
403.526	1369.94
403.75	1220.94
403.974	1063.94
404.198	1161.94
404.422	1291.94
404.645	1480.94
404.869	1626.94
405.093	1206.94
405.317	1026.94
405.541	977.94
405.765	1055.94
405.988	1048.94
406.212	1162.94
406.436	1344.94
406.66	1462.94
406.883	1165.94
407.107	1240.94
407.331	1469.94
407.555	1342.94
407.778	1143.94
408.002	1116.94
408.226	1112.94
408.449	1077.94
408.673	1058.94
408.896	963.94
409.12	949.94
409.344	934.94
409.567	912.94
409.791	912.94
410.014	897.94
410.238	886.94
410.461	903.94
410.685	930.94
410.908	955.94
411.132	946.94
411.355	933.94
411.578	949.94
411.802	969.94
412.025	1017.94
412.249	1023.94
412.472	998.94
412.695	935.94
412.919	983.94
413.142	997.94
413.365	1096.94
413.589	1078.94
413.812	965.94
414.035	948.94
414.258	962.94
414.482	1094.94
414.705	1126.94
414.928	913.94
415.151	919.94
415.374	898.94
415.597	990.94
415.821	953.94
416.044	898.94
416.267	894.94
416.49	886.94
416.713	869.94
416.936	850.94
417.159	863.94
417.382	914.94
417.605	927.94
417.828	926.94
418.051	940.94
418.274	959.94
418.497	948.94
418.72	953.94
418.943	982.94
419.166	999.94
419.389	1049.94
419.611	1032.94
419.834	1029.94
420.057	1156.94
420.28	1136.94
420.503	1071.94
420.726	957.94
420.948	898.94
421.171	905.94
421.394	897.94
421.617	885.94
421.839	901.94
422.062	979.94
422.285	931.94
422.507	965.94
422.73	975.94
422.953	1001.94
423.175	963.94
423.398	949.94
423.621	1036.94
423.843	1107.94
424.066	1006.94
424.288	960.94
424.511	932.94
424.733	929.94
424.956	1001.94
425.178	1127.94
425.401	1304.94
425.623	1461.94
425.846	1186.94
426.068	1080.94
426.291	1165.94
426.513	1070.94
426.735	984.94
426.958	1039.94
427.18	1212.94
427.402	1564.94
427.625	1514.94
427.847	1217.94
428.069	953.94
428.292	920.94
428.514	928.94
428.736	887.94
428.958	981.94
429.181	1185.94
429.403	1022.94
429.625	942.94
429.847	873.94
430.069	910.94
430.292	952.94
430.514	928.94
430.736	970.94
430.958	1285.94
431.18	1134.94
431.402	858.94
431.624	826.94
431.846	825.94
432.068	851.94
432.29	840.94
432.512	967.94
432.734	1298.94
432.956	1170.94
433.178	885.94
433.4	854.94
433.622	875.94
433.844	907.94
434.066	971.94
434.287	937.94
434.509	910.94
434.731	949.94
434.953	890.94
435.175	957.94
435.397	1084.94
435.618	914.94
435.84	844.94
436.062	812.94
436.284	841.94
436.505	801.94
436.727	804.94
436.949	831.94
437.17	840.94
437.392	856.94
437.614	849.94
437.835	816.94
438.057	851.94
438.278	1034.94
438.5	1457.94
438.721	1440.94
438.943	970.94
439.165	856.94
439.386	801.94
439.608	801.94
439.829	796.94
440.05	796.94
440.272	874.94
440.493	1055.94
440.715	1292.94
440.936	1015.94
441.158	865.94
441.379	883.94
441.6	1008.94
441.822	1056.94
442.043	924.94
442.264	895.94
442.486	893.94
442.707	935.94
442.928	883.94
443.149	910.94
443.371	919.94
443.592	963.94
443.813	949.94
444.034	920.94
444.255	898.94
444.476	972.94
444.698	959.94
444.919	932.94
445.14	1109.94
445.361	1052.94
445.582	987.94
445.803	939.94
446.024	942.94
446.245	957.94
446.466	935.94
446.687	916.94
446.908	908.94
447.129	859.94
447.35	833.94
447.571	801.94
447.792	848.94
448.013	834.94
448.234	787.94
448.455	794.94
448.675	834.94
448.896	828.94
449.117	814.94
449.338	816.94
449.559	860.94
449.779	906.94
450	896.94
450.221	857.94
450.442	826.94
450.662	804.94
450.883	827.94
451.104	834.94
451.324	822.94
451.545	864.94
451.766	829.94
451.986	812.94
452.207	800.94
452.428	785.94
452.648	742.94
452.869	841.94
453.089	860.94
453.31	884.94
453.53	768.94
453.751	769.94
453.971	772.94
454.192	779.94
454.412	808.94
454.633	774.94
454.853	769.94
455.073	738.94
455.294	744.94
455.514	741.94
455.734	814.94
455.955	828.94
456.175	869.94
456.395	761.94
456.616	732.94
456.836	726.94
457.056	705.94
457.276	696.94
457.497	739.94
457.717	733.94
457.937	744.94
458.157	740.94
458.377	745.94
458.598	760.94
458.818	803.94
459.038	829.94
459.258	836.94
459.478	868.94
459.698	913.94
459.918	912.94
460.138	882.94
460.358	915.94
460.578	888.94
460.798	900.94
461.018	912.94
461.238	889.94
461.458	894.94
461.678	893.94
461.898	961.94
462.118	934.94
462.338	946.94
462.558	954.94
462.777	1047.94
462.997	1038.94
463.217	1030.94
463.437	1073.94
463.657	1014.94
463.876	969.94
464.096	973.94
464.316	957.94
464.536	1004.94
464.755	1044.94
464.975	1069.94
465.195	961.94
465.414	1029.94
465.634	980.94
465.854	942.94
466.073	918.94
466.293	903.94
466.512	946.94
466.732	1071.94
466.951	1077.94
467.171	956.94
467.391	911.94
467.61	914.94
467.829	941.94
468.049	943.94
468.268	876.94
468.488	913.94
468.707	940.94
468.927	1064.94
469.146	1183.94
469.365	1073.94
469.585	979.94
469.804	1032.94
470.023	1140.94
470.243	982.94
470.462	924.94
470.681	933.94
470.901	975.94
471.12	1020.94
471.339	998.94
471.558	947.94
471.777	968.94
471.997	1049.94
472.216	1163.94
472.435	1106.94
472.654	974.94
472.873	1006.94
473.092	1023.94
473.311	1083.94
473.53	985.94
473.749	953.94
473.968	1017.94
474.187	991.94
474.406	988.94
474.625	943.94
474.844	994.94
475.063	1058.94
475.282	1065.94
475.501	1114.94
475.72	1198.94
475.939	1144.94
476.158	1120.94
476.377	1291.94
476.596	1480.94
476.814	1544.94
477.033	1295.94
477.252	1097.94
477.471	996.94
477.69	1050.94
477.908	1138.94
478.127	1157.94
478.346	1081.94
478.564	1174.94
478.783	1142.94
479.002	1150.94
479.22	1299.94
479.439	1477.94
479.658	1236.94
479.876	1160.94
480.095	1228.94
480.313	1268.94
480.532	1161.94
480.751	1124.94
480.969	1134.94
481.188	1300.94
481.406	1335.94
481.624	1264.94
481.843	1129.94
482.061	1125.94
482.28	1222.94
482.498	1532.94
482.717	1430.94
482.935	1233.94
483.153	1151.94
483.372	1081.94
483.59	1097.94
483.808	1062.94
484.027	1072.94
484.245	1054.94
484.463	1007.94
484.681	1060.94
484.9	1117.94
485.118	1204.94
485.336	1152.94
485.554	1090.94
485.772	1127.94
485.99	1225.94
486.209	1260.94
486.427	1268.94
486.645	1238.94
486.863	1281.94
487.081	1251.94
487.299	1448.94
487.517	1416.94
487.735	1251.94
487.953	1248.94
488.171	1283.94
488.389	1216.94
488.607	1138.94
488.825	1209.94
489.043	1313.94
489.261	1512.94
489.479	1632.94
489.696	1349.94
489.914	1182.94
490.132	1182.94
490.35	1160.94
490.568	1166.94
490.786	1172.94
491.003	1136.94
491.221	1209.94
491.439	1141.94
491.657	1172.94
491.874	1258.94
492.092	1534.94
492.31	1911.94
492.527	1861.94
492.745	1598.94
492.963	1395.94
493.18	1346.94
493.398	1350.94
493.615	1340.94
493.833	1283.94
494.05	1247.94
494.268	1310.94
494.485	1282.94
494.703	1246.94
494.92	1271.94
495.138	1238.94
495.355	1249.94
495.573	1281.94
495.79	1484.94
496.008	2017.94
496.225	1661.94
496.442	1402.94
496.66	1390.94
496.877	1461.94
497.094	1429.94
497.312	1366.94
497.529	1325.94
497.746	1353.94
497.963	1411.94
498.181	1502.94
498.398	1654.94
498.615	1728.94
498.832	1717.94
499.049	1752.94
499.267	1597.94
499.484	1567.94
499.701	1652.94
499.918	1800.94
500.135	1918.94
500.352	1932.94
500.569	2034.94
500.786	2071.94
501.003	2090.94
501.22	1885.94
501.437	1717.94
501.654	1698.94
501.871	1692.94
502.088	1667.94
502.305	1533.94
502.522	1541.94
502.739	1550.94
502.956	1429.94
503.172	1439.94
503.389	1334.94
503.606	1306.94
503.823	1298.94
504.04	1327.94
504.256	1314.94
504.473	1358.94
504.69	1394.94
504.907	1428.94
505.123	1396.94
505.34	1493.94
505.557	1448.94
505.773	1397.94
505.99	1339.94
506.207	1397.94
506.423	1288.94
506.64	1231.94
506.856	1304.94
507.073	1374.94
507.289	1355.94
507.506	1397.94
507.722	1443.94
507.939	1502.94
508.155	1550.94
508.372	1355.94
508.588	1338.94
508.805	1266.94
509.021	1250.94
509.238	1198.94
509.454	1203.94
509.67	1194.94
509.887	1237.94
510.103	1364.94
510.319	1356.94
510.536	1208.94
510.752	1135.94
510.968	1095.94
511.184	1078.94
511.401	1044.94
511.617	1038.94
511.833	1076.94
512.049	1068.94
512.265	1111.94
512.481	1161.94
512.698	1250.94
512.914	1430.94
513.13	1278.94
513.346	1176.94
513.562	1240.94
513.778	1213.94
513.994	1190.94
514.21	1285.94
514.426	1228.94
514.642	1192.94
514.858	1142.94
515.074	1217.94
515.29	1312.94
515.506	1468.94
515.721	1390.94
515.937	1271.94
516.153	1203.94
516.369	1201.94
516.585	1240.94
516.801	1456.94
517.016	1704.94
517.232	1617.94
517.448	1576.94
517.664	1414.94
517.879	1303.94
518.095	1294.94
518.311	1311.94
518.527	1369.94
518.742	1441.94
518.958	1521.94
519.173	1427.94
519.389	1413.94
519.605	1432.94
519.82	1591.94
520.036	1830.94
520.251	1755.94
520.467	1649.94
520.682	2568.94
520.898	3104.94
521.113	2941.94
521.329	1782.94
521.544	1570.94
521.76	1582.94
521.975	1401.94
522.19	1340.94
522.406	1374.94
522.621	1532.94
522.836	1598.94
523.052	1627.94
523.267	1298.94
523.482	1349.94
523.698	1451.94
523.913	1385.94
524.128	1221.94
524.343	1220.94
524.559	1232.94
524.774	1158.94
524.989	1198.94
525.204	1202.94
525.419	1334.94
525.634	1251.94
525.849	1285.94
526.064	1288.94
526.28	1320.94
526.495	1498.94
526.71	1564.94
526.925	1425.94
527.14	1494.94
527.355	1392.94
527.57	1175.94
527.785	1233.94
527.999	1160.94
528.214	1120.94
528.429	1100.94
528.644	1125.94
528.859	1057.94
529.074	1004.94
529.289	1032.94
529.503	1017.94
529.718	1065.94
529.933	1233.94
530.148	1256.94
530.363	1101.94
530.577	1046.94
530.792	1029.94
531.007	1027.94
531.221	1000.94
531.436	1010.94
531.651	997.94
531.865	1031.94
532.08	1052.94
532.295	1020.94
532.509	1058.94
532.724	1232.94
532.938	1380.94
533.153	1629.94
533.367	1242.94
533.582	1220.94
533.796	1109.94
534.011	1068.94
534.225	1065.94
534.44	1073.94
534.654	1098.94
534.868	1324.94
535.083	1148.94
535.297	1024.94
535.511	1052.94
535.726	1156.94
535.94	1143.94
536.154	1022.94
536.369	1014.94
536.583	1025.94
536.797	1071.94
537.011	1070.94
537.225	1200.94
537.44	1260.94
537.654	1041.94
537.868	1027.94
538.082	1032.94
538.296	1045.94
538.51	1170.94
538.724	1115.94
538.938	1074.94
539.153	985.94
539.367	1026.94
539.581	1024.94
539.795	1094.94
540.009	1232.94
540.222	1099.94
540.436	1107.94
540.65	1188.94
540.864	1244.94
541.078	1224.94
541.292	1419.94
541.506	1164.94
541.72	1092.94
541.934	1078.94
542.147	1081.94
542.361	1103.94
542.575	1082.94
542.789	1087.94
543.002	980.94
543.216	1097.94
543.43	956.94
543.644	1005.94
543.857	948.94
544.071	964.94
544.285	946.94
544.498	951.94
544.712	947.94
544.925	1076.94
545.139	965.94
545.352	948.94
545.566	936.94
545.779	1110.94
545.993	991.94
546.206	874.94
546.42	893.94
546.633	925.94
546.847	888.94
547.06	875.94
547.274	912.94
547.487	898.94
547.7	1001.94
547.914	1026.94
548.127	1162.94
548.34	1092.94
548.554	963.94
548.767	998.94
548.98	1081.94
549.193	998.94
549.407	1060.94
549.62	1224.94
549.833	1143.94
550.046	1181.94
550.259	1214.94
550.473	1061.94
550.686	985.94
550.899	1008.94
551.112	994.94
551.325	1061.94
551.538	1127.94
551.751	956.94
551.964	922.94
552.177	877.94
552.39	895.94
552.603	922.94
552.816	971.94
553.029	894.94
553.242	868.94
553.455	960.94
553.667	1038.94
553.88	993.94
554.093	912.94
554.306	837.94
554.519	830.94
554.732	789.94
554.944	809.94
555.157	800.94
555.37	780.94
555.583	753.94
555.795	812.94
556.008	825.94
556.221	842.94
556.433	793.94
556.646	786.94
556.859	806.94
557.071	867.94
557.284	852.94
557.496	863.94
557.709	826.94
557.921	814.94
558.134	776.94
558.346	757.94
558.559	756.94
558.771	770.94
558.984	878.94
559.196	774.94
559.409	743.94
559.621	741.94
559.833	735.94
560.046	728.94
560.258	733.94
560.47	758.94
560.683	709.94
560.895	688.94
561.107	698.94
561.32	718.94
561.532	708.94
561.744	807.94
561.956	837.94
562.168	727.94
562.381	721.94
562.593	764.94
562.805	786.94
563.017	692.94
563.229	668.94
563.441	696.94
563.653	707.94
563.865	729.94
564.077	692.94
564.289	684.94
564.501	699.94
564.713	771.94
564.925	746.94
565.137	696.94
565.349	717.94
565.561	688.94
565.773	758.94
565.985	757.94
566.197	790.94
566.408	856.94
566.62	887.94
566.832	865.94
567.044	862.94
567.255	941.94
567.467	978.94
567.679	888.94
567.891	889.94
568.102	896.94
568.314	902.94
568.526	857.94
568.737	831.94
568.949	873.94
569.161	783.94
569.372	705.94
569.584	701.94
569.795	708.94
570.007	724.94
570.218	784.94
570.43	741.94
570.641	706.94
570.853	648.94
571.064	657.94
571.276	668.94
571.487	711.94
571.698	669.94
571.91	713.94
572.121	681.94
572.333	622.94
572.544	647.94
572.755	646.94
572.966	634.94
573.178	638.94
573.389	657.94
573.6	658.94
573.811	630.94
574.023	592.94
574.234	583.94
574.445	590.94
574.656	564.94
574.867	590.94
575.078	596.94
575.289	587.94
575.501	631.94
575.712	600.94
575.923	577.94
576.134	553.94
576.345	558.94
576.556	552.94
576.767	528.94
576.978	518.94
577.188	540.94
577.399	532.94
577.61	541.94
577.821	535.94
578.032	554.94
578.243	597.94
578.454	580.94
578.665	594.94
578.875	572.94
579.086	566.94
579.297	570.94
579.508	592.94
579.718	572.94
579.929	550.94
580.14	537.94
580.35	518.94
580.561	510.94
580.772	498.94
580.982	479.94
581.193	478.94
581.403	485.94
581.614	481.94
581.825	471.94
582.035	484.94
582.246	460.94
582.456	493.94
582.667	458.94
582.877	489.94
583.087	466.94
583.298	457.94
583.508	461.94
583.719	471.94
583.929	467.94
584.139	469.94
584.35	469.94
584.56	501.94
584.77	472.94
584.981	479.94
585.191	470.94
585.401	450.94
585.611	494.94
585.821	513.94
586.032	520.94
586.242	478.94
586.452	496.94
586.662	468.94
586.872	514.94
587.082	519.94
587.292	478.94
587.502	472.94
587.713	474.94
587.923	476.94
588.133	521.94
588.343	490.94
588.553	462.94
588.762	453.94
588.972	465.94
589.182	469.94
589.392	445.94
589.602	448.94
589.812	480.94
590.022	526.94
590.232	492.94
590.441	478.94
590.651	462.94
590.861	472.94
591.071	465.94
591.281	472.94
591.49	456.94
591.7	465.94
591.91	461.94
592.119	461.94
592.329	463.94
592.539	484.94
592.748	468.94
592.958	470.94
593.167	458.94
593.377	507.94
593.587	498.94
593.796	509.94
594.006	483.94
594.215	487.94
594.424	497.94
594.634	528.94
594.843	494.94
595.053	456.94
595.262	454.94
595.472	439.94
595.681	438.94
595.89	446.94
596.1	456.94
596.309	464.94
596.518	419.94
596.727	451.94
596.937	428.94
597.146	432.94
597.355	468.94
597.564	437.94
597.774	406.94
597.983	413.94
598.192	408.94
598.401	393.94
598.61	410.94
598.819	406.94
599.028	395.94
599.237	386.94
599.446	391.94
599.655	400.94
599.864	381.94
600.073	390.94
600.282	379.94
600.491	378.94
600.7	368.94
600.909	379.94
601.118	402.94
601.327	377.94
601.536	402.94
601.745	412.94
601.953	424.94
602.162	386.94
602.371	407.94
602.58	415.94
602.789	402.94
602.997	386.94
603.206	378.94
603.415	391.94
603.623	370.94
603.832	382.94
604.041	356.94
604.249	400.94
604.458	399.94
604.666	358.94
604.875	360.94
605.084	357.94
605.292	370.94
605.501	370.94
605.709	375.94
605.918	368.94
606.126	364.94
606.334	372.94
606.543	364.94
606.751	369.94
606.96	356.94
607.168	343.94
607.376	371.94
607.585	348.94
607.793	374.94
608.001	357.94
608.21	344.94
608.418	372.94
608.626	364.94
608.834	355.94
609.043	337.94
609.251	348.94
609.459	351.94
609.667	354.94
609.875	340.94
610.083	331.94
610.291	372.94
610.499	367.94
610.707	357.94
610.916	341.94
611.124	330.94
611.332	341.94
611.54	327.94
611.748	346.94
611.955	339.94
612.163	323.94
612.371	350.94
612.579	345.94
612.787	355.94
612.995	329.94
613.203	337.94
613.411	326.94
613.618	343.94
613.826	346.94
614.034	364.94
614.242	336.94
614.449	314.94
614.657	354.94
614.865	334.94
615.072	355.94
615.28	329.94
615.488	318.94
615.695	310.94
615.903	325.94
616.111	332.94
616.318	352.94
616.526	312.94
616.733	314.94
616.941	321.94
617.148	335.94
617.356	336.94
617.563	324.94
617.771	318.94
617.978	346.94
618.185	328.94
618.393	318.94
618.6	306.94
618.807	308.94
619.015	312.94
619.222	323.94
619.429	339.94
619.637	325.94
619.844	324.94
620.051	327.94
620.258	318.94
620.466	314.94
620.673	288.94
620.88	286.94
621.087	295.94
621.294	316.94
621.501	294.94
621.708	306.94
621.915	313.94
622.122	305.94
622.329	305.94
622.536	302.94
622.743	288.94
622.95	289.94
623.157	299.94
623.364	295.94
623.571	303.94
623.778	296.94
623.985	303.94
624.192	316.94
624.399	305.94
624.606	318.94
624.812	296.94
625.019	310.94
625.226	334.94
625.433	313.94
625.639	292.94
625.846	276.94
626.053	287.94
626.259	280.94
626.466	300.94
626.673	290.94
626.879	290.94
627.086	287.94
627.293	270.94
627.499	281.94
627.706	256.94
627.912	262.94
628.119	279.94
628.325	278.94
628.532	258.94
628.738	273.94
628.945	278.94
629.151	234.94
629.357	270.94
629.564	266.94
629.77	260.94
629.976	260.94
630.183	246.94
630.389	253.94
630.595	276.94
630.802	265.94
631.008	270.94
631.214	281.94
631.42	263.94
631.627	242.94
631.833	258.94
632.039	253.94
632.245	259.94
632.451	229.94
632.657	256.94
632.863	242.94
633.069	244.94
633.275	250.94
633.481	245.94
633.688	226.94
633.893	242.94
634.099	254.94
634.305	241.94
634.511	239.94
634.717	261.94
634.923	242.94
635.129	232.94
635.335	224.94
635.541	238.94
635.747	238.94
635.952	237.94
636.158	245.94
636.364	241.94
636.57	259.94
636.775	247.94
636.981	259.94
637.187	243.94
637.392	236.94
637.598	234.94
637.804	242.94
638.009	245.94
638.215	230.94
638.421	233.94
638.626	224.94
638.832	239.94
639.037	224.94
639.243	218.94
639.448	220.94
639.654	256.94
639.859	232.94
640.065	239.94
640.27	225.94
640.475	234.94
640.681	231.94
640.886	229.94
641.091	241.94
641.297	248.94
641.502	244.94
641.707	238.94
641.913	214.94
642.118	218.94
642.323	256.94
642.528	210.94
642.733	237.94
642.939	228.94
643.144	207.94
643.349	221.94
643.554	225.94
643.759	220.94
643.964	211.94
644.169	227.94
644.374	207.94
644.579	206.94
644.784	218.94
644.989	205.94
645.194	211.94
645.399	216.94
645.604	212.94
645.809	229.94
646.014	222.94
646.219	208.94
646.423	188.94
646.628	210.94
646.833	213.94
647.038	220.94
647.243	216.94
647.447	213.94
647.652	201.94
647.857	220.94
648.062	221.94
648.266	217.94
648.471	209.94
648.676	199.94
648.88	212.94
649.085	224.94
649.289	208.94
649.494	219.94
649.698	218.94
649.903	209.94
650.107	195.94
650.312	204.94
650.516	180.94
650.721	176.94
650.925	199.94
651.13	189.94
651.334	196.94
651.539	187.94
651.743	193.94
651.947	196.94
652.152	186.94
652.356	177.94
652.56	170.94
652.764	180.94
652.969	183.94
653.173	184.94
653.377	175.94
653.581	162.94
653.785	176.94
653.99	156.94
654.194	166.94
654.398	166.94
654.602	163.94
654.806	162.94
655.01	177.94
655.214	160.94
655.418	158.94
655.622	157.94
655.826	150.94
656.03	156.94
656.234	169.94
656.438	172.94
656.642	176.94
656.846	176.94
657.049	145.94
657.253	144.94
657.457	137.94
657.661	145.94
657.865	144.94
658.068	131.94
658.272	136.94
658.476	119.94
658.68	108.94
658.883	115.94
659.087	104.94
659.291	112.94
659.494	122.94
659.698	120.94
659.901	97.94
660.105	97.94
660.309	97.94
660.512	113.94
660.716	103.94
660.919	108.94
661.123	88.94
661.326	93.94
661.53	88.94
661.733	99.94
661.936	86.94
662.14	89.94
662.343	91.94
662.546	77.94
662.75	103.94
662.953	92.94
663.156	93.94
663.36	89.94
663.563	73.94
663.766	85.94
663.969	83.94
664.173	102.94
664.376	76.94
664.579	79.94
664.782	87.94
664.985	94.94
665.188	97.94
665.391	96.94
665.594	71.94
665.797	81.94
666	82.94
666.203	92.94
666.406	63.94
666.609	76.94
666.812	67.94
667.015	103.94
667.218	81.94
667.421	73.94
667.624	84.94
667.827	76.94
668.03	78.94
668.232	88.94
668.435	85.94
668.638	74.94
668.841	88.94
669.043	93.94
669.246	91.94
669.449	89.94
669.651	79.94
669.854	91.94
670.057	83.94
670.259	81.94
670.462	84.94
670.665	87.94
670.867	75.94
671.07	79.94
671.272	93.94
671.475	80.94
671.677	77.94
671.88	79.94
672.082	78.94
672.284	83.94
672.487	99.94
672.689	92.94
672.892	84.94
