Data from NickelSpatula_HRD10591_16-36-04-127.txt Node
Date: Mon Jul 22 16:36:04 EDT 2019
User: cochatt
Spectrometer: HR+D1059
Trigger mode: 1
Integration Time (sec): 1.000000E-1
Scans to average: 1
Electric dark correction enabled: true
Nonlinearity correction enabled: false
Boxcar width: 0
XAxis mode: Wavelengths
Number of Pixels in Spectrum: 2048
>>>>>Begin Spectral Data<<<<<
223.165	-15.62
223.4	-15.62
223.635	-15.62
223.869	-18.62
224.104	-14.62
224.338	-13.62
224.573	-24.62
224.808	-24.62
225.042	2.38
225.277	-22.62
225.511	2.38
225.746	12.38
225.98	12.38
226.215	9.38
226.449	5.38
226.683	26.38
226.918	32.38
227.152	31.38
227.387	35.38
227.621	39.38
227.856	37.38
228.09	30.38
228.324	46.38
228.559	58.38
228.793	43.38
229.027	62.38
229.262	80.38
229.496	69.38
229.73	59.38
229.964	82.38
230.199	77.38
230.433	75.38
230.667	91.38
230.901	74.38
231.136	78.38
231.37	92.38
231.604	86.38
231.838	81.38
232.072	97.38
232.306	91.38
232.541	90.38
232.775	105.38
233.009	93.38
233.243	98.38
233.477	93.38
233.711	110.38
233.945	103.38
234.179	120.38
234.413	119.38
234.647	116.38
234.881	117.38
235.115	106.38
235.349	122.38
235.583	103.38
235.817	97.38
236.051	109.38
236.285	118.38
236.519	104.38
236.753	94.38
236.987	99.38
237.221	99.38
237.455	91.38
237.689	115.38
237.922	120.38
238.156	105.38
238.39	101.38
238.624	133.38
238.858	134.38
239.091	108.38
239.325	116.38
239.559	110.38
239.793	122.38
240.027	115.38
240.26	124.38
240.494	101.38
240.728	95.38
240.961	128.38
241.195	123.38
241.429	118.38
241.662	126.38
241.896	130.38
242.13	108.38
242.363	104.38
242.597	102.38
242.83	104.38
243.064	112.38
243.298	110.38
243.531	135.38
243.765	142.38
243.998	126.38
244.232	117.38
244.465	128.38
244.699	107.38
244.932	140.38
245.166	129.38
245.399	127.38
245.633	115.38
245.866	104.38
246.099	128.38
246.333	135.38
246.566	149.38
246.8	123.38
247.033	135.38
247.266	132.38
247.5	130.38
247.733	131.38
247.966	132.38
248.2	132.38
248.433	138.38
248.666	141.38
248.899	154.38
249.133	143.38
249.366	153.38
249.599	147.38
249.832	145.38
250.066	143.38
250.299	147.38
250.532	139.38
250.765	144.38
250.998	142.38
251.231	128.38
251.465	154.38
251.698	136.38
251.931	139.38
252.164	141.38
252.397	156.38
252.63	170.38
252.863	170.38
253.096	166.38
253.329	174.38
253.562	171.38
253.795	187.38
254.028	200.38
254.261	194.38
254.494	184.38
254.727	175.38
254.96	170.38
255.193	162.38
255.426	172.38
255.659	143.38
255.892	134.38
256.124	144.38
256.357	148.38
256.59	176.38
256.823	168.38
257.056	166.38
257.289	155.38
257.521	158.38
257.754	168.38
257.987	182.38
258.22	164.38
258.452	146.38
258.685	168.38
258.918	169.38
259.151	191.38
259.383	184.38
259.616	208.38
259.849	206.38
260.081	211.38
260.314	218.38
260.547	198.38
260.779	210.38
261.012	216.38
261.244	219.38
261.477	209.38
261.71	201.38
261.942	176.38
262.175	185.38
262.407	167.38
262.64	190.38
262.872	207.38
263.105	201.38
263.337	203.38
263.57	201.38
263.802	154.38
264.035	155.38
264.267	149.38
264.499	115.38
264.732	133.38
264.964	127.38
265.197	129.38
265.429	154.38
265.661	153.38
265.894	138.38
266.126	148.38
266.358	145.38
266.591	179.38
266.823	208.38
267.055	187.38
267.287	194.38
267.52	177.38
267.752	180.38
267.984	193.38
268.216	198.38
268.448	159.38
268.681	168.38
268.913	186.38
269.145	175.38
269.377	176.38
269.609	182.38
269.841	179.38
270.073	172.38
270.306	188.38
270.538	206.38
270.77	218.38
271.002	200.38
271.234	222.38
271.466	194.38
271.698	178.38
271.93	169.38
272.162	181.38
272.394	186.38
272.626	192.38
272.858	186.38
273.09	185.38
273.322	185.38
273.553	163.38
273.785	199.38
274.017	220.38
274.249	262.38
274.481	271.38
274.713	307.38
274.945	315.38
275.176	333.38
275.408	318.38
275.64	273.38
275.872	270.38
276.104	259.38
276.335	244.38
276.567	226.38
276.799	240.38
277.031	251.38
277.262	202.38
277.494	164.38
277.726	175.38
277.957	198.38
278.189	203.38
278.421	197.38
278.652	182.38
278.884	188.38
279.115	174.38
279.347	178.38
279.579	182.38
279.81	187.38
280.042	147.38
280.273	166.38
280.505	169.38
280.736	169.38
280.968	167.38
281.199	160.38
281.431	178.38
281.662	170.38
281.894	165.38
282.125	179.38
282.356	171.38
282.588	181.38
282.819	178.38
283.051	200.38
283.282	211.38
283.513	254.38
283.745	240.38
283.976	248.38
284.207	239.38
284.439	244.38
284.67	256.38
284.901	226.38
285.132	222.38
285.364	238.38
285.595	211.38
285.826	238.38
286.057	240.38
286.288	226.38
286.52	256.38
286.751	239.38
286.982	249.38
287.213	230.38
287.444	211.38
287.675	240.38
287.906	207.38
288.138	198.38
288.369	179.38
288.6	169.38
288.831	198.38
289.062	203.38
289.293	227.38
289.524	205.38
289.755	209.38
289.986	202.38
290.217	184.38
290.448	153.38
290.679	148.38
290.91	143.38
291.141	130.38
291.371	144.38
291.602	159.38
291.833	160.38
292.064	159.38
292.295	175.38
292.526	194.38
292.757	203.38
292.987	190.38
293.218	210.38
293.449	195.38
293.68	214.38
293.91	208.38
294.141	228.38
294.372	202.38
294.603	204.38
294.833	216.38
295.064	219.38
295.295	209.38
295.525	174.38
295.756	157.38
295.987	153.38
296.217	147.38
296.448	145.38
296.679	160.38
296.909	178.38
297.14	164.38
297.37	182.38
297.601	176.38
297.831	169.38
298.062	177.38
298.292	179.38
298.523	200.38
298.753	214.38
298.984	202.38
299.214	183.38
299.445	159.38
299.675	160.38
299.905	154.38
300.136	165.38
300.366	160.38
300.597	156.38
300.827	149.38
301.057	138.38
301.288	165.38
301.518	142.38
301.748	178.38
301.979	200.38
302.209	187.38
302.439	170.38
302.669	178.38
302.9	177.38
303.13	159.38
303.36	157.38
303.59	167.38
303.82	160.38
304.051	170.38
304.281	197.38
304.511	190.38
304.741	168.38
304.971	165.38
305.201	171.38
305.431	163.38
305.661	151.38
305.891	152.38
306.121	147.38
306.352	144.38
306.582	131.38
306.812	141.38
307.042	152.38
307.272	136.38
307.502	126.38
307.731	154.38
307.961	119.38
308.191	150.38
308.421	147.38
308.651	135.38
308.881	137.38
309.111	135.38
309.341	142.38
309.571	154.38
309.8	122.38
310.03	140.38
310.26	159.38
310.49	150.38
310.72	138.38
310.949	145.38
311.179	144.38
311.409	148.38
311.639	150.38
311.868	200.38
312.098	215.38
312.328	229.38
312.557	221.38
312.787	224.38
313.017	200.38
313.246	216.38
313.476	241.38
313.706	191.38
313.935	174.38
314.165	150.38
314.394	145.38
314.624	158.38
314.853	146.38
315.083	161.38
315.312	160.38
315.542	137.38
315.771	138.38
316.001	131.38
316.23	146.38
316.46	149.38
316.689	132.38
316.919	130.38
317.148	151.38
317.377	138.38
317.607	144.38
317.836	146.38
318.065	158.38
318.295	152.38
318.524	164.38
318.753	155.38
318.983	148.38
319.212	146.38
319.441	147.38
319.67	160.38
319.9	164.38
320.129	174.38
320.358	138.38
320.587	155.38
320.816	151.38
321.046	169.38
321.275	171.38
321.504	184.38
321.733	161.38
321.962	160.38
322.191	149.38
322.42	158.38
322.649	167.38
322.878	177.38
323.108	148.38
323.337	164.38
323.566	163.38
323.795	176.38
324.024	146.38
324.253	154.38
324.482	135.38
324.71	143.38
324.939	163.38
325.168	145.38
325.397	152.38
325.626	140.38
325.855	144.38
326.084	144.38
326.313	143.38
326.542	140.38
326.77	148.38
326.999	131.38
327.228	152.38
327.457	158.38
327.686	150.38
327.914	145.38
328.143	123.38
328.372	131.38
328.6	112.38
328.829	116.38
329.058	118.38
329.287	132.38
329.515	134.38
329.744	133.38
329.972	143.38
330.201	134.38
330.43	138.38
330.658	150.38
330.887	162.38
331.115	156.38
331.344	136.38
331.572	135.38
331.801	139.38
332.03	132.38
332.258	141.38
332.486	150.38
332.715	129.38
332.943	139.38
333.172	150.38
333.4	127.38
333.629	147.38
333.857	154.38
334.085	157.38
334.314	161.38
334.542	151.38
334.771	149.38
334.999	137.38
335.227	137.38
335.455	144.38
335.684	147.38
335.912	165.38
336.14	178.38
336.369	166.38
336.597	163.38
336.825	185.38
337.053	170.38
337.281	153.38
337.51	153.38
337.738	142.38
337.966	140.38
338.194	160.38
338.422	157.38
338.65	137.38
338.878	140.38
339.106	149.38
339.334	146.38
339.562	148.38
339.79	133.38
340.018	152.38
340.246	141.38
340.474	172.38
340.702	170.38
340.93	168.38
341.158	158.38
341.386	152.38
341.614	152.38
341.842	147.38
342.07	154.38
342.298	178.38
342.526	204.38
342.754	154.38
342.981	143.38
343.209	143.38
343.437	171.38
343.665	164.38
343.893	171.38
344.12	194.38
344.348	211.38
344.576	196.38
344.804	170.38
345.031	158.38
345.259	144.38
345.487	143.38
345.714	157.38
345.942	161.38
346.17	159.38
346.397	154.38
346.625	136.38
346.853	139.38
347.08	137.38
347.308	151.38
347.535	168.38
347.763	155.38
347.99	146.38
348.218	143.38
348.445	154.38
348.673	148.38
348.9	135.38
349.128	150.38
349.355	152.38
349.583	149.38
349.81	149.38
350.037	143.38
350.265	124.38
350.492	132.38
350.72	144.38
350.947	124.38
351.174	123.38
351.402	148.38
351.629	141.38
351.856	133.38
352.083	133.38
352.311	158.38
352.538	154.38
352.765	163.38
352.992	149.38
353.22	156.38
353.447	152.38
353.674	159.38
353.901	157.38
354.128	147.38
354.355	141.38
354.583	175.38
354.81	154.38
355.037	166.38
355.264	148.38
355.491	150.38
355.718	175.38
355.945	171.38
356.172	154.38
356.399	158.38
356.626	171.38
356.853	216.38
357.08	237.38
357.307	227.38
357.534	182.38
357.761	211.38
357.988	221.38
358.215	252.38
358.441	227.38
358.668	227.38
358.895	199.38
359.122	171.38
359.349	170.38
359.576	165.38
359.802	182.38
360.029	142.38
360.256	160.38
360.483	183.38
360.709	204.38
360.936	213.38
361.163	190.38
361.39	163.38
361.616	150.38
361.843	170.38
362.07	183.38
362.296	164.38
362.523	163.38
362.749	148.38
362.976	147.38
363.203	166.38
363.429	169.38
363.656	152.38
363.882	143.38
364.109	158.38
364.335	148.38
364.562	139.38
364.788	174.38
365.015	176.38
365.241	171.38
365.468	153.38
365.694	134.38
365.92	125.38
366.147	138.38
366.373	127.38
366.599	137.38
366.826	138.38
367.052	139.38
367.278	123.38
367.505	126.38
367.731	142.38
367.957	158.38
368.184	167.38
368.41	143.38
368.636	151.38
368.862	156.38
369.089	155.38
369.315	133.38
369.541	134.38
369.767	130.38
369.993	136.38
370.219	128.38
370.445	150.38
370.672	180.38
370.898	149.38
371.124	162.38
371.35	141.38
371.576	144.38
371.802	148.38
372.028	155.38
372.254	191.38
372.48	154.38
372.706	152.38
372.932	155.38
373.158	160.38
373.384	182.38
373.61	223.38
373.835	217.38
374.061	196.38
374.287	164.38
374.513	188.38
374.739	216.38
374.965	210.38
375.191	203.38
375.416	176.38
375.642	151.38
375.868	170.38
376.094	181.38
376.319	175.38
376.545	157.38
376.771	182.38
376.997	153.38
377.222	120.38
377.448	132.38
377.674	130.38
377.899	138.38
378.125	121.38
378.35	137.38
378.576	125.38
378.802	137.38
379.027	145.38
379.253	145.38
379.478	152.38
379.704	171.38
379.929	166.38
380.155	149.38
380.38	140.38
380.606	168.38
380.831	181.38
381.057	159.38
381.282	162.38
381.507	176.38
381.733	194.38
381.958	193.38
382.184	201.38
382.409	217.38
382.634	233.38
382.86	221.38
383.085	179.38
383.31	167.38
383.535	182.38
383.761	168.38
383.986	183.38
384.211	197.38
384.436	178.38
384.662	158.38
384.887	156.38
385.112	166.38
385.337	178.38
385.562	157.38
385.787	180.38
386.013	173.38
386.238	163.38
386.463	147.38
386.688	156.38
386.913	146.38
387.138	164.38
387.363	169.38
387.588	156.38
387.813	161.38
388.038	140.38
388.263	149.38
388.488	148.38
388.713	167.38
388.938	170.38
389.163	158.38
389.387	135.38
389.612	137.38
389.837	142.38
390.062	144.38
390.287	154.38
390.512	146.38
390.736	144.38
390.961	155.38
391.186	144.38
391.411	154.38
391.636	136.38
391.86	148.38
392.085	163.38
392.31	158.38
392.534	158.38
392.759	152.38
392.984	149.38
393.208	157.38
393.433	151.38
393.658	135.38
393.882	136.38
394.107	126.38
394.331	148.38
394.556	129.38
394.78	120.38
395.005	141.38
395.229	134.38
395.454	130.38
395.678	136.38
395.903	163.38
396.127	139.38
396.352	147.38
396.576	161.38
396.801	166.38
397.025	160.38
397.249	142.38
397.474	143.38
397.698	134.38
397.922	158.38
398.147	144.38
398.371	139.38
398.595	164.38
398.82	150.38
399.044	142.38
399.268	147.38
399.492	158.38
399.717	160.38
399.941	160.38
400.165	154.38
400.389	165.38
400.613	169.38
400.837	153.38
401.062	149.38
401.286	131.38
401.51	142.38
401.734	117.38
401.958	152.38
402.182	149.38
402.406	138.38
402.63	148.38
402.854	153.38
403.078	162.38
403.302	186.38
403.526	215.38
403.75	210.38
403.974	176.38
404.198	172.38
404.422	194.38
404.645	195.38
404.869	196.38
405.093	167.38
405.317	144.38
405.541	158.38
405.765	165.38
405.988	162.38
406.212	167.38
406.436	184.38
406.66	188.38
406.883	169.38
407.107	166.38
407.331	180.38
407.555	192.38
407.778	165.38
408.002	154.38
408.226	174.38
408.449	180.38
408.673	149.38
408.896	137.38
409.12	138.38
409.344	147.38
409.567	132.38
409.791	139.38
410.014	156.38
410.238	159.38
410.461	144.38
410.685	145.38
410.908	147.38
411.132	153.38
411.355	139.38
411.578	154.38
411.802	150.38
412.025	159.38
412.249	153.38
412.472	152.38
412.695	154.38
412.919	148.38
413.142	142.38
413.365	148.38
413.589	160.38
413.812	161.38
414.035	158.38
414.258	155.38
414.482	150.38
414.705	161.38
414.928	133.38
415.151	146.38
415.374	150.38
415.597	136.38
415.821	151.38
416.044	145.38
416.267	159.38
416.49	155.38
416.713	135.38
416.936	139.38
417.159	125.38
417.382	145.38
417.605	139.38
417.828	158.38
418.051	142.38
418.274	153.38
418.497	147.38
418.72	143.38
418.943	167.38
419.166	152.38
419.389	163.38
419.611	171.38
419.834	136.38
420.057	174.38
420.28	169.38
420.503	143.38
420.726	152.38
420.948	157.38
421.171	139.38
421.394	144.38
421.617	144.38
421.839	166.38
422.062	136.38
422.285	125.38
422.507	155.38
422.73	146.38
422.953	139.38
423.175	132.38
423.398	155.38
423.621	182.38
423.843	175.38
424.066	171.38
424.288	144.38
424.511	149.38
424.733	151.38
424.956	159.38
425.178	172.38
425.401	194.38
425.623	213.38
425.846	183.38
426.068	171.38
426.291	163.38
426.513	157.38
426.735	148.38
426.958	160.38
427.18	194.38
427.402	228.38
427.625	220.38
427.847	185.38
428.069	155.38
428.292	145.38
428.514	146.38
428.736	140.38
428.958	154.38
429.181	172.38
429.403	156.38
429.625	151.38
429.847	141.38
430.069	158.38
430.292	158.38
430.514	143.38
430.736	146.38
430.958	170.38
431.18	161.38
431.402	141.38
431.624	131.38
431.846	139.38
432.068	143.38
432.29	139.38
432.512	148.38
432.734	183.38
432.956	175.38
433.178	135.38
433.4	153.38
433.622	159.38
433.844	154.38
434.066	176.38
434.287	143.38
434.509	142.38
434.731	152.38
434.953	142.38
435.175	160.38
435.397	175.38
435.618	162.38
435.84	148.38
436.062	134.38
436.284	136.38
436.505	128.38
436.727	126.38
436.949	133.38
437.17	139.38
437.392	142.38
437.614	149.38
437.835	150.38
438.057	128.38
438.278	158.38
438.5	203.38
438.721	195.38
438.943	154.38
439.165	136.38
439.386	138.38
439.608	123.38
439.829	136.38
440.05	130.38
440.272	132.38
440.493	162.38
440.715	187.38
440.936	155.38
441.158	150.38
441.379	141.38
441.6	177.38
441.822	157.38
442.043	155.38
442.264	152.38
442.486	147.38
442.707	162.38
442.928	142.38
443.149	148.38
443.371	125.38
443.592	158.38
443.813	143.38
444.034	151.38
444.255	149.38
444.476	138.38
444.698	133.38
444.919	140.38
445.14	294.38
445.361	208.38
445.582	136.38
445.803	151.38
446.024	168.38
446.245	163.38
446.466	154.38
446.687	166.38
446.908	137.38
447.129	145.38
447.35	142.38
447.571	149.38
447.792	124.38
448.013	130.38
448.234	130.38
448.455	115.38
448.675	124.38
448.896	122.38
449.117	114.38
449.338	132.38
449.559	148.38
449.779	137.38
450	149.38
450.221	141.38
450.442	139.38
450.662	142.38
450.883	128.38
451.104	135.38
451.324	138.38
451.545	140.38
451.766	144.38
451.986	130.38
452.207	145.38
452.428	124.38
452.648	134.38
452.869	145.38
453.089	155.38
453.31	151.38
453.53	135.38
453.751	130.38
453.971	133.38
454.192	148.38
454.412	144.38
454.633	129.38
454.853	150.38
455.073	120.38
455.294	124.38
455.514	127.38
455.734	136.38
455.955	127.38
456.175	137.38
456.395	120.38
456.616	130.38
456.836	128.38
457.056	135.38
457.276	136.38
457.497	139.38
457.717	119.38
457.937	128.38
458.157	127.38
458.377	126.38
458.598	124.38
458.818	126.38
459.038	126.38
459.258	137.38
459.478	143.38
459.698	162.38
459.918	150.38
460.138	153.38
460.358	153.38
460.578	143.38
460.798	131.38
461.018	156.38
461.238	138.38
461.458	130.38
461.678	152.38
461.898	154.38
462.118	144.38
462.338	162.38
462.558	158.38
462.777	148.38
462.997	152.38
463.217	158.38
463.437	149.38
463.657	171.38
463.876	149.38
464.096	143.38
464.316	134.38
464.536	148.38
464.755	156.38
464.975	177.38
465.195	159.38
465.414	164.38
465.634	163.38
465.854	146.38
466.073	139.38
466.293	139.38
466.512	169.38
466.732	157.38
466.951	162.38
467.171	160.38
467.391	138.38
467.61	137.38
467.829	150.38
468.049	142.38
468.268	147.38
468.488	144.38
468.707	157.38
468.927	175.38
469.146	166.38
469.365	158.38
469.585	150.38
469.804	145.38
470.023	170.38
470.243	160.38
470.462	148.38
470.681	140.38
470.901	139.38
471.12	164.38
471.339	152.38
471.558	144.38
471.777	150.38
471.997	164.38
472.216	173.38
472.435	158.38
472.654	144.38
472.873	163.38
473.092	168.38
473.311	163.38
473.53	162.38
473.749	141.38
473.968	148.38
474.187	153.38
474.406	144.38
474.625	164.38
474.844	146.38
475.063	152.38
475.282	156.38
475.501	176.38
475.72	185.38
475.939	171.38
476.158	175.38
476.377	209.38
476.596	204.38
476.814	201.38
477.033	179.38
477.252	147.38
477.471	152.38
477.69	174.38
477.908	159.38
478.127	174.38
478.346	167.38
478.564	189.38
478.783	174.38
479.002	168.38
479.22	182.38
479.439	187.38
479.658	177.38
479.876	163.38
480.095	172.38
480.313	179.38
480.532	165.38
480.751	170.38
480.969	167.38
481.188	182.38
481.406	170.38
481.624	172.38
481.843	175.38
482.061	163.38
482.28	169.38
482.498	208.38
482.717	218.38
482.935	183.38
483.153	172.38
483.372	155.38
483.59	160.38
483.808	161.38
484.027	160.38
484.245	133.38
484.463	170.38
484.681	149.38
484.9	161.38
485.118	154.38
485.336	158.38
485.554	154.38
485.772	159.38
485.99	178.38
486.209	181.38
486.427	184.38
486.645	171.38
486.863	186.38
487.081	185.38
487.299	211.38
487.517	191.38
487.735	182.38
487.953	174.38
488.171	179.38
488.389	181.38
488.607	173.38
488.825	177.38
489.043	191.38
489.261	202.38
489.479	224.38
489.696	189.38
489.914	159.38
490.132	169.38
490.35	169.38
490.568	157.38
490.786	153.38
491.003	174.38
491.221	156.38
491.439	164.38
491.657	174.38
491.874	174.38
492.092	216.38
492.31	244.38
492.527	244.38
492.745	197.38
492.963	181.38
493.18	187.38
493.398	173.38
493.615	190.38
493.833	180.38
494.05	167.38
494.268	180.38
494.485	198.38
494.703	178.38
494.92	168.38
495.138	180.38
495.355	176.38
495.573	178.38
495.79	198.38
496.008	263.38
496.225	224.38
496.442	199.38
496.66	182.38
496.877	186.38
497.094	195.38
497.312	186.38
497.529	181.38
497.746	180.38
497.963	177.38
498.181	175.38
498.398	214.38
498.615	198.38
498.832	224.38
499.049	233.38
499.267	199.38
499.484	213.38
499.701	208.38
499.918	234.38
500.135	231.38
500.352	252.38
500.569	278.38
500.786	271.38
501.003	245.38
501.22	215.38
501.437	219.38
501.654	225.38
501.871	215.38
502.088	210.38
502.305	206.38
502.522	211.38
502.739	214.38
502.956	184.38
503.172	182.38
503.389	176.38
503.606	178.38
503.823	218.38
504.04	182.38
504.256	192.38
504.473	196.38
504.69	184.38
504.907	180.38
505.123	190.38
505.34	200.38
505.557	187.38
505.773	191.38
505.99	180.38
506.207	192.38
506.423	174.38
506.64	151.38
506.856	185.38
507.073	202.38
507.289	187.38
507.506	185.38
507.722	199.38
507.939	207.38
508.155	185.38
508.372	186.38
508.588	179.38
508.805	181.38
509.021	166.38
509.238	171.38
509.454	168.38
509.67	177.38
509.887	180.38
510.103	182.38
510.319	177.38
510.536	189.38
510.752	149.38
510.968	154.38
511.184	161.38
511.401	172.38
511.617	163.38
511.833	167.38
512.049	152.38
512.265	168.38
512.481	160.38
512.698	176.38
512.914	189.38
513.13	184.38
513.346	164.38
513.562	176.38
513.778	174.38
513.994	186.38
514.21	181.38
514.426	160.38
514.642	172.38
514.858	174.38
515.074	188.38
515.29	191.38
515.506	192.38
515.721	181.38
515.937	182.38
516.153	182.38
516.369	178.38
516.585	177.38
516.801	188.38
517.016	241.38
517.232	210.38
517.448	202.38
517.664	208.38
517.879	184.38
518.095	178.38
518.311	167.38
518.527	190.38
518.742	192.38
518.958	206.38
519.173	211.38
519.389	207.38
519.605	199.38
519.82	194.38
520.036	233.38
520.251	225.38
520.467	230.38
520.682	376.38
520.898	462.38
521.113	414.38
521.329	261.38
521.544	209.38
521.76	217.38
521.975	198.38
522.19	180.38
522.406	189.38
522.621	199.38
522.836	203.38
523.052	217.38
523.267	197.38
523.482	194.38
523.698	203.38
523.913	186.38
524.128	165.38
524.343	184.38
524.559	182.38
524.774	167.38
524.989	186.38
525.204	176.38
525.419	193.38
525.634	186.38
525.849	204.38
526.064	182.38
526.28	197.38
526.495	201.38
526.71	238.38
526.925	207.38
527.14	222.38
527.355	216.38
527.57	177.38
527.785	203.38
527.999	175.38
528.214	166.38
528.429	179.38
528.644	172.38
528.859	148.38
529.074	155.38
529.289	172.38
529.503	154.38
529.718	182.38
529.933	203.38
530.148	205.38
530.363	175.38
530.577	186.38
530.792	178.38
531.007	162.38
531.221	166.38
531.436	150.38
531.651	151.38
531.865	162.38
532.08	171.38
532.295	166.38
532.509	200.38
532.724	200.38
532.938	215.38
533.153	250.38
533.367	194.38
533.582	176.38
533.796	163.38
534.011	163.38
534.225	167.38
534.44	183.38
534.654	181.38
534.868	205.38
535.083	182.38
535.297	162.38
535.511	169.38
535.726	169.38
535.94	161.38
536.154	170.38
536.369	167.38
536.583	160.38
536.797	175.38
537.011	183.38
537.225	172.38
537.44	194.38
537.654	181.38
537.868	158.38
538.082	169.38
538.296	173.38
538.51	188.38
538.724	167.38
538.938	179.38
539.153	154.38
539.367	164.38
539.581	152.38
539.795	166.38
540.009	185.38
540.222	148.38
540.436	182.38
540.65	174.38
540.864	189.38
541.078	195.38
541.292	228.38
541.506	168.38
541.72	176.38
541.934	181.38
542.147	163.38
542.361	179.38
542.575	168.38
542.789	163.38
543.002	131.38
543.216	194.38
543.43	160.38
543.644	161.38
543.857	167.38
544.071	167.38
544.285	150.38
544.498	150.38
544.712	168.38
544.925	167.38
545.139	162.38
545.352	157.38
545.566	161.38
545.779	169.38
545.993	159.38
546.206	147.38
546.42	144.38
546.633	150.38
546.847	135.38
547.06	139.38
547.274	137.38
547.487	159.38
547.7	163.38
547.914	149.38
548.127	178.38
548.34	163.38
548.554	160.38
548.767	155.38
548.98	162.38
549.193	174.38
549.407	153.38
549.62	163.38
549.833	167.38
550.046	181.38
550.259	155.38
550.473	163.38
550.686	169.38
550.899	156.38
551.112	154.38
551.325	152.38
551.538	167.38
551.751	146.38
551.964	162.38
552.177	146.38
552.39	154.38
552.603	154.38
552.816	158.38
553.029	150.38
553.242	153.38
553.455	158.38
553.667	174.38
553.88	154.38
554.093	142.38
554.306	150.38
554.519	150.38
554.732	151.38
554.944	155.38
555.157	153.38
555.37	149.38
555.583	140.38
555.795	144.38
556.008	137.38
556.221	153.38
556.433	150.38
556.646	143.38
556.859	140.38
557.071	158.38
557.284	142.38
557.496	150.38
557.709	153.38
557.921	136.38
558.134	146.38
558.346	120.38
558.559	131.38
558.771	135.38
558.984	154.38
559.196	154.38
559.409	144.38
559.621	134.38
559.833	122.38
560.046	148.38
560.258	141.38
560.47	145.38
560.683	125.38
560.895	146.38
561.107	136.38
561.32	126.38
561.532	139.38
561.744	141.38
561.956	147.38
562.168	131.38
562.381	145.38
562.593	122.38
562.805	152.38
563.017	118.38
563.229	144.38
563.441	138.38
563.653	128.38
563.865	131.38
564.077	126.38
564.289	135.38
564.501	140.38
564.713	145.38
564.925	149.38
565.137	135.38
565.349	142.38
565.561	141.38
565.773	140.38
565.985	158.38
566.197	158.38
566.408	155.38
566.62	160.38
566.832	150.38
567.044	146.38
567.255	138.38
567.467	171.38
567.679	164.38
567.891	160.38
568.102	168.38
568.314	131.38
568.526	167.38
568.737	141.38
568.949	148.38
569.161	137.38
569.372	138.38
569.584	143.38
569.795	146.38
570.007	146.38
570.218	156.38
570.43	146.38
570.641	127.38
570.853	127.38
571.064	123.38
571.276	129.38
571.487	148.38
571.698	126.38
571.91	156.38
572.121	139.38
572.333	124.38
572.544	127.38
572.755	115.38
572.966	139.38
573.178	134.38
573.389	128.38
573.6	141.38
573.811	123.38
574.023	122.38
574.234	124.38
574.445	135.38
574.656	124.38
574.867	131.38
575.078	134.38
575.289	126.38
575.501	132.38
575.712	130.38
575.923	110.38
576.134	131.38
576.345	136.38
576.556	130.38
576.767	112.38
576.978	130.38
577.188	125.38
577.399	119.38
577.61	120.38
577.821	117.38
578.032	121.38
578.243	118.38
578.454	122.38
578.665	126.38
578.875	116.38
579.086	124.38
579.297	132.38
579.508	125.38
579.718	126.38
579.929	134.38
580.14	118.38
580.35	112.38
580.561	99.38
580.772	111.38
580.982	118.38
581.193	118.38
581.403	110.38
581.614	117.38
581.825	115.38
582.035	114.38
582.246	118.38
582.456	120.38
582.667	115.38
582.877	112.38
583.087	105.38
583.298	126.38
583.508	114.38
583.719	108.38
583.929	118.38
584.139	108.38
584.35	116.38
584.56	119.38
584.77	118.38
584.981	113.38
585.191	110.38
585.401	115.38
585.611	122.38
585.821	112.38
586.032	124.38
586.242	114.38
586.452	118.38
586.662	112.38
586.872	120.38
587.082	127.38
587.292	114.38
587.502	118.38
587.713	111.38
587.923	106.38
588.133	124.38
588.343	114.38
588.553	115.38
588.762	120.38
588.972	120.38
589.182	109.38
589.392	118.38
589.602	124.38
589.812	115.38
590.022	127.38
590.232	116.38
590.441	111.38
590.651	117.38
590.861	118.38
591.071	122.38
591.281	111.38
591.49	115.38
591.7	115.38
591.91	111.38
592.119	121.38
592.329	117.38
592.539	119.38
592.748	126.38
592.958	116.38
593.167	116.38
593.377	112.38
593.587	124.38
593.796	118.38
594.006	117.38
594.215	119.38
594.424	127.38
594.634	110.38
594.843	123.38
595.053	118.38
595.262	110.38
595.472	114.38
595.681	113.38
595.89	112.38
596.1	114.38
596.309	118.38
596.518	101.38
596.727	112.38
596.937	107.38
597.146	111.38
597.355	134.38
597.564	116.38
597.774	112.38
597.983	123.38
598.192	108.38
598.401	113.38
598.61	104.38
598.819	106.38
599.028	119.38
599.237	102.38
599.446	112.38
599.655	104.38
599.864	108.38
600.073	104.38
600.282	96.38
600.491	114.38
600.7	111.38
600.909	110.38
601.118	104.38
601.327	111.38
601.536	110.38
601.745	94.38
601.953	124.38
602.162	118.38
602.371	109.38
602.58	118.38
602.789	115.38
602.997	109.38
603.206	103.38
603.415	107.38
603.623	99.38
603.832	105.38
604.041	107.38
604.249	99.38
604.458	99.38
604.666	103.38
604.875	107.38
605.084	98.38
605.292	94.38
605.501	107.38
605.709	101.38
605.918	114.38
606.126	105.38
606.334	103.38
606.543	84.38
606.751	95.38
606.96	102.38
607.168	113.38
607.376	107.38
607.585	112.38
607.793	118.38
608.001	104.38
608.21	111.38
608.418	111.38
608.626	108.38
608.834	112.38
609.043	120.38
609.251	102.38
609.459	105.38
609.667	100.38
609.875	102.38
610.083	104.38
610.291	89.38
610.499	84.38
610.707	104.38
610.916	114.38
611.124	105.38
611.332	105.38
611.54	111.38
611.748	106.38
611.955	108.38
612.163	105.38
612.371	106.38
612.579	103.38
612.787	106.38
612.995	112.38
613.203	118.38
613.411	106.38
613.618	112.38
613.826	99.38
614.034	96.38
614.242	101.38
614.449	102.38
614.657	109.38
614.865	118.38
615.072	104.38
615.28	102.38
615.488	97.38
615.695	91.38
615.903	97.38
616.111	99.38
616.318	101.38
616.526	98.38
616.733	106.38
616.941	114.38
617.148	110.38
617.356	96.38
617.563	104.38
617.771	105.38
617.978	121.38
618.185	99.38
618.393	106.38
618.6	102.38
618.807	100.38
619.015	96.38
619.222	100.38
619.429	107.38
619.637	90.38
619.844	111.38
620.051	116.38
620.258	115.38
620.466	86.38
620.673	95.38
620.88	105.38
621.087	106.38
621.294	89.38
621.501	92.38
621.708	105.38
621.915	111.38
622.122	90.38
622.329	110.38
622.536	96.38
622.743	104.38
622.95	106.38
623.157	112.38
623.364	100.38
623.571	112.38
623.778	90.38
623.985	98.38
624.192	91.38
624.399	100.38
624.606	118.38
624.812	103.38
625.019	94.38
625.226	98.38
625.433	102.38
625.639	98.38
625.846	103.38
626.053	99.38
626.259	92.38
626.466	102.38
626.673	106.38
626.879	105.38
627.086	90.38
627.293	96.38
627.499	104.38
627.706	104.38
627.912	94.38
628.119	96.38
628.325	99.38
628.532	87.38
628.738	97.38
628.945	91.38
629.151	104.38
629.357	101.38
629.564	100.38
629.77	116.38
629.976	86.38
630.183	100.38
630.389	96.38
630.595	84.38
630.802	97.38
631.008	101.38
631.214	89.38
631.42	85.38
631.627	103.38
631.833	95.38
632.039	86.38
632.245	96.38
632.451	90.38
632.657	102.38
632.863	108.38
633.069	103.38
633.275	97.38
633.481	88.38
633.688	99.38
633.893	88.38
634.099	98.38
634.305	104.38
634.511	100.38
634.717	90.38
634.923	95.38
635.129	85.38
635.335	100.38
635.541	82.38
635.747	88.38
635.952	97.38
636.158	96.38
636.364	89.38
636.57	96.38
636.775	94.38
636.981	94.38
637.187	93.38
637.392	83.38
637.598	91.38
637.804	102.38
638.009	90.38
638.215	91.38
638.421	91.38
638.626	95.38
638.832	94.38
639.037	89.38
639.243	97.38
639.448	89.38
639.654	104.38
639.859	105.38
640.065	89.38
640.27	110.38
640.475	101.38
640.681	90.38
640.886	102.38
641.091	109.38
641.297	97.38
641.502	88.38
641.707	92.38
641.913	100.38
642.118	99.38
642.323	94.38
642.528	96.38
642.733	87.38
642.939	82.38
643.144	88.38
643.349	82.38
643.554	73.38
643.759	89.38
643.964	96.38
644.169	105.38
644.374	90.38
644.579	99.38
644.784	96.38
644.989	96.38
645.194	83.38
645.399	101.38
645.604	90.38
645.809	91.38
646.014	105.38
646.219	100.38
646.423	88.38
646.628	94.38
646.833	96.38
647.038	100.38
647.243	97.38
647.447	97.38
647.652	97.38
647.857	99.38
648.062	90.38
648.266	106.38
648.471	96.38
648.676	110.38
648.88	106.38
649.085	90.38
649.289	86.38
649.494	102.38
649.698	99.38
649.903	106.38
650.107	88.38
650.312	94.38
650.516	89.38
650.721	74.38
650.925	69.38
651.13	87.38
651.334	91.38
651.539	86.38
651.743	94.38
651.947	91.38
652.152	87.38
652.356	78.38
652.56	89.38
652.764	75.38
652.969	90.38
653.173	80.38
653.377	102.38
653.581	90.38
653.785	85.38
653.99	93.38
654.194	75.38
654.398	86.38
654.602	82.38
654.806	84.38
655.01	80.38
655.214	89.38
655.418	76.38
655.622	83.38
655.826	80.38
656.03	83.38
656.234	80.38
656.438	78.38
656.642	95.38
656.846	97.38
657.049	82.38
657.253	87.38
657.457	82.38
657.661	80.38
657.865	83.38
658.068	94.38
658.272	79.38
658.476	83.38
658.68	89.38
658.883	83.38
659.087	80.38
659.291	88.38
659.494	86.38
659.698	90.38
659.901	75.38
660.105	75.38
660.309	85.38
660.512	83.38
660.716	106.38
660.919	82.38
661.123	72.38
661.326	80.38
661.53	76.38
661.733	65.38
661.936	73.38
662.14	82.38
662.343	92.38
662.546	78.38
662.75	71.38
662.953	91.38
663.156	86.38
663.36	61.38
663.563	83.38
663.766	86.38
663.969	76.38
664.173	86.38
664.376	78.38
664.579	94.38
664.782	71.38
664.985	80.38
665.188	88.38
665.391	67.38
665.594	77.38
665.797	80.38
666	76.38
666.203	85.38
666.406	87.38
666.609	88.38
666.812	90.38
667.015	60.38
667.218	88.38
667.421	84.38
667.624	82.38
667.827	66.38
668.03	91.38
668.232	76.38
668.435	75.38
668.638	77.38
668.841	84.38
669.043	72.38
669.246	73.38
669.449	77.38
669.651	76.38
669.854	84.38
670.057	86.38
670.259	81.38
670.462	85.38
670.665	75.38
670.867	79.38
671.07	77.38
671.272	81.38
671.475	72.38
671.677	73.38
671.88	80.38
672.082	73.38
672.284	79.38
672.487	72.38
672.689	81.38
672.892	81.38
