Data from NickelSpatula.Lamp.E10.P2_HRD10591_11-59-05-526.txt Node
Date: Tue Jul 23 11:59:05 EDT 2019
User: cochatt
Spectrometer: HR+D1059
Trigger mode: 1
Integration Time (sec): 1.000000E-1
Scans to average: 1
Electric dark correction enabled: true
Nonlinearity correction enabled: false
Boxcar width: 0
XAxis mode: Wavelengths
Number of Pixels in Spectrum: 2048
>>>>>Begin Spectral Data<<<<<
223.165	-15.06
223.4	-15.06
223.635	-15.06
223.869	-15.06
224.104	-12.06
224.338	-12.06
224.573	-7.06
224.808	-16.06
225.042	-7.06
225.277	-0.06
225.511	-0.06
225.746	6.94
225.98	-9.06
226.215	6.94
226.449	10.94
226.683	15.94
226.918	19.94
227.152	32.94
227.387	43.94
227.621	38.94
227.856	36.94
228.09	49.94
228.324	43.94
228.559	63.94
228.793	81.94
229.027	143.94
229.262	155.94
229.496	160.94
229.73	168.94
229.964	185.94
230.199	208.94
230.433	229.94
230.667	202.94
230.901	213.94
231.136	195.94
231.37	204.94
231.604	227.94
231.838	226.94
232.072	256.94
232.306	237.94
232.541	237.94
232.775	241.94
233.009	262.94
233.243	278.94
233.477	321.94
233.711	365.94
233.945	327.94
234.179	305.94
234.413	351.94
234.647	376.94
234.881	447.94
235.115	425.94
235.349	397.94
235.583	343.94
235.817	355.94
236.051	368.94
236.285	433.94
236.519	458.94
236.753	420.94
236.987	422.94
237.221	394.94
237.455	413.94
237.689	424.94
237.922	449.94
238.156	452.94
238.39	537.94
238.624	661.94
238.858	573.94
239.091	507.94
239.325	488.94
239.559	473.94
239.793	559.94
240.027	641.94
240.26	595.94
240.494	555.94
240.728	561.94
240.961	685.94
241.195	653.94
241.429	619.94
241.662	595.94
241.896	495.94
242.13	458.94
242.363	451.94
242.597	453.94
242.83	547.94
243.064	516.94
243.298	589.94
243.531	607.94
243.765	616.94
243.998	606.94
244.232	582.94
244.465	591.94
244.699	585.94
244.932	639.94
245.166	626.94
245.399	559.94
245.633	521.94
245.866	550.94
246.099	592.94
246.333	699.94
246.566	781.94
246.8	755.94
247.033	727.94
247.266	668.94
247.5	663.94
247.733	645.94
247.966	629.94
248.2	690.94
248.433	753.94
248.666	821.94
248.899	837.94
249.133	853.94
249.366	979.94
249.599	1039.94
249.832	893.94
250.066	799.94
250.299	816.94
250.532	820.94
250.765	783.94
250.998	716.94
251.231	671.94
251.465	774.94
251.698	807.94
251.931	768.94
252.164	807.94
252.397	921.94
252.63	1027.94
252.863	1143.94
253.096	1171.94
253.329	1113.94
253.562	1075.94
253.795	1214.94
254.028	1296.94
254.261	1319.94
254.494	1189.94
254.727	1121.94
254.96	1109.94
255.193	1174.94
255.426	1072.94
255.659	821.94
255.892	781.94
256.124	873.94
256.357	986.94
256.59	1188.94
256.823	1109.94
257.056	967.94
257.289	895.94
257.521	928.94
257.754	1114.94
257.987	1254.94
258.22	1101.94
258.452	967.94
258.685	1100.94
258.918	1253.94
259.151	1161.94
259.383	1293.94
259.616	1459.94
259.849	1496.94
260.081	1638.94
260.314	1853.94
260.547	1445.94
260.779	1441.94
261.012	1686.94
261.244	1599.94
261.477	1597.94
261.71	1512.94
261.942	1256.94
262.175	1252.94
262.407	1192.94
262.64	1249.94
262.872	1482.94
263.105	1606.94
263.337	1704.94
263.57	1492.94
263.802	999.94
264.035	885.94
264.267	833.94
264.499	735.94
264.732	707.94
264.964	711.94
265.197	676.94
265.429	749.94
265.661	817.94
265.894	848.94
266.126	904.94
266.358	985.94
266.591	1222.94
266.823	1419.94
267.055	1377.94
267.287	1190.94
267.52	1227.94
267.752	1248.94
267.984	1422.94
268.216	1344.94
268.448	1133.94
268.681	1107.94
268.913	1166.94
269.145	1237.94
269.377	1289.94
269.609	1291.94
269.841	1162.94
270.073	1287.94
270.306	1328.94
270.538	1369.94
270.77	1379.94
271.002	1356.94
271.234	1449.94
271.466	1455.94
271.698	1421.94
271.93	1389.94
272.162	1405.94
272.394	1371.94
272.626	1353.94
272.858	1394.94
273.09	1469.94
273.322	1275.94
273.553	1226.94
273.785	1503.94
274.017	1927.94
274.249	2358.94
274.481	2449.94
274.713	2741.94
274.945	3101.94
275.176	3244.94
275.408	2817.94
275.64	2573.94
275.872	2568.94
276.104	2189.94
276.335	1887.94
276.567	1845.94
276.799	1953.94
277.031	2027.94
277.262	1566.94
277.494	1220.94
277.726	1182.94
277.957	1295.94
278.189	1479.94
278.421	1439.94
278.652	1397.94
278.884	1335.94
279.115	1254.94
279.347	1161.94
279.579	1157.94
279.81	1180.94
280.042	1152.94
280.273	1232.94
280.505	1128.94
280.736	973.94
280.968	980.94
281.199	1078.94
281.431	1203.94
281.662	1190.94
281.894	1159.94
282.125	1199.94
282.356	1315.94
282.588	1358.94
282.819	1252.94
283.051	1337.94
283.282	1659.94
283.513	1959.94
283.745	2112.94
283.976	2152.94
284.207	1996.94
284.439	2041.94
284.67	2012.94
284.901	1763.94
285.132	1866.94
285.364	1975.94
285.595	1832.94
285.826	1915.94
286.057	1969.94
286.288	1948.94
286.52	1943.94
286.751	2027.94
286.982	2033.94
287.213	1741.94
287.444	1675.94
287.675	1840.94
287.906	1788.94
288.138	1491.94
288.369	1299.94
288.6	1261.94
288.831	1296.94
289.062	1488.94
289.293	1682.94
289.524	1561.94
289.755	1552.94
289.986	1580.94
290.217	1386.94
290.448	1095.94
290.679	945.94
290.91	893.94
291.141	887.94
291.371	941.94
291.602	957.94
291.833	965.94
292.064	1039.94
292.295	1175.94
292.526	1373.94
292.757	1447.94
292.987	1518.94
293.218	1510.94
293.449	1545.94
293.68	1666.94
293.91	1553.94
294.141	1579.94
294.372	1489.94
294.603	1401.94
294.833	1528.94
295.064	1805.94
295.295	1663.94
295.525	1245.94
295.756	1101.94
295.987	950.94
296.217	991.94
296.448	999.94
296.679	1101.94
296.909	1171.94
297.14	1295.94
297.37	1373.94
297.601	1333.94
297.831	1153.94
298.062	1221.94
298.292	1383.94
298.523	1549.94
298.753	1720.94
298.984	1567.94
299.214	1251.94
299.445	1051.94
299.675	1000.94
299.905	989.94
300.136	1034.94
300.366	1134.94
300.597	1092.94
300.827	981.94
301.057	974.94
301.288	963.94
301.518	1053.94
301.748	1215.94
301.979	1254.94
302.209	1407.94
302.439	1422.94
302.669	1201.94
302.9	1187.94
303.13	1132.94
303.36	1081.94
303.59	1037.94
303.82	1048.94
304.051	1186.94
304.281	1329.94
304.511	1260.94
304.741	1128.94
304.971	1183.94
305.201	1231.94
305.431	1141.94
305.661	1027.94
305.891	1049.94
306.121	1040.94
306.352	929.94
306.582	852.94
306.812	829.94
307.042	843.94
307.272	795.94
307.502	772.94
307.731	827.94
307.961	888.94
308.191	842.94
308.421	762.94
308.651	783.94
308.881	751.94
309.111	764.94
309.341	818.94
309.571	877.94
309.8	908.94
310.03	920.94
310.26	971.94
310.49	930.94
310.72	838.94
310.949	858.94
311.179	862.94
311.409	904.94
311.639	1049.94
311.868	1366.94
312.098	1752.94
312.328	1891.94
312.557	1839.94
312.787	1819.94
313.017	1645.94
313.246	1773.94
313.476	1903.94
313.706	1575.94
313.935	1244.94
314.165	1032.94
314.394	931.94
314.624	936.94
314.853	985.94
315.083	1010.94
315.312	967.94
315.542	1010.94
315.771	903.94
316.001	844.94
316.23	839.94
316.46	803.94
316.689	852.94
316.919	855.94
317.148	861.94
317.377	861.94
317.607	862.94
317.836	944.94
318.065	1062.94
318.295	1200.94
318.524	1108.94
318.753	958.94
318.983	900.94
319.212	912.94
319.441	1013.94
319.67	1096.94
319.9	1180.94
320.129	1107.94
320.358	966.94
320.587	941.94
320.816	987.94
321.046	1123.94
321.275	1290.94
321.504	1311.94
321.733	1235.94
321.962	1195.94
322.191	1129.94
322.42	1064.94
322.649	1077.94
322.878	1179.94
323.108	1157.94
323.337	1084.94
323.566	1081.94
323.795	1019.94
324.024	1022.94
324.253	960.94
324.482	933.94
324.71	1054.94
324.939	1166.94
325.168	1077.94
325.397	911.94
325.626	897.94
325.855	899.94
326.084	924.94
326.313	861.94
326.542	831.94
326.77	858.94
326.999	889.94
327.228	955.94
327.457	965.94
327.686	991.94
327.914	859.94
328.143	820.94
328.372	796.94
328.6	839.94
328.829	847.94
329.058	870.94
329.287	882.94
329.515	851.94
329.744	871.94
329.972	833.94
330.201	785.94
330.43	811.94
330.658	912.94
330.887	1065.94
331.115	994.94
331.344	952.94
331.572	946.94
331.801	872.94
332.03	829.94
332.258	827.94
332.486	927.94
332.715	955.94
332.943	896.94
333.172	877.94
333.4	910.94
333.629	971.94
333.857	1095.94
334.085	1062.94
334.314	1064.94
334.542	1013.94
334.771	933.94
334.999	942.94
335.227	931.94
335.455	924.94
335.684	993.94
335.912	1180.94
336.14	1288.94
336.369	1221.94
336.597	1188.94
336.825	1310.94
337.053	1474.94
337.281	1193.94
337.51	984.94
337.738	959.94
337.966	1001.94
338.194	1142.94
338.422	1061.94
338.65	941.94
338.878	864.94
339.106	864.94
339.334	1012.94
339.562	1049.94
339.79	955.94
340.018	939.94
340.246	1025.94
340.474	1187.94
340.702	1219.94
340.93	1288.94
341.158	1275.94
341.386	1073.94
341.614	1135.94
341.842	1073.94
342.07	1117.94
342.298	1302.94
342.526	1379.94
342.754	1181.94
342.981	1063.94
343.209	1039.94
343.437	1089.94
343.665	1147.94
343.893	1131.94
344.12	1387.94
344.348	1539.94
344.576	1381.94
344.804	1140.94
345.031	976.94
345.259	947.94
345.487	971.94
345.714	997.94
345.942	1077.94
346.17	1153.94
346.397	1088.94
346.625	996.94
346.853	954.94
347.08	909.94
347.308	989.94
347.535	1098.94
347.763	1109.94
347.99	970.94
348.218	911.94
348.445	942.94
348.673	956.94
348.9	985.94
349.128	1011.94
349.355	1047.94
349.583	1033.94
349.81	1005.94
350.037	925.94
350.265	833.94
350.492	789.94
350.72	789.94
350.947	811.94
351.174	881.94
351.402	915.94
351.629	966.94
351.856	932.94
352.083	872.94
352.311	973.94
352.538	1059.94
352.765	1097.94
352.992	1010.94
353.22	954.94
353.447	988.94
353.674	917.94
353.901	894.94
354.128	944.94
354.355	944.94
354.583	971.94
354.81	957.94
355.037	1008.94
355.264	972.94
355.491	1046.94
355.718	1122.94
355.945	1092.94
356.172	1087.94
356.399	1067.94
356.626	1269.94
356.853	1549.94
357.08	1670.94
357.307	1696.94
357.534	1307.94
357.761	1365.94
357.988	1647.94
358.215	1981.94
358.441	1878.94
358.668	1549.94
358.895	1437.94
359.122	1202.94
359.349	1189.94
359.576	1275.94
359.802	1046.94
360.029	911.94
360.256	980.94
360.483	1251.94
360.709	1576.94
360.936	1606.94
361.163	1380.94
361.39	1101.94
361.616	1037.94
361.843	1180.94
362.07	1452.94
362.296	1323.94
362.523	1040.94
362.749	885.94
362.976	959.94
363.203	1171.94
363.429	1295.94
363.656	1060.94
363.882	971.94
364.109	994.94
364.335	992.94
364.562	956.94
364.788	1081.94
365.015	1255.94
365.241	1120.94
365.468	929.94
365.694	827.94
365.92	805.94
366.147	747.94
366.373	751.94
366.599	748.94
366.826	795.94
367.052	805.94
367.278	803.94
367.505	807.94
367.731	886.94
367.957	996.94
368.184	1018.94
368.41	984.94
368.636	982.94
368.862	1024.94
369.089	995.94
369.315	875.94
369.541	852.94
369.767	857.94
369.993	836.94
370.219	821.94
370.445	902.94
370.672	984.94
370.898	1055.94
371.124	1050.94
371.35	905.94
371.576	904.94
371.802	966.94
372.028	1147.94
372.254	1252.94
372.48	1106.94
372.706	1014.94
372.932	1063.94
373.158	1128.94
373.384	1295.94
373.61	1707.94
373.835	1784.94
374.061	1333.94
374.287	1114.94
374.513	1319.94
374.739	1599.94
374.965	1650.94
375.191	1599.94
375.416	1123.94
375.642	1007.94
375.868	1169.94
376.094	1343.94
376.319	1139.94
376.545	1244.94
376.771	1296.94
376.997	1111.94
377.222	821.94
377.448	751.94
377.674	715.94
377.899	723.94
378.125	751.94
378.35	727.94
378.576	773.94
378.802	827.94
379.027	889.94
379.253	859.94
379.478	885.94
379.704	1014.94
379.929	1057.94
380.155	1042.94
380.38	879.94
380.606	977.94
380.831	1051.94
381.057	1006.94
381.282	963.94
381.507	1141.94
381.733	1384.94
381.958	1517.94
382.184	1599.94
382.409	1634.94
382.634	1623.94
382.86	1671.94
383.085	1372.94
383.31	1104.94
383.535	1185.94
383.761	1221.94
383.986	1135.94
384.211	1383.94
384.436	1345.94
384.662	991.94
384.887	975.94
385.112	1001.94
385.337	969.94
385.562	960.94
385.787	1061.94
386.013	1182.94
386.238	1207.94
386.463	1015.94
386.688	994.94
386.913	945.94
387.138	891.94
387.363	956.94
387.588	964.94
387.813	955.94
388.038	1057.94
388.263	947.94
388.488	905.94
388.713	1051.94
388.938	1172.94
389.163	1012.94
389.387	890.94
389.612	896.94
389.837	927.94
390.062	943.94
390.287	987.94
390.512	1018.94
390.736	936.94
390.961	866.94
391.186	836.94
391.411	831.94
391.636	848.94
391.86	899.94
392.085	965.94
392.31	977.94
392.534	952.94
392.759	912.94
392.984	952.94
393.208	930.94
393.433	863.94
393.658	828.94
393.882	789.94
394.107	783.94
394.331	773.94
394.556	793.94
394.78	782.94
395.005	805.94
395.229	840.94
395.454	860.94
395.678	862.94
395.903	904.94
396.127	862.94
396.352	888.94
396.576	963.94
396.801	1003.94
397.025	1065.94
397.249	1113.94
397.474	931.94
397.698	903.94
397.922	949.94
398.147	889.94
398.371	917.94
398.595	922.94
398.82	914.94
399.044	929.94
399.268	983.94
399.492	1011.94
399.717	1059.94
399.941	1092.94
400.165	1029.94
400.389	1005.94
400.613	1002.94
400.837	1004.94
401.062	897.94
401.286	873.94
401.51	917.94
401.734	860.94
401.958	891.94
402.182	879.94
402.406	889.94
402.63	893.94
402.854	960.94
403.078	1057.94
403.302	1272.94
403.526	1295.94
403.75	1145.94
403.974	1031.94
404.198	1061.94
404.422	1203.94
404.645	1380.94
404.869	1531.94
405.093	1135.94
405.317	987.94
405.541	969.94
405.765	988.94
405.988	1031.94
406.212	1090.94
406.436	1276.94
406.66	1366.94
406.883	1080.94
407.107	1163.94
407.331	1330.94
407.555	1260.94
407.778	1073.94
408.002	1025.94
408.226	1021.94
408.449	1038.94
408.673	1001.94
408.896	911.94
409.12	907.94
409.344	880.94
409.567	869.94
409.791	876.94
410.014	893.94
410.238	868.94
410.461	863.94
410.685	891.94
410.908	880.94
411.132	900.94
411.355	915.94
411.578	944.94
411.802	891.94
412.025	935.94
412.249	981.94
412.472	914.94
412.695	931.94
412.919	922.94
413.142	962.94
413.365	1056.94
413.589	1019.94
413.812	931.94
414.035	906.94
414.258	891.94
414.482	1015.94
414.705	1032.94
414.928	902.94
415.151	847.94
415.374	867.94
415.597	905.94
415.821	883.94
416.044	885.94
416.267	843.94
416.49	847.94
416.713	816.94
416.936	872.94
417.159	860.94
417.382	846.94
417.605	877.94
417.828	882.94
418.051	915.94
418.274	896.94
418.497	930.94
418.72	896.94
418.943	929.94
419.166	966.94
419.389	1003.94
419.611	959.94
419.834	998.94
420.057	1085.94
420.28	1085.94
420.503	976.94
420.726	871.94
420.948	857.94
421.171	868.94
421.394	856.94
421.617	860.94
421.839	875.94
422.062	953.94
422.285	929.94
422.507	918.94
422.73	943.94
422.953	957.94
423.175	934.94
423.398	915.94
423.621	974.94
423.843	1024.94
424.066	941.94
424.288	904.94
424.511	900.94
424.733	904.94
424.956	939.94
425.178	1023.94
425.401	1200.94
425.623	1336.94
425.846	1136.94
426.068	1001.94
426.291	1079.94
426.513	1025.94
426.735	908.94
426.958	951.94
427.18	1142.94
427.402	1447.94
427.625	1423.94
427.847	1136.94
428.069	905.94
428.292	870.94
428.514	901.94
428.736	847.94
428.958	934.94
429.181	1117.94
429.403	953.94
429.625	880.94
429.847	856.94
430.069	879.94
430.292	870.94
430.514	870.94
430.736	942.94
430.958	1148.94
431.18	1029.94
431.402	837.94
431.624	795.94
431.846	777.94
432.068	774.94
432.29	797.94
432.512	892.94
432.734	1201.94
432.956	1108.94
433.178	860.94
433.4	815.94
433.622	826.94
433.844	861.94
434.066	900.94
434.287	912.94
434.509	859.94
434.731	913.94
434.953	829.94
435.175	909.94
435.397	1010.94
435.618	887.94
435.84	800.94
436.062	819.94
436.284	841.94
436.505	781.94
436.727	769.94
436.949	771.94
437.17	831.94
437.392	841.94
437.614	815.94
437.835	840.94
438.057	859.94
438.278	939.94
438.5	1333.94
438.721	1353.94
438.943	922.94
439.165	800.94
439.386	780.94
439.608	782.94
439.829	760.94
440.05	771.94
440.272	849.94
440.493	973.94
440.715	1231.94
440.936	939.94
441.158	851.94
441.379	845.94
441.6	971.94
441.822	1021.94
442.043	885.94
442.264	817.94
442.486	855.94
442.707	830.94
442.928	870.94
443.149	867.94
443.371	877.94
443.592	920.94
443.813	893.94
444.034	865.94
444.255	896.94
444.476	932.94
444.698	918.94
444.919	929.94
445.14	1066.94
445.361	1003.94
445.582	927.94
445.803	917.94
446.024	905.94
446.245	915.94
446.466	917.94
446.687	868.94
446.908	853.94
447.129	820.94
447.35	777.94
447.571	797.94
447.792	787.94
448.013	755.94
448.234	785.94
448.455	744.94
448.675	777.94
448.896	801.94
449.117	800.94
449.338	779.94
449.559	820.94
449.779	845.94
450	828.94
450.221	832.94
450.442	798.94
450.662	776.94
450.883	783.94
451.104	779.94
451.324	782.94
451.545	803.94
451.766	787.94
451.986	769.94
452.207	770.94
452.428	753.94
452.648	755.94
452.869	799.94
453.089	836.94
453.31	813.94
453.53	759.94
453.751	738.94
453.971	742.94
454.192	751.94
454.412	786.94
454.633	723.94
454.853	752.94
455.073	735.94
455.294	721.94
455.514	726.94
455.734	774.94
455.955	771.94
456.175	829.94
456.395	736.94
456.616	685.94
456.836	687.94
457.056	691.94
457.276	698.94
457.497	707.94
457.717	689.94
457.937	684.94
458.157	694.94
458.377	732.94
458.598	733.94
458.818	764.94
459.038	799.94
459.258	792.94
459.478	821.94
459.698	881.94
459.918	896.94
460.138	892.94
460.358	905.94
460.578	867.94
460.798	875.94
461.018	884.94
461.238	863.94
461.458	861.94
461.678	889.94
461.898	899.94
462.118	916.94
462.338	934.94
462.558	960.94
462.777	961.94
462.997	973.94
463.217	999.94
463.437	995.94
463.657	1006.94
463.876	935.94
464.096	958.94
464.316	954.94
464.536	937.94
464.755	1027.94
464.975	1007.94
465.195	946.94
465.414	985.94
465.634	946.94
465.854	935.94
466.073	863.94
466.293	839.94
466.512	913.94
466.732	993.94
466.951	1019.94
467.171	911.94
467.391	875.94
467.61	878.94
467.829	888.94
468.049	919.94
468.268	868.94
468.488	856.94
468.707	895.94
468.927	1043.94
469.146	1141.94
469.365	1036.94
469.585	929.94
469.804	992.94
470.023	1073.94
470.243	914.94
470.462	906.94
470.681	902.94
470.901	908.94
471.12	964.94
471.339	935.94
471.558	900.94
471.777	907.94
471.997	1027.94
472.216	1086.94
472.435	1073.94
472.654	969.94
472.873	925.94
473.092	960.94
473.311	1037.94
473.53	952.94
473.749	893.94
473.968	929.94
474.187	957.94
474.406	901.94
474.625	924.94
474.844	953.94
475.063	1000.94
475.282	1023.94
475.501	1064.94
475.72	1092.94
475.939	1039.94
476.158	1065.94
476.377	1250.94
476.596	1405.94
476.814	1485.94
477.033	1217.94
477.252	1063.94
477.471	968.94
477.69	1009.94
477.908	1069.94
478.127	1134.94
478.346	1047.94
478.564	1117.94
478.783	1086.94
479.002	1102.94
479.22	1283.94
479.439	1382.94
479.658	1197.94
479.876	1091.94
480.095	1192.94
480.313	1195.94
480.532	1092.94
480.751	1085.94
480.969	1100.94
481.188	1248.94
481.406	1282.94
481.624	1203.94
481.843	1106.94
482.061	1073.94
482.28	1175.94
482.498	1469.94
482.717	1367.94
482.935	1184.94
483.153	1119.94
483.372	1053.94
483.59	1052.94
483.808	1022.94
484.027	992.94
484.245	973.94
484.463	937.94
484.681	1015.94
484.9	1082.94
485.118	1156.94
485.336	1092.94
485.554	1029.94
485.772	1065.94
485.99	1167.94
486.209	1226.94
486.427	1207.94
486.645	1173.94
486.863	1183.94
487.081	1202.94
487.299	1317.94
487.517	1316.94
487.735	1208.94
487.953	1248.94
488.171	1249.94
488.389	1171.94
488.607	1112.94
488.825	1165.94
489.043	1237.94
489.261	1385.94
489.479	1511.94
489.696	1271.94
489.914	1157.94
490.132	1136.94
490.35	1109.94
490.568	1133.94
490.786	1096.94
491.003	1125.94
491.221	1151.94
491.439	1116.94
491.657	1161.94
491.874	1236.94
492.092	1467.94
492.31	1720.94
492.527	1679.94
492.745	1510.94
492.963	1283.94
493.18	1312.94
493.398	1289.94
493.615	1264.94
493.833	1227.94
494.05	1222.94
494.268	1246.94
494.485	1209.94
494.703	1203.94
494.92	1209.94
495.138	1183.94
495.355	1186.94
495.573	1212.94
495.79	1326.94
496.008	1731.94
496.225	1515.94
496.442	1307.94
496.66	1299.94
496.877	1418.94
497.094	1380.94
497.312	1277.94
497.529	1289.94
497.746	1300.94
497.963	1376.94
498.181	1447.94
498.398	1549.94
498.615	1624.94
498.832	1668.94
499.049	1681.94
499.267	1501.94
499.484	1516.94
499.701	1587.94
499.918	1728.94
500.135	1861.94
500.352	1823.94
500.569	1965.94
500.786	2021.94
501.003	1983.94
501.22	1770.94
501.437	1716.94
501.654	1606.94
501.871	1595.94
502.088	1598.94
502.305	1487.94
502.522	1485.94
502.739	1480.94
502.956	1346.94
503.172	1333.94
503.389	1306.94
503.606	1281.94
503.823	1280.94
504.04	1267.94
504.256	1293.94
504.473	1340.94
504.69	1334.94
504.907	1378.94
505.123	1357.94
505.34	1413.94
505.557	1414.94
505.773	1317.94
505.99	1255.94
506.207	1350.94
506.423	1238.94
506.64	1156.94
506.856	1230.94
507.073	1346.94
507.289	1301.94
507.506	1315.94
507.722	1401.94
507.939	1417.94
508.155	1402.94
508.372	1275.94
508.588	1254.94
508.805	1175.94
509.021	1192.94
509.238	1155.94
509.454	1141.94
509.67	1164.94
509.887	1187.94
510.103	1293.94
510.319	1279.94
510.536	1191.94
510.752	1075.94
510.968	1051.94
511.184	999.94
511.401	1028.94
511.617	1036.94
511.833	1048.94
512.049	1039.94
512.265	1077.94
512.481	1096.94
512.698	1229.94
512.914	1337.94
513.13	1177.94
513.346	1128.94
513.562	1176.94
513.778	1157.94
513.994	1120.94
514.21	1193.94
514.426	1158.94
514.642	1127.94
514.858	1093.94
515.074	1171.94
515.29	1263.94
515.506	1398.94
515.721	1305.94
515.937	1211.94
516.153	1150.94
516.369	1124.94
516.585	1195.94
516.801	1366.94
517.016	1548.94
517.232	1512.94
517.448	1489.94
517.664	1387.94
517.879	1282.94
518.095	1236.94
518.311	1254.94
518.527	1293.94
518.742	1364.94
518.958	1439.94
519.173	1391.94
519.389	1354.94
519.605	1346.94
519.82	1468.94
520.036	1715.94
520.251	1659.94
520.467	1535.94
520.682	2328.94
520.898	2818.94
521.113	2630.94
521.329	1675.94
521.544	1495.94
521.76	1456.94
521.975	1319.94
522.19	1288.94
522.406	1312.94
522.621	1413.94
522.836	1487.94
523.052	1521.94
523.267	1288.94
523.482	1254.94
523.698	1341.94
523.913	1303.94
524.128	1192.94
524.343	1136.94
524.559	1180.94
524.774	1120.94
524.989	1114.94
525.204	1161.94
525.419	1279.94
525.634	1207.94
525.849	1236.94
526.064	1239.94
526.28	1246.94
526.495	1456.94
526.71	1476.94
526.925	1316.94
527.14	1393.94
527.355	1306.94
527.57	1121.94
527.785	1201.94
527.999	1081.94
528.214	1085.94
528.429	1030.94
528.644	1072.94
528.859	993.94
529.074	973.94
529.289	954.94
529.503	977.94
529.718	1005.94
529.933	1125.94
530.148	1161.94
530.363	1015.94
530.577	999.94
530.792	992.94
531.007	998.94
531.221	958.94
531.436	993.94
531.651	966.94
531.865	981.94
532.08	1025.94
532.295	981.94
532.509	1014.94
532.724	1176.94
532.938	1285.94
533.153	1470.94
533.367	1181.94
533.582	1174.94
533.796	1043.94
534.011	1025.94
534.225	1047.94
534.44	1063.94
534.654	1079.94
534.868	1208.94
535.083	1095.94
535.297	990.94
535.511	1008.94
535.726	1137.94
535.94	1081.94
536.154	1009.94
536.369	940.94
536.583	962.94
536.797	995.94
537.011	990.94
537.225	1080.94
537.44	1142.94
537.654	1011.94
537.868	983.94
538.082	1006.94
538.296	992.94
538.51	1056.94
538.724	1053.94
538.938	1043.94
539.153	965.94
539.367	980.94
539.581	961.94
539.795	1032.94
540.009	1141.94
540.222	1045.94
540.436	1037.94
540.65	1106.94
540.864	1143.94
541.078	1171.94
541.292	1281.94
541.506	1061.94
541.72	1043.94
541.934	1025.94
542.147	1007.94
542.361	987.94
542.575	1025.94
542.789	977.94
543.002	935.94
543.216	1063.94
543.43	932.94
543.644	916.94
543.857	912.94
544.071	928.94
544.285	929.94
544.498	897.94
544.712	911.94
544.925	997.94
545.139	925.94
545.352	886.94
545.566	895.94
545.779	1024.94
545.993	952.94
546.206	848.94
546.42	862.94
546.633	856.94
546.847	842.94
547.06	850.94
547.274	839.94
547.487	885.94
547.7	943.94
547.914	973.94
548.127	1067.94
548.34	1038.94
548.554	975.94
548.767	965.94
548.98	1022.94
549.193	965.94
549.407	978.94
549.62	1155.94
549.833	1119.94
550.046	1131.94
550.259	1134.94
550.473	980.94
550.686	940.94
550.899	991.94
551.112	980.94
551.325	1021.94
551.538	1043.94
551.751	919.94
551.964	879.94
552.177	867.94
552.39	864.94
552.603	882.94
552.816	886.94
553.029	898.94
553.242	848.94
553.455	907.94
553.667	976.94
553.88	946.94
554.093	882.94
554.306	846.94
554.519	799.94
554.732	783.94
554.944	749.94
555.157	759.94
555.37	776.94
555.583	758.94
555.795	769.94
556.008	749.94
556.221	769.94
556.433	780.94
556.646	773.94
556.859	765.94
557.071	824.94
557.284	815.94
557.496	805.94
557.709	786.94
557.921	753.94
558.134	745.94
558.346	702.94
558.559	735.94
558.771	748.94
558.984	805.94
559.196	749.94
559.409	728.94
559.621	709.94
559.833	707.94
560.046	703.94
560.258	731.94
560.47	718.94
560.683	709.94
560.895	657.94
561.107	664.94
561.32	659.94
561.532	664.94
561.744	755.94
561.956	744.94
562.168	698.94
562.381	704.94
562.593	725.94
562.805	725.94
563.017	690.94
563.229	668.94
563.441	669.94
563.653	663.94
563.865	679.94
564.077	701.94
564.289	671.94
564.501	686.94
564.713	749.94
564.925	691.94
565.137	696.94
565.349	667.94
565.561	681.94
565.773	698.94
565.985	743.94
566.197	795.94
566.408	813.94
566.62	857.94
566.832	854.94
567.044	827.94
567.255	901.94
567.467	949.94
567.679	881.94
567.891	895.94
568.102	878.94
568.314	895.94
568.526	828.94
568.737	787.94
568.949	817.94
569.161	754.94
569.372	695.94
569.584	680.94
569.795	659.94
570.007	670.94
570.218	741.94
570.43	710.94
570.641	676.94
570.853	653.94
571.064	645.94
571.276	668.94
571.487	700.94
571.698	655.94
571.91	647.94
572.121	656.94
572.333	621.94
572.544	633.94
572.755	615.94
572.966	596.94
573.178	600.94
573.389	622.94
573.6	635.94
573.811	626.94
574.023	555.94
574.234	561.94
574.445	586.94
574.656	542.94
574.867	575.94
575.078	576.94
575.289	559.94
575.501	629.94
575.712	585.94
575.923	523.94
576.134	531.94
576.345	526.94
576.556	533.94
576.767	521.94
576.978	532.94
577.188	519.94
577.399	516.94
577.61	513.94
577.821	515.94
578.032	540.94
578.243	562.94
578.454	559.94
578.665	549.94
578.875	539.94
579.086	527.94
579.297	576.94
579.508	588.94
579.718	554.94
579.929	530.94
580.14	503.94
580.35	503.94
580.561	486.94
580.772	475.94
580.982	496.94
581.193	464.94
581.403	462.94
581.614	482.94
581.825	476.94
582.035	477.94
582.246	453.94
582.456	461.94
582.667	467.94
582.877	478.94
583.087	450.94
583.298	464.94
583.508	460.94
583.719	437.94
583.929	441.94
584.139	453.94
584.35	455.94
584.56	463.94
584.77	480.94
584.981	491.94
585.191	461.94
585.401	471.94
585.611	446.94
585.821	476.94
586.032	483.94
586.242	459.94
586.452	474.94
586.662	464.94
586.872	496.94
587.082	502.94
587.292	463.94
587.502	465.94
587.713	459.94
587.923	452.94
588.133	467.94
588.343	455.94
588.553	454.94
588.762	470.94
588.972	449.94
589.182	462.94
589.392	439.94
589.602	443.94
589.812	451.94
590.022	508.94
590.232	501.94
590.441	445.94
590.651	446.94
590.861	463.94
591.071	454.94
591.281	433.94
591.49	433.94
591.7	456.94
591.91	435.94
592.119	439.94
592.329	461.94
592.539	439.94
592.748	457.94
592.958	462.94
593.167	452.94
593.377	485.94
593.587	500.94
593.796	477.94
594.006	453.94
594.215	486.94
594.424	475.94
594.634	491.94
594.843	491.94
595.053	457.94
595.262	429.94
595.472	439.94
595.681	440.94
595.89	419.94
596.1	443.94
596.309	429.94
596.518	415.94
596.727	414.94
596.937	394.94
597.146	440.94
597.355	467.94
597.564	419.94
597.774	416.94
597.983	420.94
598.192	413.94
598.401	403.94
598.61	382.94
598.819	372.94
599.028	383.94
599.237	383.94
599.446	376.94
599.655	369.94
599.864	375.94
600.073	388.94
600.282	389.94
600.491	402.94
600.7	385.94
600.909	394.94
601.118	365.94
601.327	364.94
601.536	376.94
601.745	375.94
601.953	413.94
602.162	389.94
602.371	389.94
602.58	391.94
602.789	369.94
602.997	379.94
603.206	363.94
603.415	375.94
603.623	345.94
603.832	358.94
604.041	387.94
604.249	375.94
604.458	396.94
604.666	374.94
604.875	354.94
605.084	335.94
605.292	335.94
605.501	349.94
605.709	367.94
605.918	349.94
606.126	364.94
606.334	339.94
606.543	369.94
606.751	361.94
606.96	345.94
607.168	335.94
607.376	335.94
607.585	336.94
607.793	364.94
608.001	369.94
608.21	347.94
608.418	348.94
608.626	355.94
608.834	354.94
609.043	335.94
609.251	325.94
609.459	336.94
609.667	342.94
609.875	351.94
610.083	349.94
610.291	345.94
610.499	327.94
610.707	340.94
610.916	309.94
611.124	323.94
611.332	327.94
611.54	339.94
611.748	326.94
611.955	323.94
612.163	336.94
612.371	336.94
612.579	335.94
612.787	320.94
612.995	353.94
613.203	329.94
613.411	327.94
613.618	295.94
613.826	343.94
614.034	375.94
614.242	323.94
614.449	334.94
614.657	327.94
614.865	318.94
615.072	311.94
615.28	305.94
615.488	338.94
615.695	323.94
615.903	295.94
616.111	316.94
616.318	331.94
616.526	331.94
616.733	325.94
616.941	310.94
617.148	324.94
617.356	313.94
617.563	322.94
617.771	320.94
617.978	296.94
618.185	312.94
618.393	311.94
618.6	312.94
618.807	318.94
619.015	306.94
619.222	316.94
619.429	314.94
619.637	281.94
619.844	284.94
620.051	305.94
620.258	287.94
620.466	311.94
620.673	301.94
620.88	289.94
621.087	283.94
621.294	287.94
621.501	268.94
621.708	291.94
621.915	285.94
622.122	305.94
622.329	311.94
622.536	275.94
622.743	280.94
622.95	281.94
623.157	290.94
623.364	318.94
623.571	303.94
623.778	312.94
623.985	306.94
624.192	323.94
624.399	295.94
624.606	276.94
624.812	286.94
625.019	310.94
625.226	327.94
625.433	319.94
625.639	273.94
625.846	274.94
626.053	269.94
626.259	277.94
626.466	273.94
626.673	293.94
626.879	271.94
627.086	275.94
627.293	286.94
627.499	261.94
627.706	267.94
627.912	260.94
628.119	261.94
628.325	252.94
628.532	260.94
628.738	266.94
628.945	268.94
629.151	259.94
629.357	255.94
629.564	280.94
629.77	262.94
629.976	236.94
630.183	233.94
630.389	254.94
630.595	262.94
630.802	255.94
631.008	261.94
631.214	251.94
631.42	244.94
631.627	236.94
631.833	261.94
632.039	256.94
632.245	249.94
632.451	235.94
632.657	231.94
632.863	241.94
633.069	235.94
633.275	243.94
633.481	233.94
633.688	231.94
633.893	241.94
634.099	248.94
634.305	242.94
634.511	230.94
634.717	223.94
634.923	235.94
635.129	219.94
635.335	225.94
635.541	211.94
635.747	219.94
635.952	248.94
636.158	253.94
636.364	237.94
636.57	243.94
636.775	225.94
636.981	230.94
637.187	212.94
637.392	235.94
637.598	209.94
637.804	224.94
638.009	213.94
638.215	227.94
638.421	219.94
638.626	212.94
638.832	223.94
639.037	223.94
639.243	228.94
639.448	230.94
639.654	248.94
639.859	214.94
640.065	233.94
640.27	207.94
640.475	223.94
640.681	212.94
640.886	226.94
641.091	219.94
641.297	217.94
641.502	235.94
641.707	226.94
641.913	216.94
642.118	223.94
642.323	219.94
642.528	247.94
642.733	222.94
642.939	217.94
643.144	199.94
643.349	217.94
643.554	216.94
643.759	220.94
643.964	211.94
644.169	224.94
644.374	213.94
644.579	204.94
644.784	195.94
644.989	198.94
645.194	197.94
645.399	198.94
645.604	207.94
645.809	203.94
646.014	211.94
646.219	201.94
646.423	205.94
646.628	201.94
646.833	189.94
647.038	207.94
647.243	215.94
647.447	200.94
647.652	195.94
647.857	207.94
648.062	202.94
648.266	218.94
648.471	212.94
648.676	197.94
648.88	219.94
649.085	207.94
649.289	195.94
649.494	192.94
649.698	213.94
649.903	215.94
650.107	207.94
650.312	207.94
650.516	203.94
650.721	207.94
650.925	184.94
651.13	191.94
651.334	183.94
651.539	194.94
651.743	184.94
651.947	179.94
652.152	179.94
652.356	171.94
652.56	167.94
652.764	165.94
652.969	168.94
653.173	167.94
653.377	171.94
653.581	173.94
653.785	145.94
653.99	163.94
654.194	152.94
654.398	165.94
654.602	165.94
654.806	169.94
655.01	155.94
655.214	173.94
655.418	169.94
655.622	154.94
655.826	160.94
656.03	150.94
656.234	157.94
656.438	172.94
656.642	174.94
656.846	167.94
657.049	144.94
657.253	146.94
657.457	145.94
657.661	130.94
657.865	133.94
658.068	127.94
658.272	125.94
658.476	127.94
658.68	112.94
658.883	108.94
659.087	113.94
659.291	104.94
659.494	110.94
659.698	113.94
659.901	108.94
660.105	107.94
660.309	115.94
660.512	104.94
660.716	97.94
660.919	105.94
661.123	86.94
661.326	85.94
661.53	94.94
661.733	95.94
661.936	95.94
662.14	92.94
662.343	90.94
662.546	78.94
662.75	84.94
662.953	88.94
663.156	86.94
663.36	84.94
663.563	75.94
663.766	89.94
663.969	94.94
664.173	69.94
664.376	71.94
664.579	84.94
664.782	82.94
664.985	76.94
665.188	84.94
665.391	82.94
665.594	75.94
665.797	87.94
666	75.94
666.203	79.94
666.406	81.94
666.609	83.94
666.812	94.94
667.015	95.94
667.218	72.94
667.421	97.94
667.624	80.94
667.827	89.94
668.03	90.94
668.232	75.94
668.435	80.94
668.638	87.94
668.841	87.94
669.043	91.94
669.246	96.94
669.449	91.94
669.651	81.94
669.854	85.94
670.057	84.94
670.259	71.94
670.462	90.94
670.665	80.94
670.867	73.94
671.07	76.94
671.272	89.94
671.475	74.94
671.677	100.94
671.88	91.94
672.082	79.94
672.284	77.94
672.487	93.94
672.689	76.94
672.892	88.94
