Data from NickelSpatula.Lamp.E10.P2_HRD10591_11-58-41-527.txt Node
Date: Tue Jul 23 11:58:41 EDT 2019
User: cochatt
Spectrometer: HR+D1059
Trigger mode: 1
Integration Time (sec): 1.000000E-1
Scans to average: 1
Electric dark correction enabled: true
Nonlinearity correction enabled: false
Boxcar width: 0
XAxis mode: Wavelengths
Number of Pixels in Spectrum: 2048
>>>>>Begin Spectral Data<<<<<
223.165	-11.38
223.4	-11.38
223.635	-11.38
223.869	-20.38
224.104	-21.38
224.338	-23.38
224.573	-10.38
224.808	-1.38
225.042	-21.38
225.277	-14.38
225.511	0.62
225.746	6.62
225.98	0.62
226.215	8.62
226.449	25.62
226.683	19.62
226.918	33.62
227.152	28.62
227.387	37.62
227.621	36.62
227.856	36.62
228.09	60.62
228.324	49.62
228.559	63.62
228.793	73.62
229.027	148.62
229.262	172.62
229.496	149.62
229.73	163.62
229.964	194.62
230.199	213.62
230.433	220.62
230.667	206.62
230.901	202.62
231.136	204.62
231.37	210.62
231.604	213.62
231.838	238.62
232.072	238.62
232.306	232.62
232.541	240.62
232.775	254.62
233.009	284.62
233.243	294.62
233.477	331.62
233.711	340.62
233.945	334.62
234.179	333.62
234.413	347.62
234.647	393.62
234.881	478.62
235.115	424.62
235.349	400.62
235.583	354.62
235.817	329.62
236.051	380.62
236.285	427.62
236.519	458.62
236.753	433.62
236.987	422.62
237.221	416.62
237.455	419.62
237.689	419.62
237.922	460.62
238.156	480.62
238.39	568.62
238.624	663.62
238.858	587.62
239.091	488.62
239.325	508.62
239.559	489.62
239.793	540.62
240.027	658.62
240.26	589.62
240.494	600.62
240.728	607.62
240.961	674.62
241.195	639.62
241.429	620.62
241.662	615.62
241.896	512.62
242.13	491.62
242.363	454.62
242.597	472.62
242.83	551.62
243.064	540.62
243.298	581.62
243.531	622.62
243.765	632.62
243.998	628.62
244.232	583.62
244.465	605.62
244.699	577.62
244.932	645.62
245.166	613.62
245.399	530.62
245.633	540.62
245.866	592.62
246.099	625.62
246.333	680.62
246.566	757.62
246.8	772.62
247.033	750.62
247.266	689.62
247.5	704.62
247.733	679.62
247.966	644.62
248.2	687.62
248.433	768.62
248.666	834.62
248.899	831.62
249.133	876.62
249.366	987.62
249.599	1061.62
249.832	949.62
250.066	796.62
250.299	828.62
250.532	799.62
250.765	805.62
250.998	742.62
251.231	725.62
251.465	773.62
251.698	829.62
251.931	827.62
252.164	848.62
252.397	937.62
252.63	1060.62
252.863	1171.62
253.096	1232.62
253.329	1159.62
253.562	1085.62
253.795	1227.62
254.028	1336.62
254.261	1381.62
254.494	1237.62
254.727	1127.62
254.96	1134.62
255.193	1178.62
255.426	1113.62
255.659	885.62
255.892	808.62
256.124	868.62
256.357	1023.62
256.59	1209.62
256.823	1125.62
257.056	974.62
257.289	897.62
257.521	938.62
257.754	1112.62
257.987	1276.62
258.22	1118.62
258.452	996.62
258.685	1153.62
258.918	1258.62
259.151	1253.62
259.383	1272.62
259.616	1473.62
259.849	1577.62
260.081	1736.62
260.314	1922.62
260.547	1464.62
260.779	1470.62
261.012	1689.62
261.244	1589.62
261.477	1634.62
261.71	1540.62
261.942	1313.62
262.175	1282.62
262.407	1250.62
262.64	1292.62
262.872	1523.62
263.105	1634.62
263.337	1710.62
263.57	1520.62
263.802	1047.62
264.035	903.62
264.267	867.62
264.499	775.62
264.732	705.62
264.964	711.62
265.197	712.62
265.429	745.62
265.661	798.62
265.894	846.62
266.126	917.62
266.358	1000.62
266.591	1240.62
266.823	1495.62
267.055	1404.62
267.287	1232.62
267.52	1224.62
267.752	1296.62
267.984	1458.62
268.216	1356.62
268.448	1092.62
268.681	1127.62
268.913	1173.62
269.145	1262.62
269.377	1293.62
269.609	1283.62
269.841	1225.62
270.073	1295.62
270.306	1342.62
270.538	1370.62
270.77	1404.62
271.002	1404.62
271.234	1418.62
271.466	1482.62
271.698	1476.62
271.93	1418.62
272.162	1426.62
272.394	1395.62
272.626	1412.62
272.858	1410.62
273.09	1460.62
273.322	1330.62
273.553	1294.62
273.785	1490.62
274.017	1995.62
274.249	2431.62
274.481	2512.62
274.713	2754.62
274.945	3193.62
275.176	3305.62
275.408	2857.62
275.64	2626.62
275.872	2577.62
276.104	2225.62
276.335	1862.62
276.567	1917.62
276.799	1923.62
277.031	2042.62
277.262	1593.62
277.494	1218.62
277.726	1187.62
277.957	1311.62
278.189	1509.62
278.421	1458.62
278.652	1442.62
278.884	1378.62
279.115	1229.62
279.347	1182.62
279.579	1188.62
279.81	1212.62
280.042	1195.62
280.273	1225.62
280.505	1135.62
280.736	1017.62
280.968	997.62
281.199	1076.62
281.431	1239.62
281.662	1192.62
281.894	1189.62
282.125	1250.62
282.356	1327.62
282.588	1377.62
282.819	1254.62
283.051	1354.62
283.282	1671.62
283.513	1953.62
283.745	2193.62
283.976	2135.62
284.207	2014.62
284.439	2066.62
284.67	1985.62
284.901	1728.62
285.132	1909.62
285.364	1996.62
285.595	1860.62
285.826	1965.62
286.057	2004.62
286.288	1953.62
286.52	2008.62
286.751	2078.62
286.982	2068.62
287.213	1769.62
287.444	1772.62
287.675	1826.62
287.906	1808.62
288.138	1559.62
288.369	1337.62
288.6	1267.62
288.831	1310.62
289.062	1519.62
289.293	1662.62
289.524	1585.62
289.755	1601.62
289.986	1610.62
290.217	1422.62
290.448	1113.62
290.679	974.62
290.91	900.62
291.141	925.62
291.371	967.62
291.602	1006.62
291.833	988.62
292.064	1082.62
292.295	1223.62
292.526	1406.62
292.757	1432.62
292.987	1541.62
293.218	1556.62
293.449	1558.62
293.68	1645.62
293.91	1608.62
294.141	1630.62
294.372	1538.62
294.603	1404.62
294.833	1565.62
295.064	1803.62
295.295	1699.62
295.525	1291.62
295.756	1133.62
295.987	964.62
296.217	1007.62
296.448	1052.62
296.679	1096.62
296.909	1198.62
297.14	1313.62
297.37	1434.62
297.601	1378.62
297.831	1160.62
298.062	1242.62
298.292	1426.62
298.523	1565.62
298.753	1774.62
298.984	1592.62
299.214	1228.62
299.445	1063.62
299.675	1022.62
299.905	1031.62
300.136	1067.62
300.366	1192.62
300.597	1136.62
300.827	1001.62
301.057	974.62
301.288	993.62
301.518	1066.62
301.748	1221.62
301.979	1279.62
302.209	1463.62
302.439	1448.62
302.669	1233.62
302.9	1237.62
303.13	1159.62
303.36	1103.62
303.59	1002.62
303.82	1125.62
304.051	1212.62
304.281	1320.62
304.511	1280.62
304.741	1117.62
304.971	1161.62
305.201	1305.62
305.431	1219.62
305.661	1046.62
305.891	1012.62
306.121	1073.62
306.352	960.62
306.582	879.62
306.812	862.62
307.042	869.62
307.272	805.62
307.502	800.62
307.731	858.62
307.961	913.62
308.191	828.62
308.421	787.62
308.651	801.62
308.881	773.62
309.111	793.62
309.341	818.62
309.571	881.62
309.8	892.62
310.03	912.62
310.26	985.62
310.49	956.62
310.72	847.62
310.949	838.62
311.179	851.62
311.409	917.62
311.639	1076.62
311.868	1394.62
312.098	1746.62
312.328	1929.62
312.557	1860.62
312.787	1840.62
313.017	1651.62
313.246	1796.62
313.476	1971.62
313.706	1618.62
313.935	1290.62
314.165	1011.62
314.394	936.62
314.624	928.62
314.853	983.62
315.083	1035.62
315.312	1012.62
315.542	1018.62
315.771	949.62
316.001	854.62
316.23	853.62
316.46	800.62
316.689	857.62
316.919	887.62
317.148	867.62
317.377	856.62
317.607	888.62
317.836	938.62
318.065	1098.62
318.295	1235.62
318.524	1109.62
318.753	963.62
318.983	933.62
319.212	914.62
319.441	972.62
319.67	1112.62
319.9	1213.62
320.129	1124.62
320.358	976.62
320.587	952.62
320.816	1011.62
321.046	1170.62
321.275	1314.62
321.504	1312.62
321.733	1244.62
321.962	1210.62
322.191	1168.62
322.42	1079.62
322.649	1078.62
322.878	1208.62
323.108	1208.62
323.337	1112.62
323.566	1066.62
323.795	1027.62
324.024	1031.62
324.253	965.62
324.482	993.62
324.71	1067.62
324.939	1193.62
325.168	1135.62
325.397	904.62
325.626	895.62
325.855	904.62
326.084	931.62
326.313	855.62
326.542	799.62
326.77	872.62
326.999	864.62
327.228	969.62
327.457	991.62
327.686	1007.62
327.914	869.62
328.143	834.62
328.372	824.62
328.6	834.62
328.829	871.62
329.058	881.62
329.287	880.62
329.515	905.62
329.744	868.62
329.972	814.62
330.201	777.62
330.43	825.62
330.658	954.62
330.887	1084.62
331.115	1024.62
331.344	988.62
331.572	953.62
331.801	894.62
332.03	855.62
332.258	860.62
332.486	944.62
332.715	951.62
332.943	912.62
333.172	892.62
333.4	919.62
333.629	1008.62
333.857	1114.62
334.085	1070.62
334.314	1089.62
334.542	1028.62
334.771	967.62
334.999	927.62
335.227	928.62
335.455	920.62
335.684	1021.62
335.912	1179.62
336.14	1306.62
336.369	1246.62
336.597	1212.62
336.825	1357.62
337.053	1481.62
337.281	1208.62
337.51	984.62
337.738	978.62
337.966	1062.62
338.194	1174.62
338.422	1076.62
338.65	963.62
338.878	846.62
339.106	923.62
339.334	996.62
339.562	1071.62
339.79	1028.62
340.018	928.62
340.246	1040.62
340.474	1190.62
340.702	1269.62
340.93	1300.62
341.158	1326.62
341.386	1104.62
341.614	1086.62
341.842	1085.62
342.07	1141.62
342.298	1294.62
342.526	1397.62
342.754	1191.62
342.981	1102.62
343.209	1043.62
343.437	1120.62
343.665	1164.62
343.893	1194.62
344.12	1356.62
344.348	1591.62
344.576	1420.62
344.804	1160.62
345.031	1015.62
345.259	978.62
345.487	983.62
345.714	1016.62
345.942	1081.62
346.17	1196.62
346.397	1116.62
346.625	970.62
346.853	949.62
347.08	950.62
347.308	1002.62
347.535	1119.62
347.763	1099.62
347.99	990.62
348.218	910.62
348.445	958.62
348.673	947.62
348.9	963.62
349.128	1048.62
349.355	1080.62
349.583	1033.62
349.81	1011.62
350.037	921.62
350.265	853.62
350.492	797.62
350.72	778.62
350.947	828.62
351.174	867.62
351.402	929.62
351.629	968.62
351.856	907.62
352.083	882.62
352.311	959.62
352.538	1085.62
352.765	1141.62
352.992	1020.62
353.22	967.62
353.447	1010.62
353.674	942.62
353.901	946.62
354.128	959.62
354.355	1016.62
354.583	974.62
354.81	971.62
355.037	994.62
355.264	988.62
355.491	1087.62
355.718	1161.62
355.945	1113.62
356.172	1084.62
356.399	1097.62
356.626	1351.62
356.853	1577.62
357.08	1677.62
357.307	1757.62
357.534	1377.62
357.761	1374.62
357.988	1745.62
358.215	2019.62
358.441	1948.62
358.668	1593.62
358.895	1472.62
359.122	1189.62
359.349	1198.62
359.576	1298.62
359.802	1086.62
360.029	935.62
360.256	1012.62
360.483	1270.62
360.709	1541.62
360.936	1653.62
361.163	1428.62
361.39	1122.62
361.616	1033.62
361.843	1214.62
362.07	1482.62
362.296	1360.62
362.523	1078.62
362.749	921.62
362.976	994.62
363.203	1190.62
363.429	1350.62
363.656	1092.62
363.882	960.62
364.109	990.62
364.335	968.62
364.562	983.62
364.788	1082.62
365.015	1317.62
365.241	1152.62
365.468	950.62
365.694	823.62
365.92	800.62
366.147	794.62
366.373	761.62
366.599	789.62
366.826	765.62
367.052	824.62
367.278	814.62
367.505	839.62
367.731	913.62
367.957	1006.62
368.184	1023.62
368.41	1001.62
368.636	993.62
368.862	1048.62
369.089	1001.62
369.315	917.62
369.541	898.62
369.767	898.62
369.993	830.62
370.219	879.62
370.445	917.62
370.672	966.62
370.898	1098.62
371.124	1061.62
371.35	935.62
371.576	893.62
371.802	954.62
372.028	1120.62
372.254	1310.62
372.48	1134.62
372.706	1012.62
372.932	1095.62
373.158	1116.62
373.384	1328.62
373.61	1793.62
373.835	1858.62
374.061	1362.62
374.287	1151.62
374.513	1371.62
374.739	1637.62
374.965	1672.62
375.191	1645.62
375.416	1144.62
375.642	1020.62
375.868	1205.62
376.094	1348.62
376.319	1160.62
376.545	1300.62
376.771	1346.62
376.997	1157.62
377.222	898.62
377.448	753.62
377.674	752.62
377.899	746.62
378.125	733.62
378.35	739.62
378.576	785.62
378.802	846.62
379.027	890.62
379.253	877.62
379.478	904.62
379.704	1022.62
379.929	1078.62
380.155	1075.62
380.38	961.62
380.606	992.62
380.831	1115.62
381.057	1025.62
381.282	985.62
381.507	1177.62
381.733	1420.62
381.958	1502.62
382.184	1647.62
382.409	1689.62
382.634	1667.62
382.86	1717.62
383.085	1416.62
383.31	1111.62
383.535	1214.62
383.761	1185.62
383.986	1162.62
384.211	1389.62
384.436	1318.62
384.662	1011.62
384.887	980.62
385.112	1014.62
385.337	1028.62
385.562	973.62
385.787	1114.62
386.013	1196.62
386.238	1221.62
386.463	1028.62
386.688	964.62
386.913	894.62
387.138	882.62
387.363	960.62
387.588	1004.62
387.813	988.62
388.038	1094.62
388.263	962.62
388.488	953.62
388.713	1096.62
388.938	1182.62
389.163	1005.62
389.387	919.62
389.612	885.62
389.837	941.62
390.062	966.62
390.287	977.62
390.512	1024.62
390.736	918.62
390.961	881.62
391.186	845.62
391.411	828.62
391.636	816.62
391.86	892.62
392.085	984.62
392.31	986.62
392.534	934.62
392.759	920.62
392.984	974.62
393.208	977.62
393.433	855.62
393.658	782.62
393.882	792.62
394.107	804.62
394.331	769.62
394.556	777.62
394.78	828.62
395.005	834.62
395.229	860.62
395.454	834.62
395.678	884.62
395.903	914.62
396.127	884.62
396.352	886.62
396.576	946.62
396.801	1018.62
397.025	1087.62
397.249	1079.62
397.474	925.62
397.698	910.62
397.922	1002.62
398.147	896.62
398.371	912.62
398.595	989.62
398.82	977.62
399.044	963.62
399.268	1024.62
399.492	1044.62
399.717	1050.62
399.941	1094.62
400.165	1068.62
400.389	1034.62
400.613	1060.62
400.837	1044.62
401.062	897.62
401.286	888.62
401.51	895.62
401.734	913.62
401.958	906.62
402.182	886.62
402.406	882.62
402.63	903.62
402.854	957.62
403.078	1032.62
403.302	1256.62
403.526	1311.62
403.75	1170.62
403.974	1004.62
404.198	1077.62
404.422	1187.62
404.645	1414.62
404.869	1544.62
405.093	1181.62
405.317	980.62
405.541	945.62
405.765	992.62
405.988	994.62
406.212	1082.62
406.436	1270.62
406.66	1396.62
406.883	1113.62
407.107	1170.62
407.331	1387.62
407.555	1306.62
407.778	1125.62
408.002	1052.62
408.226	1015.62
408.449	1046.62
408.673	1001.62
408.896	936.62
409.12	886.62
409.344	922.62
409.567	868.62
409.791	891.62
410.014	854.62
410.238	886.62
410.461	855.62
410.685	885.62
410.908	885.62
411.132	898.62
411.355	896.62
411.578	944.62
411.802	923.62
412.025	972.62
412.249	977.62
412.472	937.62
412.695	954.62
412.919	946.62
413.142	953.62
413.365	1030.62
413.589	1046.62
413.812	968.62
414.035	886.62
414.258	929.62
414.482	1030.62
414.705	1062.62
414.928	898.62
415.151	867.62
415.374	881.62
415.597	906.62
415.821	915.62
416.044	881.62
416.267	886.62
416.49	882.62
416.713	847.62
416.936	848.62
417.159	835.62
417.382	854.62
417.605	880.62
417.828	924.62
418.051	885.62
418.274	910.62
418.497	920.62
418.72	954.62
418.943	958.62
419.166	976.62
419.389	1029.62
419.611	1000.62
419.834	993.62
420.057	1103.62
420.28	1073.62
420.503	998.62
420.726	901.62
420.948	862.62
421.171	885.62
421.394	882.62
421.617	853.62
421.839	860.62
422.062	919.62
422.285	944.62
422.507	932.62
422.73	945.62
422.953	964.62
423.175	960.62
423.398	924.62
423.621	997.62
423.843	1030.62
424.066	976.62
424.288	914.62
424.511	885.62
424.733	912.62
424.956	940.62
425.178	1072.62
425.401	1204.62
425.623	1363.62
425.846	1138.62
426.068	974.62
426.291	1106.62
426.513	1008.62
426.735	918.62
426.958	998.62
427.18	1155.62
427.402	1480.62
427.625	1446.62
427.847	1156.62
428.069	889.62
428.292	896.62
428.514	893.62
428.736	850.62
428.958	954.62
429.181	1101.62
429.403	988.62
429.625	894.62
429.847	856.62
430.069	906.62
430.292	888.62
430.514	866.62
430.736	946.62
430.958	1191.62
431.18	1061.62
431.402	852.62
431.624	821.62
431.846	796.62
432.068	786.62
432.29	823.62
432.512	919.62
432.734	1202.62
432.956	1143.62
433.178	873.62
433.4	823.62
433.622	854.62
433.844	868.62
434.066	918.62
434.287	918.62
434.509	884.62
434.731	931.62
434.953	885.62
435.175	909.62
435.397	999.62
435.618	912.62
435.84	809.62
436.062	829.62
436.284	797.62
436.505	789.62
436.727	787.62
436.949	799.62
437.17	833.62
437.392	849.62
437.614	824.62
437.835	808.62
438.057	826.62
438.278	993.62
438.5	1367.62
438.721	1404.62
438.943	950.62
439.165	807.62
439.386	756.62
439.608	790.62
439.829	801.62
440.05	764.62
440.272	843.62
440.493	1001.62
440.715	1218.62
440.936	975.62
441.158	852.62
441.379	865.62
441.6	993.62
441.822	1031.62
442.043	865.62
442.264	872.62
442.486	893.62
442.707	860.62
442.928	852.62
443.149	895.62
443.371	884.62
443.592	915.62
443.813	942.62
444.034	882.62
444.255	880.62
444.476	932.62
444.698	934.62
444.919	937.62
445.14	1093.62
445.361	1037.62
445.582	951.62
445.803	914.62
446.024	959.62
446.245	923.62
446.466	928.62
446.687	839.62
446.908	881.62
447.129	837.62
447.35	820.62
447.571	784.62
447.792	801.62
448.013	782.62
448.234	772.62
448.455	781.62
448.675	799.62
448.896	811.62
449.117	782.62
449.338	796.62
449.559	840.62
449.779	873.62
450	861.62
450.221	839.62
450.442	814.62
450.662	802.62
450.883	796.62
451.104	816.62
451.324	793.62
451.545	807.62
451.766	785.62
451.986	769.62
452.207	770.62
452.428	784.62
452.648	782.62
452.869	797.62
453.089	843.62
453.31	848.62
453.53	756.62
453.751	737.62
453.971	746.62
454.192	781.62
454.412	762.62
454.633	756.62
454.853	725.62
455.073	713.62
455.294	731.62
455.514	735.62
455.734	765.62
455.955	807.62
456.175	816.62
456.395	749.62
456.616	708.62
456.836	698.62
457.056	674.62
457.276	696.62
457.497	717.62
457.717	705.62
457.937	705.62
458.157	724.62
458.377	716.62
458.598	748.62
458.818	743.62
459.038	783.62
459.258	803.62
459.478	857.62
459.698	890.62
459.918	900.62
460.138	878.62
460.358	869.62
460.578	852.62
460.798	893.62
461.018	886.62
461.238	846.62
461.458	869.62
461.678	878.62
461.898	936.62
462.118	930.62
462.338	905.62
462.558	944.62
462.777	994.62
462.997	979.62
463.217	1014.62
463.437	1018.62
463.657	1007.62
463.876	970.62
464.096	953.62
464.316	957.62
464.536	989.62
464.755	1040.62
464.975	1016.62
465.195	969.62
465.414	995.62
465.634	965.62
465.854	910.62
466.073	867.62
466.293	862.62
466.512	943.62
466.732	1008.62
466.951	1015.62
467.171	940.62
467.391	846.62
467.61	847.62
467.829	897.62
468.049	906.62
468.268	882.62
468.488	855.62
468.707	905.62
468.927	1055.62
469.146	1140.62
469.365	1033.62
469.585	960.62
469.804	1012.62
470.023	1092.62
470.243	972.62
470.462	942.62
470.681	895.62
470.901	901.62
471.12	966.62
471.339	941.62
471.558	907.62
471.777	940.62
471.997	1012.62
472.216	1113.62
472.435	1043.62
472.654	970.62
472.873	928.62
473.092	1000.62
473.311	1046.62
473.53	970.62
473.749	942.62
473.968	985.62
474.187	950.62
474.406	947.62
474.625	922.62
474.844	984.62
475.063	1016.62
475.282	1007.62
475.501	1066.62
475.72	1119.62
475.939	1070.62
476.158	1108.62
476.377	1233.62
476.596	1449.62
476.814	1486.62
477.033	1222.62
477.252	1063.62
477.471	996.62
477.69	998.62
477.908	1091.62
478.127	1125.62
478.346	1052.62
478.564	1097.62
478.783	1059.62
479.002	1104.62
479.22	1282.62
479.439	1434.62
479.658	1227.62
479.876	1100.62
480.095	1201.62
480.313	1227.62
480.532	1117.62
480.751	1082.62
480.969	1116.62
481.188	1273.62
481.406	1296.62
481.624	1208.62
481.843	1100.62
482.061	1056.62
482.28	1191.62
482.498	1445.62
482.717	1340.62
482.935	1177.62
483.153	1124.62
483.372	1045.62
483.59	1047.62
483.808	1042.62
484.027	1050.62
484.245	1014.62
484.463	1001.62
484.681	989.62
484.9	1098.62
485.118	1182.62
485.336	1061.62
485.554	1042.62
485.772	1085.62
485.99	1180.62
486.209	1237.62
486.427	1208.62
486.645	1161.62
486.863	1262.62
487.081	1228.62
487.299	1370.62
487.517	1342.62
487.735	1183.62
487.953	1254.62
488.171	1278.62
488.389	1166.62
488.607	1093.62
488.825	1160.62
489.043	1275.62
489.261	1428.62
489.479	1534.62
489.696	1291.62
489.914	1163.62
490.132	1139.62
490.35	1101.62
490.568	1096.62
490.786	1110.62
491.003	1127.62
491.221	1146.62
491.439	1104.62
491.657	1148.62
491.874	1216.62
492.092	1497.62
492.31	1788.62
492.527	1722.62
492.745	1485.62
492.963	1332.62
493.18	1305.62
493.398	1294.62
493.615	1296.62
493.833	1271.62
494.05	1241.62
494.268	1280.62
494.485	1224.62
494.703	1213.62
494.92	1241.62
495.138	1206.62
495.355	1206.62
495.573	1208.62
495.79	1402.62
496.008	1820.62
496.225	1576.62
496.442	1360.62
496.66	1360.62
496.877	1416.62
497.094	1407.62
497.312	1312.62
497.529	1316.62
497.746	1302.62
497.963	1367.62
498.181	1475.62
498.398	1598.62
498.615	1610.62
498.832	1675.62
499.049	1719.62
499.267	1520.62
499.484	1552.62
499.701	1633.62
499.918	1755.62
500.135	1893.62
500.352	1869.62
500.569	1999.62
500.786	2004.62
501.003	2001.62
501.22	1826.62
501.437	1697.62
501.654	1645.62
501.871	1616.62
502.088	1648.62
502.305	1517.62
502.522	1492.62
502.739	1486.62
502.956	1370.62
503.172	1365.62
503.389	1310.62
503.606	1254.62
503.823	1293.62
504.04	1317.62
504.256	1310.62
504.473	1329.62
504.69	1352.62
504.907	1360.62
505.123	1354.62
505.34	1456.62
505.557	1413.62
505.773	1324.62
505.99	1268.62
506.207	1317.62
506.423	1257.62
506.64	1185.62
506.856	1241.62
507.073	1402.62
507.289	1333.62
507.506	1329.62
507.722	1413.62
507.939	1448.62
508.155	1422.62
508.372	1317.62
508.588	1271.62
508.805	1244.62
509.021	1196.62
509.238	1145.62
509.454	1188.62
509.67	1165.62
509.887	1174.62
510.103	1341.62
510.319	1265.62
510.536	1181.62
510.752	1102.62
510.968	1046.62
511.184	1015.62
511.401	1022.62
511.617	1028.62
511.833	1013.62
512.049	1032.62
512.265	1090.62
512.481	1145.62
512.698	1270.62
512.914	1356.62
513.13	1233.62
513.346	1103.62
513.562	1158.62
513.778	1200.62
513.994	1148.62
514.21	1220.62
514.426	1205.62
514.642	1135.62
514.858	1149.62
515.074	1200.62
515.29	1290.62
515.506	1430.62
515.721	1361.62
515.937	1234.62
516.153	1150.62
516.369	1174.62
516.585	1208.62
516.801	1382.62
517.016	1607.62
517.232	1566.62
517.448	1539.62
517.664	1378.62
517.879	1251.62
518.095	1286.62
518.311	1260.62
518.527	1304.62
518.742	1354.62
518.958	1477.62
519.173	1366.62
519.389	1319.62
519.605	1381.62
519.82	1510.62
520.036	1725.62
520.251	1697.62
520.467	1605.62
520.682	2358.62
520.898	2844.62
521.113	2690.62
521.329	1733.62
521.544	1528.62
521.76	1483.62
521.975	1369.62
522.19	1286.62
522.406	1321.62
522.621	1457.62
522.836	1484.62
523.052	1530.62
523.267	1288.62
523.482	1296.62
523.698	1367.62
523.913	1350.62
524.128	1208.62
524.343	1172.62
524.559	1195.62
524.774	1153.62
524.989	1182.62
525.204	1203.62
525.419	1289.62
525.634	1191.62
525.849	1208.62
526.064	1245.62
526.28	1268.62
526.495	1486.62
526.71	1497.62
526.925	1321.62
527.14	1390.62
527.355	1334.62
527.57	1150.62
527.785	1178.62
527.999	1133.62
528.214	1070.62
528.429	1046.62
528.644	1072.62
528.859	1021.62
529.074	992.62
529.289	967.62
529.503	984.62
529.718	1029.62
529.933	1161.62
530.148	1177.62
530.363	1030.62
530.577	994.62
530.792	997.62
531.007	994.62
531.221	947.62
531.436	970.62
531.651	985.62
531.865	1016.62
532.08	1018.62
532.295	975.62
532.509	1064.62
532.724	1166.62
532.938	1313.62
533.153	1461.62
533.367	1222.62
533.582	1180.62
533.796	1092.62
534.011	1060.62
534.225	1080.62
534.44	1044.62
534.654	1087.62
534.868	1252.62
535.083	1102.62
535.297	1006.62
535.511	1045.62
535.726	1144.62
535.94	1056.62
536.154	1019.62
536.369	975.62
536.583	996.62
536.797	1023.62
537.011	1042.62
537.225	1106.62
537.44	1181.62
537.654	1053.62
537.868	1011.62
538.082	1014.62
538.296	986.62
538.51	1072.62
538.724	1063.62
538.938	1036.62
539.153	992.62
539.367	976.62
539.581	989.62
539.795	1071.62
540.009	1140.62
540.222	1055.62
540.436	1048.62
540.65	1144.62
540.864	1172.62
541.078	1204.62
541.292	1361.62
541.506	1090.62
541.72	1048.62
541.934	1029.62
542.147	1008.62
542.361	1039.62
542.575	1042.62
542.789	1037.62
543.002	936.62
543.216	1053.62
543.43	940.62
543.644	931.62
543.857	921.62
544.071	917.62
544.285	922.62
544.498	916.62
544.712	892.62
544.925	989.62
545.139	952.62
545.352	890.62
545.566	917.62
545.779	1045.62
545.993	973.62
546.206	880.62
546.42	858.62
546.633	844.62
546.847	837.62
547.06	847.62
547.274	878.62
547.487	900.62
547.7	940.62
547.914	980.62
548.127	1125.62
548.34	1084.62
548.554	969.62
548.767	995.62
548.98	1041.62
549.193	960.62
549.407	1021.62
549.62	1184.62
549.833	1109.62
550.046	1137.62
550.259	1152.62
550.473	1034.62
550.686	971.62
550.899	982.62
551.112	983.62
551.325	1061.62
551.538	1108.62
551.751	924.62
551.964	911.62
552.177	902.62
552.39	852.62
552.603	863.62
552.816	928.62
553.029	888.62
553.242	862.62
553.455	936.62
553.667	1006.62
553.88	979.62
554.093	892.62
554.306	833.62
554.519	794.62
554.732	818.62
554.944	757.62
555.157	765.62
555.37	771.62
555.583	759.62
555.795	785.62
556.008	811.62
556.221	834.62
556.433	795.62
556.646	778.62
556.859	789.62
557.071	813.62
557.284	813.62
557.496	853.62
557.709	799.62
557.921	786.62
558.134	758.62
558.346	735.62
558.559	737.62
558.771	763.62
558.984	788.62
559.196	779.62
559.409	729.62
559.621	699.62
559.833	692.62
560.046	737.62
560.258	706.62
560.47	731.62
560.683	712.62
560.895	688.62
561.107	675.62
561.32	672.62
561.532	690.62
561.744	754.62
561.956	771.62
562.168	696.62
562.381	709.62
562.593	748.62
562.805	741.62
563.017	700.62
563.229	684.62
563.441	660.62
563.653	665.62
563.865	669.62
564.077	704.62
564.289	680.62
564.501	660.62
564.713	749.62
564.925	739.62
565.137	690.62
565.349	696.62
565.561	720.62
565.773	713.62
565.985	722.62
566.197	768.62
566.408	850.62
566.62	870.62
566.832	817.62
567.044	849.62
567.255	913.62
567.467	945.62
567.679	882.62
567.891	872.62
568.102	911.62
568.314	929.62
568.526	854.62
568.737	814.62
568.949	857.62
569.161	735.62
569.372	691.62
569.584	694.62
569.795	700.62
570.007	679.62
570.218	734.62
570.43	730.62
570.641	691.62
570.853	659.62
571.064	663.62
571.276	694.62
571.487	688.62
571.698	668.62
571.91	652.62
572.121	655.62
572.333	614.62
572.544	614.62
572.755	633.62
572.966	583.62
573.178	595.62
573.389	616.62
573.6	655.62
573.811	614.62
574.023	587.62
574.234	568.62
574.445	566.62
574.656	553.62
574.867	600.62
575.078	583.62
575.289	602.62
575.501	622.62
575.712	596.62
575.923	544.62
576.134	544.62
576.345	558.62
576.556	559.62
576.767	524.62
576.978	548.62
577.188	511.62
577.399	522.62
577.61	525.62
577.821	510.62
578.032	537.62
578.243	569.62
578.454	559.62
578.665	569.62
578.875	559.62
579.086	554.62
579.297	550.62
579.508	582.62
579.718	547.62
579.929	548.62
580.14	519.62
580.35	493.62
580.561	470.62
580.772	460.62
580.982	484.62
581.193	475.62
581.403	487.62
581.614	460.62
581.825	447.62
582.035	474.62
582.246	460.62
582.456	474.62
582.667	482.62
582.877	467.62
583.087	446.62
583.298	467.62
583.508	445.62
583.719	454.62
583.929	460.62
584.139	445.62
584.35	452.62
584.56	474.62
584.77	477.62
584.981	484.62
585.191	482.62
585.401	448.62
585.611	470.62
585.821	501.62
586.032	479.62
586.242	484.62
586.452	445.62
586.662	483.62
586.872	493.62
587.082	473.62
587.292	453.62
587.502	471.62
587.713	450.62
587.923	486.62
588.133	499.62
588.343	462.62
588.553	441.62
588.762	465.62
588.972	456.62
589.182	462.62
589.392	436.62
589.602	449.62
589.812	481.62
590.022	478.62
590.232	508.62
590.441	469.62
590.651	466.62
590.861	461.62
591.071	461.62
591.281	442.62
591.49	440.62
591.7	446.62
591.91	442.62
592.119	457.62
592.329	458.62
592.539	468.62
592.748	464.62
592.958	471.62
593.167	487.62
593.377	476.62
593.587	483.62
593.796	482.62
594.006	466.62
594.215	509.62
594.424	502.62
594.634	490.62
594.843	468.62
595.053	470.62
595.262	436.62
595.472	425.62
595.681	416.62
595.89	414.62
596.1	440.62
596.309	455.62
596.518	433.62
596.727	417.62
596.937	432.62
597.146	438.62
597.355	469.62
597.564	426.62
597.774	398.62
597.983	410.62
598.192	405.62
598.401	408.62
598.61	396.62
598.819	406.62
599.028	384.62
599.237	389.62
599.446	375.62
599.655	386.62
599.864	380.62
600.073	377.62
600.282	380.62
600.491	384.62
600.7	385.62
600.909	390.62
601.118	385.62
601.327	382.62
601.536	373.62
601.745	392.62
601.953	420.62
602.162	390.62
602.371	424.62
602.58	403.62
602.789	404.62
602.997	377.62
603.206	364.62
603.415	375.62
603.623	364.62
603.832	351.62
604.041	366.62
604.249	359.62
604.458	372.62
604.666	359.62
604.875	356.62
605.084	344.62
605.292	351.62
605.501	366.62
605.709	364.62
605.918	360.62
606.126	359.62
606.334	359.62
606.543	356.62
606.751	351.62
606.96	341.62
607.168	353.62
607.376	348.62
607.585	335.62
607.793	372.62
608.001	350.62
608.21	346.62
608.418	356.62
608.626	360.62
608.834	350.62
609.043	340.62
609.251	352.62
609.459	328.62
609.667	330.62
609.875	345.62
610.083	362.62
610.291	360.62
610.499	357.62
610.707	354.62
610.916	342.62
611.124	347.62
611.332	336.62
611.54	327.62
611.748	338.62
611.955	342.62
612.163	330.62
612.371	318.62
612.579	334.62
612.787	334.62
612.995	337.62
613.203	326.62
613.411	330.62
613.618	348.62
613.826	339.62
614.034	331.62
614.242	346.62
614.449	315.62
614.657	310.62
614.865	314.62
615.072	329.62
615.28	329.62
615.488	322.62
615.695	331.62
615.903	328.62
616.111	349.62
616.318	328.62
616.526	335.62
616.733	323.62
616.941	330.62
617.148	336.62
617.356	330.62
617.563	314.62
617.771	312.62
617.978	321.62
618.185	328.62
618.393	329.62
618.6	304.62
618.807	304.62
619.015	305.62
619.222	309.62
619.429	324.62
619.637	325.62
619.844	296.62
620.051	309.62
620.258	318.62
620.466	295.62
620.673	296.62
620.88	269.62
621.087	273.62
621.294	308.62
621.501	298.62
621.708	297.62
621.915	306.62
622.122	281.62
622.329	294.62
622.536	292.62
622.743	283.62
622.95	302.62
623.157	297.62
623.364	309.62
623.571	296.62
623.778	295.62
623.985	282.62
624.192	302.62
624.399	310.62
624.606	307.62
624.812	295.62
625.019	293.62
625.226	319.62
625.433	279.62
625.639	301.62
625.846	281.62
626.053	289.62
626.259	286.62
626.466	298.62
626.673	317.62
626.879	285.62
627.086	287.62
627.293	276.62
627.499	274.62
627.706	253.62
627.912	264.62
628.119	255.62
628.325	248.62
628.532	261.62
628.738	260.62
628.945	260.62
629.151	266.62
629.357	263.62
629.564	278.62
629.77	261.62
629.976	251.62
630.183	262.62
630.389	264.62
630.595	242.62
630.802	255.62
631.008	247.62
631.214	257.62
631.42	273.62
631.627	239.62
631.833	233.62
632.039	256.62
632.245	252.62
632.451	239.62
632.657	243.62
632.863	240.62
633.069	237.62
633.275	233.62
633.481	228.62
633.688	246.62
633.893	242.62
634.099	248.62
634.305	228.62
634.511	244.62
634.717	252.62
634.923	232.62
635.129	221.62
635.335	223.62
635.541	238.62
635.747	239.62
635.952	230.62
636.158	236.62
636.364	254.62
636.57	230.62
636.775	238.62
636.981	225.62
637.187	225.62
637.392	217.62
637.598	224.62
637.804	232.62
638.009	238.62
638.215	238.62
638.421	231.62
638.626	218.62
638.832	225.62
639.037	240.62
639.243	225.62
639.448	228.62
639.654	248.62
639.859	231.62
640.065	227.62
640.27	237.62
640.475	226.62
640.681	228.62
640.886	228.62
641.091	201.62
641.297	207.62
641.502	232.62
641.707	207.62
641.913	226.62
642.118	239.62
642.323	227.62
642.528	228.62
642.733	221.62
642.939	215.62
643.144	197.62
643.349	226.62
643.554	210.62
643.759	214.62
643.964	190.62
644.169	198.62
644.374	208.62
644.579	206.62
644.784	211.62
644.989	203.62
645.194	207.62
645.399	206.62
645.604	210.62
645.809	189.62
646.014	209.62
646.219	204.62
646.423	197.62
646.628	200.62
646.833	214.62
647.038	206.62
647.243	193.62
647.447	212.62
647.652	210.62
647.857	205.62
648.062	212.62
648.266	203.62
648.471	214.62
648.676	213.62
648.88	209.62
649.085	215.62
649.289	190.62
649.494	197.62
649.698	218.62
649.903	198.62
650.107	205.62
650.312	201.62
650.516	203.62
650.721	199.62
650.925	199.62
651.13	189.62
651.334	184.62
651.539	167.62
651.743	186.62
651.947	179.62
652.152	179.62
652.356	188.62
652.56	166.62
652.764	179.62
652.969	173.62
653.173	164.62
653.377	160.62
653.581	159.62
653.785	162.62
653.99	170.62
654.194	153.62
654.398	153.62
654.602	161.62
654.806	165.62
655.01	175.62
655.214	168.62
655.418	161.62
655.622	153.62
655.826	164.62
656.03	167.62
656.234	172.62
656.438	162.62
656.642	160.62
656.846	154.62
657.049	158.62
657.253	148.62
657.457	143.62
657.661	142.62
657.865	144.62
658.068	128.62
658.272	131.62
658.476	124.62
658.68	143.62
658.883	105.62
659.087	114.62
659.291	122.62
659.494	109.62
659.698	112.62
659.901	98.62
660.105	103.62
660.309	99.62
660.512	112.62
660.716	101.62
660.919	99.62
661.123	112.62
661.326	94.62
661.53	94.62
661.733	91.62
661.936	96.62
662.14	93.62
662.343	103.62
662.546	88.62
662.75	79.62
662.953	89.62
663.156	108.62
663.36	101.62
663.563	85.62
663.766	88.62
663.969	87.62
664.173	86.62
664.376	92.62
664.579	97.62
664.782	93.62
664.985	93.62
665.188	89.62
665.391	83.62
665.594	75.62
665.797	81.62
666	101.62
666.203	90.62
666.406	82.62
666.609	85.62
666.812	79.62
667.015	84.62
667.218	93.62
667.421	86.62
667.624	82.62
667.827	84.62
668.03	60.62
668.232	80.62
668.435	83.62
668.638	74.62
668.841	81.62
669.043	87.62
669.246	80.62
669.449	100.62
669.651	83.62
669.854	82.62
670.057	72.62
670.259	83.62
670.462	58.62
670.665	85.62
670.867	81.62
671.07	88.62
671.272	88.62
671.475	90.62
671.677	84.62
671.88	83.62
672.082	85.62
672.284	89.62
672.487	72.62
672.689	87.62
672.892	79.62
