Data from NickelSpatula.Lamp.E10.P2_HRD10591_11-58-32-528.txt Node
Date: Tue Jul 23 11:58:32 EDT 2019
User: cochatt
Spectrometer: HR+D1059
Trigger mode: 1
Integration Time (sec): 1.000000E-1
Scans to average: 1
Electric dark correction enabled: true
Nonlinearity correction enabled: false
Boxcar width: 0
XAxis mode: Wavelengths
Number of Pixels in Spectrum: 2048
>>>>>Begin Spectral Data<<<<<
223.165	-12.88
223.4	-12.88
223.635	-12.88
223.869	-13.88
224.104	-16.88
224.338	-30.88
224.573	-9.88
224.808	-24.88
225.042	-3.88
225.277	-9.88
225.511	-0.88
225.746	-5.88
225.98	6.12
226.215	22.12
226.449	30.12
226.683	24.12
226.918	36.12
227.152	11.12
227.387	39.12
227.621	34.12
227.856	44.12
228.09	55.12
228.324	56.12
228.559	57.12
228.793	66.12
229.027	127.12
229.262	142.12
229.496	160.12
229.73	151.12
229.964	179.12
230.199	211.12
230.433	240.12
230.667	206.12
230.901	211.12
231.136	199.12
231.37	229.12
231.604	208.12
231.838	255.12
232.072	256.12
232.306	246.12
232.541	258.12
232.775	242.12
233.009	248.12
233.243	319.12
233.477	305.12
233.711	334.12
233.945	329.12
234.179	350.12
234.413	351.12
234.647	378.12
234.881	436.12
235.115	434.12
235.349	419.12
235.583	337.12
235.817	366.12
236.051	380.12
236.285	392.12
236.519	459.12
236.753	441.12
236.987	442.12
237.221	377.12
237.455	413.12
237.689	430.12
237.922	468.12
238.156	467.12
238.39	558.12
238.624	664.12
238.858	607.12
239.091	474.12
239.325	498.12
239.559	488.12
239.793	544.12
240.027	656.12
240.26	598.12
240.494	568.12
240.728	581.12
240.961	669.12
241.195	648.12
241.429	649.12
241.662	610.12
241.896	527.12
242.13	472.12
242.363	440.12
242.597	472.12
242.83	552.12
243.064	538.12
243.298	574.12
243.531	630.12
243.765	634.12
243.998	611.12
244.232	588.12
244.465	594.12
244.699	595.12
244.932	659.12
245.166	617.12
245.399	541.12
245.633	544.12
245.866	566.12
246.099	608.12
246.333	711.12
246.566	768.12
246.8	769.12
247.033	740.12
247.266	692.12
247.5	680.12
247.733	661.12
247.966	632.12
248.2	681.12
248.433	775.12
248.666	863.12
248.899	832.12
249.133	863.12
249.366	973.12
249.599	1041.12
249.832	985.12
250.066	816.12
250.299	837.12
250.532	809.12
250.765	810.12
250.998	715.12
251.231	704.12
251.465	773.12
251.698	844.12
251.931	786.12
252.164	832.12
252.397	938.12
252.63	1093.12
252.863	1156.12
253.096	1172.12
253.329	1165.12
253.562	1094.12
253.795	1221.12
254.028	1312.12
254.261	1400.12
254.494	1282.12
254.727	1154.12
254.96	1099.12
255.193	1178.12
255.426	1116.12
255.659	855.12
255.892	788.12
256.124	849.12
256.357	1007.12
256.59	1204.12
256.823	1147.12
257.056	982.12
257.289	931.12
257.521	960.12
257.754	1151.12
257.987	1304.12
258.22	1136.12
258.452	989.12
258.685	1121.12
258.918	1268.12
259.151	1236.12
259.383	1284.12
259.616	1494.12
259.849	1559.12
260.081	1690.12
260.314	1878.12
260.547	1453.12
260.779	1495.12
261.012	1703.12
261.244	1628.12
261.477	1640.12
261.71	1523.12
261.942	1263.12
262.175	1267.12
262.407	1211.12
262.64	1289.12
262.872	1502.12
263.105	1650.12
263.337	1715.12
263.57	1521.12
263.802	1018.12
264.035	876.12
264.267	868.12
264.499	727.12
264.732	692.12
264.964	676.12
265.197	713.12
265.429	766.12
265.661	813.12
265.894	856.12
266.126	912.12
266.358	1016.12
266.591	1222.12
266.823	1502.12
267.055	1433.12
267.287	1259.12
267.52	1262.12
267.752	1350.12
267.984	1442.12
268.216	1381.12
268.448	1122.12
268.681	1127.12
268.913	1183.12
269.145	1264.12
269.377	1310.12
269.609	1290.12
269.841	1214.12
270.073	1308.12
270.306	1353.12
270.538	1393.12
270.77	1418.12
271.002	1445.12
271.234	1476.12
271.466	1512.12
271.698	1421.12
271.93	1419.12
272.162	1448.12
272.394	1415.12
272.626	1384.12
272.858	1404.12
273.09	1501.12
273.322	1318.12
273.553	1250.12
273.785	1487.12
274.017	1986.12
274.249	2441.12
274.481	2558.12
274.713	2725.12
274.945	3204.12
275.176	3244.12
275.408	2881.12
275.64	2631.12
275.872	2636.12
276.104	2199.12
276.335	1893.12
276.567	1931.12
276.799	1994.12
277.031	2058.12
277.262	1617.12
277.494	1210.12
277.726	1204.12
277.957	1328.12
278.189	1480.12
278.421	1460.12
278.652	1424.12
278.884	1333.12
279.115	1263.12
279.347	1201.12
279.579	1169.12
279.81	1197.12
280.042	1212.12
280.273	1223.12
280.505	1150.12
280.736	1017.12
280.968	997.12
281.199	1082.12
281.431	1221.12
281.662	1230.12
281.894	1181.12
282.125	1238.12
282.356	1347.12
282.588	1391.12
282.819	1255.12
283.051	1398.12
283.282	1718.12
283.513	1914.12
283.745	2199.12
283.976	2194.12
284.207	2006.12
284.439	2082.12
284.67	2045.12
284.901	1777.12
285.132	1943.12
285.364	2028.12
285.595	1860.12
285.826	1926.12
286.057	2045.12
286.288	1958.12
286.52	2010.12
286.751	2124.12
286.982	2063.12
287.213	1838.12
287.444	1772.12
287.675	1820.12
287.906	1807.12
288.138	1526.12
288.369	1363.12
288.6	1258.12
288.831	1313.12
289.062	1547.12
289.293	1708.12
289.524	1564.12
289.755	1593.12
289.986	1652.12
290.217	1418.12
290.448	1122.12
290.679	957.12
290.91	902.12
291.141	935.12
291.371	945.12
291.602	960.12
291.833	964.12
292.064	1040.12
292.295	1219.12
292.526	1396.12
292.757	1439.12
292.987	1539.12
293.218	1535.12
293.449	1589.12
293.68	1707.12
293.91	1591.12
294.141	1623.12
294.372	1532.12
294.603	1426.12
294.833	1572.12
295.064	1827.12
295.295	1708.12
295.525	1302.12
295.756	1143.12
295.987	1007.12
296.217	1029.12
296.448	1045.12
296.679	1062.12
296.909	1196.12
297.14	1294.12
297.37	1426.12
297.601	1368.12
297.831	1152.12
298.062	1284.12
298.292	1388.12
298.523	1560.12
298.753	1767.12
298.984	1564.12
299.214	1236.12
299.445	1068.12
299.675	1014.12
299.905	1006.12
300.136	1059.12
300.366	1168.12
300.597	1145.12
300.827	996.12
301.057	974.12
301.288	995.12
301.518	1060.12
301.748	1235.12
301.979	1272.12
302.209	1405.12
302.439	1433.12
302.669	1191.12
302.9	1243.12
303.13	1125.12
303.36	1092.12
303.59	1041.12
303.82	1098.12
304.051	1224.12
304.281	1300.12
304.511	1260.12
304.741	1138.12
304.971	1187.12
305.201	1296.12
305.431	1175.12
305.661	1046.12
305.891	1085.12
306.121	1072.12
306.352	938.12
306.582	873.12
306.812	844.12
307.042	842.12
307.272	791.12
307.502	792.12
307.731	874.12
307.961	913.12
308.191	839.12
308.421	795.12
308.651	827.12
308.881	777.12
309.111	756.12
309.341	782.12
309.571	853.12
309.8	906.12
310.03	920.12
310.26	980.12
310.49	942.12
310.72	854.12
310.949	845.12
311.179	879.12
311.409	942.12
311.639	1095.12
311.868	1396.12
312.098	1780.12
312.328	1930.12
312.557	1872.12
312.787	1878.12
313.017	1639.12
313.246	1783.12
313.476	1988.12
313.706	1608.12
313.935	1265.12
314.165	1022.12
314.394	940.12
314.624	960.12
314.853	1010.12
315.083	1058.12
315.312	999.12
315.542	979.12
315.771	953.12
316.001	873.12
316.23	836.12
316.46	838.12
316.689	842.12
316.919	877.12
317.148	869.12
317.377	892.12
317.607	870.12
317.836	948.12
318.065	1110.12
318.295	1172.12
318.524	1131.12
318.753	956.12
318.983	917.12
319.212	888.12
319.441	994.12
319.67	1107.12
319.9	1159.12
320.129	1118.12
320.358	983.12
320.587	930.12
320.816	1018.12
321.046	1172.12
321.275	1317.12
321.504	1317.12
321.733	1258.12
321.962	1219.12
322.191	1122.12
322.42	1098.12
322.649	1104.12
322.878	1243.12
323.108	1183.12
323.337	1082.12
323.566	1080.12
323.795	1054.12
324.024	1008.12
324.253	955.12
324.482	946.12
324.71	1060.12
324.939	1158.12
325.168	1102.12
325.397	922.12
325.626	872.12
325.855	890.12
326.084	896.12
326.313	879.12
326.542	830.12
326.77	851.12
326.999	893.12
327.228	926.12
327.457	986.12
327.686	986.12
327.914	862.12
328.143	841.12
328.372	814.12
328.6	839.12
328.829	848.12
329.058	887.12
329.287	858.12
329.515	869.12
329.744	852.12
329.972	836.12
330.201	813.12
330.43	828.12
330.658	935.12
330.887	1051.12
331.115	1006.12
331.344	1007.12
331.572	954.12
331.801	888.12
332.03	830.12
332.258	853.12
332.486	924.12
332.715	954.12
332.943	894.12
333.172	882.12
333.4	950.12
333.629	1037.12
333.857	1074.12
334.085	1102.12
334.314	1125.12
334.542	1007.12
334.771	964.12
334.999	938.12
335.227	929.12
335.455	936.12
335.684	1000.12
335.912	1171.12
336.14	1317.12
336.369	1228.12
336.597	1223.12
336.825	1341.12
337.053	1519.12
337.281	1217.12
337.51	960.12
337.738	966.12
337.966	1020.12
338.194	1167.12
338.422	1082.12
338.65	948.12
338.878	883.12
339.106	909.12
339.334	1048.12
339.562	1072.12
339.79	986.12
340.018	944.12
340.246	1026.12
340.474	1212.12
340.702	1250.12
340.93	1318.12
341.158	1295.12
341.386	1098.12
341.614	1089.12
341.842	1098.12
342.07	1149.12
342.298	1296.12
342.526	1388.12
342.754	1206.12
342.981	1109.12
343.209	1049.12
343.437	1111.12
343.665	1177.12
343.893	1161.12
344.12	1350.12
344.348	1564.12
344.576	1443.12
344.804	1179.12
345.031	1042.12
345.259	980.12
345.487	988.12
345.714	997.12
345.942	1076.12
346.17	1159.12
346.397	1103.12
346.625	1005.12
346.853	958.12
347.08	929.12
347.308	1009.12
347.535	1094.12
347.763	1140.12
347.99	995.12
348.218	902.12
348.445	975.12
348.673	962.12
348.9	967.12
349.128	1029.12
349.355	1086.12
349.583	1055.12
349.81	980.12
350.037	938.12
350.265	821.12
350.492	806.12
350.72	820.12
350.947	844.12
351.174	893.12
351.402	953.12
351.629	973.12
351.856	936.12
352.083	895.12
352.311	927.12
352.538	1059.12
352.765	1142.12
352.992	1027.12
353.22	956.12
353.447	967.12
353.674	935.12
353.901	944.12
354.128	948.12
354.355	1004.12
354.583	976.12
354.81	969.12
355.037	1006.12
355.264	989.12
355.491	1068.12
355.718	1149.12
355.945	1122.12
356.172	1072.12
356.399	1086.12
356.626	1284.12
356.853	1617.12
357.08	1666.12
357.307	1758.12
357.534	1331.12
357.761	1380.12
357.988	1724.12
358.215	2025.12
358.441	1878.12
358.668	1586.12
358.895	1476.12
359.122	1184.12
359.349	1180.12
359.576	1308.12
359.802	1072.12
360.029	915.12
360.256	1022.12
360.483	1261.12
360.709	1588.12
360.936	1616.12
361.163	1430.12
361.39	1142.12
361.616	1045.12
361.843	1230.12
362.07	1468.12
362.296	1360.12
362.523	1083.12
362.749	940.12
362.976	996.12
363.203	1168.12
363.429	1345.12
363.656	1072.12
363.882	996.12
364.109	988.12
364.335	967.12
364.562	972.12
364.788	1088.12
365.015	1276.12
365.241	1149.12
365.468	946.12
365.694	847.12
365.92	805.12
366.147	769.12
366.373	788.12
366.599	764.12
366.826	779.12
367.052	808.12
367.278	810.12
367.505	803.12
367.731	867.12
367.957	989.12
368.184	1025.12
368.41	1045.12
368.636	1006.12
368.862	1048.12
369.089	992.12
369.315	880.12
369.541	892.12
369.767	859.12
369.993	832.12
370.219	829.12
370.445	898.12
370.672	1008.12
370.898	1078.12
371.124	1081.12
371.35	929.12
371.576	893.12
371.802	951.12
372.028	1156.12
372.254	1346.12
372.48	1133.12
372.706	1018.12
372.932	1078.12
373.158	1124.12
373.384	1324.12
373.61	1790.12
373.835	1813.12
374.061	1354.12
374.287	1146.12
374.513	1387.12
374.739	1636.12
374.965	1694.12
375.191	1652.12
375.416	1139.12
375.642	1026.12
375.868	1158.12
376.094	1327.12
376.319	1121.12
376.545	1271.12
376.771	1306.12
376.997	1140.12
377.222	846.12
377.448	758.12
377.674	729.12
377.899	739.12
378.125	744.12
378.35	735.12
378.576	781.12
378.802	846.12
379.027	948.12
379.253	852.12
379.478	927.12
379.704	1070.12
379.929	1092.12
380.155	1093.12
380.38	914.12
380.606	970.12
380.831	1084.12
381.057	1009.12
381.282	977.12
381.507	1144.12
381.733	1438.12
381.958	1526.12
382.184	1605.12
382.409	1697.12
382.634	1629.12
382.86	1729.12
383.085	1416.12
383.31	1106.12
383.535	1207.12
383.761	1258.12
383.986	1147.12
384.211	1397.12
384.436	1333.12
384.662	1008.12
384.887	992.12
385.112	1030.12
385.337	1074.12
385.562	992.12
385.787	1071.12
386.013	1186.12
386.238	1218.12
386.463	1008.12
386.688	926.12
386.913	906.12
387.138	877.12
387.363	956.12
387.588	958.12
387.813	966.12
388.038	1068.12
388.263	963.12
388.488	934.12
388.713	1109.12
388.938	1162.12
389.163	1014.12
389.387	876.12
389.612	904.12
389.837	919.12
390.062	956.12
390.287	976.12
390.512	979.12
390.736	940.12
390.961	881.12
391.186	862.12
391.411	816.12
391.636	818.12
391.86	942.12
392.085	985.12
392.31	994.12
392.534	941.12
392.759	934.12
392.984	972.12
393.208	973.12
393.433	871.12
393.658	815.12
393.882	798.12
394.107	803.12
394.331	812.12
394.556	814.12
394.78	788.12
395.005	851.12
395.229	883.12
395.454	885.12
395.678	868.12
395.903	914.12
396.127	860.12
396.352	865.12
396.576	969.12
396.801	994.12
397.025	1060.12
397.249	1089.12
397.474	931.12
397.698	904.12
397.922	978.12
398.147	903.12
398.371	923.12
398.595	962.12
398.82	942.12
399.044	964.12
399.268	1011.12
399.492	1056.12
399.717	1072.12
399.941	1088.12
400.165	1054.12
400.389	1013.12
400.613	1043.12
400.837	1036.12
401.062	921.12
401.286	886.12
401.51	882.12
401.734	909.12
401.958	911.12
402.182	875.12
402.406	910.12
402.63	910.12
402.854	945.12
403.078	1053.12
403.302	1256.12
403.526	1326.12
403.75	1191.12
403.974	1035.12
404.198	1093.12
404.422	1235.12
404.645	1438.12
404.869	1580.12
405.093	1174.12
405.317	1012.12
405.541	963.12
405.765	995.12
405.988	989.12
406.212	1090.12
406.436	1288.12
406.66	1445.12
406.883	1150.12
407.107	1167.12
407.331	1345.12
407.555	1286.12
407.778	1117.12
408.002	1038.12
408.226	1073.12
408.449	1065.12
408.673	997.12
408.896	954.12
409.12	933.12
409.344	899.12
409.567	895.12
409.791	889.12
410.014	892.12
410.238	893.12
410.461	886.12
410.685	901.12
410.908	912.12
411.132	919.12
411.355	931.12
411.578	936.12
411.802	952.12
412.025	973.12
412.249	986.12
412.472	952.12
412.695	957.12
412.919	954.12
413.142	982.12
413.365	999.12
413.589	1073.12
413.812	934.12
414.035	910.12
414.258	947.12
414.482	1030.12
414.705	1042.12
414.928	907.12
415.151	884.12
415.374	881.12
415.597	888.12
415.821	904.12
416.044	917.12
416.267	884.12
416.49	862.12
416.713	873.12
416.936	865.12
417.159	856.12
417.382	868.12
417.605	878.12
417.828	888.12
418.051	913.12
418.274	935.12
418.497	921.12
418.72	904.12
418.943	960.12
419.166	989.12
419.389	1021.12
419.611	998.12
419.834	1032.12
420.057	1099.12
420.28	1108.12
420.503	1038.12
420.726	909.12
420.948	888.12
421.171	863.12
421.394	857.12
421.617	862.12
421.839	891.12
422.062	903.12
422.285	938.12
422.507	956.12
422.73	937.12
422.953	956.12
423.175	935.12
423.398	964.12
423.621	989.12
423.843	1041.12
424.066	946.12
424.288	922.12
424.511	892.12
424.733	895.12
424.956	962.12
425.178	1076.12
425.401	1232.12
425.623	1371.12
425.846	1120.12
426.068	997.12
426.291	1118.12
426.513	1011.12
426.735	912.12
426.958	980.12
427.18	1164.12
427.402	1472.12
427.625	1468.12
427.847	1180.12
428.069	889.12
428.292	887.12
428.514	891.12
428.736	864.12
428.958	932.12
429.181	1114.12
429.403	981.12
429.625	903.12
429.847	880.12
430.069	882.12
430.292	883.12
430.514	865.12
430.736	948.12
430.958	1162.12
431.18	1078.12
431.402	830.12
431.624	792.12
431.846	799.12
432.068	784.12
432.29	834.12
432.512	903.12
432.734	1222.12
432.956	1103.12
433.178	861.12
433.4	855.12
433.622	809.12
433.844	881.12
434.066	950.12
434.287	917.12
434.509	897.12
434.731	905.12
434.953	853.12
435.175	918.12
435.397	1018.12
435.618	882.12
435.84	839.12
436.062	822.12
436.284	812.12
436.505	798.12
436.727	776.12
436.949	784.12
437.17	832.12
437.392	869.12
437.614	820.12
437.835	814.12
438.057	849.12
438.278	981.12
438.5	1367.12
438.721	1359.12
438.943	922.12
439.165	782.12
439.386	803.12
439.608	764.12
439.829	773.12
440.05	772.12
440.272	862.12
440.493	1024.12
440.715	1208.12
440.936	985.12
441.158	858.12
441.379	874.12
441.6	970.12
441.822	1028.12
442.043	908.12
442.264	863.12
442.486	856.12
442.707	868.12
442.928	845.12
443.149	883.12
443.371	862.12
443.592	906.12
443.813	938.12
444.034	903.12
444.255	899.12
444.476	942.12
444.698	930.12
444.919	956.12
445.14	1033.12
445.361	987.12
445.582	946.12
445.803	923.12
446.024	949.12
446.245	920.12
446.466	889.12
446.687	876.12
446.908	852.12
447.129	849.12
447.35	811.12
447.571	784.12
447.792	785.12
448.013	801.12
448.234	769.12
448.455	789.12
448.675	817.12
448.896	787.12
449.117	814.12
449.338	812.12
449.559	801.12
449.779	883.12
450	852.12
450.221	828.12
450.442	810.12
450.662	793.12
450.883	791.12
451.104	794.12
451.324	784.12
451.545	828.12
451.766	781.12
451.986	780.12
452.207	761.12
452.428	764.12
452.648	762.12
452.869	810.12
453.089	843.12
453.31	830.12
453.53	756.12
453.751	751.12
453.971	749.12
454.192	782.12
454.412	774.12
454.633	744.12
454.853	736.12
455.073	732.12
455.294	717.12
455.514	737.12
455.734	766.12
455.955	790.12
456.175	784.12
456.395	738.12
456.616	710.12
456.836	694.12
457.056	690.12
457.276	684.12
457.497	708.12
457.717	707.12
457.937	698.12
458.157	719.12
458.377	711.12
458.598	733.12
458.818	785.12
459.038	794.12
459.258	839.12
459.478	865.12
459.698	936.12
459.918	867.12
460.138	901.12
460.358	905.12
460.578	886.12
460.798	877.12
461.018	882.12
461.238	856.12
461.458	879.12
461.678	895.12
461.898	933.12
462.118	939.12
462.338	919.12
462.558	935.12
462.777	992.12
462.997	996.12
463.217	996.12
463.437	1002.12
463.657	1007.12
463.876	974.12
464.096	953.12
464.316	948.12
464.536	946.12
464.755	1026.12
464.975	1017.12
465.195	943.12
465.414	1011.12
465.634	926.12
465.854	934.12
466.073	845.12
466.293	863.12
466.512	924.12
466.732	1030.12
466.951	1064.12
467.171	911.12
467.391	878.12
467.61	876.12
467.829	912.12
468.049	933.12
468.268	869.12
468.488	882.12
468.707	890.12
468.927	1066.12
469.146	1156.12
469.365	1036.12
469.585	946.12
469.804	1014.12
470.023	1093.12
470.243	986.12
470.462	921.12
470.681	909.12
470.901	893.12
471.12	967.12
471.339	989.12
471.558	893.12
471.777	914.12
471.997	1004.12
472.216	1098.12
472.435	1093.12
472.654	961.12
472.873	974.12
473.092	990.12
473.311	1053.12
473.53	971.12
473.749	933.12
473.968	967.12
474.187	958.12
474.406	935.12
474.625	901.12
474.844	949.12
475.063	1002.12
475.282	1026.12
475.501	1033.12
475.72	1114.12
475.939	1096.12
476.158	1107.12
476.377	1238.12
476.596	1444.12
476.814	1484.12
477.033	1215.12
477.252	1061.12
477.471	956.12
477.69	1006.12
477.908	1078.12
478.127	1147.12
478.346	1050.12
478.564	1154.12
478.783	1097.12
479.002	1102.12
479.22	1272.12
479.439	1412.12
479.658	1222.12
479.876	1101.12
480.095	1176.12
480.313	1220.12
480.532	1137.12
480.751	1081.12
480.969	1136.12
481.188	1280.12
481.406	1290.12
481.624	1205.12
481.843	1104.12
482.061	1078.12
482.28	1212.12
482.498	1432.12
482.717	1393.12
482.935	1202.12
483.153	1150.12
483.372	1085.12
483.59	1065.12
483.808	1056.12
484.027	1026.12
484.245	991.12
484.463	978.12
484.681	1004.12
484.9	1106.12
485.118	1193.12
485.336	1111.12
485.554	1026.12
485.772	1050.12
485.99	1162.12
486.209	1230.12
486.427	1235.12
486.645	1216.12
486.863	1247.12
487.081	1231.12
487.299	1380.12
487.517	1332.12
487.735	1197.12
487.953	1237.12
488.171	1258.12
488.389	1177.12
488.607	1087.12
488.825	1142.12
489.043	1270.12
489.261	1418.12
489.479	1527.12
489.696	1294.12
489.914	1160.12
490.132	1102.12
490.35	1129.12
490.568	1137.12
490.786	1095.12
491.003	1139.12
491.221	1144.12
491.439	1115.12
491.657	1121.12
491.874	1213.12
492.092	1460.12
492.31	1748.12
492.527	1753.12
492.745	1489.12
492.963	1307.12
493.18	1318.12
493.398	1280.12
493.615	1278.12
493.833	1260.12
494.05	1253.12
494.268	1248.12
494.485	1232.12
494.703	1221.12
494.92	1217.12
495.138	1168.12
495.355	1162.12
495.573	1223.12
495.79	1384.12
496.008	1808.12
496.225	1554.12
496.442	1349.12
496.66	1306.12
496.877	1447.12
497.094	1392.12
497.312	1318.12
497.529	1305.12
497.746	1313.12
497.963	1351.12
498.181	1468.12
498.398	1585.12
498.615	1639.12
498.832	1701.12
499.049	1708.12
499.267	1508.12
499.484	1527.12
499.701	1605.12
499.918	1733.12
500.135	1914.12
500.352	1928.12
500.569	1994.12
500.786	2064.12
501.003	2016.12
501.22	1825.12
501.437	1724.12
501.654	1617.12
501.871	1624.12
502.088	1601.12
502.305	1496.12
502.522	1525.12
502.739	1479.12
502.956	1344.12
503.172	1369.12
503.389	1287.12
503.606	1278.12
503.823	1289.12
504.04	1276.12
504.256	1302.12
504.473	1353.12
504.69	1390.12
504.907	1406.12
505.123	1373.12
505.34	1456.12
505.557	1452.12
505.773	1315.12
505.99	1268.12
506.207	1349.12
506.423	1249.12
506.64	1183.12
506.856	1259.12
507.073	1349.12
507.289	1336.12
507.506	1351.12
507.722	1385.12
507.939	1424.12
508.155	1445.12
508.372	1302.12
508.588	1251.12
508.805	1199.12
509.021	1211.12
509.238	1139.12
509.454	1163.12
509.67	1170.12
509.887	1189.12
510.103	1320.12
510.319	1326.12
510.536	1188.12
510.752	1105.12
510.968	1080.12
511.184	1060.12
511.401	1040.12
511.617	1008.12
511.833	1044.12
512.049	1032.12
512.265	1076.12
512.481	1098.12
512.698	1230.12
512.914	1342.12
513.13	1218.12
513.346	1118.12
513.562	1198.12
513.778	1147.12
513.994	1130.12
514.21	1216.12
514.426	1169.12
514.642	1143.12
514.858	1123.12
515.074	1204.12
515.29	1280.12
515.506	1420.12
515.721	1324.12
515.937	1290.12
516.153	1175.12
516.369	1136.12
516.585	1205.12
516.801	1361.12
517.016	1615.12
517.232	1545.12
517.448	1511.12
517.664	1355.12
517.879	1266.12
518.095	1234.12
518.311	1234.12
518.527	1305.12
518.742	1397.12
518.958	1489.12
519.173	1403.12
519.389	1357.12
519.605	1382.12
519.82	1522.12
520.036	1721.12
520.251	1677.12
520.467	1610.12
520.682	2385.12
520.898	2868.12
521.113	2702.12
521.329	1675.12
521.544	1544.12
521.76	1508.12
521.975	1331.12
522.19	1240.12
522.406	1300.12
522.621	1426.12
522.836	1500.12
523.052	1537.12
523.267	1284.12
523.482	1330.12
523.698	1383.12
523.913	1320.12
524.128	1231.12
524.343	1165.12
524.559	1179.12
524.774	1107.12
524.989	1184.12
525.204	1192.12
525.419	1326.12
525.634	1206.12
525.849	1232.12
526.064	1240.12
526.28	1262.12
526.495	1472.12
526.71	1496.12
526.925	1334.12
527.14	1394.12
527.355	1339.12
527.57	1101.12
527.785	1186.12
527.999	1137.12
528.214	1061.12
528.429	1080.12
528.644	1048.12
528.859	1046.12
529.074	981.12
529.289	972.12
529.503	998.12
529.718	1004.12
529.933	1193.12
530.148	1190.12
530.363	1060.12
530.577	1020.12
530.792	1000.12
531.007	1004.12
531.221	971.12
531.436	982.12
531.651	981.12
531.865	1025.12
532.08	1033.12
532.295	977.12
532.509	1055.12
532.724	1166.12
532.938	1319.12
533.153	1522.12
533.367	1212.12
533.582	1146.12
533.796	1088.12
534.011	1019.12
534.225	1082.12
534.44	1061.12
534.654	1078.12
534.868	1231.12
535.083	1077.12
535.297	1004.12
535.511	1048.12
535.726	1150.12
535.94	1052.12
536.154	1027.12
536.369	951.12
536.583	978.12
536.797	1029.12
537.011	1064.12
537.225	1127.12
537.44	1178.12
537.654	1000.12
537.868	1015.12
538.082	1010.12
538.296	992.12
538.51	1054.12
538.724	1062.12
538.938	1035.12
539.153	993.12
539.367	960.12
539.581	983.12
539.795	1020.12
540.009	1115.12
540.222	1063.12
540.436	1036.12
540.65	1146.12
540.864	1160.12
541.078	1180.12
541.292	1338.12
541.506	1111.12
541.72	1049.12
541.934	1061.12
542.147	1027.12
542.361	1050.12
542.575	1094.12
542.789	1018.12
543.002	953.12
543.216	1056.12
543.43	951.12
543.644	918.12
543.857	917.12
544.071	915.12
544.285	938.12
544.498	918.12
544.712	932.12
544.925	978.12
545.139	948.12
545.352	889.12
545.566	932.12
545.779	1031.12
545.993	945.12
546.206	893.12
546.42	864.12
546.633	884.12
546.847	846.12
547.06	854.12
547.274	847.12
547.487	872.12
547.7	925.12
547.914	1014.12
548.127	1121.12
548.34	1056.12
548.554	956.12
548.767	987.12
548.98	1098.12
549.193	995.12
549.407	1001.12
549.62	1200.12
549.833	1099.12
550.046	1132.12
550.259	1172.12
550.473	1050.12
550.686	954.12
550.899	1016.12
551.112	1001.12
551.325	1047.12
551.538	1085.12
551.751	942.12
551.964	881.12
552.177	884.12
552.39	874.12
552.603	892.12
552.816	936.12
553.029	906.12
553.242	876.12
553.455	944.12
553.667	1033.12
553.88	961.12
554.093	903.12
554.306	832.12
554.519	800.12
554.732	789.12
554.944	796.12
555.157	754.12
555.37	747.12
555.583	796.12
555.795	786.12
556.008	808.12
556.221	798.12
556.433	786.12
556.646	773.12
556.859	782.12
557.071	817.12
557.284	819.12
557.496	823.12
557.709	774.12
557.921	797.12
558.134	741.12
558.346	750.12
558.559	722.12
558.771	752.12
558.984	835.12
559.196	796.12
559.409	726.12
559.621	718.12
559.833	725.12
560.046	740.12
560.258	743.12
560.47	736.12
560.683	711.12
560.895	677.12
561.107	662.12
561.32	686.12
561.532	692.12
561.744	728.12
561.956	783.12
562.168	723.12
562.381	690.12
562.593	732.12
562.805	731.12
563.017	699.12
563.229	688.12
563.441	652.12
563.653	666.12
563.865	697.12
564.077	696.12
564.289	654.12
564.501	701.12
564.713	739.12
564.925	740.12
565.137	706.12
565.349	713.12
565.561	708.12
565.773	706.12
565.985	750.12
566.197	755.12
566.408	818.12
566.62	862.12
566.832	853.12
567.044	838.12
567.255	888.12
567.467	978.12
567.679	895.12
567.891	868.12
568.102	908.12
568.314	913.12
568.526	834.12
568.737	812.12
568.949	851.12
569.161	758.12
569.372	710.12
569.584	694.12
569.795	686.12
570.007	694.12
570.218	744.12
570.43	727.12
570.641	689.12
570.853	656.12
571.064	646.12
571.276	684.12
571.487	721.12
571.698	669.12
571.91	657.12
572.121	658.12
572.333	623.12
572.544	626.12
572.755	630.12
572.966	599.12
573.178	614.12
573.389	627.12
573.6	646.12
573.811	645.12
574.023	578.12
574.234	574.12
574.445	588.12
574.656	571.12
574.867	575.12
575.078	591.12
575.289	596.12
575.501	608.12
575.712	572.12
575.923	539.12
576.134	534.12
576.345	523.12
576.556	549.12
576.767	540.12
576.978	524.12
577.188	538.12
577.399	520.12
577.61	522.12
577.821	519.12
578.032	538.12
578.243	569.12
578.454	557.12
578.665	562.12
578.875	552.12
579.086	531.12
579.297	560.12
579.508	577.12
579.718	561.12
579.929	529.12
580.14	541.12
580.35	501.12
580.561	488.12
580.772	483.12
580.982	485.12
581.193	480.12
581.403	458.12
581.614	468.12
581.825	480.12
582.035	473.12
582.246	467.12
582.456	454.12
582.667	454.12
582.877	457.12
583.087	462.12
583.298	432.12
583.508	471.12
583.719	442.12
583.929	449.12
584.139	442.12
584.35	475.12
584.56	478.12
584.77	464.12
584.981	456.12
585.191	454.12
585.401	454.12
585.611	500.12
585.821	488.12
586.032	479.12
586.242	467.12
586.452	447.12
586.662	442.12
586.872	501.12
587.082	505.12
587.292	470.12
587.502	453.12
587.713	457.12
587.923	464.12
588.133	490.12
588.343	485.12
588.553	459.12
588.762	466.12
588.972	447.12
589.182	472.12
589.392	450.12
589.602	473.12
589.812	466.12
590.022	511.12
590.232	520.12
590.441	461.12
590.651	452.12
590.861	436.12
591.071	479.12
591.281	457.12
591.49	437.12
591.7	435.12
591.91	463.12
592.119	436.12
592.329	459.12
592.539	450.12
592.748	447.12
592.958	456.12
593.167	481.12
593.377	489.12
593.587	481.12
593.796	462.12
594.006	457.12
594.215	477.12
594.424	477.12
594.634	483.12
594.843	454.12
595.053	452.12
595.262	423.12
595.472	436.12
595.681	418.12
595.89	425.12
596.1	431.12
596.309	466.12
596.518	419.12
596.727	430.12
596.937	424.12
597.146	437.12
597.355	460.12
597.564	435.12
597.774	412.12
597.983	411.12
598.192	395.12
598.401	389.12
598.61	400.12
598.819	412.12
599.028	404.12
599.237	398.12
599.446	368.12
599.655	371.12
599.864	373.12
600.073	380.12
600.282	387.12
600.491	372.12
600.7	377.12
600.909	382.12
601.118	392.12
601.327	379.12
601.536	365.12
601.745	387.12
601.953	398.12
602.162	383.12
602.371	410.12
602.58	413.12
602.789	397.12
602.997	371.12
603.206	389.12
603.415	376.12
603.623	340.12
603.832	361.12
604.041	358.12
604.249	380.12
604.458	396.12
604.666	369.12
604.875	337.12
605.084	340.12
605.292	368.12
605.501	356.12
605.709	367.12
605.918	356.12
606.126	342.12
606.334	364.12
606.543	348.12
606.751	358.12
606.96	351.12
607.168	337.12
607.376	333.12
607.585	349.12
607.793	361.12
608.001	361.12
608.21	337.12
608.418	354.12
608.626	364.12
608.834	348.12
609.043	355.12
609.251	352.12
609.459	329.12
609.667	337.12
609.875	338.12
610.083	334.12
610.291	360.12
610.499	343.12
610.707	344.12
610.916	311.12
611.124	330.12
611.332	335.12
611.54	310.12
611.748	364.12
611.955	344.12
612.163	321.12
612.371	325.12
612.579	316.12
612.787	344.12
612.995	334.12
613.203	327.12
613.411	322.12
613.618	342.12
613.826	351.12
614.034	342.12
614.242	335.12
614.449	336.12
614.657	338.12
614.865	322.12
615.072	309.12
615.28	326.12
615.488	327.12
615.695	343.12
615.903	314.12
616.111	312.12
616.318	330.12
616.526	314.12
616.733	322.12
616.941	313.12
617.148	291.12
617.356	311.12
617.563	302.12
617.771	343.12
617.978	320.12
618.185	291.12
618.393	306.12
618.6	302.12
618.807	324.12
619.015	309.12
619.222	311.12
619.429	322.12
619.637	287.12
619.844	292.12
620.051	295.12
620.258	312.12
620.466	312.12
620.673	281.12
620.88	284.12
621.087	284.12
621.294	283.12
621.501	271.12
621.708	289.12
621.915	300.12
622.122	309.12
622.329	300.12
622.536	296.12
622.743	289.12
622.95	288.12
623.157	305.12
623.364	313.12
623.571	317.12
623.778	304.12
623.985	315.12
624.192	298.12
624.399	292.12
624.606	287.12
624.812	300.12
625.019	306.12
625.226	317.12
625.433	325.12
625.639	300.12
625.846	273.12
626.053	268.12
626.259	272.12
626.466	262.12
626.673	311.12
626.879	277.12
627.086	273.12
627.293	269.12
627.499	270.12
627.706	274.12
627.912	262.12
628.119	250.12
628.325	256.12
628.532	260.12
628.738	268.12
628.945	262.12
629.151	240.12
629.357	252.12
629.564	258.12
629.77	289.12
629.976	263.12
630.183	248.12
630.389	264.12
630.595	261.12
630.802	260.12
631.008	258.12
631.214	236.12
631.42	259.12
631.627	265.12
631.833	247.12
632.039	243.12
632.245	242.12
632.451	252.12
632.657	246.12
632.863	231.12
633.069	246.12
633.275	248.12
633.481	226.12
633.688	243.12
633.893	261.12
634.099	240.12
634.305	215.12
634.511	242.12
634.717	230.12
634.923	223.12
635.129	227.12
635.335	229.12
635.541	220.12
635.747	236.12
635.952	229.12
636.158	239.12
636.364	228.12
636.57	226.12
636.775	248.12
636.981	221.12
637.187	236.12
637.392	227.12
637.598	217.12
637.804	220.12
638.009	236.12
638.215	232.12
638.421	231.12
638.626	215.12
638.832	241.12
639.037	233.12
639.243	222.12
639.448	209.12
639.654	239.12
639.859	231.12
640.065	236.12
640.27	238.12
640.475	232.12
640.681	228.12
640.886	214.12
641.091	224.12
641.297	235.12
641.502	228.12
641.707	227.12
641.913	211.12
642.118	231.12
642.323	213.12
642.528	218.12
642.733	230.12
642.939	224.12
643.144	212.12
643.349	233.12
643.554	239.12
643.759	200.12
643.964	205.12
644.169	214.12
644.374	200.12
644.579	212.12
644.784	208.12
644.989	196.12
645.194	198.12
645.399	225.12
645.604	202.12
645.809	205.12
646.014	219.12
646.219	201.12
646.423	219.12
646.628	217.12
646.833	214.12
647.038	200.12
647.243	213.12
647.447	212.12
647.652	211.12
647.857	218.12
648.062	193.12
648.266	210.12
648.471	200.12
648.676	206.12
648.88	199.12
649.085	217.12
649.289	184.12
649.494	188.12
649.698	213.12
649.903	219.12
650.107	195.12
650.312	199.12
650.516	188.12
650.721	187.12
650.925	182.12
651.13	202.12
651.334	185.12
651.539	188.12
651.743	184.12
651.947	186.12
652.152	175.12
652.356	186.12
652.56	187.12
652.764	178.12
652.969	166.12
653.173	185.12
653.377	173.12
653.581	169.12
653.785	167.12
653.99	166.12
654.194	153.12
654.398	150.12
654.602	166.12
654.806	168.12
655.01	166.12
655.214	176.12
655.418	151.12
655.622	169.12
655.826	148.12
656.03	169.12
656.234	156.12
656.438	160.12
656.642	153.12
656.846	154.12
657.049	160.12
657.253	151.12
657.457	139.12
657.661	128.12
657.865	128.12
658.068	127.12
658.272	120.12
658.476	113.12
658.68	117.12
658.883	120.12
659.087	128.12
659.291	120.12
659.494	111.12
659.698	111.12
659.901	100.12
660.105	89.12
660.309	94.12
660.512	93.12
660.716	106.12
660.919	111.12
661.123	102.12
661.326	99.12
661.53	85.12
661.733	87.12
661.936	96.12
662.14	77.12
662.343	75.12
662.546	84.12
662.75	93.12
662.953	95.12
663.156	79.12
663.36	88.12
663.563	81.12
663.766	86.12
663.969	85.12
664.173	101.12
664.376	89.12
664.579	94.12
664.782	84.12
664.985	84.12
665.188	99.12
665.391	63.12
665.594	90.12
665.797	76.12
666	85.12
666.203	101.12
666.406	78.12
666.609	70.12
666.812	79.12
667.015	79.12
667.218	92.12
667.421	70.12
667.624	85.12
667.827	81.12
668.03	75.12
668.232	95.12
668.435	99.12
668.638	89.12
668.841	78.12
669.043	82.12
669.246	83.12
669.449	81.12
669.651	74.12
669.854	87.12
670.057	82.12
670.259	82.12
670.462	70.12
670.665	89.12
670.867	96.12
671.07	90.12
671.272	86.12
671.475	96.12
671.677	91.12
671.88	68.12
672.082	80.12
672.284	94.12
672.487	79.12
672.689	66.12
672.892	91.12
