Data from NickelSpatula.Lamp.E10.P2_HRD10591_11-57-15-533.txt Node
Date: Tue Jul 23 11:57:15 EDT 2019
User: cochatt
Spectrometer: HR+D1059
Trigger mode: 1
Integration Time (sec): 1.000000E-1
Scans to average: 1
Electric dark correction enabled: true
Nonlinearity correction enabled: false
Boxcar width: 0
XAxis mode: Wavelengths
Number of Pixels in Spectrum: 2048
>>>>>Begin Spectral Data<<<<<
223.165	-23.31
223.4	-23.31
223.635	-23.31
223.869	-21.31
224.104	-8.31
224.338	-22.31
224.573	-22.31
224.808	-0.31
225.042	-15.31
225.277	-9.31
225.511	11.69
225.746	14.69
225.98	6.69
226.215	13.69
226.449	19.69
226.683	6.69
226.918	15.69
227.152	33.69
227.387	32.69
227.621	50.69
227.856	35.69
228.09	51.69
228.324	53.69
228.559	55.69
228.793	93.69
229.027	145.69
229.262	149.69
229.496	141.69
229.73	196.69
229.964	189.69
230.199	210.69
230.433	212.69
230.667	201.69
230.901	189.69
231.136	213.69
231.37	201.69
231.604	219.69
231.838	245.69
232.072	248.69
232.306	244.69
232.541	231.69
232.775	242.69
233.009	251.69
233.243	288.69
233.477	295.69
233.711	331.69
233.945	326.69
234.179	327.69
234.413	342.69
234.647	376.69
234.881	443.69
235.115	422.69
235.349	399.69
235.583	337.69
235.817	335.69
236.051	367.69
236.285	410.69
236.519	461.69
236.753	419.69
236.987	406.69
237.221	401.69
237.455	443.69
237.689	436.69
237.922	464.69
238.156	456.69
238.39	549.69
238.624	654.69
238.858	583.69
239.091	480.69
239.325	502.69
239.559	479.69
239.793	519.69
240.027	648.69
240.26	612.69
240.494	582.69
240.728	592.69
240.961	671.69
241.195	630.69
241.429	610.69
241.662	591.69
241.896	516.69
242.13	487.69
242.363	452.69
242.597	461.69
242.83	533.69
243.064	536.69
243.298	602.69
243.531	629.69
243.765	636.69
243.998	620.69
244.232	616.69
244.465	599.69
244.699	575.69
244.932	664.69
245.166	616.69
245.399	555.69
245.633	529.69
245.866	559.69
246.099	612.69
246.333	707.69
246.566	777.69
246.8	792.69
247.033	739.69
247.266	669.69
247.5	651.69
247.733	648.69
247.966	664.69
248.2	683.69
248.433	768.69
248.666	845.69
248.899	830.69
249.133	832.69
249.366	982.69
249.599	1026.69
249.832	941.69
250.066	800.69
250.299	841.69
250.532	809.69
250.765	790.69
250.998	742.69
251.231	697.69
251.465	768.69
251.698	813.69
251.931	775.69
252.164	819.69
252.397	919.69
252.63	1067.69
252.863	1149.69
253.096	1189.69
253.329	1128.69
253.562	1075.69
253.795	1238.69
254.028	1368.69
254.261	1399.69
254.494	1197.69
254.727	1107.69
254.96	1103.69
255.193	1175.69
255.426	1099.69
255.659	839.69
255.892	802.69
256.124	857.69
256.357	1006.69
256.59	1183.69
256.823	1151.69
257.056	969.69
257.289	926.69
257.521	964.69
257.754	1126.69
257.987	1305.69
258.22	1116.69
258.452	1019.69
258.685	1133.69
258.918	1257.69
259.151	1240.69
259.383	1302.69
259.616	1472.69
259.849	1563.69
260.081	1687.69
260.314	1851.69
260.547	1479.69
260.779	1494.69
261.012	1719.69
261.244	1612.69
261.477	1600.69
261.71	1523.69
261.942	1277.69
262.175	1297.69
262.407	1216.69
262.64	1231.69
262.872	1477.69
263.105	1639.69
263.337	1716.69
263.57	1524.69
263.802	1045.69
264.035	881.69
264.267	871.69
264.499	759.69
264.732	695.69
264.964	698.69
265.197	715.69
265.429	767.69
265.661	815.69
265.894	869.69
266.126	916.69
266.358	1041.69
266.591	1231.69
266.823	1487.69
267.055	1426.69
267.287	1270.69
267.52	1246.69
267.752	1312.69
267.984	1435.69
268.216	1341.69
268.448	1118.69
268.681	1097.69
268.913	1203.69
269.145	1281.69
269.377	1288.69
269.609	1299.69
269.841	1189.69
270.073	1293.69
270.306	1373.69
270.538	1344.69
270.77	1399.69
271.002	1423.69
271.234	1447.69
271.466	1479.69
271.698	1447.69
271.93	1410.69
272.162	1406.69
272.394	1425.69
272.626	1355.69
272.858	1409.69
273.09	1437.69
273.322	1295.69
273.553	1250.69
273.785	1448.69
274.017	1981.69
274.249	2376.69
274.481	2489.69
274.713	2699.69
274.945	3092.69
275.176	3206.69
275.408	2825.69
275.64	2619.69
275.872	2561.69
276.104	2167.69
276.335	1892.69
276.567	1891.69
276.799	1963.69
277.031	2027.69
277.262	1592.69
277.494	1229.69
277.726	1179.69
277.957	1314.69
278.189	1480.69
278.421	1437.69
278.652	1417.69
278.884	1316.69
279.115	1235.69
279.347	1207.69
279.579	1176.69
279.81	1198.69
280.042	1227.69
280.273	1246.69
280.505	1126.69
280.736	1000.69
280.968	1012.69
281.199	1092.69
281.431	1240.69
281.662	1250.69
281.894	1193.69
282.125	1271.69
282.356	1335.69
282.588	1367.69
282.819	1256.69
283.051	1339.69
283.282	1684.69
283.513	1910.69
283.745	2145.69
283.976	2156.69
284.207	1974.69
284.439	2081.69
284.67	1999.69
284.901	1787.69
285.132	1935.69
285.364	1993.69
285.595	1881.69
285.826	1970.69
286.057	2043.69
286.288	1947.69
286.52	1968.69
286.751	2084.69
286.982	2066.69
287.213	1781.69
287.444	1717.69
287.675	1851.69
287.906	1805.69
288.138	1522.69
288.369	1359.69
288.6	1288.69
288.831	1349.69
289.062	1535.69
289.293	1702.69
289.524	1642.69
289.755	1568.69
289.986	1636.69
290.217	1421.69
290.448	1093.69
290.679	935.69
290.91	917.69
291.141	929.69
291.371	958.69
291.602	984.69
291.833	988.69
292.064	1053.69
292.295	1202.69
292.526	1387.69
292.757	1429.69
292.987	1525.69
293.218	1540.69
293.449	1590.69
293.68	1687.69
293.91	1601.69
294.141	1681.69
294.372	1523.69
294.603	1387.69
294.833	1557.69
295.064	1834.69
295.295	1728.69
295.525	1271.69
295.756	1125.69
295.987	981.69
296.217	1003.69
296.448	1036.69
296.679	1065.69
296.909	1164.69
297.14	1293.69
297.37	1392.69
297.601	1315.69
297.831	1094.69
298.062	1232.69
298.292	1403.69
298.523	1534.69
298.753	1709.69
298.984	1535.69
299.214	1261.69
299.445	1044.69
299.675	1008.69
299.905	977.69
300.136	1045.69
300.366	1141.69
300.597	1097.69
300.827	987.69
301.057	951.69
301.288	956.69
301.518	1055.69
301.748	1166.69
301.979	1244.69
302.209	1350.69
302.439	1360.69
302.669	1192.69
302.9	1199.69
303.13	1109.69
303.36	1075.69
303.59	1029.69
303.82	1081.69
304.051	1178.69
304.281	1315.69
304.511	1249.69
304.741	1123.69
304.971	1142.69
305.201	1256.69
305.431	1155.69
305.661	1046.69
305.891	1039.69
306.121	1051.69
306.352	955.69
306.582	868.69
306.812	836.69
307.042	868.69
307.272	782.69
307.502	791.69
307.731	846.69
307.961	891.69
308.191	855.69
308.421	785.69
308.651	797.69
308.881	749.69
309.111	757.69
309.341	795.69
309.571	860.69
309.8	909.69
310.03	923.69
310.26	952.69
310.49	921.69
310.72	880.69
310.949	858.69
311.179	893.69
311.409	895.69
311.639	1068.69
311.868	1350.69
312.098	1757.69
312.328	1945.69
312.557	1825.69
312.787	1832.69
313.017	1651.69
313.246	1787.69
313.476	1928.69
313.706	1561.69
313.935	1246.69
314.165	1018.69
314.394	940.69
314.624	949.69
314.853	984.69
315.083	1051.69
315.312	975.69
315.542	969.69
315.771	907.69
316.001	836.69
316.23	829.69
316.46	795.69
316.689	834.69
316.919	834.69
317.148	880.69
317.377	875.69
317.607	856.69
317.836	952.69
318.065	1064.69
318.295	1191.69
318.524	1107.69
318.753	965.69
318.983	919.69
319.212	923.69
319.441	989.69
319.67	1109.69
319.9	1163.69
320.129	1099.69
320.358	937.69
320.587	939.69
320.816	976.69
321.046	1124.69
321.275	1287.69
321.504	1235.69
321.733	1239.69
321.962	1210.69
322.191	1137.69
322.42	1050.69
322.649	1075.69
322.878	1160.69
323.108	1169.69
323.337	1103.69
323.566	1062.69
323.795	1019.69
324.024	998.69
324.253	940.69
324.482	933.69
324.71	1054.69
324.939	1158.69
325.168	1077.69
325.397	885.69
325.626	901.69
325.855	938.69
326.084	920.69
326.313	838.69
326.542	823.69
326.77	869.69
326.999	873.69
327.228	946.69
327.457	973.69
327.686	971.69
327.914	854.69
328.143	812.69
328.372	801.69
328.6	831.69
328.829	877.69
329.058	856.69
329.287	886.69
329.515	892.69
329.744	876.69
329.972	828.69
330.201	800.69
330.43	827.69
330.658	933.69
330.887	1025.69
331.115	1017.69
331.344	1003.69
331.572	946.69
331.801	890.69
332.03	865.69
332.258	875.69
332.486	934.69
332.715	967.69
332.943	894.69
333.172	887.69
333.4	943.69
333.629	997.69
333.857	1097.69
334.085	1099.69
334.314	1104.69
334.542	1034.69
334.771	965.69
334.999	954.69
335.227	915.69
335.455	925.69
335.684	1016.69
335.912	1184.69
336.14	1294.69
336.369	1234.69
336.597	1198.69
336.825	1346.69
337.053	1466.69
337.281	1195.69
337.51	952.69
337.738	949.69
337.966	1033.69
338.194	1143.69
338.422	1090.69
338.65	931.69
338.878	879.69
339.106	886.69
339.334	979.69
339.562	1022.69
339.79	979.69
340.018	964.69
340.246	1037.69
340.474	1162.69
340.702	1236.69
340.93	1270.69
341.158	1277.69
341.386	1085.69
341.614	1065.69
341.842	1083.69
342.07	1108.69
342.298	1313.69
342.526	1342.69
342.754	1189.69
342.981	1073.69
343.209	1011.69
343.437	1090.69
343.665	1133.69
343.893	1159.69
344.12	1301.69
344.348	1513.69
344.576	1365.69
344.804	1132.69
345.031	1025.69
345.259	964.69
345.487	981.69
345.714	1020.69
345.942	1087.69
346.17	1162.69
346.397	1105.69
346.625	961.69
346.853	941.69
347.08	918.69
347.308	974.69
347.535	1069.69
347.763	1102.69
347.99	981.69
348.218	899.69
348.445	942.69
348.673	954.69
348.9	968.69
349.128	1025.69
349.355	1031.69
349.583	1038.69
349.81	963.69
350.037	901.69
350.265	807.69
350.492	786.69
350.72	796.69
350.947	820.69
351.174	849.69
351.402	914.69
351.629	943.69
351.856	891.69
352.083	853.69
352.311	956.69
352.538	1023.69
352.765	1087.69
352.992	990.69
353.22	930.69
353.447	959.69
353.674	911.69
353.901	917.69
354.128	901.69
354.355	961.69
354.583	934.69
354.81	959.69
355.037	992.69
355.264	980.69
355.491	1035.69
355.718	1115.69
355.945	1082.69
356.172	1061.69
356.399	1046.69
356.626	1255.69
356.853	1495.69
357.08	1595.69
357.307	1607.69
357.534	1318.69
357.761	1289.69
357.988	1634.69
358.215	1904.69
358.441	1808.69
358.668	1518.69
358.895	1379.69
359.122	1168.69
359.349	1148.69
359.576	1287.69
359.802	1075.69
360.029	914.69
360.256	991.69
360.483	1161.69
360.709	1475.69
360.936	1553.69
361.163	1360.69
361.39	1038.69
361.616	1015.69
361.843	1167.69
362.07	1413.69
362.296	1277.69
362.523	1007.69
362.749	917.69
362.976	951.69
363.203	1135.69
363.429	1249.69
363.656	1024.69
363.882	913.69
364.109	936.69
364.335	944.69
364.562	969.69
364.788	1044.69
365.015	1186.69
365.241	1112.69
365.468	890.69
365.694	813.69
365.92	773.69
366.147	767.69
366.373	751.69
366.599	755.69
366.826	791.69
367.052	791.69
367.278	809.69
367.505	789.69
367.731	868.69
367.957	958.69
368.184	955.69
368.41	970.69
368.636	954.69
368.862	992.69
369.089	963.69
369.315	880.69
369.541	847.69
369.767	857.69
369.993	840.69
370.219	803.69
370.445	881.69
370.672	974.69
370.898	1023.69
371.124	1032.69
371.35	908.69
371.576	868.69
371.802	947.69
372.028	1087.69
372.254	1224.69
372.48	1092.69
372.706	991.69
372.932	1023.69
373.158	1077.69
373.384	1273.69
373.61	1600.69
373.835	1738.69
374.061	1271.69
374.287	1088.69
374.513	1318.69
374.739	1527.69
374.965	1574.69
375.191	1549.69
375.416	1114.69
375.642	989.69
375.868	1154.69
376.094	1242.69
376.319	1095.69
376.545	1209.69
376.771	1288.69
376.997	1090.69
377.222	811.69
377.448	740.69
377.674	736.69
377.899	726.69
378.125	731.69
378.35	733.69
378.576	781.69
378.802	830.69
379.027	871.69
379.253	872.69
379.478	896.69
379.704	975.69
379.929	1032.69
380.155	1033.69
380.38	926.69
380.606	947.69
380.831	1059.69
381.057	974.69
381.282	935.69
381.507	1102.69
381.733	1331.69
381.958	1437.69
382.184	1537.69
382.409	1563.69
382.634	1574.69
382.86	1611.69
383.085	1348.69
383.31	1055.69
383.535	1151.69
383.761	1152.69
383.986	1097.69
384.211	1300.69
384.436	1242.69
384.662	993.69
384.887	976.69
385.112	983.69
385.337	1026.69
385.562	973.69
385.787	1032.69
386.013	1151.69
386.238	1169.69
386.463	978.69
386.688	975.69
386.913	939.69
387.138	875.69
387.363	881.69
387.588	930.69
387.813	939.69
388.038	1035.69
388.263	947.69
388.488	919.69
388.713	1045.69
388.938	1131.69
389.163	977.69
389.387	899.69
389.612	895.69
389.837	884.69
390.062	915.69
390.287	953.69
390.512	993.69
390.736	892.69
390.961	856.69
391.186	865.69
391.411	794.69
391.636	845.69
391.86	914.69
392.085	981.69
392.31	969.69
392.534	915.69
392.759	886.69
392.984	938.69
393.208	917.69
393.433	851.69
393.658	815.69
393.882	783.69
394.107	782.69
394.331	791.69
394.556	776.69
394.78	820.69
395.005	839.69
395.229	851.69
395.454	865.69
395.678	887.69
395.903	907.69
396.127	869.69
396.352	895.69
396.576	960.69
396.801	962.69
397.025	1084.69
397.249	1071.69
397.474	898.69
397.698	896.69
397.922	953.69
398.147	919.69
398.371	893.69
398.595	949.69
398.82	944.69
399.044	943.69
399.268	1007.69
399.492	1048.69
399.717	1081.69
399.941	1100.69
400.165	1036.69
400.389	1049.69
400.613	1015.69
400.837	1016.69
401.062	911.69
401.286	877.69
401.51	911.69
401.734	919.69
401.958	908.69
402.182	915.69
402.406	900.69
402.63	913.69
402.854	943.69
403.078	1069.69
403.302	1240.69
403.526	1280.69
403.75	1187.69
403.974	1023.69
404.198	1086.69
404.422	1187.69
404.645	1396.69
404.869	1480.69
405.093	1143.69
405.317	997.69
405.541	968.69
405.765	1024.69
405.988	982.69
406.212	1071.69
406.436	1198.69
406.66	1384.69
406.883	1112.69
407.107	1148.69
407.331	1308.69
407.555	1251.69
407.778	1069.69
408.002	1075.69
408.226	1032.69
408.449	1031.69
408.673	978.69
408.896	904.69
409.12	893.69
409.344	898.69
409.567	879.69
409.791	897.69
410.014	868.69
410.238	869.69
410.461	893.69
410.685	880.69
410.908	884.69
411.132	915.69
411.355	929.69
411.578	945.69
411.802	927.69
412.025	960.69
412.249	973.69
412.472	969.69
412.695	964.69
412.919	928.69
413.142	951.69
413.365	1034.69
413.589	1015.69
413.812	924.69
414.035	905.69
414.258	946.69
414.482	1013.69
414.705	1011.69
414.928	911.69
415.151	863.69
415.374	877.69
415.597	886.69
415.821	893.69
416.044	915.69
416.267	837.69
416.49	872.69
416.713	864.69
416.936	846.69
417.159	827.69
417.382	884.69
417.605	869.69
417.828	893.69
418.051	887.69
418.274	903.69
418.497	912.69
418.72	902.69
418.943	929.69
419.166	973.69
419.389	997.69
419.611	998.69
419.834	1011.69
420.057	1067.69
420.28	1051.69
420.503	995.69
420.726	901.69
420.948	884.69
421.171	871.69
421.394	855.69
421.617	830.69
421.839	862.69
422.062	914.69
422.285	907.69
422.507	924.69
422.73	921.69
422.953	961.69
423.175	936.69
423.398	933.69
423.621	976.69
423.843	1017.69
424.066	974.69
424.288	941.69
424.511	917.69
424.733	908.69
424.956	948.69
425.178	1069.69
425.401	1209.69
425.623	1327.69
425.846	1118.69
426.068	968.69
426.291	1055.69
426.513	999.69
426.735	942.69
426.958	978.69
427.18	1118.69
427.402	1404.69
427.625	1385.69
427.847	1173.69
428.069	948.69
428.292	887.69
428.514	897.69
428.736	879.69
428.958	925.69
429.181	1071.69
429.403	951.69
429.625	861.69
429.847	860.69
430.069	889.69
430.292	911.69
430.514	859.69
430.736	962.69
430.958	1159.69
431.18	1052.69
431.402	851.69
431.624	796.69
431.846	797.69
432.068	801.69
432.29	820.69
432.512	887.69
432.734	1169.69
432.956	1115.69
433.178	868.69
433.4	833.69
433.622	860.69
433.844	869.69
434.066	904.69
434.287	899.69
434.509	893.69
434.731	925.69
434.953	884.69
435.175	921.69
435.397	1012.69
435.618	914.69
435.84	837.69
436.062	819.69
436.284	839.69
436.505	791.69
436.727	800.69
436.949	815.69
437.17	833.69
437.392	821.69
437.614	837.69
437.835	811.69
438.057	839.69
438.278	953.69
438.5	1327.69
438.721	1317.69
438.943	980.69
439.165	799.69
439.386	807.69
439.608	792.69
439.829	798.69
440.05	794.69
440.272	851.69
440.493	987.69
440.715	1142.69
440.936	957.69
441.158	852.69
441.379	889.69
441.6	968.69
441.822	1012.69
442.043	878.69
442.264	877.69
442.486	869.69
442.707	851.69
442.928	864.69
443.149	900.69
443.371	898.69
443.592	941.69
443.813	926.69
444.034	895.69
444.255	917.69
444.476	946.69
444.698	935.69
444.919	942.69
445.14	1036.69
445.361	994.69
445.582	940.69
445.803	949.69
446.024	969.69
446.245	944.69
446.466	918.69
446.687	874.69
446.908	905.69
447.129	815.69
447.35	831.69
447.571	812.69
447.792	793.69
448.013	767.69
448.234	765.69
448.455	802.69
448.675	789.69
448.896	797.69
449.117	825.69
449.338	811.69
449.559	813.69
449.779	867.69
450	886.69
450.221	839.69
450.442	801.69
450.662	817.69
450.883	823.69
451.104	818.69
451.324	788.69
451.545	786.69
451.766	769.69
451.986	773.69
452.207	763.69
452.428	774.69
452.648	769.69
452.869	800.69
453.089	789.69
453.31	847.69
453.53	751.69
453.751	730.69
453.971	731.69
454.192	764.69
454.412	780.69
454.633	731.69
454.853	740.69
455.073	717.69
455.294	731.69
455.514	727.69
455.734	761.69
455.955	824.69
456.175	841.69
456.395	741.69
456.616	722.69
456.836	733.69
457.056	699.69
457.276	689.69
457.497	717.69
457.717	720.69
457.937	712.69
458.157	707.69
458.377	717.69
458.598	748.69
458.818	754.69
459.038	828.69
459.258	801.69
459.478	830.69
459.698	889.69
459.918	897.69
460.138	883.69
460.358	889.69
460.578	885.69
460.798	887.69
461.018	901.69
461.238	860.69
461.458	867.69
461.678	882.69
461.898	911.69
462.118	922.69
462.338	940.69
462.558	945.69
462.777	969.69
462.997	1009.69
463.217	1006.69
463.437	1039.69
463.657	1019.69
463.876	940.69
464.096	961.69
464.316	977.69
464.536	982.69
464.755	1033.69
464.975	1007.69
465.195	967.69
465.414	979.69
465.634	930.69
465.854	954.69
466.073	884.69
466.293	860.69
466.512	928.69
466.732	1007.69
466.951	1026.69
467.171	931.69
467.391	885.69
467.61	864.69
467.829	913.69
468.049	913.69
468.268	868.69
468.488	899.69
468.707	904.69
468.927	1073.69
469.146	1144.69
469.365	1040.69
469.585	933.69
469.804	1018.69
470.023	1092.69
470.243	966.69
470.462	912.69
470.681	908.69
470.901	916.69
471.12	968.69
471.339	966.69
471.558	915.69
471.777	920.69
471.997	995.69
472.216	1107.69
472.435	1052.69
472.654	967.69
472.873	959.69
473.092	988.69
473.311	1033.69
473.53	957.69
473.749	931.69
473.968	983.69
474.187	963.69
474.406	903.69
474.625	931.69
474.844	971.69
475.063	1029.69
475.282	998.69
475.501	1057.69
475.72	1119.69
475.939	1054.69
476.158	1093.69
476.377	1264.69
476.596	1433.69
476.814	1508.69
477.033	1225.69
477.252	1066.69
477.471	982.69
477.69	1047.69
477.908	1081.69
478.127	1127.69
478.346	1049.69
478.564	1172.69
478.783	1083.69
479.002	1103.69
479.22	1292.69
479.439	1425.69
479.658	1259.69
479.876	1121.69
480.095	1206.69
480.313	1215.69
480.532	1149.69
480.751	1112.69
480.969	1143.69
481.188	1261.69
481.406	1295.69
481.624	1241.69
481.843	1145.69
482.061	1061.69
482.28	1190.69
482.498	1430.69
482.717	1346.69
482.935	1187.69
483.153	1157.69
483.372	1070.69
483.59	1065.69
483.808	1066.69
484.027	1022.69
484.245	993.69
484.463	974.69
484.681	1029.69
484.9	1118.69
485.118	1175.69
485.336	1099.69
485.554	1051.69
485.772	1061.69
485.99	1157.69
486.209	1228.69
486.427	1195.69
486.645	1185.69
486.863	1259.69
487.081	1215.69
487.299	1319.69
487.517	1276.69
487.735	1211.69
487.953	1189.69
488.171	1262.69
488.389	1171.69
488.607	1095.69
488.825	1148.69
489.043	1265.69
489.261	1434.69
489.479	1459.69
489.696	1259.69
489.914	1181.69
490.132	1126.69
490.35	1116.69
490.568	1140.69
490.786	1149.69
491.003	1105.69
491.221	1141.69
491.439	1146.69
491.657	1141.69
491.874	1230.69
492.092	1423.69
492.31	1705.69
492.527	1699.69
492.745	1506.69
492.963	1311.69
493.18	1281.69
493.398	1295.69
493.615	1273.69
493.833	1252.69
494.05	1220.69
494.268	1215.69
494.485	1228.69
494.703	1195.69
494.92	1240.69
495.138	1213.69
495.355	1201.69
495.573	1191.69
495.79	1353.69
496.008	1709.69
496.225	1535.69
496.442	1355.69
496.66	1341.69
496.877	1394.69
497.094	1349.69
497.312	1279.69
497.529	1318.69
497.746	1315.69
497.963	1356.69
498.181	1486.69
498.398	1565.69
498.615	1609.69
498.832	1686.69
499.049	1727.69
499.267	1532.69
499.484	1535.69
499.701	1608.69
499.918	1755.69
500.135	1820.69
500.352	1917.69
500.569	1966.69
500.786	2041.69
501.003	2029.69
501.22	1798.69
501.437	1695.69
501.654	1630.69
501.871	1605.69
502.088	1624.69
502.305	1496.69
502.522	1510.69
502.739	1493.69
502.956	1389.69
503.172	1379.69
503.389	1289.69
503.606	1259.69
503.823	1302.69
504.04	1319.69
504.256	1323.69
504.473	1339.69
504.69	1378.69
504.907	1386.69
505.123	1357.69
505.34	1411.69
505.557	1397.69
505.773	1359.69
505.99	1297.69
506.207	1342.69
506.423	1239.69
506.64	1188.69
506.856	1241.69
507.073	1357.69
507.289	1315.69
507.506	1338.69
507.722	1410.69
507.939	1393.69
508.155	1426.69
508.372	1298.69
508.588	1244.69
508.805	1233.69
509.021	1193.69
509.238	1153.69
509.454	1169.69
509.67	1176.69
509.887	1228.69
510.103	1312.69
510.319	1293.69
510.536	1179.69
510.752	1093.69
510.968	1084.69
511.184	1016.69
511.401	1042.69
511.617	1039.69
511.833	1062.69
512.049	1059.69
512.265	1085.69
512.481	1136.69
512.698	1243.69
512.914	1365.69
513.13	1225.69
513.346	1131.69
513.562	1192.69
513.778	1144.69
513.994	1138.69
514.21	1188.69
514.426	1176.69
514.642	1151.69
514.858	1136.69
515.074	1184.69
515.29	1255.69
515.506	1432.69
515.721	1379.69
515.937	1258.69
516.153	1180.69
516.369	1150.69
516.585	1211.69
516.801	1362.69
517.016	1551.69
517.232	1563.69
517.448	1526.69
517.664	1371.69
517.879	1290.69
518.095	1254.69
518.311	1260.69
518.527	1317.69
518.742	1400.69
518.958	1441.69
519.173	1417.69
519.389	1379.69
519.605	1357.69
519.82	1471.69
520.036	1679.69
520.251	1671.69
520.467	1540.69
520.682	2296.69
520.898	2739.69
521.113	2583.69
521.329	1700.69
521.544	1527.69
521.76	1502.69
521.975	1336.69
522.19	1259.69
522.406	1317.69
522.621	1455.69
522.836	1476.69
523.052	1479.69
523.267	1255.69
523.482	1303.69
523.698	1369.69
523.913	1364.69
524.128	1209.69
524.343	1180.69
524.559	1201.69
524.774	1151.69
524.989	1166.69
525.204	1195.69
525.419	1311.69
525.634	1207.69
525.849	1239.69
526.064	1255.69
526.28	1252.69
526.495	1483.69
526.71	1516.69
526.925	1316.69
527.14	1363.69
527.355	1352.69
527.57	1111.69
527.785	1188.69
527.999	1111.69
528.214	1073.69
528.429	1056.69
528.644	1033.69
528.859	1009.69
529.074	992.69
529.289	1003.69
529.503	999.69
529.718	1006.69
529.933	1155.69
530.148	1173.69
530.363	1022.69
530.577	1024.69
530.792	974.69
531.007	994.69
531.221	991.69
531.436	970.69
531.651	989.69
531.865	995.69
532.08	1025.69
532.295	993.69
532.509	1023.69
532.724	1168.69
532.938	1264.69
533.153	1474.69
533.367	1208.69
533.582	1159.69
533.796	1089.69
534.011	1021.69
534.225	1048.69
534.44	1089.69
534.654	1096.69
534.868	1237.69
535.083	1129.69
535.297	999.69
535.511	1034.69
535.726	1175.69
535.94	1067.69
536.154	1009.69
536.369	972.69
536.583	969.69
536.797	1019.69
537.011	1036.69
537.225	1092.69
537.44	1109.69
537.654	1014.69
537.868	1013.69
538.082	1025.69
538.296	989.69
538.51	1063.69
538.724	1083.69
538.938	1047.69
539.153	973.69
539.367	950.69
539.581	990.69
539.795	1036.69
540.009	1146.69
540.222	1030.69
540.436	1025.69
540.65	1140.69
540.864	1126.69
541.078	1179.69
541.292	1312.69
541.506	1093.69
541.72	1044.69
541.934	1025.69
542.147	1019.69
542.361	1001.69
542.575	1065.69
542.789	1009.69
543.002	963.69
543.216	1054.69
543.43	952.69
543.644	957.69
543.857	923.69
544.071	960.69
544.285	919.69
544.498	911.69
544.712	878.69
544.925	993.69
545.139	947.69
545.352	915.69
545.566	901.69
545.779	1033.69
545.993	965.69
546.206	873.69
546.42	867.69
546.633	876.69
546.847	836.69
547.06	864.69
547.274	866.69
547.487	887.69
547.7	946.69
547.914	1012.69
548.127	1111.69
548.34	1064.69
548.554	962.69
548.767	1009.69
548.98	1060.69
549.193	987.69
549.407	1020.69
549.62	1173.69
549.833	1086.69
550.046	1151.69
550.259	1155.69
550.473	1039.69
550.686	1012.69
550.899	1025.69
551.112	972.69
551.325	1051.69
551.538	1079.69
551.751	963.69
551.964	898.69
552.177	888.69
552.39	889.69
552.603	893.69
552.816	938.69
553.029	917.69
553.242	858.69
553.455	920.69
553.667	1004.69
553.88	987.69
554.093	895.69
554.306	810.69
554.519	796.69
554.732	783.69
554.944	777.69
555.157	785.69
555.37	786.69
555.583	785.69
555.795	789.69
556.008	798.69
556.221	815.69
556.433	786.69
556.646	768.69
556.859	777.69
557.071	816.69
557.284	795.69
557.496	815.69
557.709	801.69
557.921	781.69
558.134	744.69
558.346	749.69
558.559	739.69
558.771	758.69
558.984	808.69
559.196	754.69
559.409	749.69
559.621	710.69
559.833	727.69
560.046	724.69
560.258	723.69
560.47	751.69
560.683	723.69
560.895	687.69
561.107	678.69
561.32	669.69
561.532	694.69
561.744	759.69
561.956	760.69
562.168	684.69
562.381	689.69
562.593	720.69
562.805	704.69
563.017	690.69
563.229	676.69
563.441	680.69
563.653	670.69
563.865	706.69
564.077	710.69
564.289	662.69
564.501	718.69
564.713	748.69
564.925	721.69
565.137	724.69
565.349	695.69
565.561	717.69
565.773	712.69
565.985	738.69
566.197	791.69
566.408	844.69
566.62	852.69
566.832	876.69
567.044	848.69
567.255	910.69
567.467	957.69
567.679	872.69
567.891	879.69
568.102	888.69
568.314	928.69
568.526	839.69
568.737	807.69
568.949	840.69
569.161	767.69
569.372	700.69
569.584	718.69
569.795	668.69
570.007	687.69
570.218	753.69
570.43	725.69
570.641	723.69
570.853	684.69
571.064	649.69
571.276	679.69
571.487	692.69
571.698	657.69
571.91	641.69
572.121	675.69
572.333	625.69
572.544	627.69
572.755	643.69
572.966	605.69
573.178	615.69
573.389	636.69
573.6	609.69
573.811	664.69
574.023	600.69
574.234	580.69
574.445	582.69
574.656	571.69
574.867	586.69
575.078	597.69
575.289	584.69
575.501	609.69
575.712	596.69
575.923	539.69
576.134	536.69
576.345	529.69
576.556	540.69
576.767	517.69
576.978	500.69
577.188	499.69
577.399	512.69
577.61	533.69
577.821	533.69
578.032	542.69
578.243	595.69
578.454	576.69
578.665	562.69
578.875	563.69
579.086	541.69
579.297	563.69
579.508	551.69
579.718	563.69
579.929	547.69
580.14	545.69
580.35	509.69
580.561	517.69
580.772	477.69
580.982	482.69
581.193	474.69
581.403	478.69
581.614	477.69
581.825	491.69
582.035	469.69
582.246	484.69
582.456	480.69
582.667	471.69
582.877	476.69
583.087	478.69
583.298	462.69
583.508	467.69
583.719	455.69
583.929	447.69
584.139	451.69
584.35	461.69
584.56	469.69
584.77	477.69
584.981	477.69
585.191	481.69
585.401	466.69
585.611	479.69
585.821	499.69
586.032	517.69
586.242	471.69
586.452	461.69
586.662	470.69
586.872	496.69
587.082	459.69
587.292	479.69
587.502	459.69
587.713	457.69
587.923	463.69
588.133	516.69
588.343	487.69
588.553	457.69
588.762	463.69
588.972	451.69
589.182	461.69
589.392	473.69
589.602	465.69
589.812	505.69
590.022	515.69
590.232	499.69
590.441	467.69
590.651	456.69
590.861	453.69
591.071	442.69
591.281	461.69
591.49	472.69
591.7	457.69
591.91	447.69
592.119	450.69
592.329	450.69
592.539	473.69
592.748	452.69
592.958	481.69
593.167	489.69
593.377	476.69
593.587	509.69
593.796	472.69
594.006	486.69
594.215	467.69
594.424	493.69
594.634	491.69
594.843	465.69
595.053	470.69
595.262	445.69
595.472	449.69
595.681	434.69
595.89	433.69
596.1	437.69
596.309	448.69
596.518	423.69
596.727	421.69
596.937	425.69
597.146	463.69
597.355	468.69
597.564	429.69
597.774	399.69
597.983	403.69
598.192	411.69
598.401	387.69
598.61	401.69
598.819	392.69
599.028	367.69
599.237	387.69
599.446	386.69
599.655	387.69
599.864	368.69
600.073	389.69
600.282	372.69
600.491	387.69
600.7	404.69
600.909	387.69
601.118	395.69
601.327	389.69
601.536	394.69
601.745	393.69
601.953	402.69
602.162	394.69
602.371	400.69
602.58	391.69
602.789	387.69
602.997	370.69
603.206	383.69
603.415	376.69
603.623	379.69
603.832	371.69
604.041	358.69
604.249	375.69
604.458	384.69
604.666	364.69
604.875	347.69
605.084	344.69
605.292	357.69
605.501	363.69
605.709	369.69
605.918	363.69
606.126	339.69
606.334	355.69
606.543	340.69
606.751	349.69
606.96	352.69
607.168	333.69
607.376	349.69
607.585	345.69
607.793	372.69
608.001	346.69
608.21	354.69
608.418	358.69
608.626	353.69
608.834	339.69
609.043	333.69
609.251	339.69
609.459	366.69
609.667	349.69
609.875	352.69
610.083	340.69
610.291	352.69
610.499	341.69
610.707	334.69
610.916	345.69
611.124	352.69
611.332	344.69
611.54	318.69
611.748	339.69
611.955	333.69
612.163	344.69
612.371	352.69
612.579	320.69
612.787	333.69
612.995	334.69
613.203	330.69
613.411	330.69
613.618	345.69
613.826	355.69
614.034	340.69
614.242	343.69
614.449	302.69
614.657	312.69
614.865	316.69
615.072	329.69
615.28	331.69
615.488	309.69
615.695	316.69
615.903	327.69
616.111	308.69
616.318	319.69
616.526	318.69
616.733	329.69
616.941	331.69
617.148	328.69
617.356	332.69
617.563	319.69
617.771	333.69
617.978	323.69
618.185	331.69
618.393	323.69
618.6	312.69
618.807	325.69
619.015	314.69
619.222	310.69
619.429	315.69
619.637	315.69
619.844	325.69
620.051	291.69
620.258	296.69
620.466	291.69
620.673	318.69
620.88	293.69
621.087	290.69
621.294	272.69
621.501	279.69
621.708	294.69
621.915	293.69
622.122	304.69
622.329	306.69
622.536	308.69
622.743	291.69
622.95	294.69
623.157	287.69
623.364	303.69
623.571	292.69
623.778	320.69
623.985	295.69
624.192	309.69
624.399	308.69
624.606	317.69
624.812	320.69
625.019	284.69
625.226	311.69
625.433	297.69
625.639	295.69
625.846	289.69
626.053	285.69
626.259	257.69
626.466	284.69
626.673	318.69
626.879	285.69
627.086	281.69
627.293	288.69
627.499	277.69
627.706	281.69
627.912	265.69
628.119	277.69
628.325	269.69
628.532	265.69
628.738	251.69
628.945	262.69
629.151	268.69
629.357	279.69
629.564	255.69
629.77	264.69
629.976	266.69
630.183	261.69
630.389	256.69
630.595	266.69
630.802	262.69
631.008	239.69
631.214	247.69
631.42	240.69
631.627	236.69
631.833	238.69
632.039	271.69
632.245	230.69
632.451	240.69
632.657	231.69
632.863	229.69
633.069	258.69
633.275	232.69
633.481	249.69
633.688	239.69
633.893	244.69
634.099	231.69
634.305	242.69
634.511	239.69
634.717	237.69
634.923	235.69
635.129	235.69
635.335	244.69
635.541	228.69
635.747	241.69
635.952	243.69
636.158	223.69
636.364	229.69
636.57	247.69
636.775	241.69
636.981	239.69
637.187	237.69
637.392	230.69
637.598	225.69
637.804	213.69
638.009	232.69
638.215	218.69
638.421	240.69
638.626	231.69
638.832	213.69
639.037	212.69
639.243	218.69
639.448	215.69
639.654	235.69
639.859	217.69
640.065	207.69
640.27	217.69
640.475	231.69
640.681	224.69
640.886	226.69
641.091	222.69
641.297	212.69
641.502	219.69
641.707	217.69
641.913	242.69
642.118	211.69
642.323	214.69
642.528	242.69
642.733	232.69
642.939	221.69
643.144	221.69
643.349	208.69
643.554	217.69
643.759	223.69
643.964	211.69
644.169	204.69
644.374	212.69
644.579	216.69
644.784	215.69
644.989	210.69
645.194	213.69
645.399	202.69
645.604	207.69
645.809	213.69
646.014	211.69
646.219	212.69
646.423	212.69
646.628	211.69
646.833	207.69
647.038	190.69
647.243	210.69
647.447	202.69
647.652	200.69
647.857	221.69
648.062	210.69
648.266	200.69
648.471	215.69
648.676	197.69
648.88	219.69
649.085	207.69
649.289	206.69
649.494	216.69
649.698	206.69
649.903	214.69
650.107	207.69
650.312	221.69
650.516	196.69
650.721	187.69
650.925	199.69
651.13	193.69
651.334	187.69
651.539	197.69
651.743	189.69
651.947	191.69
652.152	192.69
652.356	171.69
652.56	169.69
652.764	173.69
652.969	181.69
653.173	179.69
653.377	161.69
653.581	167.69
653.785	173.69
653.99	157.69
654.194	150.69
654.398	152.69
654.602	165.69
654.806	161.69
655.01	151.69
655.214	147.69
655.418	154.69
655.622	163.69
655.826	156.69
656.03	148.69
656.234	164.69
656.438	155.69
656.642	152.69
656.846	153.69
657.049	152.69
657.253	149.69
657.457	137.69
657.661	135.69
657.865	128.69
658.068	130.69
658.272	128.69
658.476	124.69
658.68	115.69
658.883	107.69
659.087	100.69
659.291	117.69
659.494	91.69
659.698	113.69
659.901	111.69
660.105	96.69
660.309	107.69
660.512	95.69
660.716	100.69
660.919	115.69
661.123	85.69
661.326	80.69
661.53	93.69
661.733	91.69
661.936	91.69
662.14	90.69
662.343	99.69
662.546	90.69
662.75	87.69
662.953	82.69
663.156	79.69
663.36	78.69
663.563	79.69
663.766	88.69
663.969	78.69
664.173	76.69
664.376	70.69
664.579	90.69
664.782	96.69
664.985	80.69
665.188	85.69
665.391	72.69
665.594	83.69
665.797	86.69
666	85.69
666.203	61.69
666.406	89.69
666.609	81.69
666.812	78.69
667.015	79.69
667.218	83.69
667.421	73.69
667.624	83.69
667.827	79.69
668.03	83.69
668.232	85.69
668.435	89.69
668.638	88.69
668.841	75.69
669.043	76.69
669.246	87.69
669.449	81.69
669.651	74.69
669.854	85.69
670.057	77.69
670.259	82.69
670.462	80.69
670.665	80.69
670.867	84.69
671.07	85.69
671.272	78.69
671.475	103.69
671.677	88.69
671.88	70.69
672.082	70.69
672.284	95.69
672.487	67.69
672.689	73.69
672.892	89.69
