Data from NickelSpatula.Lamp.E10.P2_HRD10591_11-58-37-528.txt Node
Date: Tue Jul 23 11:58:37 EDT 2019
User: cochatt
Spectrometer: HR+D1059
Trigger mode: 1
Integration Time (sec): 1.000000E-1
Scans to average: 1
Electric dark correction enabled: true
Nonlinearity correction enabled: false
Boxcar width: 0
XAxis mode: Wavelengths
Number of Pixels in Spectrum: 2048
>>>>>Begin Spectral Data<<<<<
223.165	-15.88
223.4	-15.88
223.635	-15.88
223.869	-14.88
224.104	-14.88
224.338	-12.88
224.573	-28.88
224.808	-17.88
225.042	-3.88
225.277	-10.88
225.511	2.12
225.746	4.12
225.98	10.12
226.215	11.12
226.449	9.12
226.683	19.12
226.918	30.12
227.152	34.12
227.387	39.12
227.621	56.12
227.856	52.12
228.09	42.12
228.324	66.12
228.559	47.12
228.793	76.12
229.027	146.12
229.262	145.12
229.496	154.12
229.73	196.12
229.964	192.12
230.199	195.12
230.433	226.12
230.667	198.12
230.901	194.12
231.136	205.12
231.37	218.12
231.604	224.12
231.838	263.12
232.072	256.12
232.306	261.12
232.541	241.12
232.775	255.12
233.009	268.12
233.243	301.12
233.477	299.12
233.711	339.12
233.945	351.12
234.179	349.12
234.413	353.12
234.647	410.12
234.881	468.12
235.115	430.12
235.349	432.12
235.583	356.12
235.817	358.12
236.051	384.12
236.285	424.12
236.519	454.12
236.753	417.12
236.987	437.12
237.221	393.12
237.455	411.12
237.689	430.12
237.922	443.12
238.156	487.12
238.39	561.12
238.624	650.12
238.858	593.12
239.091	489.12
239.325	487.12
239.559	481.12
239.793	535.12
240.027	651.12
240.26	589.12
240.494	590.12
240.728	583.12
240.961	697.12
241.195	646.12
241.429	650.12
241.662	618.12
241.896	526.12
242.13	479.12
242.363	478.12
242.597	472.12
242.83	558.12
243.064	544.12
243.298	594.12
243.531	629.12
243.765	658.12
243.998	652.12
244.232	610.12
244.465	593.12
244.699	605.12
244.932	668.12
245.166	622.12
245.399	551.12
245.633	545.12
245.866	567.12
246.099	592.12
246.333	709.12
246.566	782.12
246.8	772.12
247.033	751.12
247.266	698.12
247.5	698.12
247.733	705.12
247.966	671.12
248.2	682.12
248.433	781.12
248.666	850.12
248.899	839.12
249.133	851.12
249.366	987.12
249.599	1063.12
249.832	952.12
250.066	818.12
250.299	853.12
250.532	794.12
250.765	808.12
250.998	763.12
251.231	715.12
251.465	784.12
251.698	842.12
251.931	814.12
252.164	844.12
252.397	908.12
252.63	1048.12
252.863	1170.12
253.096	1216.12
253.329	1123.12
253.562	1132.12
253.795	1231.12
254.028	1406.12
254.261	1381.12
254.494	1264.12
254.727	1146.12
254.96	1154.12
255.193	1153.12
255.426	1143.12
255.659	849.12
255.892	796.12
256.124	839.12
256.357	1004.12
256.59	1215.12
256.823	1158.12
257.056	971.12
257.289	920.12
257.521	986.12
257.754	1150.12
257.987	1294.12
258.22	1119.12
258.452	1013.12
258.685	1154.12
258.918	1273.12
259.151	1227.12
259.383	1335.12
259.616	1502.12
259.849	1538.12
260.081	1682.12
260.314	1904.12
260.547	1462.12
260.779	1446.12
261.012	1703.12
261.244	1617.12
261.477	1643.12
261.71	1570.12
261.942	1283.12
262.175	1274.12
262.407	1205.12
262.64	1273.12
262.872	1540.12
263.105	1648.12
263.337	1726.12
263.57	1517.12
263.802	1030.12
264.035	892.12
264.267	878.12
264.499	797.12
264.732	702.12
264.964	695.12
265.197	731.12
265.429	797.12
265.661	836.12
265.894	852.12
266.126	915.12
266.358	1029.12
266.591	1278.12
266.823	1497.12
267.055	1376.12
267.287	1254.12
267.52	1257.12
267.752	1298.12
267.984	1428.12
268.216	1363.12
268.448	1135.12
268.681	1103.12
268.913	1186.12
269.145	1257.12
269.377	1320.12
269.609	1263.12
269.841	1230.12
270.073	1331.12
270.306	1356.12
270.538	1370.12
270.77	1368.12
271.002	1387.12
271.234	1456.12
271.466	1562.12
271.698	1472.12
271.93	1430.12
272.162	1431.12
272.394	1417.12
272.626	1390.12
272.858	1425.12
273.09	1498.12
273.322	1336.12
273.553	1290.12
273.785	1506.12
274.017	1984.12
274.249	2413.12
274.481	2507.12
274.713	2744.12
274.945	3117.12
275.176	3265.12
275.408	2865.12
275.64	2620.12
275.872	2666.12
276.104	2219.12
276.335	1884.12
276.567	1864.12
276.799	1984.12
277.031	2099.12
277.262	1623.12
277.494	1248.12
277.726	1219.12
277.957	1290.12
278.189	1488.12
278.421	1466.12
278.652	1426.12
278.884	1348.12
279.115	1272.12
279.347	1172.12
279.579	1199.12
279.81	1219.12
280.042	1186.12
280.273	1218.12
280.505	1143.12
280.736	1013.12
280.968	1029.12
281.199	1100.12
281.431	1250.12
281.662	1224.12
281.894	1202.12
282.125	1223.12
282.356	1342.12
282.588	1367.12
282.819	1268.12
283.051	1364.12
283.282	1695.12
283.513	1975.12
283.745	2174.12
283.976	2155.12
284.207	1992.12
284.439	2084.12
284.67	1997.12
284.901	1778.12
285.132	1940.12
285.364	2023.12
285.595	1843.12
285.826	1989.12
286.057	2038.12
286.288	1956.12
286.52	2003.12
286.751	2131.12
286.982	2123.12
287.213	1838.12
287.444	1802.12
287.675	1850.12
287.906	1814.12
288.138	1557.12
288.369	1366.12
288.6	1288.12
288.831	1300.12
289.062	1523.12
289.293	1688.12
289.524	1571.12
289.755	1588.12
289.986	1623.12
290.217	1444.12
290.448	1086.12
290.679	944.12
290.91	899.12
291.141	918.12
291.371	962.12
291.602	995.12
291.833	958.12
292.064	1086.12
292.295	1204.12
292.526	1396.12
292.757	1423.12
292.987	1542.12
293.218	1546.12
293.449	1575.12
293.68	1698.12
293.91	1585.12
294.141	1600.12
294.372	1494.12
294.603	1425.12
294.833	1589.12
295.064	1826.12
295.295	1691.12
295.525	1287.12
295.756	1124.12
295.987	993.12
296.217	994.12
296.448	1023.12
296.679	1102.12
296.909	1211.12
297.14	1333.12
297.37	1403.12
297.601	1347.12
297.831	1185.12
298.062	1240.12
298.292	1412.12
298.523	1554.12
298.753	1771.12
298.984	1587.12
299.214	1243.12
299.445	1063.12
299.675	1059.12
299.905	1046.12
300.136	1061.12
300.366	1171.12
300.597	1134.12
300.827	997.12
301.057	962.12
301.288	1016.12
301.518	1096.12
301.748	1236.12
301.979	1315.12
302.209	1413.12
302.439	1430.12
302.669	1215.12
302.9	1262.12
303.13	1127.12
303.36	1100.12
303.59	1063.12
303.82	1108.12
304.051	1223.12
304.281	1334.12
304.511	1266.12
304.741	1114.12
304.971	1188.12
305.201	1289.12
305.431	1188.12
305.661	1049.12
305.891	1060.12
306.121	1089.12
306.352	966.12
306.582	890.12
306.812	858.12
307.042	851.12
307.272	802.12
307.502	796.12
307.731	870.12
307.961	930.12
308.191	835.12
308.421	789.12
308.651	793.12
308.881	772.12
309.111	783.12
309.341	846.12
309.571	891.12
309.8	942.12
310.03	922.12
310.26	1008.12
310.49	976.12
310.72	872.12
310.949	853.12
311.179	849.12
311.409	900.12
311.639	1086.12
311.868	1366.12
312.098	1753.12
312.328	1932.12
312.557	1879.12
312.787	1876.12
313.017	1659.12
313.246	1827.12
313.476	1942.12
313.706	1628.12
313.935	1276.12
314.165	1038.12
314.394	954.12
314.624	955.12
314.853	1019.12
315.083	1054.12
315.312	1037.12
315.542	995.12
315.771	946.12
316.001	851.12
316.23	834.12
316.46	841.12
316.689	861.12
316.919	903.12
317.148	901.12
317.377	867.12
317.607	894.12
317.836	972.12
318.065	1097.12
318.295	1244.12
318.524	1128.12
318.753	994.12
318.983	926.12
319.212	927.12
319.441	1020.12
319.67	1110.12
319.9	1216.12
320.129	1138.12
320.358	986.12
320.587	929.12
320.816	1027.12
321.046	1169.12
321.275	1312.12
321.504	1328.12
321.733	1254.12
321.962	1235.12
322.191	1148.12
322.42	1113.12
322.649	1125.12
322.878	1216.12
323.108	1152.12
323.337	1116.12
323.566	1098.12
323.795	1048.12
324.024	995.12
324.253	974.12
324.482	985.12
324.71	1079.12
324.939	1241.12
325.168	1101.12
325.397	909.12
325.626	897.12
325.855	890.12
326.084	942.12
326.313	878.12
326.542	826.12
326.77	847.12
326.999	907.12
327.228	959.12
327.457	1019.12
327.686	1011.12
327.914	895.12
328.143	810.12
328.372	828.12
328.6	834.12
328.829	873.12
329.058	894.12
329.287	884.12
329.515	879.12
329.744	875.12
329.972	827.12
330.201	775.12
330.43	825.12
330.658	978.12
330.887	1037.12
331.115	1065.12
331.344	1001.12
331.572	975.12
331.801	880.12
332.03	859.12
332.258	873.12
332.486	954.12
332.715	982.12
332.943	901.12
333.172	894.12
333.4	936.12
333.629	1026.12
333.857	1094.12
334.085	1104.12
334.314	1114.12
334.542	1042.12
334.771	939.12
334.999	931.12
335.227	906.12
335.455	965.12
335.684	1036.12
335.912	1203.12
336.14	1300.12
336.369	1239.12
336.597	1207.12
336.825	1379.12
337.053	1511.12
337.281	1186.12
337.51	974.12
337.738	983.12
337.966	1054.12
338.194	1165.12
338.422	1112.12
338.65	954.12
338.878	868.12
339.106	907.12
339.334	1027.12
339.562	1114.12
339.79	1028.12
340.018	946.12
340.246	1055.12
340.474	1166.12
340.702	1286.12
340.93	1297.12
341.158	1305.12
341.386	1108.12
341.614	1146.12
341.842	1118.12
342.07	1152.12
342.298	1343.12
342.526	1390.12
342.754	1202.12
342.981	1101.12
343.209	1061.12
343.437	1121.12
343.665	1192.12
343.893	1170.12
344.12	1380.12
344.348	1585.12
344.576	1404.12
344.804	1196.12
345.031	1012.12
345.259	971.12
345.487	973.12
345.714	1008.12
345.942	1104.12
346.17	1180.12
346.397	1108.12
346.625	993.12
346.853	989.12
347.08	947.12
347.308	1011.12
347.535	1109.12
347.763	1117.12
347.99	992.12
348.218	907.12
348.445	959.12
348.673	955.12
348.9	957.12
349.128	1037.12
349.355	1079.12
349.583	1051.12
349.81	1028.12
350.037	949.12
350.265	811.12
350.492	822.12
350.72	795.12
350.947	820.12
351.174	874.12
351.402	966.12
351.629	986.12
351.856	959.12
352.083	885.12
352.311	963.12
352.538	1077.12
352.765	1172.12
352.992	1011.12
353.22	995.12
353.447	992.12
353.674	947.12
353.901	956.12
354.128	966.12
354.355	1001.12
354.583	994.12
354.81	997.12
355.037	1017.12
355.264	1005.12
355.491	1083.12
355.718	1170.12
355.945	1127.12
356.172	1078.12
356.399	1089.12
356.626	1343.12
356.853	1610.12
357.08	1714.12
357.307	1774.12
357.534	1375.12
357.761	1404.12
357.988	1744.12
358.215	2032.12
358.441	1950.12
358.668	1634.12
358.895	1491.12
359.122	1195.12
359.349	1202.12
359.576	1319.12
359.802	1076.12
360.029	933.12
360.256	1020.12
360.483	1278.12
360.709	1623.12
360.936	1704.12
361.163	1473.12
361.39	1113.12
361.616	1078.12
361.843	1211.12
362.07	1515.12
362.296	1346.12
362.523	1087.12
362.749	955.12
362.976	1001.12
363.203	1215.12
363.429	1344.12
363.656	1112.12
363.882	984.12
364.109	984.12
364.335	968.12
364.562	994.12
364.788	1107.12
365.015	1338.12
365.241	1178.12
365.468	946.12
365.694	801.12
365.92	776.12
366.147	794.12
366.373	778.12
366.599	795.12
366.826	815.12
367.052	844.12
367.278	867.12
367.505	826.12
367.731	859.12
367.957	1032.12
368.184	1050.12
368.41	991.12
368.636	1012.12
368.862	1102.12
369.089	1026.12
369.315	915.12
369.541	898.12
369.767	902.12
369.993	872.12
370.219	851.12
370.445	912.12
370.672	1028.12
370.898	1098.12
371.124	1086.12
371.35	936.12
371.576	901.12
371.802	964.12
372.028	1171.12
372.254	1350.12
372.48	1161.12
372.706	1039.12
372.932	1076.12
373.158	1124.12
373.384	1407.12
373.61	1825.12
373.835	1866.12
374.061	1404.12
374.287	1179.12
374.513	1362.12
374.739	1665.12
374.965	1694.12
375.191	1666.12
375.416	1174.12
375.642	1032.12
375.868	1226.12
376.094	1338.12
376.319	1160.12
376.545	1290.12
376.771	1355.12
376.997	1143.12
377.222	857.12
377.448	777.12
377.674	760.12
377.899	760.12
378.125	763.12
378.35	730.12
378.576	762.12
378.802	863.12
379.027	938.12
379.253	880.12
379.478	927.12
379.704	1044.12
379.929	1092.12
380.155	1103.12
380.38	939.12
380.606	1006.12
380.831	1127.12
381.057	1006.12
381.282	959.12
381.507	1194.12
381.733	1424.12
381.958	1526.12
382.184	1636.12
382.409	1704.12
382.634	1689.12
382.86	1756.12
383.085	1426.12
383.31	1127.12
383.535	1204.12
383.761	1209.12
383.986	1170.12
384.211	1434.12
384.436	1352.12
384.662	1046.12
384.887	975.12
385.112	1026.12
385.337	1049.12
385.562	999.12
385.787	1097.12
386.013	1211.12
386.238	1258.12
386.463	1004.12
386.688	991.12
386.913	967.12
387.138	898.12
387.363	950.12
387.588	993.12
387.813	990.12
388.038	1126.12
388.263	977.12
388.488	982.12
388.713	1128.12
388.938	1219.12
389.163	1014.12
389.387	900.12
389.612	924.12
389.837	953.12
390.062	966.12
390.287	1021.12
390.512	974.12
390.736	933.12
390.961	882.12
391.186	854.12
391.411	827.12
391.636	885.12
391.86	918.12
392.085	1034.12
392.31	1007.12
392.534	970.12
392.759	934.12
392.984	985.12
393.208	992.12
393.433	871.12
393.658	810.12
393.882	802.12
394.107	788.12
394.331	793.12
394.556	792.12
394.78	805.12
395.005	827.12
395.229	857.12
395.454	873.12
395.678	898.12
395.903	920.12
396.127	880.12
396.352	885.12
396.576	980.12
396.801	1004.12
397.025	1111.12
397.249	1125.12
397.474	944.12
397.698	913.12
397.922	987.12
398.147	891.12
398.371	918.12
398.595	994.12
398.82	952.12
399.044	939.12
399.268	991.12
399.492	1046.12
399.717	1038.12
399.941	1104.12
400.165	1041.12
400.389	1036.12
400.613	1037.12
400.837	1069.12
401.062	940.12
401.286	873.12
401.51	913.12
401.734	904.12
401.958	896.12
402.182	897.12
402.406	903.12
402.63	924.12
402.854	981.12
403.078	1076.12
403.302	1294.12
403.526	1370.12
403.75	1160.12
403.974	1037.12
404.198	1064.12
404.422	1228.12
404.645	1443.12
404.869	1614.12
405.093	1158.12
405.317	1021.12
405.541	988.12
405.765	1022.12
405.988	1008.12
406.212	1086.12
406.436	1278.12
406.66	1408.12
406.883	1115.12
407.107	1148.12
407.331	1354.12
407.555	1294.12
407.778	1050.12
408.002	1050.12
408.226	1063.12
408.449	1056.12
408.673	1003.12
408.896	932.12
409.12	890.12
409.344	928.12
409.567	873.12
409.791	888.12
410.014	894.12
410.238	882.12
410.461	877.12
410.685	879.12
410.908	912.12
411.132	918.12
411.355	923.12
411.578	936.12
411.802	918.12
412.025	978.12
412.249	980.12
412.472	978.12
412.695	979.12
412.919	929.12
413.142	954.12
413.365	1008.12
413.589	1065.12
413.812	928.12
414.035	888.12
414.258	937.12
414.482	1066.12
414.705	1063.12
414.928	903.12
415.151	890.12
415.374	879.12
415.597	912.12
415.821	953.12
416.044	909.12
416.267	891.12
416.49	878.12
416.713	857.12
416.936	858.12
417.159	847.12
417.382	881.12
417.605	888.12
417.828	939.12
418.051	925.12
418.274	954.12
418.497	938.12
418.72	920.12
418.943	955.12
419.166	988.12
419.389	1007.12
419.611	979.12
419.834	1014.12
420.057	1150.12
420.28	1155.12
420.503	1001.12
420.726	904.12
420.948	883.12
421.171	898.12
421.394	903.12
421.617	829.12
421.839	865.12
422.062	925.12
422.285	941.12
422.507	927.12
422.73	969.12
422.953	966.12
423.175	939.12
423.398	950.12
423.621	1004.12
423.843	1064.12
424.066	981.12
424.288	934.12
424.511	900.12
424.733	876.12
424.956	942.12
425.178	1075.12
425.401	1223.12
425.623	1419.12
425.846	1133.12
426.068	1031.12
426.291	1127.12
426.513	1041.12
426.735	935.12
426.958	1011.12
427.18	1170.12
427.402	1549.12
427.625	1478.12
427.847	1186.12
428.069	906.12
428.292	930.12
428.514	891.12
428.736	870.12
428.958	962.12
429.181	1121.12
429.403	982.12
429.625	902.12
429.847	878.12
430.069	895.12
430.292	907.12
430.514	887.12
430.736	945.12
430.958	1191.12
431.18	1088.12
431.402	869.12
431.624	818.12
431.846	810.12
432.068	808.12
432.29	798.12
432.512	934.12
432.734	1234.12
432.956	1128.12
433.178	877.12
433.4	852.12
433.622	838.12
433.844	890.12
434.066	947.12
434.287	927.12
434.509	894.12
434.731	918.12
434.953	853.12
435.175	925.12
435.397	1034.12
435.618	892.12
435.84	828.12
436.062	856.12
436.284	823.12
436.505	807.12
436.727	771.12
436.949	805.12
437.17	822.12
437.392	838.12
437.614	816.12
437.835	818.12
438.057	852.12
438.278	968.12
438.5	1376.12
438.721	1370.12
438.943	952.12
439.165	837.12
439.386	798.12
439.608	778.12
439.829	770.12
440.05	781.12
440.272	841.12
440.493	1003.12
440.715	1213.12
440.936	980.12
441.158	871.12
441.379	856.12
441.6	970.12
441.822	1015.12
442.043	885.12
442.264	834.12
442.486	900.12
442.707	849.12
442.928	862.12
443.149	883.12
443.371	890.12
443.592	927.12
443.813	900.12
444.034	918.12
444.255	910.12
444.476	959.12
444.698	941.12
444.919	944.12
445.14	1014.12
445.361	998.12
445.582	961.12
445.803	904.12
446.024	948.12
446.245	950.12
446.466	929.12
446.687	875.12
446.908	880.12
447.129	834.12
447.35	819.12
447.571	805.12
447.792	819.12
448.013	780.12
448.234	802.12
448.455	808.12
448.675	801.12
448.896	840.12
449.117	791.12
449.338	822.12
449.559	847.12
449.779	874.12
450	884.12
450.221	838.12
450.442	803.12
450.662	812.12
450.883	794.12
451.104	828.12
451.324	824.12
451.545	788.12
451.766	809.12
451.986	773.12
452.207	791.12
452.428	780.12
452.648	774.12
452.869	817.12
453.089	847.12
453.31	842.12
453.53	778.12
453.751	774.12
453.971	738.12
454.192	759.12
454.412	803.12
454.633	731.12
454.853	774.12
455.073	714.12
455.294	708.12
455.514	735.12
455.734	746.12
455.955	778.12
456.175	823.12
456.395	736.12
456.616	675.12
456.836	714.12
457.056	699.12
457.276	711.12
457.497	692.12
457.717	722.12
457.937	733.12
458.157	710.12
458.377	729.12
458.598	728.12
458.818	787.12
459.038	809.12
459.258	819.12
459.478	865.12
459.698	896.12
459.918	909.12
460.138	894.12
460.358	904.12
460.578	883.12
460.798	891.12
461.018	906.12
461.238	842.12
461.458	860.12
461.678	897.12
461.898	926.12
462.118	936.12
462.338	926.12
462.558	969.12
462.777	997.12
462.997	991.12
463.217	985.12
463.437	1015.12
463.657	990.12
463.876	941.12
464.096	984.12
464.316	955.12
464.536	983.12
464.755	1008.12
464.975	1013.12
465.195	964.12
465.414	1019.12
465.634	973.12
465.854	939.12
466.073	865.12
466.293	859.12
466.512	910.12
466.732	1028.12
466.951	1049.12
467.171	922.12
467.391	886.12
467.61	884.12
467.829	938.12
468.049	924.12
468.268	878.12
468.488	875.12
468.707	921.12
468.927	1050.12
469.146	1167.12
469.365	1045.12
469.585	963.12
469.804	1019.12
470.023	1140.12
470.243	943.12
470.462	914.12
470.681	935.12
470.901	922.12
471.12	953.12
471.339	953.12
471.558	929.12
471.777	929.12
471.997	964.12
472.216	1116.12
472.435	1094.12
472.654	980.12
472.873	966.12
473.092	1024.12
473.311	1070.12
473.53	977.12
473.749	936.12
473.968	1000.12
474.187	988.12
474.406	914.12
474.625	920.12
474.844	953.12
475.063	1006.12
475.282	1031.12
475.501	1051.12
475.72	1147.12
475.939	1079.12
476.158	1093.12
476.377	1238.12
476.596	1471.12
476.814	1530.12
477.033	1251.12
477.252	1042.12
477.471	999.12
477.69	994.12
477.908	1125.12
478.127	1158.12
478.346	1055.12
478.564	1137.12
478.783	1097.12
479.002	1124.12
479.22	1292.12
479.439	1432.12
479.658	1218.12
479.876	1112.12
480.095	1193.12
480.313	1236.12
480.532	1136.12
480.751	1112.12
480.969	1126.12
481.188	1290.12
481.406	1319.12
481.624	1235.12
481.843	1122.12
482.061	1035.12
482.28	1206.12
482.498	1439.12
482.717	1408.12
482.935	1177.12
483.153	1134.12
483.372	1068.12
483.59	1083.12
483.808	1047.12
484.027	1013.12
484.245	1001.12
484.463	986.12
484.681	1034.12
484.9	1112.12
485.118	1191.12
485.336	1118.12
485.554	1024.12
485.772	1097.12
485.99	1183.12
486.209	1251.12
486.427	1254.12
486.645	1207.12
486.863	1252.12
487.081	1258.12
487.299	1370.12
487.517	1313.12
487.735	1198.12
487.953	1228.12
488.171	1244.12
488.389	1206.12
488.607	1122.12
488.825	1175.12
489.043	1266.12
489.261	1474.12
489.479	1566.12
489.696	1329.12
489.914	1170.12
490.132	1099.12
490.35	1138.12
490.568	1110.12
490.786	1115.12
491.003	1134.12
491.221	1165.12
491.439	1146.12
491.657	1131.12
491.874	1194.12
492.092	1504.12
492.31	1833.12
492.527	1782.12
492.745	1542.12
492.963	1329.12
493.18	1282.12
493.398	1298.12
493.615	1281.12
493.833	1250.12
494.05	1257.12
494.268	1251.12
494.485	1235.12
494.703	1187.12
494.92	1238.12
495.138	1191.12
495.355	1187.12
495.573	1219.12
495.79	1413.12
496.008	1827.12
496.225	1553.12
496.442	1358.12
496.66	1396.12
496.877	1468.12
497.094	1370.12
497.312	1317.12
497.529	1341.12
497.746	1312.12
497.963	1382.12
498.181	1486.12
498.398	1590.12
498.615	1615.12
498.832	1734.12
499.049	1724.12
499.267	1561.12
499.484	1553.12
499.701	1631.12
499.918	1715.12
500.135	1874.12
500.352	1914.12
500.569	1968.12
500.786	2033.12
501.003	2034.12
501.22	1830.12
501.437	1718.12
501.654	1628.12
501.871	1618.12
502.088	1650.12
502.305	1478.12
502.522	1502.12
502.739	1491.12
502.956	1375.12
503.172	1370.12
503.389	1337.12
503.606	1283.12
503.823	1281.12
504.04	1304.12
504.256	1332.12
504.473	1356.12
504.69	1361.12
504.907	1414.12
505.123	1374.12
505.34	1458.12
505.557	1419.12
505.773	1337.12
505.99	1296.12
506.207	1347.12
506.423	1262.12
506.64	1194.12
506.856	1245.12
507.073	1379.12
507.289	1348.12
507.506	1378.12
507.722	1404.12
507.939	1430.12
508.155	1449.12
508.372	1344.12
508.588	1241.12
508.805	1232.12
509.021	1232.12
509.238	1175.12
509.454	1155.12
509.67	1163.12
509.887	1174.12
510.103	1323.12
510.319	1307.12
510.536	1236.12
510.752	1079.12
510.968	1037.12
511.184	1030.12
511.401	1036.12
511.617	1026.12
511.833	1055.12
512.049	1076.12
512.265	1086.12
512.481	1094.12
512.698	1262.12
512.914	1390.12
513.13	1217.12
513.346	1126.12
513.562	1175.12
513.778	1193.12
513.994	1168.12
514.21	1265.12
514.426	1187.12
514.642	1142.12
514.858	1138.12
515.074	1190.12
515.29	1253.12
515.506	1419.12
515.721	1328.12
515.937	1243.12
516.153	1162.12
516.369	1180.12
516.585	1162.12
516.801	1389.12
517.016	1618.12
517.232	1554.12
517.448	1554.12
517.664	1379.12
517.879	1320.12
518.095	1259.12
518.311	1255.12
518.527	1311.12
518.742	1375.12
518.958	1490.12
519.173	1427.12
519.389	1375.12
519.605	1394.12
519.82	1483.12
520.036	1746.12
520.251	1691.12
520.467	1628.12
520.682	2401.12
520.898	2875.12
521.113	2738.12
521.329	1708.12
521.544	1530.12
521.76	1527.12
521.975	1333.12
522.19	1334.12
522.406	1354.12
522.621	1473.12
522.836	1483.12
523.052	1595.12
523.267	1308.12
523.482	1309.12
523.698	1393.12
523.913	1344.12
524.128	1211.12
524.343	1173.12
524.559	1204.12
524.774	1121.12
524.989	1161.12
525.204	1171.12
525.419	1348.12
525.634	1214.12
525.849	1264.12
526.064	1241.12
526.28	1253.12
526.495	1457.12
526.71	1525.12
526.925	1375.12
527.14	1433.12
527.355	1368.12
527.57	1130.12
527.785	1237.12
527.999	1122.12
528.214	1056.12
528.429	1074.12
528.644	1051.12
528.859	999.12
529.074	1038.12
529.289	1019.12
529.503	995.12
529.718	1041.12
529.933	1187.12
530.148	1194.12
530.363	1048.12
530.577	1064.12
530.792	1012.12
531.007	1000.12
531.221	973.12
531.436	957.12
531.651	991.12
531.865	1006.12
532.08	1003.12
532.295	1026.12
532.509	1008.12
532.724	1205.12
532.938	1297.12
533.153	1530.12
533.367	1214.12
533.582	1155.12
533.796	1077.12
534.011	1059.12
534.225	1088.12
534.44	1062.12
534.654	1100.12
534.868	1245.12
535.083	1136.12
535.297	992.12
535.511	1026.12
535.726	1150.12
535.94	1086.12
536.154	1032.12
536.369	975.12
536.583	983.12
536.797	995.12
537.011	1071.12
537.225	1143.12
537.44	1202.12
537.654	1005.12
537.868	1040.12
538.082	1034.12
538.296	1032.12
538.51	1073.12
538.724	1100.12
538.938	1057.12
539.153	970.12
539.367	983.12
539.581	995.12
539.795	1057.12
540.009	1140.12
540.222	1059.12
540.436	1053.12
540.65	1161.12
540.864	1169.12
541.078	1227.12
541.292	1344.12
541.506	1096.12
541.72	1082.12
541.934	1031.12
542.147	1047.12
542.361	1033.12
542.575	1073.12
542.789	1024.12
543.002	980.12
543.216	1050.12
543.43	959.12
543.644	912.12
543.857	934.12
544.071	947.12
544.285	959.12
544.498	940.12
544.712	909.12
544.925	1026.12
545.139	974.12
545.352	907.12
545.566	915.12
545.779	1026.12
545.993	978.12
546.206	868.12
546.42	862.12
546.633	874.12
546.847	853.12
547.06	861.12
547.274	858.12
547.487	904.12
547.7	960.12
547.914	1013.12
548.127	1122.12
548.34	1088.12
548.554	988.12
548.767	1030.12
548.98	1070.12
549.193	979.12
549.407	991.12
549.62	1168.12
549.833	1092.12
550.046	1172.12
550.259	1168.12
550.473	1042.12
550.686	997.12
550.899	982.12
551.112	981.12
551.325	1052.12
551.538	1103.12
551.751	954.12
551.964	889.12
552.177	880.12
552.39	878.12
552.603	907.12
552.816	925.12
553.029	878.12
553.242	873.12
553.455	950.12
553.667	994.12
553.88	947.12
554.093	882.12
554.306	829.12
554.519	790.12
554.732	777.12
554.944	789.12
555.157	774.12
555.37	780.12
555.583	793.12
555.795	791.12
556.008	814.12
556.221	814.12
556.433	799.12
556.646	778.12
556.859	815.12
557.071	846.12
557.284	807.12
557.496	836.12
557.709	835.12
557.921	800.12
558.134	737.12
558.346	731.12
558.559	744.12
558.771	755.12
558.984	830.12
559.196	766.12
559.409	741.12
559.621	704.12
559.833	700.12
560.046	735.12
560.258	723.12
560.47	753.12
560.683	699.12
560.895	678.12
561.107	675.12
561.32	683.12
561.532	676.12
561.744	768.12
561.956	800.12
562.168	714.12
562.381	712.12
562.593	722.12
562.805	732.12
563.017	715.12
563.229	684.12
563.441	660.12
563.653	681.12
563.865	706.12
564.077	703.12
564.289	656.12
564.501	674.12
564.713	750.12
564.925	719.12
565.137	709.12
565.349	692.12
565.561	705.12
565.773	690.12
565.985	724.12
566.197	763.12
566.408	855.12
566.62	827.12
566.832	834.12
567.044	827.12
567.255	870.12
567.467	949.12
567.679	892.12
567.891	892.12
568.102	870.12
568.314	914.12
568.526	830.12
568.737	816.12
568.949	864.12
569.161	771.12
569.372	699.12
569.584	681.12
569.795	675.12
570.007	698.12
570.218	752.12
570.43	728.12
570.641	698.12
570.853	643.12
571.064	675.12
571.276	676.12
571.487	725.12
571.698	667.12
571.91	653.12
572.121	663.12
572.333	634.12
572.544	608.12
572.755	624.12
572.966	630.12
573.178	612.12
573.389	642.12
573.6	654.12
573.811	608.12
574.023	582.12
574.234	567.12
574.445	588.12
574.656	565.12
574.867	591.12
575.078	610.12
575.289	606.12
575.501	642.12
575.712	594.12
575.923	554.12
576.134	556.12
576.345	566.12
576.556	560.12
576.767	527.12
576.978	530.12
577.188	531.12
577.399	541.12
577.61	531.12
577.821	547.12
578.032	531.12
578.243	562.12
578.454	560.12
578.665	548.12
578.875	554.12
579.086	562.12
579.297	558.12
579.508	574.12
579.718	561.12
579.929	523.12
580.14	524.12
580.35	499.12
580.561	468.12
580.772	491.12
580.982	476.12
581.193	466.12
581.403	477.12
581.614	467.12
581.825	467.12
582.035	459.12
582.246	459.12
582.456	455.12
582.667	467.12
582.877	468.12
583.087	455.12
583.298	458.12
583.508	466.12
583.719	463.12
583.929	473.12
584.139	475.12
584.35	440.12
584.56	474.12
584.77	481.12
584.981	456.12
585.191	479.12
585.401	472.12
585.611	484.12
585.821	485.12
586.032	470.12
586.242	482.12
586.452	484.12
586.662	469.12
586.872	480.12
587.082	506.12
587.292	468.12
587.502	466.12
587.713	460.12
587.923	458.12
588.133	504.12
588.343	486.12
588.553	464.12
588.762	460.12
588.972	457.12
589.182	456.12
589.392	435.12
589.602	460.12
589.812	473.12
590.022	504.12
590.232	511.12
590.441	459.12
590.651	467.12
590.861	452.12
591.071	466.12
591.281	443.12
591.49	453.12
591.7	459.12
591.91	423.12
592.119	442.12
592.329	460.12
592.539	442.12
592.748	477.12
592.958	460.12
593.167	445.12
593.377	483.12
593.587	486.12
593.796	468.12
594.006	472.12
594.215	476.12
594.424	480.12
594.634	498.12
594.843	503.12
595.053	461.12
595.262	453.12
595.472	434.12
595.681	416.12
595.89	434.12
596.1	453.12
596.309	441.12
596.518	447.12
596.727	414.12
596.937	441.12
597.146	446.12
597.355	458.12
597.564	461.12
597.774	428.12
597.983	391.12
598.192	413.12
598.401	389.12
598.61	403.12
598.819	383.12
599.028	393.12
599.237	386.12
599.446	391.12
599.655	390.12
599.864	372.12
600.073	388.12
600.282	383.12
600.491	383.12
600.7	392.12
600.909	409.12
601.118	384.12
601.327	388.12
601.536	391.12
601.745	388.12
601.953	387.12
602.162	402.12
602.371	400.12
602.58	401.12
602.789	389.12
602.997	374.12
603.206	377.12
603.415	370.12
603.623	355.12
603.832	362.12
604.041	372.12
604.249	365.12
604.458	397.12
604.666	359.12
604.875	338.12
605.084	343.12
605.292	349.12
605.501	393.12
605.709	375.12
605.918	359.12
606.126	351.12
606.334	354.12
606.543	350.12
606.751	368.12
606.96	353.12
607.168	338.12
607.376	347.12
607.585	346.12
607.793	345.12
608.001	339.12
608.21	334.12
608.418	361.12
608.626	370.12
608.834	338.12
609.043	345.12
609.251	341.12
609.459	344.12
609.667	345.12
609.875	348.12
610.083	348.12
610.291	366.12
610.499	347.12
610.707	338.12
610.916	351.12
611.124	341.12
611.332	334.12
611.54	327.12
611.748	342.12
611.955	346.12
612.163	361.12
612.371	323.12
612.579	327.12
612.787	324.12
612.995	310.12
613.203	330.12
613.411	328.12
613.618	344.12
613.826	356.12
614.034	352.12
614.242	331.12
614.449	316.12
614.657	347.12
614.865	319.12
615.072	326.12
615.28	314.12
615.488	329.12
615.695	329.12
615.903	321.12
616.111	324.12
616.318	336.12
616.526	323.12
616.733	323.12
616.941	299.12
617.148	326.12
617.356	307.12
617.563	308.12
617.771	333.12
617.978	304.12
618.185	322.12
618.393	320.12
618.6	334.12
618.807	315.12
619.015	326.12
619.222	302.12
619.429	316.12
619.637	314.12
619.844	290.12
620.051	274.12
620.258	296.12
620.466	308.12
620.673	291.12
620.88	298.12
621.087	281.12
621.294	275.12
621.501	298.12
621.708	297.12
621.915	305.12
622.122	290.12
622.329	302.12
622.536	301.12
622.743	292.12
622.95	290.12
623.157	302.12
623.364	299.12
623.571	309.12
623.778	289.12
623.985	314.12
624.192	300.12
624.399	306.12
624.606	302.12
624.812	296.12
625.019	299.12
625.226	294.12
625.433	290.12
625.639	284.12
625.846	277.12
626.053	288.12
626.259	276.12
626.466	299.12
626.673	318.12
626.879	288.12
627.086	283.12
627.293	303.12
627.499	295.12
627.706	280.12
627.912	258.12
628.119	251.12
628.325	245.12
628.532	264.12
628.738	284.12
628.945	258.12
629.151	256.12
629.357	258.12
629.564	266.12
629.77	266.12
629.976	257.12
630.183	270.12
630.389	266.12
630.595	263.12
630.802	274.12
631.008	254.12
631.214	269.12
631.42	261.12
631.627	259.12
631.833	245.12
632.039	247.12
632.245	258.12
632.451	230.12
632.657	230.12
632.863	234.12
633.069	244.12
633.275	253.12
633.481	249.12
633.688	247.12
633.893	247.12
634.099	243.12
634.305	224.12
634.511	228.12
634.717	232.12
634.923	231.12
635.129	232.12
635.335	233.12
635.541	238.12
635.747	226.12
635.952	226.12
636.158	234.12
636.364	219.12
636.57	232.12
636.775	235.12
636.981	247.12
637.187	227.12
637.392	228.12
637.598	234.12
637.804	242.12
638.009	240.12
638.215	238.12
638.421	231.12
638.626	219.12
638.832	225.12
639.037	219.12
639.243	218.12
639.448	234.12
639.654	245.12
639.859	220.12
640.065	224.12
640.27	247.12
640.475	234.12
640.681	230.12
640.886	236.12
641.091	241.12
641.297	234.12
641.502	213.12
641.707	216.12
641.913	218.12
642.118	226.12
642.323	222.12
642.528	211.12
642.733	224.12
642.939	243.12
643.144	217.12
643.349	218.12
643.554	223.12
643.759	223.12
643.964	217.12
644.169	216.12
644.374	209.12
644.579	213.12
644.784	224.12
644.989	193.12
645.194	218.12
645.399	198.12
645.604	208.12
645.809	224.12
646.014	208.12
646.219	224.12
646.423	197.12
646.628	218.12
646.833	231.12
647.038	204.12
647.243	225.12
647.447	216.12
647.652	211.12
647.857	203.12
648.062	216.12
648.266	209.12
648.471	210.12
648.676	209.12
648.88	197.12
649.085	210.12
649.289	218.12
649.494	213.12
649.698	221.12
649.903	207.12
650.107	198.12
650.312	196.12
650.516	188.12
650.721	194.12
650.925	193.12
651.13	197.12
651.334	185.12
651.539	193.12
651.743	184.12
651.947	172.12
652.152	166.12
652.356	186.12
652.56	166.12
652.764	177.12
652.969	157.12
653.173	172.12
653.377	169.12
653.581	158.12
653.785	164.12
653.99	183.12
654.194	166.12
654.398	168.12
654.602	155.12
654.806	156.12
655.01	181.12
655.214	169.12
655.418	165.12
655.622	163.12
655.826	166.12
656.03	178.12
656.234	168.12
656.438	169.12
656.642	144.12
656.846	164.12
657.049	146.12
657.253	154.12
657.457	150.12
657.661	130.12
657.865	123.12
658.068	124.12
658.272	115.12
658.476	127.12
658.68	123.12
658.883	114.12
659.087	125.12
659.291	121.12
659.494	115.12
659.698	124.12
659.901	104.12
660.105	86.12
660.309	103.12
660.512	103.12
660.716	104.12
660.919	102.12
661.123	107.12
661.326	101.12
661.53	94.12
661.733	103.12
661.936	84.12
662.14	90.12
662.343	94.12
662.546	98.12
662.75	97.12
662.953	86.12
663.156	91.12
663.36	83.12
663.563	76.12
663.766	83.12
663.969	96.12
664.173	88.12
664.376	87.12
664.579	91.12
664.782	84.12
664.985	95.12
665.188	66.12
665.391	96.12
665.594	87.12
665.797	78.12
666	95.12
666.203	81.12
666.406	65.12
666.609	85.12
666.812	84.12
667.015	78.12
667.218	76.12
667.421	81.12
667.624	89.12
667.827	92.12
668.03	98.12
668.232	84.12
668.435	76.12
668.638	81.12
668.841	86.12
669.043	88.12
669.246	87.12
669.449	82.12
669.651	76.12
669.854	71.12
670.057	92.12
670.259	90.12
670.462	84.12
670.665	94.12
670.867	73.12
671.07	66.12
671.272	86.12
671.475	92.12
671.677	85.12
671.88	82.12
672.082	75.12
672.284	86.12
672.487	81.12
672.689	79.12
672.892	79.12
