Data from NickelSpatula.Lamp.E5.5.P2_HRD10591_11-53-34-548.txt Node
Date: Tue Jul 23 11:53:34 EDT 2019
User: cochatt
Spectrometer: HR+D1059
Trigger mode: 1
Integration Time (sec): 1.000000E-1
Scans to average: 1
Electric dark correction enabled: true
Nonlinearity correction enabled: false
Boxcar width: 0
XAxis mode: Wavelengths
Number of Pixels in Spectrum: 2048
>>>>>Begin Spectral Data<<<<<
223.165	-1.62
223.4	-1.62
223.635	-1.62
223.869	-13.62
224.104	-13.62
224.338	-16.62
224.573	-27.62
224.808	-22.62
225.042	-16.62
225.277	1.38
225.511	-2.62
225.746	-2.62
225.98	16.38
226.215	3.38
226.449	17.38
226.683	27.38
226.918	28.38
227.152	23.38
227.387	31.38
227.621	35.38
227.856	46.38
228.09	51.38
228.324	48.38
228.559	56.38
228.793	57.38
229.027	74.38
229.262	70.38
229.496	75.38
229.73	86.38
229.964	92.38
230.199	90.38
230.433	108.38
230.667	76.38
230.901	100.38
231.136	110.38
231.37	98.38
231.604	99.38
231.838	110.38
232.072	105.38
232.306	116.38
232.541	113.38
232.775	101.38
233.009	103.38
233.243	119.38
233.477	102.38
233.711	113.38
233.945	102.38
234.179	110.38
234.413	129.38
234.647	121.38
234.881	141.38
235.115	133.38
235.349	120.38
235.583	107.38
235.817	116.38
236.051	117.38
236.285	128.38
236.519	137.38
236.753	131.38
236.987	145.38
237.221	119.38
237.455	143.38
237.689	131.38
237.922	143.38
238.156	148.38
238.39	157.38
238.624	158.38
238.858	148.38
239.091	145.38
239.325	145.38
239.559	146.38
239.793	154.38
240.027	185.38
240.26	162.38
240.494	155.38
240.728	149.38
240.961	182.38
241.195	170.38
241.429	162.38
241.662	156.38
241.896	141.38
242.13	133.38
242.363	139.38
242.597	125.38
242.83	157.38
243.064	165.38
243.298	170.38
243.531	166.38
243.765	172.38
243.998	155.38
244.232	175.38
244.465	175.38
244.699	149.38
244.932	157.38
245.166	163.38
245.399	140.38
245.633	143.38
245.866	165.38
246.099	165.38
246.333	182.38
246.566	192.38
246.8	173.38
247.033	179.38
247.266	180.38
247.5	170.38
247.733	174.38
247.966	190.38
248.2	182.38
248.433	170.38
248.666	203.38
248.899	201.38
249.133	215.38
249.366	240.38
249.599	225.38
249.832	209.38
250.066	215.38
250.299	208.38
250.532	182.38
250.765	182.38
250.998	183.38
251.231	165.38
251.465	181.38
251.698	196.38
251.931	197.38
252.164	203.38
252.397	216.38
252.63	237.38
252.863	260.38
253.096	268.38
253.329	243.38
253.562	273.38
253.795	259.38
254.028	309.38
254.261	313.38
254.494	273.38
254.727	258.38
254.96	260.38
255.193	279.38
255.426	249.38
255.659	205.38
255.892	186.38
256.124	217.38
256.357	236.38
256.59	282.38
256.823	259.38
257.056	224.38
257.289	210.38
257.521	216.38
257.754	266.38
257.987	317.38
258.22	283.38
258.452	249.38
258.685	269.38
258.918	294.38
259.151	278.38
259.383	310.38
259.616	341.38
259.849	350.38
260.081	374.38
260.314	411.38
260.547	327.38
260.779	345.38
261.012	367.38
261.244	341.38
261.477	371.38
261.71	325.38
261.942	303.38
262.175	301.38
262.407	279.38
262.64	273.38
262.872	308.38
263.105	368.38
263.337	372.38
263.57	342.38
263.802	241.38
264.035	229.38
264.267	220.38
264.499	179.38
264.732	167.38
264.964	175.38
265.197	195.38
265.429	212.38
265.661	188.38
265.894	208.38
266.126	220.38
266.358	237.38
266.591	292.38
266.823	324.38
267.055	310.38
267.287	295.38
267.52	280.38
267.752	307.38
267.984	337.38
268.216	305.38
268.448	268.38
268.681	276.38
268.913	276.38
269.145	301.38
269.377	275.38
269.609	292.38
269.841	276.38
270.073	298.38
270.306	335.38
270.538	318.38
270.77	317.38
271.002	339.38
271.234	323.38
271.466	340.38
271.698	330.38
271.93	315.38
272.162	302.38
272.394	320.38
272.626	299.38
272.858	320.38
273.09	322.38
273.322	286.38
273.553	277.38
273.785	308.38
274.017	386.38
274.249	464.38
274.481	478.38
274.713	540.38
274.945	626.38
275.176	639.38
275.408	573.38
275.64	525.38
275.872	527.38
276.104	480.38
276.335	402.38
276.567	409.38
276.799	422.38
277.031	439.38
277.262	341.38
277.494	262.38
277.726	262.38
277.957	268.38
278.189	314.38
278.421	304.38
278.652	320.38
278.884	301.38
279.115	282.38
279.347	273.38
279.579	258.38
279.81	282.38
280.042	275.38
280.273	291.38
280.505	260.38
280.736	253.38
280.968	241.38
281.199	260.38
281.431	286.38
281.662	260.38
281.894	278.38
282.125	267.38
282.356	296.38
282.588	305.38
282.819	287.38
283.051	292.38
283.282	347.38
283.513	397.38
283.745	454.38
283.976	450.38
284.207	391.38
284.439	430.38
284.67	408.38
284.901	365.38
285.132	393.38
285.364	428.38
285.595	381.38
285.826	409.38
286.057	430.38
286.288	392.38
286.52	407.38
286.751	452.38
286.982	431.38
287.213	400.38
287.444	361.38
287.675	393.38
287.906	406.38
288.138	341.38
288.369	297.38
288.6	285.38
288.831	325.38
289.062	344.38
289.293	373.38
289.524	363.38
289.755	353.38
289.986	345.38
290.217	324.38
290.448	263.38
290.679	232.38
290.91	212.38
291.141	211.38
291.371	223.38
291.602	221.38
291.833	231.38
292.064	252.38
292.295	281.38
292.526	297.38
292.757	312.38
292.987	340.38
293.218	358.38
293.449	356.38
293.68	376.38
293.91	367.38
294.141	372.38
294.372	358.38
294.603	313.38
294.833	346.38
295.064	389.38
295.295	395.38
295.525	319.38
295.756	274.38
295.987	235.38
296.217	230.38
296.448	247.38
296.679	237.38
296.909	286.38
297.14	293.38
297.37	313.38
297.601	289.38
297.831	266.38
298.062	280.38
298.292	292.38
298.523	337.38
298.753	377.38
298.984	318.38
299.214	304.38
299.445	258.38
299.675	261.38
299.905	244.38
300.136	253.38
300.366	250.38
300.597	221.38
300.827	229.38
301.057	213.38
301.288	227.38
301.518	251.38
301.748	263.38
301.979	295.38
302.209	317.38
302.439	305.38
302.669	295.38
302.9	261.38
303.13	250.38
303.36	261.38
303.59	240.38
303.82	274.38
304.051	274.38
304.281	292.38
304.511	280.38
304.741	251.38
304.971	257.38
305.201	281.38
305.431	276.38
305.661	263.38
305.891	227.38
306.121	228.38
306.352	219.38
306.582	206.38
306.812	187.38
307.042	212.38
307.272	191.38
307.502	199.38
307.731	200.38
307.961	226.38
308.191	200.38
308.421	190.38
308.651	176.38
308.881	195.38
309.111	181.38
309.341	194.38
309.571	207.38
309.8	222.38
310.03	215.38
310.26	228.38
310.49	203.38
310.72	193.38
310.949	208.38
311.179	222.38
311.409	198.38
311.639	231.38
311.868	280.38
312.098	379.38
312.328	401.38
312.557	393.38
312.787	377.38
313.017	343.38
313.246	354.38
313.476	428.38
313.706	341.38
313.935	285.38
314.165	243.38
314.394	218.38
314.624	222.38
314.853	229.38
315.083	242.38
315.312	229.38
315.542	224.38
315.771	226.38
316.001	192.38
316.23	206.38
316.46	181.38
316.689	201.38
316.919	193.38
317.148	192.38
317.377	206.38
317.607	210.38
317.836	220.38
318.065	244.38
318.295	257.38
318.524	263.38
318.753	213.38
318.983	206.38
319.212	212.38
319.441	222.38
319.67	237.38
319.9	269.38
320.129	262.38
320.358	218.38
320.587	217.38
320.816	226.38
321.046	252.38
321.275	271.38
321.504	274.38
321.733	267.38
321.962	251.38
322.191	254.38
322.42	236.38
322.649	229.38
322.878	256.38
323.108	249.38
323.337	227.38
323.566	237.38
323.795	235.38
324.024	234.38
324.253	216.38
324.482	213.38
324.71	230.38
324.939	268.38
325.168	253.38
325.397	226.38
325.626	215.38
325.855	214.38
326.084	219.38
326.313	209.38
326.542	210.38
326.77	208.38
326.999	224.38
327.228	214.38
327.457	235.38
327.686	239.38
327.914	206.38
328.143	190.38
328.372	184.38
328.6	185.38
328.829	198.38
329.058	205.38
329.287	209.38
329.515	208.38
329.744	193.38
329.972	201.38
330.201	188.38
330.43	207.38
330.658	221.38
330.887	231.38
331.115	222.38
331.344	211.38
331.572	217.38
331.801	194.38
332.03	220.38
332.258	209.38
332.486	226.38
332.715	234.38
332.943	206.38
333.172	208.38
333.4	215.38
333.629	220.38
333.857	264.38
334.085	252.38
334.314	259.38
334.542	251.38
334.771	236.38
334.999	219.38
335.227	226.38
335.455	219.38
335.684	241.38
335.912	263.38
336.14	302.38
336.369	291.38
336.597	276.38
336.825	311.38
337.053	326.38
337.281	287.38
337.51	209.38
337.738	217.38
337.966	223.38
338.194	258.38
338.422	233.38
338.65	208.38
338.878	208.38
339.106	202.38
339.334	234.38
339.562	234.38
339.79	240.38
340.018	221.38
340.246	241.38
340.474	238.38
340.702	268.38
340.93	277.38
341.158	275.38
341.386	235.38
341.614	226.38
341.842	227.38
342.07	258.38
342.298	310.38
342.526	278.38
342.754	255.38
342.981	234.38
343.209	226.38
343.437	247.38
343.665	262.38
343.893	262.38
344.12	319.38
344.348	371.38
344.576	309.38
344.804	257.38
345.031	234.38
345.259	219.38
345.487	209.38
345.714	229.38
345.942	271.38
346.17	277.38
346.397	257.38
346.625	237.38
346.853	228.38
347.08	227.38
347.308	219.38
347.535	251.38
347.763	284.38
347.99	236.38
348.218	224.38
348.445	225.38
348.673	220.38
348.9	224.38
349.128	239.38
349.355	235.38
349.583	242.38
349.81	235.38
350.037	200.38
350.265	202.38
350.492	195.38
350.72	178.38
350.947	196.38
351.174	209.38
351.402	217.38
351.629	208.38
351.856	196.38
352.083	197.38
352.311	220.38
352.538	239.38
352.765	253.38
352.992	250.38
353.22	218.38
353.447	223.38
353.674	203.38
353.901	212.38
354.128	211.38
354.355	205.38
354.583	215.38
354.81	223.38
355.037	235.38
355.264	222.38
355.491	232.38
355.718	251.38
355.945	243.38
356.172	234.38
356.399	226.38
356.626	269.38
356.853	337.38
357.08	351.38
357.307	368.38
357.534	305.38
357.761	295.38
357.988	366.38
358.215	435.38
358.441	375.38
358.668	354.38
358.895	294.38
359.122	256.38
359.349	297.38
359.576	302.38
359.802	256.38
360.029	222.38
360.256	241.38
360.483	277.38
360.709	350.38
360.936	348.38
361.163	316.38
361.39	224.38
361.616	226.38
361.843	252.38
362.07	317.38
362.296	267.38
362.523	242.38
362.749	214.38
362.976	216.38
363.203	247.38
363.429	267.38
363.656	234.38
363.882	217.38
364.109	228.38
364.335	230.38
364.562	233.38
364.788	234.38
365.015	274.38
365.241	261.38
365.468	228.38
365.694	189.38
365.92	188.38
366.147	208.38
366.373	192.38
366.599	194.38
366.826	192.38
367.052	203.38
367.278	201.38
367.505	206.38
367.731	208.38
367.957	213.38
368.184	233.38
368.41	201.38
368.636	230.38
368.862	226.38
369.089	227.38
369.315	198.38
369.541	210.38
369.767	210.38
369.993	196.38
370.219	216.38
370.445	213.38
370.672	233.38
370.898	259.38
371.124	244.38
371.35	237.38
371.576	216.38
371.802	225.38
372.028	255.38
372.254	285.38
372.48	275.38
372.706	266.38
372.932	250.38
373.158	236.38
373.384	279.38
373.61	363.38
373.835	350.38
374.061	283.38
374.287	262.38
374.513	315.38
374.739	346.38
374.965	359.38
375.191	359.38
375.416	267.38
375.642	234.38
375.868	255.38
376.094	291.38
376.319	254.38
376.545	273.38
376.771	293.38
376.997	258.38
377.222	215.38
377.448	192.38
377.674	185.38
377.899	196.38
378.125	169.38
378.35	186.38
378.576	207.38
378.802	186.38
379.027	216.38
379.253	215.38
379.478	209.38
379.704	250.38
379.929	237.38
380.155	252.38
380.38	213.38
380.606	226.38
380.831	262.38
381.057	239.38
381.282	218.38
381.507	261.38
381.733	307.38
381.958	320.38
382.184	333.38
382.409	354.38
382.634	366.38
382.86	368.38
383.085	312.38
383.31	267.38
383.535	276.38
383.761	283.38
383.986	273.38
384.211	316.38
384.436	309.38
384.662	246.38
384.887	256.38
385.112	251.38
385.337	267.38
385.562	228.38
385.787	267.38
386.013	285.38
386.238	279.38
386.463	254.38
386.688	247.38
386.913	234.38
387.138	219.38
387.363	227.38
387.588	231.38
387.813	227.38
388.038	262.38
388.263	244.38
388.488	234.38
388.713	265.38
388.938	284.38
389.163	223.38
389.387	221.38
389.612	209.38
389.837	223.38
390.062	205.38
390.287	235.38
390.512	229.38
390.736	225.38
390.961	214.38
391.186	207.38
391.411	214.38
391.636	215.38
391.86	242.38
392.085	254.38
392.31	245.38
392.534	229.38
392.759	230.38
392.984	240.38
393.208	241.38
393.433	220.38
393.658	198.38
393.882	197.38
394.107	202.38
394.331	191.38
394.556	213.38
394.78	205.38
395.005	207.38
395.229	204.38
395.454	200.38
395.678	204.38
395.903	229.38
396.127	194.38
396.352	209.38
396.576	233.38
396.801	226.38
397.025	246.38
397.249	267.38
397.474	228.38
397.698	223.38
397.922	220.38
398.147	214.38
398.371	215.38
398.595	237.38
398.82	218.38
399.044	217.38
399.268	236.38
399.492	279.38
399.717	297.38
399.941	280.38
400.165	255.38
400.389	237.38
400.613	256.38
400.837	249.38
401.062	211.38
401.286	221.38
401.51	209.38
401.734	210.38
401.958	222.38
402.182	230.38
402.406	220.38
402.63	234.38
402.854	257.38
403.078	290.38
403.302	365.38
403.526	379.38
403.75	320.38
403.974	289.38
404.198	281.38
404.422	315.38
404.645	330.38
404.869	350.38
405.093	282.38
405.317	252.38
405.541	256.38
405.765	240.38
405.988	256.38
406.212	269.38
406.436	308.38
406.66	318.38
406.883	291.38
407.107	273.38
407.331	310.38
407.555	305.38
407.778	288.38
408.002	257.38
408.226	273.38
408.449	250.38
408.673	247.38
408.896	241.38
409.12	234.38
409.344	231.38
409.567	238.38
409.791	237.38
410.014	222.38
410.238	223.38
410.461	208.38
410.685	230.38
410.908	229.38
411.132	253.38
411.355	240.38
411.578	235.38
411.802	244.38
412.025	219.38
412.249	229.38
412.472	240.38
412.695	225.38
412.919	226.38
413.142	231.38
413.365	266.38
413.589	251.38
413.812	251.38
414.035	233.38
414.258	250.38
414.482	253.38
414.705	278.38
414.928	236.38
415.151	230.38
415.374	236.38
415.597	222.38
415.821	222.38
416.044	217.38
416.267	236.38
416.49	218.38
416.713	230.38
416.936	240.38
417.159	230.38
417.382	212.38
417.605	235.38
417.828	224.38
418.051	222.38
418.274	215.38
418.497	228.38
418.72	236.38
418.943	233.38
419.166	236.38
419.389	240.38
419.611	234.38
419.834	248.38
420.057	265.38
420.28	249.38
420.503	240.38
420.726	237.38
420.948	221.38
421.171	219.38
421.394	221.38
421.617	208.38
421.839	218.38
422.062	214.38
422.285	229.38
422.507	230.38
422.73	215.38
422.953	246.38
423.175	232.38
423.398	252.38
423.621	267.38
423.843	273.38
424.066	260.38
424.288	215.38
424.511	212.38
424.733	215.38
424.956	242.38
425.178	263.38
425.401	294.38
425.623	332.38
425.846	283.38
426.068	245.38
426.291	261.38
426.513	245.38
426.735	234.38
426.958	251.38
427.18	266.38
427.402	342.38
427.625	360.38
427.847	305.38
428.069	233.38
428.292	227.38
428.514	236.38
428.736	223.38
428.958	263.38
429.181	299.38
429.403	255.38
429.625	216.38
429.847	210.38
430.069	224.38
430.292	193.38
430.514	222.38
430.736	228.38
430.958	262.38
431.18	240.38
431.402	226.38
431.624	206.38
431.846	213.38
432.068	214.38
432.29	199.38
432.512	233.38
432.734	260.38
432.956	263.38
433.178	222.38
433.4	207.38
433.622	221.38
433.844	225.38
434.066	227.38
434.287	237.38
434.509	229.38
434.731	254.38
434.953	235.38
435.175	254.38
435.397	268.38
435.618	251.38
435.84	220.38
436.062	215.38
436.284	221.38
436.505	216.38
436.727	213.38
436.949	187.38
437.17	209.38
437.392	221.38
437.614	199.38
437.835	217.38
438.057	235.38
438.278	234.38
438.5	290.38
438.721	317.38
438.943	219.38
439.165	217.38
439.386	210.38
439.608	213.38
439.829	195.38
440.05	215.38
440.272	219.38
440.493	256.38
440.715	279.38
440.936	253.38
441.158	221.38
441.379	218.38
441.6	239.38
441.822	257.38
442.043	236.38
442.264	226.38
442.486	226.38
442.707	231.38
442.928	215.38
443.149	245.38
443.371	246.38
443.592	252.38
443.813	244.38
444.034	244.38
444.255	249.38
444.476	245.38
444.698	238.38
444.919	261.38
445.14	352.38
445.361	285.38
445.582	243.38
445.803	249.38
446.024	242.38
446.245	245.38
446.466	221.38
446.687	207.38
446.908	214.38
447.129	207.38
447.35	224.38
447.571	220.38
447.792	204.38
448.013	200.38
448.234	203.38
448.455	195.38
448.675	204.38
448.896	202.38
449.117	203.38
449.338	204.38
449.559	218.38
449.779	212.38
450	225.38
450.221	207.38
450.442	207.38
450.662	214.38
450.883	203.38
451.104	196.38
451.324	212.38
451.545	214.38
451.766	227.38
451.986	199.38
452.207	212.38
452.428	208.38
452.648	224.38
452.869	215.38
453.089	230.38
453.31	227.38
453.53	205.38
453.751	209.38
453.971	210.38
454.192	206.38
454.412	186.38
454.633	197.38
454.853	195.38
455.073	198.38
455.294	188.38
455.514	191.38
455.734	217.38
455.955	203.38
456.175	208.38
456.395	167.38
456.616	194.38
456.836	191.38
457.056	186.38
457.276	173.38
457.497	182.38
457.717	197.38
457.937	202.38
458.157	175.38
458.377	198.38
458.598	180.38
458.818	212.38
459.038	204.38
459.258	214.38
459.478	222.38
459.698	222.38
459.918	214.38
460.138	239.38
460.358	230.38
460.578	211.38
460.798	230.38
461.018	234.38
461.238	220.38
461.458	233.38
461.678	237.38
461.898	249.38
462.118	238.38
462.338	233.38
462.558	251.38
462.777	260.38
462.997	293.38
463.217	294.38
463.437	283.38
463.657	255.38
463.876	268.38
464.096	261.38
464.316	257.38
464.536	254.38
464.755	267.38
464.975	277.38
465.195	255.38
465.414	247.38
465.634	230.38
465.854	238.38
466.073	235.38
466.293	216.38
466.512	235.38
466.732	249.38
466.951	231.38
467.171	249.38
467.391	220.38
467.61	222.38
467.829	233.38
468.049	226.38
468.268	217.38
468.488	206.38
468.707	249.38
468.927	251.38
469.146	277.38
469.365	245.38
469.585	234.38
469.804	252.38
470.023	261.38
470.243	254.38
470.462	233.38
470.681	228.38
470.901	235.38
471.12	233.38
471.339	246.38
471.558	217.38
471.777	205.38
471.997	236.38
472.216	272.38
472.435	262.38
472.654	253.38
472.873	221.38
473.092	246.38
473.311	259.38
473.53	243.38
473.749	231.38
473.968	234.38
474.187	223.38
474.406	225.38
474.625	222.38
474.844	239.38
475.063	237.38
475.282	251.38
475.501	265.38
475.72	278.38
475.939	265.38
476.158	269.38
476.377	298.38
476.596	344.38
476.814	353.38
477.033	297.38
477.252	259.38
477.471	246.38
477.69	245.38
477.908	255.38
478.127	274.38
478.346	251.38
478.564	291.38
478.783	259.38
479.002	269.38
479.22	306.38
479.439	310.38
479.658	294.38
479.876	276.38
480.095	291.38
480.313	298.38
480.532	274.38
480.751	251.38
480.969	264.38
481.188	280.38
481.406	287.38
481.624	290.38
481.843	250.38
482.061	254.38
482.28	291.38
482.498	357.38
482.717	318.38
482.935	280.38
483.153	257.38
483.372	259.38
483.59	258.38
483.808	256.38
484.027	274.38
484.245	253.38
484.463	253.38
484.681	258.38
484.9	255.38
485.118	277.38
485.336	265.38
485.554	249.38
485.772	251.38
485.99	274.38
486.209	300.38
486.427	305.38
486.645	293.38
486.863	302.38
487.081	274.38
487.299	320.38
487.517	301.38
487.735	283.38
487.953	269.38
488.171	298.38
488.389	280.38
488.607	271.38
488.825	273.38
489.043	294.38
489.261	314.38
489.479	319.38
489.696	300.38
489.914	258.38
490.132	254.38
490.35	267.38
490.568	265.38
490.786	273.38
491.003	276.38
491.221	256.38
491.439	224.38
491.657	251.38
491.874	255.38
492.092	316.38
492.31	380.38
492.527	373.38
492.745	327.38
492.963	299.38
493.18	283.38
493.398	285.38
493.615	294.38
493.833	281.38
494.05	297.38
494.268	281.38
494.485	301.38
494.703	265.38
494.92	254.38
495.138	256.38
495.355	260.38
495.573	276.38
495.79	294.38
496.008	377.38
496.225	329.38
496.442	292.38
496.66	287.38
496.877	320.38
497.094	301.38
497.312	272.38
497.529	281.38
497.746	302.38
497.963	301.38
498.181	334.38
498.398	358.38
498.615	360.38
498.832	369.38
499.049	388.38
499.267	358.38
499.484	368.38
499.701	400.38
499.918	420.38
500.135	493.38
500.352	503.38
500.569	531.38
500.786	539.38
501.003	502.38
501.22	457.38
501.437	418.38
501.654	392.38
501.871	370.38
502.088	370.38
502.305	341.38
502.522	341.38
502.739	348.38
502.956	305.38
503.172	305.38
503.389	275.38
503.606	295.38
503.823	289.38
504.04	285.38
504.256	302.38
504.473	313.38
504.69	317.38
504.907	334.38
505.123	299.38
505.34	324.38
505.557	317.38
505.773	300.38
505.99	293.38
506.207	311.38
506.423	281.38
506.64	257.38
506.856	281.38
507.073	307.38
507.289	297.38
507.506	305.38
507.722	287.38
507.939	331.38
508.155	323.38
508.372	286.38
508.588	289.38
508.805	270.38
509.021	281.38
509.238	275.38
509.454	262.38
509.67	250.38
509.887	263.38
510.103	322.38
510.319	286.38
510.536	274.38
510.752	246.38
510.968	242.38
511.184	239.38
511.401	248.38
511.617	255.38
511.833	245.38
512.049	257.38
512.265	260.38
512.481	243.38
512.698	282.38
512.914	320.38
513.13	274.38
513.346	257.38
513.562	269.38
513.778	257.38
513.994	264.38
514.21	273.38
514.426	270.38
514.642	262.38
514.858	274.38
515.074	268.38
515.29	310.38
515.506	326.38
515.721	321.38
515.937	281.38
516.153	282.38
516.369	251.38
516.585	279.38
516.801	302.38
517.016	336.38
517.232	345.38
517.448	356.38
517.664	319.38
517.879	317.38
518.095	321.38
518.311	318.38
518.527	330.38
518.742	326.38
518.958	342.38
519.173	331.38
519.389	310.38
519.605	325.38
519.82	325.38
520.036	386.38
520.251	362.38
520.467	342.38
520.682	561.38
520.898	725.38
521.113	658.38
521.329	432.38
521.544	363.38
521.76	348.38
521.975	294.38
522.19	283.38
522.406	301.38
522.621	332.38
522.836	329.38
523.052	353.38
523.267	286.38
523.482	281.38
523.698	305.38
523.913	308.38
524.128	270.38
524.343	273.38
524.559	263.38
524.774	269.38
524.989	282.38
525.204	266.38
525.419	301.38
525.634	281.38
525.849	288.38
526.064	283.38
526.28	306.38
526.495	325.38
526.71	362.38
526.925	313.38
527.14	295.38
527.355	327.38
527.57	266.38
527.785	273.38
527.999	267.38
528.214	270.38
528.429	271.38
528.644	251.38
528.859	243.38
529.074	253.38
529.289	249.38
529.503	255.38
529.718	252.38
529.933	293.38
530.148	307.38
530.363	266.38
530.577	246.38
530.792	241.38
531.007	258.38
531.221	253.38
531.436	247.38
531.651	243.38
531.865	226.38
532.08	241.38
532.295	237.38
532.509	262.38
532.724	273.38
532.938	296.38
533.153	346.38
533.367	276.38
533.582	283.38
533.796	268.38
534.011	247.38
534.225	245.38
534.44	264.38
534.654	267.38
534.868	315.38
535.083	282.38
535.297	251.38
535.511	262.38
535.726	257.38
535.94	252.38
536.154	243.38
536.369	244.38
536.583	236.38
536.797	238.38
537.011	230.38
537.225	262.38
537.44	282.38
537.654	253.38
537.868	242.38
538.082	237.38
538.296	239.38
538.51	253.38
538.724	263.38
538.938	263.38
539.153	223.38
539.367	253.38
539.581	233.38
539.795	239.38
540.009	289.38
540.222	270.38
540.436	281.38
540.65	258.38
540.864	278.38
541.078	285.38
541.292	310.38
541.506	267.38
541.72	270.38
541.934	260.38
542.147	259.38
542.361	255.38
542.575	245.38
542.789	224.38
543.002	230.38
543.216	240.38
543.43	228.38
543.644	234.38
543.857	221.38
544.071	227.38
544.285	250.38
544.498	210.38
544.712	215.38
544.925	238.38
545.139	235.38
545.352	222.38
545.566	221.38
545.779	269.38
545.993	238.38
546.206	214.38
546.42	204.38
546.633	211.38
546.847	199.38
547.06	198.38
547.274	200.38
547.487	210.38
547.7	250.38
547.914	242.38
548.127	267.38
548.34	253.38
548.554	251.38
548.767	235.38
548.98	238.38
549.193	236.38
549.407	239.38
549.62	287.38
549.833	270.38
550.046	268.38
550.259	290.38
550.473	253.38
550.686	228.38
550.899	251.38
551.112	257.38
551.325	261.38
551.538	267.38
551.751	249.38
551.964	235.38
552.177	209.38
552.39	218.38
552.603	231.38
552.816	223.38
553.029	205.38
553.242	219.38
553.455	266.38
553.667	270.38
553.88	243.38
554.093	246.38
554.306	219.38
554.519	206.38
554.732	192.38
554.944	210.38
555.157	209.38
555.37	199.38
555.583	187.38
555.795	197.38
556.008	238.38
556.221	225.38
556.433	205.38
556.646	206.38
556.859	218.38
557.071	223.38
557.284	214.38
557.496	197.38
557.709	218.38
557.921	202.38
558.134	203.38
558.346	191.38
558.559	207.38
558.771	217.38
558.984	200.38
559.196	198.38
559.409	201.38
559.621	190.38
559.833	181.38
560.046	199.38
560.258	193.38
560.47	208.38
560.683	185.38
560.895	189.38
561.107	204.38
561.32	196.38
561.532	188.38
561.744	186.38
561.956	210.38
562.168	198.38
562.381	190.38
562.593	207.38
562.805	194.38
563.017	211.38
563.229	189.38
563.441	199.38
563.653	182.38
563.865	199.38
564.077	210.38
564.289	191.38
564.501	198.38
564.713	217.38
564.925	194.38
565.137	190.38
565.349	194.38
565.561	188.38
565.773	205.38
565.985	208.38
566.197	207.38
566.408	239.38
566.62	226.38
566.832	243.38
567.044	233.38
567.255	255.38
567.467	260.38
567.679	259.38
567.891	271.38
568.102	262.38
568.314	281.38
568.526	249.38
568.737	232.38
568.949	235.38
569.161	209.38
569.372	188.38
569.584	190.38
569.795	208.38
570.007	193.38
570.218	212.38
570.43	199.38
570.641	196.38
570.853	189.38
571.064	200.38
571.276	202.38
571.487	204.38
571.698	194.38
571.91	197.38
572.121	187.38
572.333	179.38
572.544	169.38
572.755	180.38
572.966	188.38
573.178	180.38
573.389	192.38
573.6	187.38
573.811	198.38
574.023	160.38
574.234	186.38
574.445	192.38
574.656	164.38
574.867	171.38
575.078	169.38
575.289	171.38
575.501	187.38
575.712	165.38
575.923	158.38
576.134	167.38
576.345	179.38
576.556	165.38
576.767	181.38
576.978	162.38
577.188	182.38
577.399	177.38
577.61	161.38
577.821	168.38
578.032	157.38
578.243	194.38
578.454	193.38
578.665	193.38
578.875	178.38
579.086	169.38
579.297	186.38
579.508	164.38
579.718	178.38
579.929	174.38
580.14	174.38
580.35	150.38
580.561	160.38
580.772	163.38
580.982	166.38
581.193	160.38
581.403	157.38
581.614	150.38
581.825	160.38
582.035	149.38
582.246	142.38
582.456	153.38
582.667	142.38
582.877	157.38
583.087	153.38
583.298	140.38
583.508	141.38
583.719	149.38
583.929	134.38
584.139	148.38
584.35	151.38
584.56	166.38
584.77	169.38
584.981	156.38
585.191	155.38
585.401	166.38
585.611	181.38
585.821	157.38
586.032	143.38
586.242	161.38
586.452	164.38
586.662	153.38
586.872	171.38
587.082	157.38
587.292	168.38
587.502	157.38
587.713	165.38
587.923	158.38
588.133	165.38
588.343	147.38
588.553	152.38
588.762	159.38
588.972	154.38
589.182	180.38
589.392	150.38
589.602	152.38
589.812	162.38
590.022	165.38
590.232	162.38
590.441	151.38
590.651	153.38
590.861	165.38
591.071	176.38
591.281	151.38
591.49	154.38
591.7	149.38
591.91	139.38
592.119	158.38
592.329	159.38
592.539	169.38
592.748	157.38
592.958	153.38
593.167	170.38
593.377	169.38
593.587	178.38
593.796	169.38
594.006	170.38
594.215	161.38
594.424	175.38
594.634	166.38
594.843	161.38
595.053	155.38
595.262	156.38
595.472	169.38
595.681	153.38
595.89	159.38
596.1	139.38
596.309	150.38
596.518	165.38
596.727	156.38
596.937	155.38
597.146	141.38
597.355	147.38
597.564	134.38
597.774	139.38
597.983	145.38
598.192	146.38
598.401	147.38
598.61	120.38
598.819	149.38
599.028	142.38
599.237	150.38
599.446	148.38
599.655	132.38
599.864	138.38
600.073	143.38
600.282	141.38
600.491	159.38
600.7	142.38
600.909	131.38
601.118	129.38
601.327	154.38
601.536	129.38
601.745	146.38
601.953	148.38
602.162	147.38
602.371	132.38
602.58	145.38
602.789	121.38
602.997	145.38
603.206	158.38
603.415	148.38
603.623	127.38
603.832	119.38
604.041	126.38
604.249	138.38
604.458	141.38
604.666	148.38
604.875	142.38
605.084	138.38
605.292	125.38
605.501	131.38
605.709	136.38
605.918	121.38
606.126	128.38
606.334	127.38
606.543	137.38
606.751	146.38
606.96	139.38
607.168	127.38
607.376	125.38
607.585	145.38
607.793	129.38
608.001	150.38
608.21	125.38
608.418	133.38
608.626	132.38
608.834	128.38
609.043	134.38
609.251	124.38
609.459	142.38
609.667	130.38
609.875	127.38
610.083	134.38
610.291	132.38
610.499	125.38
610.707	128.38
610.916	123.38
611.124	137.38
611.332	133.38
611.54	111.38
611.748	125.38
611.955	134.38
612.163	123.38
612.371	139.38
612.579	125.38
612.787	125.38
612.995	135.38
613.203	144.38
613.411	129.38
613.618	134.38
613.826	127.38
614.034	125.38
614.242	126.38
614.449	136.38
614.657	150.38
614.865	129.38
615.072	111.38
615.28	134.38
615.488	134.38
615.695	129.38
615.903	143.38
616.111	127.38
616.318	140.38
616.526	116.38
616.733	136.38
616.941	140.38
617.148	130.38
617.356	127.38
617.563	120.38
617.771	141.38
617.978	131.38
618.185	139.38
618.393	131.38
618.6	128.38
618.807	130.38
619.015	131.38
619.222	145.38
619.429	123.38
619.637	126.38
619.844	127.38
620.051	116.38
620.258	115.38
620.466	126.38
620.673	120.38
620.88	131.38
621.087	119.38
621.294	126.38
621.501	106.38
621.708	124.38
621.915	117.38
622.122	132.38
622.329	125.38
622.536	109.38
622.743	128.38
622.95	129.38
623.157	116.38
623.364	143.38
623.571	129.38
623.778	135.38
623.985	117.38
624.192	123.38
624.399	116.38
624.606	129.38
624.812	118.38
625.019	113.38
625.226	131.38
625.433	121.38
625.639	114.38
625.846	125.38
626.053	118.38
626.259	118.38
626.466	115.38
626.673	125.38
626.879	145.38
627.086	138.38
627.293	119.38
627.499	102.38
627.706	124.38
627.912	113.38
628.119	105.38
628.325	120.38
628.532	117.38
628.738	119.38
628.945	126.38
629.151	117.38
629.357	116.38
629.564	110.38
629.77	112.38
629.976	99.38
630.183	106.38
630.389	118.38
630.595	100.38
630.802	114.38
631.008	116.38
631.214	114.38
631.42	114.38
631.627	125.38
631.833	115.38
632.039	116.38
632.245	106.38
632.451	106.38
632.657	118.38
632.863	113.38
633.069	113.38
633.275	108.38
633.481	108.38
633.688	103.38
633.893	97.38
634.099	108.38
634.305	109.38
634.511	100.38
634.717	111.38
634.923	106.38
635.129	110.38
635.335	109.38
635.541	117.38
635.747	111.38
635.952	109.38
636.158	106.38
636.364	115.38
636.57	110.38
636.775	102.38
636.981	108.38
637.187	115.38
637.392	110.38
637.598	112.38
637.804	112.38
638.009	117.38
638.215	117.38
638.421	110.38
638.626	108.38
638.832	114.38
639.037	113.38
639.243	101.38
639.448	105.38
639.654	100.38
639.859	97.38
640.065	110.38
640.27	115.38
640.475	115.38
640.681	106.38
640.886	95.38
641.091	107.38
641.297	104.38
641.502	112.38
641.707	111.38
641.913	109.38
642.118	107.38
642.323	117.38
642.528	112.38
642.733	117.38
642.939	114.38
643.144	100.38
643.349	115.38
643.554	112.38
643.759	109.38
643.964	102.38
644.169	116.38
644.374	107.38
644.579	132.38
644.784	103.38
644.989	107.38
645.194	111.38
645.399	106.38
645.604	112.38
645.809	106.38
646.014	122.38
646.219	108.38
646.423	121.38
646.628	126.38
646.833	106.38
647.038	103.38
647.243	105.38
647.447	96.38
647.652	109.38
647.857	119.38
648.062	111.38
648.266	119.38
648.471	115.38
648.676	116.38
648.88	103.38
649.085	110.38
649.289	89.38
649.494	116.38
649.698	109.38
649.903	98.38
650.107	94.38
650.312	101.38
650.516	96.38
650.721	109.38
650.925	95.38
651.13	108.38
651.334	88.38
651.539	101.38
651.743	99.38
651.947	102.38
652.152	107.38
652.356	80.38
652.56	108.38
652.764	100.38
652.969	102.38
653.173	92.38
653.377	95.38
653.581	80.38
653.785	101.38
653.99	103.38
654.194	86.38
654.398	105.38
654.602	108.38
654.806	106.38
655.01	96.38
655.214	106.38
655.418	102.38
655.622	103.38
655.826	103.38
656.03	79.38
656.234	102.38
656.438	92.38
656.642	101.38
656.846	98.38
657.049	94.38
657.253	101.38
657.457	106.38
657.661	90.38
657.865	90.38
658.068	84.38
658.272	90.38
658.476	85.38
658.68	81.38
658.883	98.38
659.087	106.38
659.291	87.38
659.494	82.38
659.698	90.38
659.901	84.38
660.105	92.38
660.309	87.38
660.512	75.38
660.716	94.38
660.919	84.38
661.123	73.38
661.326	88.38
661.53	82.38
661.733	71.38
661.936	82.38
662.14	80.38
662.343	80.38
662.546	83.38
662.75	81.38
662.953	90.38
663.156	72.38
663.36	81.38
663.563	71.38
663.766	77.38
663.969	90.38
664.173	86.38
664.376	81.38
664.579	81.38
664.782	93.38
664.985	86.38
665.188	83.38
665.391	94.38
665.594	75.38
665.797	70.38
666	74.38
666.203	73.38
666.406	80.38
666.609	75.38
666.812	78.38
667.015	73.38
667.218	85.38
667.421	83.38
667.624	80.38
667.827	85.38
668.03	79.38
668.232	71.38
668.435	84.38
668.638	81.38
668.841	71.38
669.043	68.38
669.246	82.38
669.449	81.38
669.651	71.38
669.854	69.38
670.057	78.38
670.259	75.38
670.462	76.38
670.665	72.38
670.867	80.38
671.07	76.38
671.272	87.38
671.475	83.38
671.677	77.38
671.88	71.38
672.082	69.38
672.284	89.38
672.487	75.38
672.689	75.38
672.892	75.38
