Data from NickelSpatula.Lamp.E10.P2_HRD10591_11-59-41-525.txt Node
Date: Tue Jul 23 11:59:41 EDT 2019
User: cochatt
Spectrometer: HR+D1059
Trigger mode: 1
Integration Time (sec): 1.000000E-1
Scans to average: 1
Electric dark correction enabled: true
Nonlinearity correction enabled: false
Boxcar width: 0
XAxis mode: Wavelengths
Number of Pixels in Spectrum: 2048
>>>>>Begin Spectral Data<<<<<
223.165	-13.12
223.4	-13.12
223.635	-13.12
223.869	-21.12
224.104	-6.12
224.338	-18.12
224.573	-32.12
224.808	-16.12
225.042	-2.12
225.277	-0.12
225.511	-7.12
225.746	-2.12
225.98	7.88
226.215	13.88
226.449	16.88
226.683	25.88
226.918	17.88
227.152	35.88
227.387	35.88
227.621	32.88
227.856	36.88
228.09	55.88
228.324	54.88
228.559	61.88
228.793	74.88
229.027	123.88
229.262	155.88
229.496	164.88
229.73	165.88
229.964	174.88
230.199	207.88
230.433	218.88
230.667	199.88
230.901	201.88
231.136	197.88
231.37	210.88
231.604	220.88
231.838	227.88
232.072	235.88
232.306	240.88
232.541	251.88
232.775	232.88
233.009	240.88
233.243	287.88
233.477	311.88
233.711	346.88
233.945	327.88
234.179	313.88
234.413	336.88
234.647	382.88
234.881	447.88
235.115	415.88
235.349	401.88
235.583	347.88
235.817	343.88
236.051	365.88
236.285	421.88
236.519	459.88
236.753	409.88
236.987	440.88
237.221	398.88
237.455	404.88
237.689	419.88
237.922	431.88
238.156	479.88
238.39	558.88
238.624	637.88
238.858	589.88
239.091	474.88
239.325	507.88
239.559	490.88
239.793	517.88
240.027	628.88
240.26	581.88
240.494	564.88
240.728	585.88
240.961	664.88
241.195	648.88
241.429	640.88
241.662	613.88
241.896	507.88
242.13	492.88
242.363	455.88
242.597	466.88
242.83	548.88
243.064	533.88
243.298	569.88
243.531	633.88
243.765	642.88
243.998	607.88
244.232	582.88
244.465	610.88
244.699	577.88
244.932	645.88
245.166	631.88
245.399	538.88
245.633	533.88
245.866	566.88
246.099	603.88
246.333	703.88
246.566	738.88
246.8	769.88
247.033	714.88
247.266	679.88
247.5	685.88
247.733	661.88
247.966	654.88
248.2	694.88
248.433	787.88
248.666	822.88
248.899	830.88
249.133	862.88
249.366	997.88
249.599	1027.88
249.832	943.88
250.066	811.88
250.299	854.88
250.532	801.88
250.765	788.88
250.998	730.88
251.231	727.88
251.465	761.88
251.698	829.88
251.931	801.88
252.164	827.88
252.397	946.88
252.63	1029.88
252.863	1160.88
253.096	1193.88
253.329	1159.88
253.562	1083.88
253.795	1236.88
254.028	1298.88
254.261	1354.88
254.494	1242.88
254.727	1143.88
254.96	1088.88
255.193	1171.88
255.426	1123.88
255.659	851.88
255.892	765.88
256.124	851.88
256.357	1012.88
256.59	1177.88
256.823	1139.88
257.056	924.88
257.289	923.88
257.521	984.88
257.754	1137.88
257.987	1270.88
258.22	1099.88
258.452	967.88
258.685	1113.88
258.918	1245.88
259.151	1215.88
259.383	1300.88
259.616	1495.88
259.849	1515.88
260.081	1691.88
260.314	1844.88
260.547	1438.88
260.779	1476.88
261.012	1690.88
261.244	1586.88
261.477	1616.88
261.71	1507.88
261.942	1260.88
262.175	1256.88
262.407	1187.88
262.64	1282.88
262.872	1509.88
263.105	1621.88
263.337	1703.88
263.57	1496.88
263.802	1021.88
264.035	909.88
264.267	868.88
264.499	759.88
264.732	661.88
264.964	707.88
265.197	710.88
265.429	766.88
265.661	804.88
265.894	828.88
266.126	903.88
266.358	1008.88
266.591	1243.88
266.823	1433.88
267.055	1374.88
267.287	1228.88
267.52	1243.88
267.752	1310.88
267.984	1446.88
268.216	1372.88
268.448	1104.88
268.681	1097.88
268.913	1184.88
269.145	1224.88
269.377	1291.88
269.609	1279.88
269.841	1186.88
270.073	1261.88
270.306	1370.88
270.538	1388.88
270.77	1377.88
271.002	1442.88
271.234	1465.88
271.466	1461.88
271.698	1441.88
271.93	1405.88
272.162	1441.88
272.394	1419.88
272.626	1388.88
272.858	1425.88
273.09	1436.88
273.322	1296.88
273.553	1252.88
273.785	1544.88
274.017	1929.88
274.249	2383.88
274.481	2488.88
274.713	2692.88
274.945	3110.88
275.176	3246.88
275.408	2829.88
275.64	2583.88
275.872	2569.88
276.104	2221.88
276.335	1923.88
276.567	1878.88
276.799	1915.88
277.031	2045.88
277.262	1604.88
277.494	1253.88
277.726	1229.88
277.957	1311.88
278.189	1475.88
278.421	1455.88
278.652	1398.88
278.884	1387.88
279.115	1250.88
279.347	1177.88
279.579	1191.88
279.81	1188.88
280.042	1188.88
280.273	1248.88
280.505	1133.88
280.736	1026.88
280.968	990.88
281.199	1091.88
281.431	1226.88
281.662	1213.88
281.894	1167.88
282.125	1261.88
282.356	1293.88
282.588	1357.88
282.819	1263.88
283.051	1359.88
283.282	1678.88
283.513	1927.88
283.745	2119.88
283.976	2166.88
284.207	1983.88
284.439	2059.88
284.67	1996.88
284.901	1781.88
285.132	1913.88
285.364	1981.88
285.595	1853.88
285.826	1908.88
286.057	2020.88
286.288	1937.88
286.52	1982.88
286.751	2080.88
286.982	2092.88
287.213	1773.88
287.444	1715.88
287.675	1811.88
287.906	1790.88
288.138	1514.88
288.369	1329.88
288.6	1254.88
288.831	1323.88
289.062	1557.88
289.293	1623.88
289.524	1558.88
289.755	1577.88
289.986	1629.88
290.217	1451.88
290.448	1122.88
290.679	963.88
290.91	904.88
291.141	935.88
291.371	1009.88
291.602	989.88
291.833	998.88
292.064	1046.88
292.295	1187.88
292.526	1389.88
292.757	1451.88
292.987	1569.88
293.218	1537.88
293.449	1608.88
293.68	1647.88
293.91	1577.88
294.141	1594.88
294.372	1515.88
294.603	1440.88
294.833	1559.88
295.064	1793.88
295.295	1679.88
295.525	1291.88
295.756	1157.88
295.987	992.88
296.217	1018.88
296.448	1013.88
296.679	1100.88
296.909	1228.88
297.14	1304.88
297.37	1440.88
297.601	1330.88
297.831	1184.88
298.062	1237.88
298.292	1433.88
298.523	1568.88
298.753	1741.88
298.984	1555.88
299.214	1249.88
299.445	1058.88
299.675	1045.88
299.905	1033.88
300.136	1088.88
300.366	1199.88
300.597	1131.88
300.827	1038.88
301.057	977.88
301.288	1026.88
301.518	1096.88
301.748	1229.88
301.979	1330.88
302.209	1479.88
302.439	1430.88
302.669	1264.88
302.9	1232.88
303.13	1166.88
303.36	1096.88
303.59	1059.88
303.82	1105.88
304.051	1246.88
304.281	1340.88
304.511	1318.88
304.741	1131.88
304.971	1224.88
305.201	1293.88
305.431	1189.88
305.661	1061.88
305.891	1062.88
306.121	1075.88
306.352	949.88
306.582	870.88
306.812	845.88
307.042	870.88
307.272	798.88
307.502	808.88
307.731	893.88
307.961	915.88
308.191	862.88
308.421	822.88
308.651	815.88
308.881	747.88
309.111	740.88
309.341	819.88
309.571	890.88
309.8	902.88
310.03	937.88
310.26	984.88
310.49	987.88
310.72	861.88
310.949	845.88
311.179	893.88
311.409	920.88
311.639	1061.88
311.868	1364.88
312.098	1747.88
312.328	1897.88
312.557	1813.88
312.787	1851.88
313.017	1660.88
313.246	1768.88
313.476	1954.88
313.706	1621.88
313.935	1306.88
314.165	1029.88
314.394	928.88
314.624	963.88
314.853	981.88
315.083	1037.88
315.312	996.88
315.542	1053.88
315.771	960.88
316.001	861.88
316.23	827.88
316.46	853.88
316.689	866.88
316.919	882.88
317.148	895.88
317.377	873.88
317.607	865.88
317.836	979.88
318.065	1103.88
318.295	1204.88
318.524	1131.88
318.753	977.88
318.983	917.88
319.212	920.88
319.441	998.88
319.67	1129.88
319.9	1229.88
320.129	1126.88
320.358	965.88
320.587	956.88
320.816	1015.88
321.046	1154.88
321.275	1294.88
321.504	1348.88
321.733	1328.88
321.962	1224.88
322.191	1187.88
322.42	1132.88
322.649	1104.88
322.878	1232.88
323.108	1186.88
323.337	1115.88
323.566	1081.88
323.795	1079.88
324.024	1016.88
324.253	1000.88
324.482	981.88
324.71	1079.88
324.939	1196.88
325.168	1106.88
325.397	928.88
325.626	889.88
325.855	938.88
326.084	921.88
326.313	862.88
326.542	824.88
326.77	884.88
326.999	908.88
327.228	958.88
327.457	1030.88
327.686	1007.88
327.914	916.88
328.143	827.88
328.372	824.88
328.6	844.88
328.829	871.88
329.058	891.88
329.287	883.88
329.515	900.88
329.744	869.88
329.972	811.88
330.201	798.88
330.43	866.88
330.658	949.88
330.887	1078.88
331.115	1023.88
331.344	975.88
331.572	947.88
331.801	891.88
332.03	862.88
332.258	839.88
332.486	933.88
332.715	971.88
332.943	922.88
333.172	925.88
333.4	938.88
333.629	1009.88
333.857	1108.88
334.085	1074.88
334.314	1136.88
334.542	1032.88
334.771	963.88
334.999	955.88
335.227	916.88
335.455	964.88
335.684	1041.88
335.912	1168.88
336.14	1316.88
336.369	1261.88
336.597	1226.88
336.825	1386.88
337.053	1496.88
337.281	1242.88
337.51	990.88
337.738	958.88
337.966	1047.88
338.194	1182.88
338.422	1143.88
338.65	950.88
338.878	860.88
339.106	914.88
339.334	1038.88
339.562	1108.88
339.79	1008.88
340.018	954.88
340.246	1043.88
340.474	1169.88
340.702	1243.88
340.93	1322.88
341.158	1297.88
341.386	1100.88
341.614	1125.88
341.842	1136.88
342.07	1158.88
342.298	1335.88
342.526	1423.88
342.754	1238.88
342.981	1103.88
343.209	1051.88
343.437	1128.88
343.665	1190.88
343.893	1184.88
344.12	1392.88
344.348	1608.88
344.576	1463.88
344.804	1218.88
345.031	1055.88
345.259	963.88
345.487	981.88
345.714	1003.88
345.942	1103.88
346.17	1163.88
346.397	1153.88
346.625	1007.88
346.853	981.88
347.08	934.88
347.308	1034.88
347.535	1102.88
347.763	1158.88
347.99	967.88
348.218	937.88
348.445	963.88
348.673	983.88
348.9	978.88
349.128	1070.88
349.355	1123.88
349.583	1040.88
349.81	1007.88
350.037	943.88
350.265	843.88
350.492	837.88
350.72	782.88
350.947	820.88
351.174	923.88
351.402	944.88
351.629	993.88
351.856	956.88
352.083	891.88
352.311	976.88
352.538	1092.88
352.765	1169.88
352.992	1078.88
353.22	984.88
353.447	1008.88
353.674	1008.88
353.901	966.88
354.128	998.88
354.355	1031.88
354.583	991.88
354.81	964.88
355.037	1018.88
355.264	998.88
355.491	1095.88
355.718	1189.88
355.945	1165.88
356.172	1104.88
356.399	1136.88
356.626	1353.88
356.853	1623.88
357.08	1768.88
357.307	1767.88
357.534	1376.88
357.761	1434.88
357.988	1815.88
358.215	2126.88
358.441	1969.88
358.668	1668.88
358.895	1526.88
359.122	1247.88
359.349	1233.88
359.576	1343.88
359.802	1086.88
360.029	974.88
360.256	1039.88
360.483	1275.88
360.709	1640.88
360.936	1684.88
361.163	1505.88
361.39	1153.88
361.616	1068.88
361.843	1247.88
362.07	1540.88
362.296	1417.88
362.523	1075.88
362.749	937.88
362.976	998.88
363.203	1220.88
363.429	1343.88
363.656	1109.88
363.882	1014.88
364.109	1013.88
364.335	1021.88
364.562	982.88
364.788	1147.88
365.015	1320.88
365.241	1150.88
365.468	967.88
365.694	839.88
365.92	816.88
366.147	769.88
366.373	783.88
366.599	815.88
366.826	812.88
367.052	840.88
367.278	844.88
367.505	813.88
367.731	937.88
367.957	1034.88
368.184	1054.88
368.41	1013.88
368.636	1020.88
368.862	1069.88
369.089	1055.88
369.315	954.88
369.541	900.88
369.767	905.88
369.993	840.88
370.219	872.88
370.445	920.88
370.672	1019.88
370.898	1104.88
371.124	1135.88
371.35	955.88
371.576	918.88
371.802	993.88
372.028	1166.88
372.254	1351.88
372.48	1180.88
372.706	1035.88
372.932	1111.88
373.158	1173.88
373.384	1407.88
373.61	1837.88
373.835	1907.88
374.061	1387.88
374.287	1173.88
374.513	1423.88
374.739	1689.88
374.965	1741.88
375.191	1667.88
375.416	1179.88
375.642	1034.88
375.868	1197.88
376.094	1343.88
376.319	1161.88
376.545	1307.88
376.771	1369.88
376.997	1160.88
377.222	869.88
377.448	729.88
377.674	739.88
377.899	763.88
378.125	734.88
378.35	729.88
378.576	771.88
378.802	862.88
379.027	951.88
379.253	919.88
379.478	942.88
379.704	1091.88
379.929	1133.88
380.155	1107.88
380.38	955.88
380.606	1020.88
380.831	1119.88
381.057	1044.88
381.282	994.88
381.507	1173.88
381.733	1495.88
381.958	1537.88
382.184	1638.88
382.409	1725.88
382.634	1654.88
382.86	1761.88
383.085	1449.88
383.31	1124.88
383.535	1238.88
383.761	1261.88
383.986	1186.88
384.211	1453.88
384.436	1377.88
384.662	1087.88
384.887	1009.88
385.112	1063.88
385.337	1078.88
385.562	1031.88
385.787	1106.88
386.013	1244.88
386.238	1300.88
386.463	1035.88
386.688	981.88
386.913	964.88
387.138	920.88
387.363	972.88
387.588	1012.88
387.813	1000.88
388.038	1105.88
388.263	1016.88
388.488	969.88
388.713	1157.88
388.938	1250.88
389.163	1039.88
389.387	925.88
389.612	947.88
389.837	939.88
390.062	1000.88
390.287	1029.88
390.512	1049.88
390.736	957.88
390.961	879.88
391.186	912.88
391.411	852.88
391.636	854.88
391.86	934.88
392.085	1044.88
392.31	1034.88
392.534	990.88
392.759	937.88
392.984	1022.88
393.208	972.88
393.433	883.88
393.658	813.88
393.882	789.88
394.107	797.88
394.331	796.88
394.556	802.88
394.78	845.88
395.005	856.88
395.229	891.88
395.454	895.88
395.678	899.88
395.903	925.88
396.127	891.88
396.352	881.88
396.576	985.88
396.801	1006.88
397.025	1114.88
397.249	1133.88
397.474	929.88
397.698	923.88
397.922	995.88
398.147	916.88
398.371	924.88
398.595	963.88
398.82	936.88
399.044	956.88
399.268	1011.88
399.492	1035.88
399.717	1049.88
399.941	1101.88
400.165	1035.88
400.389	1041.88
400.613	1066.88
400.837	1036.88
401.062	930.88
401.286	916.88
401.51	923.88
401.734	914.88
401.958	941.88
402.182	919.88
402.406	895.88
402.63	931.88
402.854	984.88
403.078	1065.88
403.302	1333.88
403.526	1351.88
403.75	1227.88
403.974	1058.88
404.198	1127.88
404.422	1229.88
404.645	1447.88
404.869	1598.88
405.093	1176.88
405.317	997.88
405.541	1003.88
405.765	1032.88
405.988	1029.88
406.212	1097.88
406.436	1283.88
406.66	1439.88
406.883	1183.88
407.107	1183.88
407.331	1374.88
407.555	1304.88
407.778	1097.88
408.002	1050.88
408.226	1037.88
408.449	1043.88
408.673	1031.88
408.896	942.88
409.12	915.88
409.344	928.88
409.567	907.88
409.791	889.88
410.014	895.88
410.238	909.88
410.461	893.88
410.685	888.88
410.908	883.88
411.132	921.88
411.355	946.88
411.578	954.88
411.802	939.88
412.025	988.88
412.249	988.88
412.472	947.88
412.695	946.88
412.919	966.88
413.142	986.88
413.365	1059.88
413.589	1057.88
413.812	976.88
414.035	927.88
414.258	911.88
414.482	1067.88
414.705	1078.88
414.928	903.88
415.151	898.88
415.374	886.88
415.597	924.88
415.821	936.88
416.044	913.88
416.267	880.88
416.49	868.88
416.713	874.88
416.936	857.88
417.159	880.88
417.382	907.88
417.605	881.88
417.828	921.88
418.051	919.88
418.274	946.88
418.497	943.88
418.72	974.88
418.943	948.88
419.166	995.88
419.389	1046.88
419.611	993.88
419.834	1031.88
420.057	1112.88
420.28	1107.88
420.503	1043.88
420.726	906.88
420.948	878.88
421.171	898.88
421.394	876.88
421.617	859.88
421.839	894.88
422.062	963.88
422.285	906.88
422.507	948.88
422.73	947.88
422.953	973.88
423.175	926.88
423.398	995.88
423.621	1000.88
423.843	1061.88
424.066	1012.88
424.288	931.88
424.511	923.88
424.733	923.88
424.956	980.88
425.178	1083.88
425.401	1241.88
425.623	1399.88
425.846	1133.88
426.068	1037.88
426.291	1132.88
426.513	1059.88
426.735	969.88
426.958	1016.88
427.18	1163.88
427.402	1540.88
427.625	1469.88
427.847	1193.88
428.069	925.88
428.292	886.88
428.514	901.88
428.736	873.88
428.958	937.88
429.181	1148.88
429.403	1006.88
429.625	903.88
429.847	875.88
430.069	899.88
430.292	920.88
430.514	865.88
430.736	958.88
430.958	1196.88
431.18	1079.88
431.402	848.88
431.624	815.88
431.846	798.88
432.068	791.88
432.29	850.88
432.512	932.88
432.734	1257.88
432.956	1121.88
433.178	844.88
433.4	827.88
433.622	868.88
433.844	863.88
434.066	960.88
434.287	928.88
434.509	896.88
434.731	944.88
434.953	879.88
435.175	941.88
435.397	1032.88
435.618	885.88
435.84	820.88
436.062	847.88
436.284	823.88
436.505	801.88
436.727	777.88
436.949	801.88
437.17	845.88
437.392	838.88
437.614	811.88
437.835	838.88
438.057	835.88
438.278	1000.88
438.5	1426.88
438.721	1396.88
438.943	961.88
439.165	805.88
439.386	783.88
439.608	778.88
439.829	778.88
440.05	811.88
440.272	877.88
440.493	1061.88
440.715	1208.88
440.936	978.88
441.158	859.88
441.379	891.88
441.6	978.88
441.822	1037.88
442.043	903.88
442.264	855.88
442.486	879.88
442.707	886.88
442.928	865.88
443.149	877.88
443.371	897.88
443.592	936.88
443.813	941.88
444.034	872.88
444.255	900.88
444.476	949.88
444.698	925.88
444.919	936.88
445.14	1043.88
445.361	1030.88
445.582	949.88
445.803	915.88
446.024	954.88
446.245	949.88
446.466	926.88
446.687	871.88
446.908	912.88
447.129	852.88
447.35	844.88
447.571	829.88
447.792	815.88
448.013	799.88
448.234	795.88
448.455	786.88
448.675	812.88
448.896	801.88
449.117	781.88
449.338	798.88
449.559	830.88
449.779	887.88
450	857.88
450.221	837.88
450.442	814.88
450.662	821.88
450.883	792.88
451.104	792.88
451.324	794.88
451.545	786.88
451.766	800.88
451.986	792.88
452.207	785.88
452.428	760.88
452.648	791.88
452.869	849.88
453.089	847.88
453.31	854.88
453.53	764.88
453.751	748.88
453.971	753.88
454.192	753.88
454.412	791.88
454.633	745.88
454.853	758.88
455.073	739.88
455.294	743.88
455.514	721.88
455.734	756.88
455.955	813.88
456.175	813.88
456.395	747.88
456.616	706.88
456.836	695.88
457.056	677.88
457.276	697.88
457.497	711.88
457.717	721.88
457.937	701.88
458.157	733.88
458.377	728.88
458.598	745.88
458.818	753.88
459.038	798.88
459.258	822.88
459.478	851.88
459.698	883.88
459.918	888.88
460.138	896.88
460.358	904.88
460.578	870.88
460.798	881.88
461.018	891.88
461.238	863.88
461.458	883.88
461.678	893.88
461.898	927.88
462.118	949.88
462.338	932.88
462.558	923.88
462.777	991.88
462.997	1008.88
463.217	1019.88
463.437	1021.88
463.657	1032.88
463.876	979.88
464.096	965.88
464.316	953.88
464.536	975.88
464.755	1045.88
464.975	1050.88
465.195	972.88
465.414	1004.88
465.634	938.88
465.854	955.88
466.073	864.88
466.293	861.88
466.512	927.88
466.732	1025.88
466.951	1063.88
467.171	935.88
467.391	893.88
467.61	849.88
467.829	909.88
468.049	936.88
468.268	866.88
468.488	864.88
468.707	929.88
468.927	1057.88
469.146	1113.88
469.365	1019.88
469.585	952.88
469.804	994.88
470.023	1109.88
470.243	952.88
470.462	905.88
470.681	894.88
470.901	927.88
471.12	988.88
471.339	968.88
471.558	904.88
471.777	907.88
471.997	1010.88
472.216	1147.88
472.435	1095.88
472.654	975.88
472.873	967.88
473.092	1005.88
473.311	1044.88
473.53	962.88
473.749	941.88
473.968	998.88
474.187	973.88
474.406	942.88
474.625	917.88
474.844	937.88
475.063	1023.88
475.282	1043.88
475.501	1071.88
475.72	1124.88
475.939	1093.88
476.158	1105.88
476.377	1250.88
476.596	1461.88
476.814	1509.88
477.033	1251.88
477.252	1089.88
477.471	1011.88
477.69	1015.88
477.908	1082.88
478.127	1131.88
478.346	1067.88
478.564	1175.88
478.783	1072.88
479.002	1119.88
479.22	1301.88
479.439	1446.88
479.658	1219.88
479.876	1109.88
480.095	1202.88
480.313	1253.88
480.532	1123.88
480.751	1090.88
480.969	1144.88
481.188	1259.88
481.406	1288.88
481.624	1221.88
481.843	1101.88
482.061	1048.88
482.28	1187.88
482.498	1414.88
482.717	1374.88
482.935	1197.88
483.153	1129.88
483.372	1080.88
483.59	1061.88
483.808	1056.88
484.027	1062.88
484.245	1016.88
484.463	977.88
484.681	1036.88
484.9	1096.88
485.118	1197.88
485.336	1101.88
485.554	1036.88
485.772	1081.88
485.99	1187.88
486.209	1259.88
486.427	1268.88
486.645	1176.88
486.863	1254.88
487.081	1231.88
487.299	1382.88
487.517	1393.88
487.735	1205.88
487.953	1243.88
488.171	1222.88
488.389	1168.88
488.607	1131.88
488.825	1173.88
489.043	1330.88
489.261	1490.88
489.479	1558.88
489.696	1314.88
489.914	1157.88
490.132	1116.88
490.35	1140.88
490.568	1116.88
490.786	1123.88
491.003	1113.88
491.221	1170.88
491.439	1159.88
491.657	1137.88
491.874	1225.88
492.092	1517.88
492.31	1815.88
492.527	1788.88
492.745	1537.88
492.963	1320.88
493.18	1318.88
493.398	1308.88
493.615	1301.88
493.833	1236.88
494.05	1229.88
494.268	1235.88
494.485	1261.88
494.703	1227.88
494.92	1270.88
495.138	1211.88
495.355	1207.88
495.573	1248.88
495.79	1401.88
496.008	1867.88
496.225	1570.88
496.442	1377.88
496.66	1341.88
496.877	1413.88
497.094	1376.88
497.312	1328.88
497.529	1304.88
497.746	1312.88
497.963	1365.88
498.181	1474.88
498.398	1591.88
498.615	1667.88
498.832	1681.88
499.049	1703.88
499.267	1524.88
499.484	1570.88
499.701	1601.88
499.918	1715.88
500.135	1875.88
500.352	1912.88
500.569	1918.88
500.786	2040.88
501.003	1977.88
501.22	1786.88
501.437	1743.88
501.654	1669.88
501.871	1602.88
502.088	1621.88
502.305	1497.88
502.522	1511.88
502.739	1505.88
502.956	1385.88
503.172	1366.88
503.389	1303.88
503.606	1246.88
503.823	1293.88
504.04	1295.88
504.256	1343.88
504.473	1364.88
504.69	1384.88
504.907	1359.88
505.123	1355.88
505.34	1465.88
505.557	1405.88
505.773	1352.88
505.99	1327.88
506.207	1379.88
506.423	1271.88
506.64	1182.88
506.856	1266.88
507.073	1376.88
507.289	1340.88
507.506	1348.88
507.722	1444.88
507.939	1417.88
508.155	1459.88
508.372	1320.88
508.588	1277.88
508.805	1219.88
509.021	1189.88
509.238	1187.88
509.454	1195.88
509.67	1184.88
509.887	1192.88
510.103	1347.88
510.319	1315.88
510.536	1169.88
510.752	1101.88
510.968	1083.88
511.184	1007.88
511.401	1005.88
511.617	996.88
511.833	1011.88
512.049	1065.88
512.265	1112.88
512.481	1111.88
512.698	1236.88
512.914	1357.88
513.13	1249.88
513.346	1132.88
513.562	1202.88
513.778	1206.88
513.994	1151.88
514.21	1251.88
514.426	1215.88
514.642	1143.88
514.858	1123.88
515.074	1170.88
515.29	1290.88
515.506	1405.88
515.721	1363.88
515.937	1220.88
516.153	1167.88
516.369	1152.88
516.585	1205.88
516.801	1401.88
517.016	1604.88
517.232	1551.88
517.448	1541.88
517.664	1385.88
517.879	1284.88
518.095	1283.88
518.311	1279.88
518.527	1303.88
518.742	1363.88
518.958	1466.88
519.173	1369.88
519.389	1381.88
519.605	1425.88
519.82	1475.88
520.036	1762.88
520.251	1717.88
520.467	1608.88
520.682	2454.88
520.898	2977.88
521.113	2811.88
521.329	1723.88
521.544	1541.88
521.76	1487.88
521.975	1324.88
522.19	1285.88
522.406	1310.88
522.621	1467.88
522.836	1557.88
523.052	1593.88
523.267	1299.88
523.482	1283.88
523.698	1374.88
523.913	1319.88
524.128	1221.88
524.343	1183.88
524.559	1195.88
524.774	1126.88
524.989	1160.88
525.204	1191.88
525.419	1304.88
525.634	1224.88
525.849	1261.88
526.064	1239.88
526.28	1277.88
526.495	1462.88
526.71	1533.88
526.925	1377.88
527.14	1424.88
527.355	1372.88
527.57	1140.88
527.785	1233.88
527.999	1145.88
528.214	1060.88
528.429	1097.88
528.644	1085.88
528.859	999.88
529.074	992.88
529.289	992.88
529.503	1003.88
529.718	1023.88
529.933	1193.88
530.148	1232.88
530.363	1070.88
530.577	1039.88
530.792	975.88
531.007	1003.88
531.221	993.88
531.436	965.88
531.651	979.88
531.865	996.88
532.08	1016.88
532.295	998.88
532.509	1075.88
532.724	1187.88
532.938	1336.88
533.153	1566.88
533.367	1217.88
533.582	1127.88
533.796	1078.88
534.011	1064.88
534.225	1043.88
534.44	1075.88
534.654	1100.88
534.868	1297.88
535.083	1131.88
535.297	1018.88
535.511	1006.88
535.726	1147.88
535.94	1069.88
536.154	1032.88
536.369	979.88
536.583	992.88
536.797	1047.88
537.011	1045.88
537.225	1107.88
537.44	1228.88
537.654	1056.88
537.868	1027.88
538.082	1031.88
538.296	1025.88
538.51	1106.88
538.724	1095.88
538.938	1035.88
539.153	994.88
539.367	958.88
539.581	989.88
539.795	1029.88
540.009	1153.88
540.222	1052.88
540.436	1070.88
540.65	1175.88
540.864	1168.88
541.078	1213.88
541.292	1373.88
541.506	1117.88
541.72	1058.88
541.934	1059.88
542.147	1026.88
542.361	1042.88
542.575	1046.88
542.789	1041.88
543.002	972.88
543.216	1075.88
543.43	975.88
543.644	936.88
543.857	943.88
544.071	929.88
544.285	932.88
544.498	951.88
544.712	941.88
544.925	1013.88
545.139	927.88
545.352	903.88
545.566	930.88
545.779	1046.88
545.993	950.88
546.206	875.88
546.42	900.88
546.633	883.88
546.847	852.88
547.06	837.88
547.274	844.88
547.487	888.88
547.7	937.88
547.914	1010.88
548.127	1115.88
548.34	1074.88
548.554	964.88
548.767	989.88
548.98	1064.88
549.193	994.88
549.407	1016.88
549.62	1158.88
549.833	1117.88
550.046	1129.88
550.259	1160.88
550.473	1019.88
550.686	961.88
550.899	990.88
551.112	957.88
551.325	1047.88
551.538	1086.88
551.751	928.88
551.964	895.88
552.177	876.88
552.39	895.88
552.603	888.88
552.816	936.88
553.029	857.88
553.242	843.88
553.455	893.88
553.667	989.88
553.88	951.88
554.093	876.88
554.306	831.88
554.519	804.88
554.732	760.88
554.944	757.88
555.157	772.88
555.37	768.88
555.583	781.88
555.795	801.88
556.008	818.88
556.221	817.88
556.433	780.88
556.646	754.88
556.859	760.88
557.071	821.88
557.284	832.88
557.496	831.88
557.709	847.88
557.921	781.88
558.134	742.88
558.346	724.88
558.559	723.88
558.771	771.88
558.984	809.88
559.196	763.88
559.409	722.88
559.621	719.88
559.833	735.88
560.046	707.88
560.258	721.88
560.47	703.88
560.683	706.88
560.895	686.88
561.107	691.88
561.32	686.88
561.532	690.88
561.744	774.88
561.956	797.88
562.168	711.88
562.381	699.88
562.593	748.88
562.805	737.88
563.017	687.88
563.229	687.88
563.441	661.88
563.653	685.88
563.865	687.88
564.077	716.88
564.289	669.88
564.501	677.88
564.713	763.88
564.925	741.88
565.137	697.88
565.349	705.88
565.561	684.88
565.773	695.88
565.985	755.88
566.197	772.88
566.408	876.88
566.62	850.88
566.832	844.88
567.044	840.88
567.255	918.88
567.467	955.88
567.679	885.88
567.891	880.88
568.102	881.88
568.314	903.88
568.526	845.88
568.737	823.88
568.949	855.88
569.161	766.88
569.372	687.88
569.584	697.88
569.795	693.88
570.007	696.88
570.218	755.88
570.43	734.88
570.641	699.88
570.853	645.88
571.064	668.88
571.276	698.88
571.487	710.88
571.698	648.88
571.91	645.88
572.121	685.88
572.333	620.88
572.544	643.88
572.755	614.88
572.966	637.88
573.178	603.88
573.389	648.88
573.6	642.88
573.811	625.88
574.023	581.88
574.234	579.88
574.445	583.88
574.656	560.88
574.867	585.88
575.078	579.88
575.289	589.88
575.501	625.88
575.712	589.88
575.923	556.88
576.134	548.88
576.345	538.88
576.556	571.88
576.767	564.88
576.978	525.88
577.188	499.88
577.399	510.88
577.61	547.88
577.821	515.88
578.032	531.88
578.243	570.88
578.454	587.88
578.665	589.88
578.875	559.88
579.086	573.88
579.297	545.88
579.508	576.88
579.718	563.88
579.929	547.88
580.14	555.88
580.35	494.88
580.561	499.88
580.772	493.88
580.982	494.88
581.193	464.88
581.403	462.88
581.614	446.88
581.825	464.88
582.035	470.88
582.246	448.88
582.456	476.88
582.667	466.88
582.877	461.88
583.087	439.88
583.298	461.88
583.508	463.88
583.719	456.88
583.929	441.88
584.139	462.88
584.35	455.88
584.56	469.88
584.77	489.88
584.981	494.88
585.191	469.88
585.401	451.88
585.611	492.88
585.821	481.88
586.032	487.88
586.242	472.88
586.452	460.88
586.662	463.88
586.872	522.88
587.082	516.88
587.292	454.88
587.502	469.88
587.713	475.88
587.923	461.88
588.133	508.88
588.343	502.88
588.553	477.88
588.762	467.88
588.972	456.88
589.182	462.88
589.392	453.88
589.602	456.88
589.812	459.88
590.022	511.88
590.232	515.88
590.441	469.88
590.651	457.88
590.861	461.88
591.071	457.88
591.281	463.88
591.49	449.88
591.7	474.88
591.91	439.88
592.119	458.88
592.329	458.88
592.539	488.88
592.748	459.88
592.958	460.88
593.167	475.88
593.377	482.88
593.587	487.88
593.796	461.88
594.006	463.88
594.215	473.88
594.424	489.88
594.634	526.88
594.843	479.88
595.053	468.88
595.262	453.88
595.472	432.88
595.681	449.88
595.89	419.88
596.1	436.88
596.309	437.88
596.518	431.88
596.727	430.88
596.937	424.88
597.146	426.88
597.355	461.88
597.564	462.88
597.774	407.88
597.983	394.88
598.192	387.88
598.401	375.88
598.61	381.88
598.819	397.88
599.028	404.88
599.237	400.88
599.446	377.88
599.655	388.88
599.864	376.88
600.073	367.88
600.282	392.88
600.491	380.88
600.7	360.88
600.909	389.88
601.118	375.88
601.327	352.88
601.536	387.88
601.745	404.88
601.953	414.88
602.162	387.88
602.371	401.88
602.58	397.88
602.789	384.88
602.997	381.88
603.206	368.88
603.415	380.88
603.623	366.88
603.832	371.88
604.041	358.88
604.249	350.88
604.458	404.88
604.666	374.88
604.875	344.88
605.084	353.88
605.292	341.88
605.501	363.88
605.709	351.88
605.918	365.88
606.126	350.88
606.334	354.88
606.543	344.88
606.751	350.88
606.96	350.88
607.168	366.88
607.376	335.88
607.585	335.88
607.793	359.88
608.001	333.88
608.21	371.88
608.418	359.88
608.626	326.88
608.834	349.88
609.043	351.88
609.251	345.88
609.459	325.88
609.667	342.88
609.875	342.88
610.083	334.88
610.291	361.88
610.499	356.88
610.707	334.88
610.916	328.88
611.124	342.88
611.332	344.88
611.54	336.88
611.748	337.88
611.955	352.88
612.163	336.88
612.371	332.88
612.579	304.88
612.787	329.88
612.995	345.88
613.203	339.88
613.411	330.88
613.618	324.88
613.826	365.88
614.034	368.88
614.242	328.88
614.449	308.88
614.657	334.88
614.865	307.88
615.072	335.88
615.28	317.88
615.488	337.88
615.695	328.88
615.903	323.88
616.111	325.88
616.318	317.88
616.526	343.88
616.733	323.88
616.941	317.88
617.148	323.88
617.356	320.88
617.563	278.88
617.771	326.88
617.978	321.88
618.185	320.88
618.393	313.88
618.6	312.88
618.807	307.88
619.015	316.88
619.222	315.88
619.429	328.88
619.637	314.88
619.844	309.88
620.051	308.88
620.258	280.88
620.466	292.88
620.673	308.88
620.88	293.88
621.087	291.88
621.294	299.88
621.501	291.88
621.708	287.88
621.915	290.88
622.122	290.88
622.329	302.88
622.536	293.88
622.743	276.88
622.95	294.88
623.157	283.88
623.364	314.88
623.571	278.88
623.778	289.88
623.985	309.88
624.192	299.88
624.399	306.88
624.606	289.88
624.812	304.88
625.019	280.88
625.226	300.88
625.433	296.88
625.639	292.88
625.846	280.88
626.053	261.88
626.259	261.88
626.466	300.88
626.673	312.88
626.879	293.88
627.086	281.88
627.293	269.88
627.499	269.88
627.706	280.88
627.912	275.88
628.119	263.88
628.325	259.88
628.532	259.88
628.738	257.88
628.945	258.88
629.151	280.88
629.357	258.88
629.564	263.88
629.77	281.88
629.976	262.88
630.183	256.88
630.389	273.88
630.595	264.88
630.802	269.88
631.008	257.88
631.214	255.88
631.42	250.88
631.627	258.88
631.833	268.88
632.039	257.88
632.245	245.88
632.451	254.88
632.657	246.88
632.863	221.88
633.069	214.88
633.275	243.88
633.481	257.88
633.688	273.88
633.893	246.88
634.099	245.88
634.305	243.88
634.511	234.88
634.717	254.88
634.923	222.88
635.129	230.88
635.335	236.88
635.541	241.88
635.747	254.88
635.952	249.88
636.158	230.88
636.364	228.88
636.57	240.88
636.775	248.88
636.981	240.88
637.187	220.88
637.392	226.88
637.598	228.88
637.804	222.88
638.009	223.88
638.215	239.88
638.421	223.88
638.626	231.88
638.832	224.88
639.037	228.88
639.243	227.88
639.448	242.88
639.654	242.88
639.859	223.88
640.065	199.88
640.27	247.88
640.475	218.88
640.681	221.88
640.886	227.88
641.091	226.88
641.297	239.88
641.502	232.88
641.707	215.88
641.913	211.88
642.118	205.88
642.323	209.88
642.528	213.88
642.733	237.88
642.939	211.88
643.144	221.88
643.349	225.88
643.554	212.88
643.759	230.88
643.964	216.88
644.169	216.88
644.374	207.88
644.579	215.88
644.784	212.88
644.989	213.88
645.194	204.88
645.399	223.88
645.604	214.88
645.809	212.88
646.014	209.88
646.219	209.88
646.423	215.88
646.628	212.88
646.833	197.88
647.038	200.88
647.243	207.88
647.447	176.88
647.652	220.88
647.857	206.88
648.062	215.88
648.266	208.88
648.471	224.88
648.676	212.88
648.88	199.88
649.085	208.88
649.289	214.88
649.494	202.88
649.698	226.88
649.903	200.88
650.107	201.88
650.312	199.88
650.516	195.88
650.721	194.88
650.925	175.88
651.13	187.88
651.334	164.88
651.539	185.88
651.743	179.88
651.947	190.88
652.152	174.88
652.356	167.88
652.56	167.88
652.764	185.88
652.969	163.88
653.173	163.88
653.377	167.88
653.581	182.88
653.785	170.88
653.99	169.88
654.194	149.88
654.398	171.88
654.602	167.88
654.806	173.88
655.01	152.88
655.214	150.88
655.418	158.88
655.622	164.88
655.826	134.88
656.03	151.88
656.234	158.88
656.438	189.88
656.642	169.88
656.846	162.88
657.049	158.88
657.253	149.88
657.457	141.88
657.661	142.88
657.865	129.88
658.068	131.88
658.272	119.88
658.476	120.88
658.68	124.88
658.883	121.88
659.087	112.88
659.291	116.88
659.494	115.88
659.698	108.88
659.901	112.88
660.105	101.88
660.309	85.88
660.512	107.88
660.716	100.88
660.919	102.88
661.123	103.88
661.326	99.88
661.53	82.88
661.733	84.88
661.936	86.88
662.14	96.88
662.343	71.88
662.546	83.88
662.75	94.88
662.953	89.88
663.156	97.88
663.36	79.88
663.563	88.88
663.766	89.88
663.969	97.88
664.173	79.88
664.376	89.88
664.579	78.88
664.782	71.88
664.985	75.88
665.188	98.88
665.391	105.88
665.594	85.88
665.797	81.88
666	81.88
666.203	77.88
666.406	78.88
666.609	85.88
666.812	74.88
667.015	73.88
667.218	72.88
667.421	94.88
667.624	86.88
667.827	79.88
668.03	76.88
668.232	85.88
668.435	75.88
668.638	84.88
668.841	93.88
669.043	67.88
669.246	81.88
669.449	76.88
669.651	73.88
669.854	91.88
670.057	81.88
670.259	82.88
670.462	89.88
670.665	78.88
670.867	77.88
671.07	83.88
671.272	84.88
671.475	85.88
671.677	89.88
671.88	72.88
672.082	82.88
672.284	84.88
672.487	71.88
672.689	84.88
672.892	83.88
