Data from NickelSpatula.Lamp.E10.P2_HRD10591_11-57-13-533.txt Node
Date: Tue Jul 23 11:57:13 EDT 2019
User: cochatt
Spectrometer: HR+D1059
Trigger mode: 1
Integration Time (sec): 1.000000E-1
Scans to average: 1
Electric dark correction enabled: true
Nonlinearity correction enabled: false
Boxcar width: 0
XAxis mode: Wavelengths
Number of Pixels in Spectrum: 2048
>>>>>Begin Spectral Data<<<<<
223.165	-12.88
223.4	-12.88
223.635	-12.88
223.869	-12.88
224.104	-11.88
224.338	-22.88
224.573	-24.88
224.808	-11.88
225.042	-12.88
225.277	-4.88
225.511	1.12
225.746	5.12
225.98	12.12
226.215	4.12
226.449	6.12
226.683	32.12
226.918	19.12
227.152	35.12
227.387	39.12
227.621	51.12
227.856	37.12
228.09	54.12
228.324	51.12
228.559	54.12
228.793	86.12
229.027	131.12
229.262	160.12
229.496	157.12
229.73	165.12
229.964	188.12
230.199	225.12
230.433	203.12
230.667	207.12
230.901	204.12
231.136	203.12
231.37	218.12
231.604	211.12
231.838	242.12
232.072	230.12
232.306	253.12
232.541	244.12
232.775	248.12
233.009	263.12
233.243	300.12
233.477	310.12
233.711	346.12
233.945	348.12
234.179	326.12
234.413	360.12
234.647	419.12
234.881	467.12
235.115	434.12
235.349	399.12
235.583	377.12
235.817	365.12
236.051	371.12
236.285	423.12
236.519	457.12
236.753	450.12
236.987	455.12
237.221	423.12
237.455	422.12
237.689	426.12
237.922	476.12
238.156	463.12
238.39	544.12
238.624	642.12
238.858	589.12
239.091	505.12
239.325	490.12
239.559	473.12
239.793	553.12
240.027	656.12
240.26	600.12
240.494	587.12
240.728	595.12
240.961	678.12
241.195	625.12
241.429	629.12
241.662	628.12
241.896	523.12
242.13	469.12
242.363	444.12
242.597	463.12
242.83	530.12
243.064	551.12
243.298	573.12
243.531	619.12
243.765	632.12
243.998	600.12
244.232	612.12
244.465	580.12
244.699	584.12
244.932	650.12
245.166	631.12
245.399	545.12
245.633	538.12
245.866	577.12
246.099	612.12
246.333	723.12
246.566	762.12
246.8	732.12
247.033	727.12
247.266	708.12
247.5	680.12
247.733	676.12
247.966	655.12
248.2	691.12
248.433	801.12
248.666	857.12
248.899	856.12
249.133	838.12
249.366	951.12
249.599	1043.12
249.832	940.12
250.066	821.12
250.299	840.12
250.532	815.12
250.765	787.12
250.998	719.12
251.231	712.12
251.465	769.12
251.698	864.12
251.931	786.12
252.164	830.12
252.397	939.12
252.63	1044.12
252.863	1147.12
253.096	1180.12
253.329	1135.12
253.562	1084.12
253.795	1223.12
254.028	1381.12
254.261	1393.12
254.494	1247.12
254.727	1114.12
254.96	1103.12
255.193	1176.12
255.426	1111.12
255.659	864.12
255.892	812.12
256.124	879.12
256.357	1009.12
256.59	1219.12
256.823	1132.12
257.056	968.12
257.289	919.12
257.521	971.12
257.754	1158.12
257.987	1270.12
258.22	1119.12
258.452	982.12
258.685	1171.12
258.918	1275.12
259.151	1249.12
259.383	1315.12
259.616	1493.12
259.849	1564.12
260.081	1711.12
260.314	1921.12
260.547	1448.12
260.779	1479.12
261.012	1744.12
261.244	1618.12
261.477	1675.12
261.71	1517.12
261.942	1293.12
262.175	1297.12
262.407	1224.12
262.64	1256.12
262.872	1476.12
263.105	1638.12
263.337	1713.12
263.57	1512.12
263.802	1003.12
264.035	916.12
264.267	860.12
264.499	786.12
264.732	695.12
264.964	702.12
265.197	706.12
265.429	799.12
265.661	811.12
265.894	839.12
266.126	926.12
266.358	1043.12
266.591	1233.12
266.823	1471.12
267.055	1411.12
267.287	1256.12
267.52	1245.12
267.752	1301.12
267.984	1434.12
268.216	1363.12
268.448	1121.12
268.681	1119.12
268.913	1201.12
269.145	1265.12
269.377	1289.12
269.609	1312.12
269.841	1204.12
270.073	1278.12
270.306	1347.12
270.538	1338.12
270.77	1395.12
271.002	1433.12
271.234	1452.12
271.466	1525.12
271.698	1453.12
271.93	1442.12
272.162	1419.12
272.394	1448.12
272.626	1382.12
272.858	1452.12
273.09	1457.12
273.322	1273.12
273.553	1279.12
273.785	1482.12
274.017	1937.12
274.249	2421.12
274.481	2476.12
274.713	2712.12
274.945	3146.12
275.176	3273.12
275.408	2803.12
275.64	2589.12
275.872	2608.12
276.104	2223.12
276.335	1907.12
276.567	1883.12
276.799	1959.12
277.031	2060.12
277.262	1601.12
277.494	1223.12
277.726	1187.12
277.957	1303.12
278.189	1473.12
278.421	1432.12
278.652	1443.12
278.884	1353.12
279.115	1263.12
279.347	1187.12
279.579	1179.12
279.81	1190.12
280.042	1202.12
280.273	1253.12
280.505	1147.12
280.736	996.12
280.968	1019.12
281.199	1087.12
281.431	1243.12
281.662	1231.12
281.894	1163.12
282.125	1251.12
282.356	1357.12
282.588	1395.12
282.819	1234.12
283.051	1358.12
283.282	1663.12
283.513	1921.12
283.745	2155.12
283.976	2119.12
284.207	1994.12
284.439	2033.12
284.67	1953.12
284.901	1768.12
285.132	1935.12
285.364	1978.12
285.595	1852.12
285.826	1927.12
286.057	2018.12
286.288	1931.12
286.52	1976.12
286.751	2068.12
286.982	2101.12
287.213	1775.12
287.444	1765.12
287.675	1843.12
287.906	1822.12
288.138	1570.12
288.369	1324.12
288.6	1305.12
288.831	1338.12
289.062	1551.12
289.293	1677.12
289.524	1586.12
289.755	1598.12
289.986	1600.12
290.217	1438.12
290.448	1129.12
290.679	965.12
290.91	891.12
291.141	905.12
291.371	962.12
291.602	981.12
291.833	970.12
292.064	1048.12
292.295	1184.12
292.526	1377.12
292.757	1423.12
292.987	1553.12
293.218	1570.12
293.449	1554.12
293.68	1699.12
293.91	1595.12
294.141	1619.12
294.372	1509.12
294.603	1401.12
294.833	1569.12
295.064	1797.12
295.295	1707.12
295.525	1313.12
295.756	1139.12
295.987	1017.12
296.217	996.12
296.448	1016.12
296.679	1075.12
296.909	1209.12
297.14	1294.12
297.37	1398.12
297.601	1347.12
297.831	1171.12
298.062	1231.12
298.292	1376.12
298.523	1542.12
298.753	1736.12
298.984	1536.12
299.214	1261.12
299.445	1061.12
299.675	1009.12
299.905	997.12
300.136	1049.12
300.366	1162.12
300.597	1110.12
300.827	1001.12
301.057	972.12
301.288	1011.12
301.518	1057.12
301.748	1197.12
301.979	1279.12
302.209	1397.12
302.439	1386.12
302.669	1164.12
302.9	1238.12
303.13	1157.12
303.36	1095.12
303.59	1048.12
303.82	1092.12
304.051	1242.12
304.281	1312.12
304.511	1279.12
304.741	1141.12
304.971	1200.12
305.201	1277.12
305.431	1174.12
305.661	1057.12
305.891	1059.12
306.121	1044.12
306.352	917.12
306.582	865.12
306.812	855.12
307.042	857.12
307.272	796.12
307.502	796.12
307.731	874.12
307.961	907.12
308.191	853.12
308.421	789.12
308.651	797.12
308.881	761.12
309.111	767.12
309.341	805.12
309.571	862.12
309.8	917.12
310.03	930.12
310.26	975.12
310.49	940.12
310.72	871.12
310.949	834.12
311.179	882.12
311.409	918.12
311.639	1098.12
311.868	1393.12
312.098	1735.12
312.328	1938.12
312.557	1859.12
312.787	1835.12
313.017	1643.12
313.246	1805.12
313.476	1933.12
313.706	1611.12
313.935	1265.12
314.165	1044.12
314.394	981.12
314.624	958.12
314.853	994.12
315.083	1024.12
315.312	988.12
315.542	977.12
315.771	931.12
316.001	845.12
316.23	809.12
316.46	838.12
316.689	847.12
316.919	888.12
317.148	891.12
317.377	847.12
317.607	867.12
317.836	944.12
318.065	1081.12
318.295	1217.12
318.524	1145.12
318.753	987.12
318.983	923.12
319.212	908.12
319.441	984.12
319.67	1124.12
319.9	1151.12
320.129	1109.12
320.358	954.12
320.587	922.12
320.816	980.12
321.046	1153.12
321.275	1281.12
321.504	1264.12
321.733	1241.12
321.962	1196.12
322.191	1136.12
322.42	1060.12
322.649	1091.12
322.878	1158.12
323.108	1179.12
323.337	1098.12
323.566	1059.12
323.795	1038.12
324.024	992.12
324.253	966.12
324.482	954.12
324.71	1055.12
324.939	1213.12
325.168	1120.12
325.397	912.12
325.626	853.12
325.855	899.12
326.084	923.12
326.313	879.12
326.542	808.12
326.77	864.12
326.999	884.12
327.228	953.12
327.457	972.12
327.686	998.12
327.914	876.12
328.143	827.12
328.372	821.12
328.6	831.12
328.829	875.12
329.058	884.12
329.287	861.12
329.515	917.12
329.744	865.12
329.972	843.12
330.201	810.12
330.43	849.12
330.658	927.12
330.887	1051.12
331.115	1031.12
331.344	978.12
331.572	953.12
331.801	876.12
332.03	837.12
332.258	851.12
332.486	947.12
332.715	972.12
332.943	908.12
333.172	936.12
333.4	934.12
333.629	1040.12
333.857	1093.12
334.085	1106.12
334.314	1121.12
334.542	1027.12
334.771	955.12
334.999	961.12
335.227	893.12
335.455	931.12
335.684	1014.12
335.912	1180.12
336.14	1304.12
336.369	1247.12
336.597	1210.12
336.825	1354.12
337.053	1506.12
337.281	1193.12
337.51	983.12
337.738	974.12
337.966	1062.12
338.194	1140.12
338.422	1094.12
338.65	953.12
338.878	857.12
339.106	912.12
339.334	1006.12
339.562	1077.12
339.79	986.12
340.018	946.12
340.246	1020.12
340.474	1186.12
340.702	1243.12
340.93	1284.12
341.158	1311.12
341.386	1105.12
341.614	1069.12
341.842	1089.12
342.07	1124.12
342.298	1312.12
342.526	1393.12
342.754	1162.12
342.981	1090.12
343.209	1039.12
343.437	1108.12
343.665	1151.12
343.893	1151.12
344.12	1396.12
344.348	1548.12
344.576	1445.12
344.804	1156.12
345.031	1050.12
345.259	939.12
345.487	989.12
345.714	1010.12
345.942	1096.12
346.17	1166.12
346.397	1101.12
346.625	969.12
346.853	951.12
347.08	893.12
347.308	981.12
347.535	1090.12
347.763	1131.12
347.99	979.12
348.218	935.12
348.445	936.12
348.673	979.12
348.9	939.12
349.128	1020.12
349.355	1064.12
349.583	1023.12
349.81	978.12
350.037	928.12
350.265	852.12
350.492	833.12
350.72	792.12
350.947	807.12
351.174	903.12
351.402	944.12
351.629	952.12
351.856	899.12
352.083	873.12
352.311	965.12
352.538	1049.12
352.765	1107.12
352.992	988.12
353.22	970.12
353.447	956.12
353.674	929.12
353.901	929.12
354.128	946.12
354.355	955.12
354.583	938.12
354.81	964.12
355.037	981.12
355.264	958.12
355.491	1040.12
355.718	1126.12
355.945	1068.12
356.172	1050.12
356.399	1087.12
356.626	1282.12
356.853	1536.12
357.08	1652.12
357.307	1651.12
357.534	1319.12
357.761	1341.12
357.988	1676.12
358.215	1961.12
358.441	1827.12
358.668	1528.12
358.895	1397.12
359.122	1157.12
359.349	1165.12
359.576	1256.12
359.802	1055.12
360.029	910.12
360.256	999.12
360.483	1197.12
360.709	1537.12
360.936	1573.12
361.163	1381.12
361.39	1095.12
361.616	1059.12
361.843	1167.12
362.07	1415.12
362.296	1328.12
362.523	1058.12
362.749	947.12
362.976	951.12
363.203	1166.12
363.429	1338.12
363.656	1045.12
363.882	947.12
364.109	964.12
364.335	963.12
364.562	953.12
364.788	1079.12
365.015	1240.12
365.241	1114.12
365.468	937.12
365.694	865.12
365.92	821.12
366.147	778.12
366.373	760.12
366.599	804.12
366.826	794.12
367.052	816.12
367.278	825.12
367.505	820.12
367.731	892.12
367.957	1001.12
368.184	1029.12
368.41	998.12
368.636	985.12
368.862	1011.12
369.089	987.12
369.315	875.12
369.541	865.12
369.767	857.12
369.993	836.12
370.219	840.12
370.445	901.12
370.672	966.12
370.898	1049.12
371.124	1047.12
371.35	929.12
371.576	886.12
371.802	965.12
372.028	1102.12
372.254	1283.12
372.48	1094.12
372.706	997.12
372.932	1043.12
373.158	1094.12
373.384	1299.12
373.61	1729.12
373.835	1761.12
374.061	1300.12
374.287	1114.12
374.513	1316.12
374.739	1550.12
374.965	1641.12
375.191	1597.12
375.416	1106.12
375.642	1004.12
375.868	1162.12
376.094	1294.12
376.319	1145.12
376.545	1219.12
376.771	1291.12
376.997	1143.12
377.222	864.12
377.448	751.12
377.674	741.12
377.899	736.12
378.125	724.12
378.35	728.12
378.576	758.12
378.802	852.12
379.027	900.12
379.253	883.12
379.478	908.12
379.704	996.12
379.929	1054.12
380.155	1047.12
380.38	927.12
380.606	990.12
380.831	1098.12
381.057	990.12
381.282	971.12
381.507	1139.12
381.733	1412.12
381.958	1479.12
382.184	1568.12
382.409	1608.12
382.634	1579.12
382.86	1670.12
383.085	1372.12
383.31	1105.12
383.535	1165.12
383.761	1167.12
383.986	1123.12
384.211	1363.12
384.436	1303.12
384.662	1043.12
384.887	970.12
385.112	1009.12
385.337	1019.12
385.562	976.12
385.787	1085.12
386.013	1189.12
386.238	1187.12
386.463	992.12
386.688	951.12
386.913	932.12
387.138	888.12
387.363	925.12
387.588	961.12
387.813	965.12
388.038	1037.12
388.263	968.12
388.488	949.12
388.713	1079.12
388.938	1161.12
389.163	968.12
389.387	899.12
389.612	896.12
389.837	912.12
390.062	932.12
390.287	972.12
390.512	981.12
390.736	896.12
390.961	896.12
391.186	824.12
391.411	832.12
391.636	871.12
391.86	933.12
392.085	957.12
392.31	1007.12
392.534	949.12
392.759	924.12
392.984	982.12
393.208	944.12
393.433	847.12
393.658	819.12
393.882	789.12
394.107	767.12
394.331	790.12
394.556	838.12
394.78	829.12
395.005	841.12
395.229	857.12
395.454	876.12
395.678	860.12
395.903	922.12
396.127	859.12
396.352	878.12
396.576	959.12
396.801	974.12
397.025	1077.12
397.249	1113.12
397.474	940.12
397.698	903.12
397.922	953.12
398.147	897.12
398.371	924.12
398.595	985.12
398.82	921.12
399.044	962.12
399.268	1022.12
399.492	1043.12
399.717	1059.12
399.941	1111.12
400.165	1040.12
400.389	1035.12
400.613	1060.12
400.837	1025.12
401.062	933.12
401.286	912.12
401.51	884.12
401.734	894.12
401.958	916.12
402.182	919.12
402.406	874.12
402.63	915.12
402.854	950.12
403.078	1033.12
403.302	1281.12
403.526	1321.12
403.75	1196.12
403.974	1052.12
404.198	1093.12
404.422	1220.12
404.645	1409.12
404.869	1515.12
405.093	1163.12
405.317	983.12
405.541	960.12
405.765	1011.12
405.988	1018.12
406.212	1083.12
406.436	1287.12
406.66	1395.12
406.883	1110.12
407.107	1142.12
407.331	1332.12
407.555	1279.12
407.778	1093.12
408.002	1049.12
408.226	1042.12
408.449	1037.12
408.673	1028.12
408.896	962.12
409.12	906.12
409.344	932.12
409.567	921.12
409.791	891.12
410.014	894.12
410.238	948.12
410.461	904.12
410.685	882.12
410.908	905.12
411.132	919.12
411.355	945.12
411.578	945.12
411.802	952.12
412.025	981.12
412.249	987.12
412.472	956.12
412.695	960.12
412.919	981.12
413.142	973.12
413.365	1043.12
413.589	1051.12
413.812	946.12
414.035	905.12
414.258	936.12
414.482	1003.12
414.705	1030.12
414.928	902.12
415.151	874.12
415.374	887.12
415.597	935.12
415.821	902.12
416.044	883.12
416.267	875.12
416.49	878.12
416.713	875.12
416.936	881.12
417.159	904.12
417.382	868.12
417.605	911.12
417.828	921.12
418.051	917.12
418.274	966.12
418.497	947.12
418.72	943.12
418.943	936.12
419.166	979.12
419.389	1050.12
419.611	1043.12
419.834	1035.12
420.057	1080.12
420.28	1099.12
420.503	1016.12
420.726	927.12
420.948	889.12
421.171	872.12
421.394	863.12
421.617	862.12
421.839	872.12
422.062	969.12
422.285	941.12
422.507	948.12
422.73	943.12
422.953	945.12
423.175	951.12
423.398	919.12
423.621	977.12
423.843	1043.12
424.066	991.12
424.288	935.12
424.511	919.12
424.733	914.12
424.956	949.12
425.178	1064.12
425.401	1203.12
425.623	1351.12
425.846	1101.12
426.068	976.12
426.291	1129.12
426.513	1040.12
426.735	964.12
426.958	1001.12
427.18	1148.12
427.402	1435.12
427.625	1419.12
427.847	1143.12
428.069	923.12
428.292	891.12
428.514	904.12
428.736	874.12
428.958	967.12
429.181	1119.12
429.403	957.12
429.625	883.12
429.847	877.12
430.069	915.12
430.292	923.12
430.514	879.12
430.736	966.12
430.958	1201.12
431.18	1050.12
431.402	860.12
431.624	829.12
431.846	809.12
432.068	804.12
432.29	819.12
432.512	909.12
432.734	1194.12
432.956	1130.12
433.178	892.12
433.4	848.12
433.622	863.12
433.844	867.12
434.066	925.12
434.287	912.12
434.509	862.12
434.731	930.12
434.953	872.12
435.175	928.12
435.397	1014.12
435.618	899.12
435.84	847.12
436.062	844.12
436.284	826.12
436.505	775.12
436.727	777.12
436.949	816.12
437.17	841.12
437.392	863.12
437.614	851.12
437.835	848.12
438.057	835.12
438.278	959.12
438.5	1362.12
438.721	1362.12
438.943	917.12
439.165	835.12
439.386	785.12
439.608	795.12
439.829	776.12
440.05	785.12
440.272	863.12
440.493	985.12
440.715	1183.12
440.936	986.12
441.158	873.12
441.379	869.12
441.6	975.12
441.822	1001.12
442.043	898.12
442.264	882.12
442.486	882.12
442.707	875.12
442.928	877.12
443.149	902.12
443.371	874.12
443.592	967.12
443.813	913.12
444.034	916.12
444.255	900.12
444.476	952.12
444.698	941.12
444.919	962.12
445.14	1059.12
445.361	1023.12
445.582	965.12
445.803	927.12
446.024	954.12
446.245	949.12
446.466	903.12
446.687	865.12
446.908	884.12
447.129	847.12
447.35	814.12
447.571	797.12
447.792	795.12
448.013	787.12
448.234	793.12
448.455	774.12
448.675	809.12
448.896	796.12
449.117	816.12
449.338	803.12
449.559	823.12
449.779	860.12
450	888.12
450.221	831.12
450.442	807.12
450.662	793.12
450.883	773.12
451.104	823.12
451.324	828.12
451.545	817.12
451.766	793.12
451.986	773.12
452.207	779.12
452.428	759.12
452.648	790.12
452.869	805.12
453.089	809.12
453.31	834.12
453.53	743.12
453.751	757.12
453.971	741.12
454.192	761.12
454.412	765.12
454.633	768.12
454.853	749.12
455.073	717.12
455.294	743.12
455.514	759.12
455.734	792.12
455.955	803.12
456.175	821.12
456.395	748.12
456.616	697.12
456.836	679.12
457.056	703.12
457.276	717.12
457.497	717.12
457.717	736.12
457.937	731.12
458.157	697.12
458.377	736.12
458.598	727.12
458.818	793.12
459.038	829.12
459.258	849.12
459.478	858.12
459.698	907.12
459.918	888.12
460.138	876.12
460.358	913.12
460.578	881.12
460.798	890.12
461.018	867.12
461.238	860.12
461.458	861.12
461.678	865.12
461.898	933.12
462.118	939.12
462.338	937.12
462.558	947.12
462.777	1017.12
462.997	999.12
463.217	1017.12
463.437	1049.12
463.657	1018.12
463.876	975.12
464.096	977.12
464.316	1002.12
464.536	980.12
464.755	1050.12
464.975	1023.12
465.195	947.12
465.414	1019.12
465.634	986.12
465.854	917.12
466.073	888.12
466.293	873.12
466.512	928.12
466.732	1023.12
466.951	1053.12
467.171	959.12
467.391	903.12
467.61	898.12
467.829	938.12
468.049	936.12
468.268	882.12
468.488	869.12
468.707	919.12
468.927	1036.12
469.146	1163.12
469.365	1034.12
469.585	975.12
469.804	1019.12
470.023	1087.12
470.243	986.12
470.462	923.12
470.681	901.12
470.901	940.12
471.12	959.12
471.339	967.12
471.558	922.12
471.777	973.12
471.997	1013.12
472.216	1098.12
472.435	1080.12
472.654	991.12
472.873	943.12
473.092	1035.12
473.311	1052.12
473.53	957.12
473.749	925.12
473.968	979.12
474.187	966.12
474.406	951.12
474.625	904.12
474.844	965.12
475.063	1033.12
475.282	1036.12
475.501	1090.12
475.72	1109.12
475.939	1107.12
476.158	1093.12
476.377	1274.12
476.596	1436.12
476.814	1467.12
477.033	1257.12
477.252	1049.12
477.471	1008.12
477.69	1024.12
477.908	1124.12
478.127	1173.12
478.346	1068.12
478.564	1137.12
478.783	1086.12
479.002	1121.12
479.22	1272.12
479.439	1442.12
479.658	1215.12
479.876	1124.12
480.095	1224.12
480.313	1207.12
480.532	1139.12
480.751	1095.12
480.969	1120.12
481.188	1267.12
481.406	1323.12
481.624	1229.12
481.843	1146.12
482.061	1075.12
482.28	1204.12
482.498	1435.12
482.717	1361.12
482.935	1210.12
483.153	1144.12
483.372	1076.12
483.59	1059.12
483.808	1056.12
484.027	1016.12
484.245	1003.12
484.463	984.12
484.681	1032.12
484.9	1086.12
485.118	1177.12
485.336	1102.12
485.554	1073.12
485.772	1099.12
485.99	1169.12
486.209	1212.12
486.427	1219.12
486.645	1188.12
486.863	1271.12
487.081	1259.12
487.299	1348.12
487.517	1313.12
487.735	1235.12
487.953	1233.12
488.171	1283.12
488.389	1196.12
488.607	1094.12
488.825	1175.12
489.043	1267.12
489.261	1409.12
489.479	1493.12
489.696	1297.12
489.914	1188.12
490.132	1117.12
490.35	1120.12
490.568	1155.12
490.786	1125.12
491.003	1131.12
491.221	1186.12
491.439	1122.12
491.657	1141.12
491.874	1227.12
492.092	1441.12
492.31	1727.12
492.527	1695.12
492.745	1505.12
492.963	1327.12
493.18	1310.12
493.398	1301.12
493.615	1272.12
493.833	1265.12
494.05	1256.12
494.268	1284.12
494.485	1251.12
494.703	1176.12
494.92	1241.12
495.138	1177.12
495.355	1232.12
495.573	1251.12
495.79	1351.12
496.008	1722.12
496.225	1579.12
496.442	1345.12
496.66	1377.12
496.877	1422.12
497.094	1376.12
497.312	1305.12
497.529	1304.12
497.746	1315.12
497.963	1370.12
498.181	1494.12
498.398	1581.12
498.615	1631.12
498.832	1682.12
499.049	1728.12
499.267	1528.12
499.484	1548.12
499.701	1628.12
499.918	1776.12
500.135	1895.12
500.352	1875.12
500.569	1969.12
500.786	2050.12
501.003	2009.12
501.22	1844.12
501.437	1738.12
501.654	1687.12
501.871	1630.12
502.088	1597.12
502.305	1512.12
502.522	1489.12
502.739	1490.12
502.956	1382.12
503.172	1377.12
503.389	1329.12
503.606	1276.12
503.823	1290.12
504.04	1294.12
504.256	1335.12
504.473	1381.12
504.69	1374.12
504.907	1357.12
505.123	1374.12
505.34	1420.12
505.557	1411.12
505.773	1347.12
505.99	1314.12
506.207	1377.12
506.423	1259.12
506.64	1225.12
506.856	1224.12
507.073	1373.12
507.289	1339.12
507.506	1356.12
507.722	1431.12
507.939	1429.12
508.155	1421.12
508.372	1283.12
508.588	1249.12
508.805	1241.12
509.021	1204.12
509.238	1167.12
509.454	1165.12
509.67	1181.12
509.887	1182.12
510.103	1319.12
510.319	1307.12
510.536	1212.12
510.752	1059.12
510.968	1095.12
511.184	1014.12
511.401	1030.12
511.617	1052.12
511.833	1054.12
512.049	1106.12
512.265	1106.12
512.481	1152.12
512.698	1244.12
512.914	1345.12
513.13	1242.12
513.346	1112.12
513.562	1145.12
513.778	1199.12
513.994	1161.12
514.21	1216.12
514.426	1175.12
514.642	1150.12
514.858	1137.12
515.074	1178.12
515.29	1304.12
515.506	1433.12
515.721	1350.12
515.937	1246.12
516.153	1164.12
516.369	1172.12
516.585	1240.12
516.801	1339.12
517.016	1577.12
517.232	1538.12
517.448	1503.12
517.664	1376.12
517.879	1283.12
518.095	1265.12
518.311	1263.12
518.527	1344.12
518.742	1360.12
518.958	1485.12
519.173	1387.12
519.389	1348.12
519.605	1412.12
519.82	1483.12
520.036	1729.12
520.251	1686.12
520.467	1550.12
520.682	2254.12
520.898	2738.12
521.113	2583.12
521.329	1681.12
521.544	1541.12
521.76	1481.12
521.975	1312.12
522.19	1292.12
522.406	1307.12
522.621	1467.12
522.836	1543.12
523.052	1548.12
523.267	1276.12
523.482	1289.12
523.698	1359.12
523.913	1321.12
524.128	1238.12
524.343	1186.12
524.559	1215.12
524.774	1122.12
524.989	1161.12
525.204	1215.12
525.419	1314.12
525.634	1212.12
525.849	1232.12
526.064	1291.12
526.28	1258.12
526.495	1467.12
526.71	1504.12
526.925	1291.12
527.14	1361.12
527.355	1327.12
527.57	1112.12
527.785	1194.12
527.999	1125.12
528.214	1098.12
528.429	1068.12
528.644	1084.12
528.859	1044.12
529.074	1006.12
529.289	991.12
529.503	988.12
529.718	1019.12
529.933	1140.12
530.148	1189.12
530.363	1028.12
530.577	995.12
530.792	1000.12
531.007	1032.12
531.221	980.12
531.436	987.12
531.651	1011.12
531.865	984.12
532.08	1027.12
532.295	1018.12
532.509	1011.12
532.724	1144.12
532.938	1270.12
533.153	1497.12
533.367	1229.12
533.582	1178.12
533.796	1073.12
534.011	1049.12
534.225	1033.12
534.44	1036.12
534.654	1098.12
534.868	1225.12
535.083	1111.12
535.297	1008.12
535.511	1025.12
535.726	1153.12
535.94	1056.12
536.154	1012.12
536.369	987.12
536.583	994.12
536.797	1023.12
537.011	1035.12
537.225	1100.12
537.44	1145.12
537.654	1022.12
537.868	1007.12
538.082	1005.12
538.296	1003.12
538.51	1072.12
538.724	1085.12
538.938	1048.12
539.153	1012.12
539.367	998.12
539.581	961.12
539.795	1057.12
540.009	1157.12
540.222	1033.12
540.436	1036.12
540.65	1156.12
540.864	1161.12
541.078	1193.12
541.292	1283.12
541.506	1115.12
541.72	1048.12
541.934	1037.12
542.147	1078.12
542.361	1061.12
542.575	1053.12
542.789	1056.12
543.002	945.12
543.216	1026.12
543.43	967.12
543.644	943.12
543.857	930.12
544.071	972.12
544.285	968.12
544.498	910.12
544.712	933.12
544.925	1007.12
545.139	965.12
545.352	896.12
545.566	933.12
545.779	1035.12
545.993	951.12
546.206	883.12
546.42	904.12
546.633	866.12
546.847	837.12
547.06	863.12
547.274	843.12
547.487	891.12
547.7	983.12
547.914	1009.12
548.127	1095.12
548.34	1088.12
548.554	963.12
548.767	1010.12
548.98	1088.12
549.193	974.12
549.407	1008.12
549.62	1185.12
549.833	1123.12
550.046	1157.12
550.259	1177.12
550.473	1055.12
550.686	986.12
550.899	992.12
551.112	984.12
551.325	1060.12
551.538	1090.12
551.751	953.12
551.964	931.12
552.177	919.12
552.39	865.12
552.603	909.12
552.816	930.12
553.029	869.12
553.242	885.12
553.455	947.12
553.667	985.12
553.88	960.12
554.093	908.12
554.306	847.12
554.519	840.12
554.732	787.12
554.944	773.12
555.157	791.12
555.37	761.12
555.583	777.12
555.795	777.12
556.008	792.12
556.221	831.12
556.433	794.12
556.646	775.12
556.859	781.12
557.071	801.12
557.284	815.12
557.496	821.12
557.709	822.12
557.921	825.12
558.134	755.12
558.346	741.12
558.559	727.12
558.771	793.12
558.984	815.12
559.196	774.12
559.409	737.12
559.621	723.12
559.833	708.12
560.046	727.12
560.258	715.12
560.47	734.12
560.683	732.12
560.895	689.12
561.107	667.12
561.32	664.12
561.532	689.12
561.744	751.12
561.956	786.12
562.168	705.12
562.381	696.12
562.593	737.12
562.805	755.12
563.017	698.12
563.229	675.12
563.441	663.12
563.653	684.12
563.865	695.12
564.077	708.12
564.289	679.12
564.501	717.12
564.713	757.12
564.925	718.12
565.137	697.12
565.349	705.12
565.561	696.12
565.773	707.12
565.985	745.12
566.197	769.12
566.408	869.12
566.62	882.12
566.832	853.12
567.044	845.12
567.255	903.12
567.467	940.12
567.679	872.12
567.891	899.12
568.102	901.12
568.314	905.12
568.526	852.12
568.737	840.12
568.949	829.12
569.161	773.12
569.372	732.12
569.584	696.12
569.795	676.12
570.007	715.12
570.218	766.12
570.43	729.12
570.641	711.12
570.853	660.12
571.064	663.12
571.276	705.12
571.487	720.12
571.698	678.12
571.91	667.12
572.121	703.12
572.333	650.12
572.544	618.12
572.755	636.12
572.966	620.12
573.178	617.12
573.389	639.12
573.6	648.12
573.811	627.12
574.023	579.12
574.234	603.12
574.445	573.12
574.656	576.12
574.867	572.12
575.078	589.12
575.289	589.12
575.501	626.12
575.712	595.12
575.923	547.12
576.134	551.12
576.345	535.12
576.556	549.12
576.767	538.12
576.978	529.12
577.188	523.12
577.399	527.12
577.61	521.12
577.821	545.12
578.032	553.12
578.243	579.12
578.454	550.12
578.665	568.12
578.875	556.12
579.086	562.12
579.297	559.12
579.508	549.12
579.718	552.12
579.929	523.12
580.14	540.12
580.35	527.12
580.561	488.12
580.772	478.12
580.982	485.12
581.193	476.12
581.403	471.12
581.614	475.12
581.825	479.12
582.035	456.12
582.246	474.12
582.456	475.12
582.667	471.12
582.877	443.12
583.087	459.12
583.298	456.12
583.508	480.12
583.719	474.12
583.929	439.12
584.139	466.12
584.35	461.12
584.56	491.12
584.77	488.12
584.981	485.12
585.191	462.12
585.401	471.12
585.611	469.12
585.821	496.12
586.032	520.12
586.242	487.12
586.452	495.12
586.662	482.12
586.872	515.12
587.082	496.12
587.292	482.12
587.502	469.12
587.713	488.12
587.923	469.12
588.133	531.12
588.343	479.12
588.553	475.12
588.762	466.12
588.972	457.12
589.182	465.12
589.392	448.12
589.602	474.12
589.812	500.12
590.022	511.12
590.232	524.12
590.441	494.12
590.651	433.12
590.861	450.12
591.071	474.12
591.281	450.12
591.49	439.12
591.7	455.12
591.91	450.12
592.119	463.12
592.329	464.12
592.539	452.12
592.748	470.12
592.958	490.12
593.167	481.12
593.377	490.12
593.587	492.12
593.796	493.12
594.006	476.12
594.215	477.12
594.424	496.12
594.634	495.12
594.843	502.12
595.053	466.12
595.262	454.12
595.472	448.12
595.681	434.12
595.89	434.12
596.1	460.12
596.309	448.12
596.518	437.12
596.727	423.12
596.937	424.12
597.146	436.12
597.355	479.12
597.564	456.12
597.774	408.12
597.983	401.12
598.192	411.12
598.401	395.12
598.61	393.12
598.819	384.12
599.028	398.12
599.237	389.12
599.446	379.12
599.655	391.12
599.864	375.12
600.073	394.12
600.282	393.12
600.491	386.12
600.7	405.12
600.909	392.12
601.118	417.12
601.327	386.12
601.536	365.12
601.745	396.12
601.953	403.12
602.162	398.12
602.371	418.12
602.58	395.12
602.789	400.12
602.997	385.12
603.206	374.12
603.415	373.12
603.623	370.12
603.832	383.12
604.041	380.12
604.249	367.12
604.458	378.12
604.666	358.12
604.875	366.12
605.084	333.12
605.292	359.12
605.501	370.12
605.709	349.12
605.918	371.12
606.126	357.12
606.334	365.12
606.543	359.12
606.751	354.12
606.96	364.12
607.168	352.12
607.376	344.12
607.585	347.12
607.793	346.12
608.001	360.12
608.21	368.12
608.418	372.12
608.626	375.12
608.834	342.12
609.043	335.12
609.251	336.12
609.459	347.12
609.667	357.12
609.875	353.12
610.083	346.12
610.291	372.12
610.499	374.12
610.707	348.12
610.916	324.12
611.124	341.12
611.332	321.12
611.54	352.12
611.748	340.12
611.955	336.12
612.163	341.12
612.371	345.12
612.579	337.12
612.787	351.12
612.995	332.12
613.203	319.12
613.411	332.12
613.618	356.12
613.826	352.12
614.034	349.12
614.242	349.12
614.449	337.12
614.657	343.12
614.865	339.12
615.072	328.12
615.28	325.12
615.488	347.12
615.695	338.12
615.903	324.12
616.111	328.12
616.318	333.12
616.526	320.12
616.733	316.12
616.941	327.12
617.148	300.12
617.356	347.12
617.563	329.12
617.771	329.12
617.978	332.12
618.185	331.12
618.393	298.12
618.6	327.12
618.807	311.12
619.015	323.12
619.222	322.12
619.429	319.12
619.637	310.12
619.844	298.12
620.051	310.12
620.258	315.12
620.466	310.12
620.673	302.12
620.88	298.12
621.087	290.12
621.294	306.12
621.501	289.12
621.708	321.12
621.915	284.12
622.122	280.12
622.329	293.12
622.536	291.12
622.743	305.12
622.95	290.12
623.157	301.12
623.364	311.12
623.571	296.12
623.778	301.12
623.985	298.12
624.192	331.12
624.399	323.12
624.606	309.12
624.812	292.12
625.019	293.12
625.226	310.12
625.433	316.12
625.639	278.12
625.846	287.12
626.053	274.12
626.259	268.12
626.466	287.12
626.673	313.12
626.879	287.12
627.086	297.12
627.293	296.12
627.499	273.12
627.706	272.12
627.912	265.12
628.119	275.12
628.325	272.12
628.532	267.12
628.738	284.12
628.945	275.12
629.151	258.12
629.357	286.12
629.564	264.12
629.77	267.12
629.976	252.12
630.183	265.12
630.389	271.12
630.595	255.12
630.802	261.12
631.008	255.12
631.214	255.12
631.42	267.12
631.627	269.12
631.833	261.12
632.039	256.12
632.245	255.12
632.451	254.12
632.657	260.12
632.863	257.12
633.069	261.12
633.275	239.12
633.481	236.12
633.688	250.12
633.893	266.12
634.099	241.12
634.305	251.12
634.511	249.12
634.717	242.12
634.923	227.12
635.129	236.12
635.335	242.12
635.541	240.12
635.747	243.12
635.952	240.12
636.158	261.12
636.364	256.12
636.57	228.12
636.775	249.12
636.981	223.12
637.187	239.12
637.392	240.12
637.598	227.12
637.804	239.12
638.009	249.12
638.215	213.12
638.421	226.12
638.626	227.12
638.832	218.12
639.037	235.12
639.243	223.12
639.448	245.12
639.654	220.12
639.859	242.12
640.065	232.12
640.27	228.12
640.475	231.12
640.681	225.12
640.886	222.12
641.091	227.12
641.297	225.12
641.502	244.12
641.707	217.12
641.913	230.12
642.118	235.12
642.323	241.12
642.528	227.12
642.733	225.12
642.939	235.12
643.144	220.12
643.349	230.12
643.554	230.12
643.759	217.12
643.964	218.12
644.169	202.12
644.374	215.12
644.579	217.12
644.784	227.12
644.989	222.12
645.194	210.12
645.399	232.12
645.604	225.12
645.809	212.12
646.014	211.12
646.219	203.12
646.423	220.12
646.628	217.12
646.833	228.12
647.038	215.12
647.243	210.12
647.447	215.12
647.652	213.12
647.857	227.12
648.062	226.12
648.266	227.12
648.471	218.12
648.676	209.12
648.88	214.12
649.085	216.12
649.289	219.12
649.494	211.12
649.698	218.12
649.903	222.12
650.107	204.12
650.312	212.12
650.516	210.12
650.721	189.12
650.925	188.12
651.13	192.12
651.334	180.12
651.539	194.12
651.743	183.12
651.947	184.12
652.152	189.12
652.356	180.12
652.56	181.12
652.764	187.12
652.969	179.12
653.173	155.12
653.377	153.12
653.581	180.12
653.785	171.12
653.99	165.12
654.194	176.12
654.398	153.12
654.602	159.12
654.806	168.12
655.01	184.12
655.214	164.12
655.418	150.12
655.622	164.12
655.826	163.12
656.03	159.12
656.234	159.12
656.438	156.12
656.642	162.12
656.846	156.12
657.049	139.12
657.253	139.12
657.457	148.12
657.661	139.12
657.865	153.12
658.068	115.12
658.272	139.12
658.476	125.12
658.68	125.12
658.883	128.12
659.087	124.12
659.291	114.12
659.494	93.12
659.698	109.12
659.901	120.12
660.105	107.12
660.309	108.12
660.512	114.12
660.716	95.12
660.919	109.12
661.123	103.12
661.326	113.12
661.53	106.12
661.733	99.12
661.936	97.12
662.14	103.12
662.343	97.12
662.546	103.12
662.75	86.12
662.953	83.12
663.156	93.12
663.36	96.12
663.563	88.12
663.766	91.12
663.969	98.12
664.173	92.12
664.376	80.12
664.579	98.12
664.782	103.12
664.985	98.12
665.188	89.12
665.391	89.12
665.594	85.12
665.797	88.12
666	90.12
666.203	88.12
666.406	88.12
666.609	86.12
666.812	68.12
667.015	93.12
667.218	94.12
667.421	91.12
667.624	77.12
667.827	96.12
668.03	77.12
668.232	77.12
668.435	89.12
668.638	91.12
668.841	84.12
669.043	83.12
669.246	78.12
669.449	92.12
669.651	78.12
669.854	71.12
670.057	74.12
670.259	89.12
670.462	92.12
670.665	75.12
670.867	73.12
671.07	92.12
671.272	91.12
671.475	80.12
671.677	86.12
671.88	82.12
672.082	87.12
672.284	83.12
672.487	89.12
672.689	81.12
672.892	76.12
