Data from NickelSpatula_HRD10591_16-34-56-126.txt Node
Date: Mon Jul 22 16:34:56 EDT 2019
User: cochatt
Spectrometer: HR+D1059
Trigger mode: 1
Integration Time (sec): 1.000000E-1
Scans to average: 1
Electric dark correction enabled: true
Nonlinearity correction enabled: false
Boxcar width: 0
XAxis mode: Wavelengths
Number of Pixels in Spectrum: 2048
>>>>>Begin Spectral Data<<<<<
223.165	-21.12
223.4	-21.12
223.635	-21.12
223.869	-8.12
224.104	-19.12
224.338	-25.12
224.573	-14.12
224.808	-12.12
225.042	-10.12
225.277	-5.12
225.511	6.88
225.746	3.88
225.98	13.88
226.215	4.88
226.449	14.88
226.683	12.88
226.918	22.88
227.152	34.88
227.387	42.88
227.621	36.88
227.856	29.88
228.09	48.88
228.324	59.88
228.559	52.88
228.793	52.88
229.027	79.88
229.262	93.88
229.496	71.88
229.73	76.88
229.964	79.88
230.199	80.88
230.433	86.88
230.667	99.88
230.901	97.88
231.136	90.88
231.37	88.88
231.604	95.88
231.838	99.88
232.072	111.88
232.306	101.88
232.541	105.88
232.775	112.88
233.009	109.88
233.243	119.88
233.477	118.88
233.711	125.88
233.945	113.88
234.179	112.88
234.413	116.88
234.647	116.88
234.881	122.88
235.115	124.88
235.349	122.88
235.583	113.88
235.817	131.88
236.051	127.88
236.285	125.88
236.519	127.88
236.753	123.88
236.987	124.88
237.221	121.88
237.455	138.88
237.689	137.88
237.922	134.88
238.156	140.88
238.39	132.88
238.624	173.88
238.858	159.88
239.091	143.88
239.325	142.88
239.559	120.88
239.793	129.88
240.027	152.88
240.26	139.88
240.494	150.88
240.728	160.88
240.961	171.88
241.195	153.88
241.429	132.88
241.662	151.88
241.896	143.88
242.13	138.88
242.363	120.88
242.597	146.88
242.83	153.88
243.064	147.88
243.298	138.88
243.531	162.88
243.765	170.88
243.998	155.88
244.232	153.88
244.465	168.88
244.699	137.88
244.932	170.88
245.166	160.88
245.399	146.88
245.633	154.88
245.866	162.88
246.099	161.88
246.333	175.88
246.566	175.88
246.8	162.88
247.033	173.88
247.266	156.88
247.5	163.88
247.733	167.88
247.966	164.88
248.2	156.88
248.433	178.88
248.666	180.88
248.899	176.88
249.133	184.88
249.366	193.88
249.599	225.88
249.832	202.88
250.066	187.88
250.299	183.88
250.532	189.88
250.765	188.88
250.998	183.88
251.231	173.88
251.465	198.88
251.698	200.88
251.931	172.88
252.164	175.88
252.397	215.88
252.63	229.88
252.863	246.88
253.096	247.88
253.329	234.88
253.562	241.88
253.795	239.88
254.028	263.88
254.261	287.88
254.494	253.88
254.727	232.88
254.96	236.88
255.193	247.88
255.426	242.88
255.659	196.88
255.892	195.88
256.124	204.88
256.357	237.88
256.59	248.88
256.823	227.88
257.056	209.88
257.289	211.88
257.521	199.88
257.754	237.88
257.987	264.88
258.22	236.88
258.452	211.88
258.685	232.88
258.918	261.88
259.151	261.88
259.383	265.88
259.616	281.88
259.849	301.88
260.081	324.88
260.314	334.88
260.547	291.88
260.779	290.88
261.012	324.88
261.244	314.88
261.477	316.88
261.71	291.88
261.942	257.88
262.175	277.88
262.407	227.88
262.64	255.88
262.872	295.88
263.105	310.88
263.337	336.88
263.57	294.88
263.802	216.88
264.035	197.88
264.267	192.88
264.499	179.88
264.732	175.88
264.964	165.88
265.197	159.88
265.429	183.88
265.661	191.88
265.894	197.88
266.126	228.88
266.358	227.88
266.591	261.88
266.823	304.88
267.055	283.88
267.287	275.88
267.52	257.88
267.752	262.88
267.984	278.88
268.216	284.88
268.448	239.88
268.681	232.88
268.913	268.88
269.145	263.88
269.377	285.88
269.609	284.88
269.841	246.88
270.073	285.88
270.306	267.88
270.538	281.88
270.77	297.88
271.002	312.88
271.234	304.88
271.466	304.88
271.698	297.88
271.93	278.88
272.162	283.88
272.394	269.88
272.626	277.88
272.858	289.88
273.09	297.88
273.322	261.88
273.553	244.88
273.785	283.88
274.017	347.88
274.249	390.88
274.481	425.88
274.713	463.88
274.945	533.88
275.176	530.88
275.408	467.88
275.64	462.88
275.872	449.88
276.104	380.88
276.335	373.88
276.567	368.88
276.799	381.88
277.031	389.88
277.262	326.88
277.494	227.88
277.726	247.88
277.957	259.88
278.189	277.88
278.421	296.88
278.652	270.88
278.884	272.88
279.115	252.88
279.347	250.88
279.579	260.88
279.81	268.88
280.042	242.88
280.273	254.88
280.505	224.88
280.736	209.88
280.968	216.88
281.199	217.88
281.431	236.88
281.662	253.88
281.894	246.88
282.125	251.88
282.356	260.88
282.588	271.88
282.819	238.88
283.051	257.88
283.282	323.88
283.513	348.88
283.745	361.88
283.976	391.88
284.207	355.88
284.439	389.88
284.67	359.88
284.901	317.88
285.132	339.88
285.364	369.88
285.595	332.88
285.826	360.88
286.057	400.88
286.288	345.88
286.52	368.88
286.751	372.88
286.982	380.88
287.213	328.88
287.444	321.88
287.675	330.88
287.906	335.88
288.138	294.88
288.369	279.88
288.6	261.88
288.831	277.88
289.062	314.88
289.293	335.88
289.524	308.88
289.755	314.88
289.986	308.88
290.217	290.88
290.448	239.88
290.679	202.88
290.91	191.88
291.141	199.88
291.371	214.88
291.602	213.88
291.833	201.88
292.064	203.88
292.295	227.88
292.526	269.88
292.757	289.88
292.987	300.88
293.218	300.88
293.449	328.88
293.68	333.88
293.91	320.88
294.141	310.88
294.372	300.88
294.603	264.88
294.833	277.88
295.064	345.88
295.295	327.88
295.525	266.88
295.756	207.88
295.987	204.88
296.217	204.88
296.448	200.88
296.679	218.88
296.909	226.88
297.14	232.88
297.37	254.88
297.601	244.88
297.831	214.88
298.062	239.88
298.292	275.88
298.523	269.88
298.753	308.88
298.984	297.88
299.214	253.88
299.445	212.88
299.675	203.88
299.905	211.88
300.136	203.88
300.366	216.88
300.597	227.88
300.827	198.88
301.057	202.88
301.288	207.88
301.518	223.88
301.748	245.88
301.979	243.88
302.209	263.88
302.439	235.88
302.669	226.88
302.9	244.88
303.13	234.88
303.36	223.88
303.59	218.88
303.82	211.88
304.051	231.88
304.281	268.88
304.511	284.88
304.741	240.88
304.971	230.88
305.201	239.88
305.431	237.88
305.661	215.88
305.891	211.88
306.121	198.88
306.352	179.88
306.582	197.88
306.812	168.88
307.042	177.88
307.272	155.88
307.502	184.88
307.731	179.88
307.961	185.88
308.191	162.88
308.421	166.88
308.651	168.88
308.881	175.88
309.111	175.88
309.341	168.88
309.571	179.88
309.8	187.88
310.03	186.88
310.26	178.88
310.49	209.88
310.72	187.88
310.949	175.88
311.179	181.88
311.409	185.88
311.639	207.88
311.868	228.88
312.098	310.88
312.328	348.88
312.557	319.88
312.787	311.88
313.017	299.88
313.246	312.88
313.476	343.88
313.706	307.88
313.935	233.88
314.165	201.88
314.394	185.88
314.624	196.88
314.853	190.88
315.083	208.88
315.312	200.88
315.542	193.88
315.771	191.88
316.001	191.88
316.23	186.88
316.46	169.88
316.689	167.88
316.919	156.88
317.148	171.88
317.377	157.88
317.607	173.88
317.836	197.88
318.065	200.88
318.295	234.88
318.524	213.88
318.753	207.88
318.983	181.88
319.212	191.88
319.441	170.88
319.67	203.88
319.9	223.88
320.129	206.88
320.358	180.88
320.587	192.88
320.816	204.88
321.046	226.88
321.275	224.88
321.504	215.88
321.733	226.88
321.962	224.88
322.191	212.88
322.42	180.88
322.649	200.88
322.878	217.88
323.108	212.88
323.337	195.88
323.566	217.88
323.795	217.88
324.024	201.88
324.253	199.88
324.482	172.88
324.71	168.88
324.939	213.88
325.168	199.88
325.397	177.88
325.626	181.88
325.855	173.88
326.084	183.88
326.313	176.88
326.542	175.88
326.77	175.88
326.999	164.88
327.228	171.88
327.457	193.88
327.686	173.88
327.914	154.88
328.143	174.88
328.372	161.88
328.6	155.88
328.829	172.88
329.058	158.88
329.287	181.88
329.515	163.88
329.744	182.88
329.972	175.88
330.201	178.88
330.43	160.88
330.658	183.88
330.887	185.88
331.115	203.88
331.344	194.88
331.572	175.88
331.801	161.88
332.03	162.88
332.258	173.88
332.486	189.88
332.715	193.88
332.943	205.88
333.172	168.88
333.4	178.88
333.629	198.88
333.857	211.88
334.085	217.88
334.314	207.88
334.542	186.88
334.771	171.88
334.999	188.88
335.227	173.88
335.455	189.88
335.684	204.88
335.912	212.88
336.14	223.88
336.369	235.88
336.597	231.88
336.825	240.88
337.053	260.88
337.281	228.88
337.51	167.88
337.738	181.88
337.966	192.88
338.194	222.88
338.422	203.88
338.65	183.88
338.878	180.88
339.106	165.88
339.334	177.88
339.562	183.88
339.79	193.88
340.018	185.88
340.246	215.88
340.474	225.88
340.702	212.88
340.93	212.88
341.158	232.88
341.386	192.88
341.614	189.88
341.842	182.88
342.07	206.88
342.298	228.88
342.526	259.88
342.754	225.88
342.981	202.88
343.209	195.88
343.437	208.88
343.665	223.88
343.893	221.88
344.12	257.88
344.348	281.88
344.576	254.88
344.804	218.88
345.031	216.88
345.259	179.88
345.487	202.88
345.714	203.88
345.942	201.88
346.17	218.88
346.397	218.88
346.625	195.88
346.853	183.88
347.08	191.88
347.308	194.88
347.535	207.88
347.763	215.88
347.99	172.88
348.218	170.88
348.445	187.88
348.673	202.88
348.9	205.88
349.128	195.88
349.355	202.88
349.583	185.88
349.81	197.88
350.037	179.88
350.265	176.88
350.492	170.88
350.72	163.88
350.947	160.88
351.174	171.88
351.402	178.88
351.629	181.88
351.856	168.88
352.083	175.88
352.311	168.88
352.538	183.88
352.765	189.88
352.992	213.88
353.22	192.88
353.447	220.88
353.674	180.88
353.901	175.88
354.128	186.88
354.355	187.88
354.583	205.88
354.81	185.88
355.037	209.88
355.264	185.88
355.491	188.88
355.718	211.88
355.945	197.88
356.172	212.88
356.399	196.88
356.626	228.88
356.853	257.88
357.08	283.88
357.307	289.88
357.534	227.88
357.761	225.88
357.988	283.88
358.215	319.88
358.441	304.88
358.668	280.88
358.895	273.88
359.122	243.88
359.349	214.88
359.576	239.88
359.802	202.88
360.029	177.88
360.256	196.88
360.483	219.88
360.709	269.88
360.936	285.88
361.163	243.88
361.39	217.88
361.616	209.88
361.843	195.88
362.07	236.88
362.296	227.88
362.523	195.88
362.749	192.88
362.976	181.88
363.203	235.88
363.429	214.88
363.656	195.88
363.882	181.88
364.109	194.88
364.335	213.88
364.562	176.88
364.788	199.88
365.015	217.88
365.241	199.88
365.468	179.88
365.694	187.88
365.92	153.88
366.147	149.88
366.373	155.88
366.599	154.88
366.826	158.88
367.052	156.88
367.278	159.88
367.505	151.88
367.731	172.88
367.957	181.88
368.184	189.88
368.41	187.88
368.636	194.88
368.862	194.88
369.089	191.88
369.315	183.88
369.541	159.88
369.767	168.88
369.993	160.88
370.219	159.88
370.445	164.88
370.672	200.88
370.898	194.88
371.124	183.88
371.35	179.88
371.576	173.88
371.802	175.88
372.028	191.88
372.254	234.88
372.48	201.88
372.706	202.88
372.932	184.88
373.158	191.88
373.384	208.88
373.61	273.88
373.835	289.88
374.061	230.88
374.287	199.88
374.513	227.88
374.739	271.88
374.965	249.88
375.191	249.88
375.416	218.88
375.642	172.88
375.868	211.88
376.094	228.88
376.319	203.88
376.545	225.88
376.771	219.88
376.997	211.88
377.222	186.88
377.448	153.88
377.674	152.88
377.899	154.88
378.125	172.88
378.35	168.88
378.576	151.88
378.802	172.88
379.027	163.88
379.253	185.88
379.478	164.88
379.704	175.88
379.929	196.88
380.155	205.88
380.38	175.88
380.606	189.88
380.831	220.88
381.057	209.88
381.282	178.88
381.507	203.88
381.733	228.88
381.958	240.88
382.184	253.88
382.409	274.88
382.634	284.88
382.86	290.88
383.085	235.88
383.31	193.88
383.535	230.88
383.761	210.88
383.986	205.88
384.211	245.88
384.436	232.88
384.662	184.88
384.887	200.88
385.112	203.88
385.337	193.88
385.562	189.88
385.787	203.88
386.013	216.88
386.238	219.88
386.463	209.88
386.688	180.88
386.913	191.88
387.138	179.88
387.363	193.88
387.588	209.88
387.813	187.88
388.038	214.88
388.263	208.88
388.488	191.88
388.713	199.88
388.938	220.88
389.163	188.88
389.387	160.88
389.612	177.88
389.837	183.88
390.062	191.88
390.287	195.88
390.512	188.88
390.736	181.88
390.961	181.88
391.186	176.88
391.411	176.88
391.636	186.88
391.86	177.88
392.085	218.88
392.31	209.88
392.534	188.88
392.759	176.88
392.984	182.88
393.208	175.88
393.433	149.88
393.658	163.88
393.882	164.88
394.107	162.88
394.331	166.88
394.556	183.88
394.78	184.88
395.005	164.88
395.229	177.88
395.454	180.88
395.678	167.88
395.903	183.88
396.127	178.88
396.352	182.88
396.576	204.88
396.801	193.88
397.025	203.88
397.249	203.88
397.474	191.88
397.698	175.88
397.922	197.88
398.147	176.88
398.371	188.88
398.595	210.88
398.82	172.88
399.044	188.88
399.268	200.88
399.492	195.88
399.717	203.88
399.941	202.88
400.165	199.88
400.389	198.88
400.613	200.88
400.837	195.88
401.062	170.88
401.286	189.88
401.51	172.88
401.734	187.88
401.958	171.88
402.182	163.88
402.406	179.88
402.63	179.88
402.854	192.88
403.078	217.88
403.302	256.88
403.526	255.88
403.75	249.88
403.974	219.88
404.198	199.88
404.422	239.88
404.645	245.88
404.869	278.88
405.093	223.88
405.317	192.88
405.541	188.88
405.765	189.88
405.988	197.88
406.212	185.88
406.436	211.88
406.66	241.88
406.883	220.88
407.107	217.88
407.331	232.88
407.555	228.88
407.778	216.88
408.002	204.88
408.226	228.88
408.449	224.88
408.673	205.88
408.896	192.88
409.12	183.88
409.344	177.88
409.567	178.88
409.791	185.88
410.014	192.88
410.238	184.88
410.461	197.88
410.685	198.88
410.908	170.88
411.132	162.88
411.355	212.88
411.578	176.88
411.802	196.88
412.025	195.88
412.249	184.88
412.472	192.88
412.695	186.88
412.919	191.88
413.142	202.88
413.365	204.88
413.589	203.88
413.812	186.88
414.035	192.88
414.258	175.88
414.482	203.88
414.705	212.88
414.928	187.88
415.151	180.88
415.374	178.88
415.597	178.88
415.821	194.88
416.044	178.88
416.267	179.88
416.49	178.88
416.713	188.88
416.936	177.88
417.159	171.88
417.382	181.88
417.605	192.88
417.828	182.88
418.051	197.88
418.274	177.88
418.497	171.88
418.72	191.88
418.943	196.88
419.166	199.88
419.389	188.88
419.611	191.88
419.834	196.88
420.057	218.88
420.28	220.88
420.503	204.88
420.726	165.88
420.948	186.88
421.171	172.88
421.394	182.88
421.617	187.88
421.839	179.88
422.062	184.88
422.285	167.88
422.507	189.88
422.73	203.88
422.953	213.88
423.175	165.88
423.398	194.88
423.621	203.88
423.843	215.88
424.066	181.88
424.288	191.88
424.511	196.88
424.733	189.88
424.956	204.88
425.178	213.88
425.401	229.88
425.623	257.88
425.846	219.88
426.068	201.88
426.291	221.88
426.513	191.88
426.735	189.88
426.958	209.88
427.18	202.88
427.402	273.88
427.625	258.88
427.847	240.88
428.069	170.88
428.292	171.88
428.514	172.88
428.736	162.88
428.958	208.88
429.181	207.88
429.403	202.88
429.625	200.88
429.847	178.88
430.069	177.88
430.292	181.88
430.514	187.88
430.736	179.88
430.958	215.88
431.18	201.88
431.402	163.88
431.624	172.88
431.846	159.88
432.068	177.88
432.29	171.88
432.512	184.88
432.734	212.88
432.956	211.88
433.178	175.88
433.4	186.88
433.622	167.88
433.844	193.88
434.066	203.88
434.287	209.88
434.509	181.88
434.731	201.88
434.953	166.88
435.175	188.88
435.397	222.88
435.618	174.88
435.84	175.88
436.062	171.88
436.284	161.88
436.505	159.88
436.727	167.88
436.949	158.88
437.17	188.88
437.392	176.88
437.614	171.88
437.835	177.88
438.057	170.88
438.278	188.88
438.5	253.88
438.721	239.88
438.943	197.88
439.165	168.88
439.386	166.88
439.608	163.88
439.829	160.88
440.05	167.88
440.272	167.88
440.493	186.88
440.715	223.88
440.936	198.88
441.158	178.88
441.379	178.88
441.6	173.88
441.822	187.88
442.043	184.88
442.264	179.88
442.486	183.88
442.707	187.88
442.928	180.88
443.149	171.88
443.371	181.88
443.592	196.88
443.813	174.88
444.034	177.88
444.255	183.88
444.476	197.88
444.698	188.88
444.919	197.88
445.14	325.88
445.361	255.88
445.582	203.88
445.803	195.88
446.024	192.88
446.245	199.88
446.466	205.88
446.687	202.88
446.908	196.88
447.129	179.88
447.35	160.88
447.571	182.88
447.792	179.88
448.013	163.88
448.234	162.88
448.455	162.88
448.675	162.88
448.896	176.88
449.117	171.88
449.338	151.88
449.559	158.88
449.779	179.88
450	193.88
450.221	179.88
450.442	177.88
450.662	153.88
450.883	170.88
451.104	167.88
451.324	171.88
451.545	178.88
451.766	165.88
451.986	172.88
452.207	175.88
452.428	175.88
452.648	154.88
452.869	171.88
453.089	164.88
453.31	184.88
453.53	176.88
453.751	171.88
453.971	169.88
454.192	172.88
454.412	179.88
454.633	163.88
454.853	179.88
455.073	161.88
455.294	141.88
455.514	160.88
455.734	158.88
455.955	178.88
456.175	184.88
456.395	139.88
456.616	138.88
456.836	157.88
457.056	157.88
457.276	143.88
457.497	152.88
457.717	150.88
457.937	169.88
458.157	162.88
458.377	161.88
458.598	164.88
458.818	164.88
459.038	172.88
459.258	171.88
459.478	173.88
459.698	189.88
459.918	199.88
460.138	173.88
460.358	196.88
460.578	183.88
460.798	180.88
461.018	189.88
461.238	178.88
461.458	191.88
461.678	185.88
461.898	200.88
462.118	182.88
462.338	163.88
462.558	207.88
462.777	202.88
462.997	208.88
463.217	187.88
463.437	200.88
463.657	187.88
463.876	179.88
464.096	187.88
464.316	178.88
464.536	195.88
464.755	220.88
464.975	216.88
465.195	199.88
465.414	220.88
465.634	201.88
465.854	177.88
466.073	173.88
466.293	177.88
466.512	196.88
466.732	191.88
466.951	213.88
467.171	180.88
467.391	181.88
467.61	184.88
467.829	192.88
468.049	181.88
468.268	163.88
468.488	177.88
468.707	185.88
468.927	203.88
469.146	195.88
469.365	186.88
469.585	206.88
469.804	188.88
470.023	220.88
470.243	198.88
470.462	189.88
470.681	180.88
470.901	193.88
471.12	193.88
471.339	191.88
471.558	208.88
471.777	188.88
471.997	218.88
472.216	207.88
472.435	209.88
472.654	185.88
472.873	187.88
473.092	193.88
473.311	207.88
473.53	194.88
473.749	194.88
473.968	188.88
474.187	200.88
474.406	187.88
474.625	177.88
474.844	206.88
475.063	203.88
475.282	203.88
475.501	209.88
475.72	226.88
475.939	226.88
476.158	213.88
476.377	256.88
476.596	279.88
476.814	301.88
477.033	249.88
477.252	197.88
477.471	198.88
477.69	184.88
477.908	215.88
478.127	211.88
478.346	193.88
478.564	236.88
478.783	219.88
479.002	228.88
479.22	237.88
479.439	255.88
479.658	226.88
479.876	209.88
480.095	221.88
480.313	228.88
480.532	230.88
480.751	211.88
480.969	223.88
481.188	229.88
481.406	233.88
481.624	232.88
481.843	205.88
482.061	221.88
482.28	205.88
482.498	270.88
482.717	274.88
482.935	223.88
483.153	221.88
483.372	193.88
483.59	196.88
483.808	197.88
484.027	187.88
484.245	193.88
484.463	189.88
484.681	203.88
484.9	211.88
485.118	220.88
485.336	203.88
485.554	188.88
485.772	210.88
485.99	214.88
486.209	235.88
486.427	239.88
486.645	209.88
486.863	221.88
487.081	208.88
487.299	275.88
487.517	247.88
487.735	205.88
487.953	213.88
488.171	234.88
488.389	208.88
488.607	216.88
488.825	220.88
489.043	244.88
489.261	273.88
489.479	267.88
489.696	225.88
489.914	212.88
490.132	207.88
490.35	210.88
490.568	205.88
490.786	202.88
491.003	203.88
491.221	211.88
491.439	229.88
491.657	202.88
491.874	220.88
492.092	281.88
492.31	321.88
492.527	288.88
492.745	243.88
492.963	224.88
493.18	221.88
493.398	232.88
493.615	245.88
493.833	211.88
494.05	226.88
494.268	236.88
494.485	234.88
494.703	221.88
494.92	228.88
495.138	200.88
495.355	225.88
495.573	202.88
495.79	241.88
496.008	335.88
496.225	282.88
496.442	244.88
496.66	241.88
496.877	237.88
497.094	257.88
497.312	241.88
497.529	235.88
497.746	236.88
497.963	233.88
498.181	255.88
498.398	285.88
498.615	294.88
498.832	303.88
499.049	313.88
499.267	286.88
499.484	286.88
499.701	293.88
499.918	318.88
500.135	350.88
500.352	349.88
500.569	368.88
500.786	371.88
501.003	361.88
501.22	314.88
501.437	314.88
501.654	299.88
501.871	276.88
502.088	292.88
502.305	273.88
502.522	279.88
502.739	271.88
502.956	242.88
503.172	262.88
503.389	233.88
503.606	239.88
503.823	239.88
504.04	255.88
504.256	247.88
504.473	246.88
504.69	261.88
504.907	261.88
505.123	262.88
505.34	272.88
505.557	250.88
505.773	223.88
505.99	250.88
506.207	236.88
506.423	219.88
506.64	241.88
506.856	227.88
507.073	270.88
507.289	236.88
507.506	242.88
507.722	255.88
507.939	260.88
508.155	260.88
508.372	242.88
508.588	218.88
508.805	231.88
509.021	231.88
509.238	240.88
509.454	219.88
509.67	213.88
509.887	227.88
510.103	243.88
510.319	254.88
510.536	228.88
510.752	206.88
510.968	196.88
511.184	197.88
511.401	218.88
511.617	191.88
511.833	193.88
512.049	205.88
512.265	211.88
512.481	203.88
512.698	239.88
512.914	249.88
513.13	226.88
513.346	207.88
513.562	251.88
513.778	211.88
513.994	225.88
514.21	229.88
514.426	228.88
514.642	211.88
514.858	218.88
515.074	234.88
515.29	245.88
515.506	275.88
515.721	255.88
515.937	230.88
516.153	223.88
516.369	209.88
516.585	221.88
516.801	257.88
517.016	303.88
517.232	277.88
517.448	271.88
517.664	245.88
517.879	251.88
518.095	248.88
518.311	244.88
518.527	235.88
518.742	271.88
518.958	269.88
519.173	272.88
519.389	257.88
519.605	268.88
519.82	260.88
520.036	267.88
520.251	295.88
520.467	288.88
520.682	439.88
520.898	567.88
521.113	524.88
521.329	334.88
521.544	269.88
521.76	266.88
521.975	251.88
522.19	239.88
522.406	245.88
522.621	286.88
522.836	267.88
523.052	281.88
523.267	244.88
523.482	256.88
523.698	248.88
523.913	241.88
524.128	234.88
524.343	218.88
524.559	238.88
524.774	226.88
524.989	233.88
525.204	231.88
525.419	241.88
525.634	243.88
525.849	234.88
526.064	217.88
526.28	224.88
526.495	286.88
526.71	293.88
526.925	257.88
527.14	275.88
527.355	276.88
527.57	247.88
527.785	240.88
527.999	226.88
528.214	237.88
528.429	212.88
528.644	222.88
528.859	211.88
529.074	201.88
529.289	198.88
529.503	184.88
529.718	216.88
529.933	266.88
530.148	268.88
530.363	236.88
530.577	211.88
530.792	208.88
531.007	203.88
531.221	201.88
531.436	193.88
531.651	203.88
531.865	204.88
532.08	196.88
532.295	210.88
532.509	226.88
532.724	237.88
532.938	260.88
533.153	307.88
533.367	245.88
533.582	246.88
533.796	230.88
534.011	210.88
534.225	204.88
534.44	224.88
534.654	231.88
534.868	272.88
535.083	252.88
535.297	213.88
535.511	221.88
535.726	215.88
535.94	210.88
536.154	203.88
536.369	214.88
536.583	195.88
536.797	210.88
537.011	209.88
537.225	216.88
537.44	225.88
537.654	227.88
537.868	205.88
538.082	219.88
538.296	208.88
538.51	223.88
538.724	217.88
538.938	212.88
539.153	199.88
539.367	195.88
539.581	207.88
539.795	221.88
540.009	224.88
540.222	226.88
540.436	205.88
540.65	235.88
540.864	248.88
541.078	268.88
541.292	285.88
541.506	234.88
541.72	220.88
541.934	211.88
542.147	209.88
542.361	197.88
542.575	230.88
542.789	209.88
543.002	192.88
543.216	210.88
543.43	204.88
543.644	193.88
543.857	202.88
544.071	172.88
544.285	198.88
544.498	191.88
544.712	187.88
544.925	207.88
545.139	197.88
545.352	199.88
545.566	184.88
545.779	225.88
545.993	208.88
546.206	195.88
546.42	191.88
546.633	171.88
546.847	199.88
547.06	169.88
547.274	180.88
547.487	177.88
547.7	200.88
547.914	201.88
548.127	192.88
548.34	206.88
548.554	187.88
548.767	199.88
548.98	207.88
549.193	191.88
549.407	216.88
549.62	229.88
549.833	215.88
550.046	225.88
550.259	245.88
550.473	214.88
550.686	199.88
550.899	213.88
551.112	213.88
551.325	217.88
551.538	218.88
551.751	220.88
551.964	196.88
552.177	191.88
552.39	214.88
552.603	205.88
552.816	193.88
553.029	194.88
553.242	176.88
553.455	195.88
553.667	206.88
553.88	209.88
554.093	194.88
554.306	188.88
554.519	170.88
554.732	175.88
554.944	168.88
555.157	182.88
555.37	185.88
555.583	162.88
555.795	171.88
556.008	170.88
556.221	177.88
556.433	183.88
556.646	184.88
556.859	166.88
557.071	172.88
557.284	185.88
557.496	187.88
557.709	170.88
557.921	173.88
558.134	162.88
558.346	161.88
558.559	147.88
558.771	164.88
558.984	180.88
559.196	154.88
559.409	155.88
559.621	167.88
559.833	162.88
560.046	155.88
560.258	176.88
560.47	177.88
560.683	178.88
560.895	167.88
561.107	162.88
561.32	152.88
561.532	146.88
561.744	166.88
561.956	187.88
562.168	179.88
562.381	186.88
562.593	169.88
562.805	151.88
563.017	165.88
563.229	162.88
563.441	163.88
563.653	166.88
563.865	135.88
564.077	162.88
564.289	151.88
564.501	168.88
564.713	186.88
564.925	166.88
565.137	165.88
565.349	183.88
565.561	169.88
565.773	175.88
565.985	171.88
566.197	172.88
566.408	189.88
566.62	194.88
566.832	190.88
567.044	190.88
567.255	195.88
567.467	204.88
567.679	201.88
567.891	208.88
568.102	215.88
568.314	202.88
568.526	180.88
568.737	182.88
568.949	191.88
569.161	169.88
569.372	182.88
569.584	166.88
569.795	166.88
570.007	179.88
570.218	177.88
570.43	185.88
570.641	163.88
570.853	151.88
571.064	160.88
571.276	169.88
571.487	181.88
571.698	169.88
571.91	154.88
572.121	157.88
572.333	164.88
572.544	163.88
572.755	151.88
572.966	169.88
573.178	155.88
573.389	154.88
573.6	159.88
573.811	171.88
574.023	139.88
574.234	136.88
574.445	158.88
574.656	132.88
574.867	139.88
575.078	147.88
575.289	128.88
575.501	155.88
575.712	131.88
575.923	146.88
576.134	147.88
576.345	137.88
576.556	139.88
576.767	136.88
576.978	140.88
577.188	128.88
577.399	140.88
577.61	142.88
577.821	135.88
578.032	147.88
578.243	163.88
578.454	149.88
578.665	153.88
578.875	162.88
579.086	136.88
579.297	146.88
579.508	138.88
579.718	141.88
579.929	150.88
580.14	160.88
580.35	142.88
580.561	133.88
580.772	137.88
580.982	122.88
581.193	139.88
581.403	137.88
581.614	128.88
581.825	119.88
582.035	140.88
582.246	140.88
582.456	114.88
582.667	147.88
582.877	127.88
583.087	137.88
583.298	141.88
583.508	140.88
583.719	123.88
583.929	149.88
584.139	139.88
584.35	133.88
584.56	126.88
584.77	122.88
584.981	130.88
585.191	135.88
585.401	132.88
585.611	127.88
585.821	144.88
586.032	132.88
586.242	129.88
586.452	140.88
586.662	129.88
586.872	142.88
587.082	137.88
587.292	132.88
587.502	122.88
587.713	136.88
587.923	132.88
588.133	133.88
588.343	144.88
588.553	125.88
588.762	149.88
588.972	150.88
589.182	139.88
589.392	138.88
589.602	133.88
589.812	148.88
590.022	143.88
590.232	149.88
590.441	146.88
590.651	132.88
590.861	129.88
591.071	134.88
591.281	130.88
591.49	131.88
591.7	129.88
591.91	135.88
592.119	120.88
592.329	141.88
592.539	143.88
592.748	135.88
592.958	121.88
593.167	132.88
593.377	149.88
593.587	151.88
593.796	135.88
594.006	136.88
594.215	145.88
594.424	143.88
594.634	152.88
594.843	138.88
595.053	143.88
595.262	124.88
595.472	140.88
595.681	121.88
595.89	128.88
596.1	119.88
596.309	134.88
596.518	131.88
596.727	133.88
596.937	129.88
597.146	134.88
597.355	145.88
597.564	138.88
597.774	132.88
597.983	122.88
598.192	125.88
598.401	125.88
598.61	138.88
598.819	122.88
599.028	129.88
599.237	116.88
599.446	114.88
599.655	124.88
599.864	121.88
600.073	122.88
600.282	137.88
600.491	127.88
600.7	120.88
600.909	109.88
601.118	137.88
601.327	125.88
601.536	135.88
601.745	147.88
601.953	141.88
602.162	131.88
602.371	135.88
602.58	129.88
602.789	114.88
602.997	121.88
603.206	117.88
603.415	113.88
603.623	120.88
603.832	120.88
604.041	125.88
604.249	116.88
604.458	122.88
604.666	132.88
604.875	115.88
605.084	124.88
605.292	124.88
605.501	125.88
605.709	108.88
605.918	123.88
606.126	123.88
606.334	119.88
606.543	104.88
606.751	117.88
606.96	113.88
607.168	128.88
607.376	120.88
607.585	120.88
607.793	122.88
608.001	122.88
608.21	109.88
608.418	130.88
608.626	108.88
608.834	117.88
609.043	98.88
609.251	108.88
609.459	117.88
609.667	102.88
609.875	107.88
610.083	107.88
610.291	123.88
610.499	127.88
610.707	123.88
610.916	118.88
611.124	116.88
611.332	123.88
611.54	124.88
611.748	118.88
611.955	114.88
612.163	115.88
612.371	106.88
612.579	113.88
612.787	97.88
612.995	119.88
613.203	119.88
613.411	123.88
613.618	114.88
613.826	133.88
614.034	128.88
614.242	125.88
614.449	108.88
614.657	112.88
614.865	101.88
615.072	105.88
615.28	122.88
615.488	117.88
615.695	102.88
615.903	111.88
616.111	111.88
616.318	108.88
616.526	113.88
616.733	127.88
616.941	110.88
617.148	122.88
617.356	115.88
617.563	116.88
617.771	106.88
617.978	110.88
618.185	122.88
618.393	115.88
618.6	117.88
618.807	101.88
619.015	98.88
619.222	108.88
619.429	114.88
619.637	108.88
619.844	94.88
620.051	125.88
620.258	129.88
620.466	116.88
620.673	119.88
620.88	109.88
621.087	101.88
621.294	106.88
621.501	100.88
621.708	121.88
621.915	116.88
622.122	119.88
622.329	112.88
622.536	121.88
622.743	123.88
622.95	133.88
623.157	99.88
623.364	107.88
623.571	113.88
623.778	102.88
623.985	105.88
624.192	103.88
624.399	112.88
624.606	99.88
624.812	114.88
625.019	101.88
625.226	108.88
625.433	130.88
625.639	107.88
625.846	102.88
626.053	121.88
626.259	119.88
626.466	114.88
626.673	123.88
626.879	109.88
627.086	117.88
627.293	116.88
627.499	109.88
627.706	115.88
627.912	119.88
628.119	103.88
628.325	105.88
628.532	100.88
628.738	106.88
628.945	103.88
629.151	112.88
629.357	105.88
629.564	116.88
629.77	111.88
629.976	105.88
630.183	107.88
630.389	96.88
630.595	89.88
630.802	111.88
631.008	102.88
631.214	103.88
631.42	118.88
631.627	121.88
631.833	115.88
632.039	112.88
632.245	109.88
632.451	112.88
632.657	104.88
632.863	121.88
633.069	127.88
633.275	107.88
633.481	113.88
633.688	98.88
633.893	121.88
634.099	111.88
634.305	108.88
634.511	102.88
634.717	111.88
634.923	100.88
635.129	106.88
635.335	119.88
635.541	104.88
635.747	99.88
635.952	107.88
636.158	104.88
636.364	104.88
636.57	98.88
636.775	118.88
636.981	110.88
637.187	95.88
637.392	108.88
637.598	105.88
637.804	94.88
638.009	107.88
638.215	71.88
638.421	108.88
638.626	98.88
638.832	100.88
639.037	101.88
639.243	98.88
639.448	74.88
639.654	107.88
639.859	95.88
640.065	106.88
640.27	118.88
640.475	103.88
640.681	83.88
640.886	87.88
641.091	78.88
641.297	93.88
641.502	100.88
641.707	105.88
641.913	100.88
642.118	115.88
642.323	100.88
642.528	118.88
642.733	109.88
642.939	95.88
643.144	97.88
643.349	89.88
643.554	90.88
643.759	108.88
643.964	95.88
644.169	103.88
644.374	107.88
644.579	85.88
644.784	100.88
644.989	112.88
645.194	103.88
645.399	100.88
645.604	98.88
645.809	87.88
646.014	106.88
646.219	89.88
646.423	105.88
646.628	106.88
646.833	102.88
647.038	104.88
647.243	105.88
647.447	96.88
647.652	92.88
647.857	97.88
648.062	91.88
648.266	81.88
648.471	104.88
648.676	91.88
648.88	96.88
649.085	108.88
649.289	106.88
649.494	101.88
649.698	116.88
649.903	93.88
650.107	103.88
650.312	101.88
650.516	88.88
650.721	98.88
650.925	96.88
651.13	107.88
651.334	99.88
651.539	104.88
651.743	94.88
651.947	101.88
652.152	86.88
652.356	103.88
652.56	88.88
652.764	92.88
652.969	92.88
653.173	96.88
653.377	97.88
653.581	90.88
653.785	99.88
653.99	88.88
654.194	83.88
654.398	89.88
654.602	97.88
654.806	92.88
655.01	85.88
655.214	90.88
655.418	86.88
655.622	88.88
655.826	88.88
656.03	95.88
656.234	97.88
656.438	85.88
656.642	91.88
656.846	90.88
657.049	95.88
657.253	101.88
657.457	81.88
657.661	98.88
657.865	89.88
658.068	81.88
658.272	78.88
658.476	96.88
658.68	98.88
658.883	88.88
659.087	89.88
659.291	75.88
659.494	80.88
659.698	96.88
659.901	91.88
660.105	68.88
660.309	84.88
660.512	88.88
660.716	97.88
660.919	84.88
661.123	68.88
661.326	82.88
661.53	79.88
661.733	74.88
661.936	94.88
662.14	86.88
662.343	84.88
662.546	78.88
662.75	77.88
662.953	69.88
663.156	72.88
663.36	74.88
663.563	82.88
663.766	77.88
663.969	84.88
664.173	82.88
664.376	85.88
664.579	91.88
664.782	91.88
664.985	75.88
665.188	83.88
665.391	59.88
665.594	73.88
665.797	82.88
666	85.88
666.203	80.88
666.406	75.88
666.609	89.88
666.812	87.88
667.015	83.88
667.218	71.88
667.421	89.88
667.624	82.88
667.827	79.88
668.03	79.88
668.232	69.88
668.435	89.88
668.638	92.88
668.841	91.88
669.043	68.88
669.246	82.88
669.449	73.88
669.651	70.88
669.854	76.88
670.057	86.88
670.259	73.88
670.462	85.88
670.665	93.88
670.867	92.88
671.07	98.88
671.272	89.88
671.475	91.88
671.677	79.88
671.88	72.88
672.082	71.88
672.284	64.88
672.487	84.88
672.689	77.88
672.892	74.88
