Data from NickelSpatula.Lamp.E10.P2_HRD10591_11-57-27-533.txt Node
Date: Tue Jul 23 11:57:27 EDT 2019
User: cochatt
Spectrometer: HR+D1059
Trigger mode: 1
Integration Time (sec): 1.000000E-1
Scans to average: 1
Electric dark correction enabled: true
Nonlinearity correction enabled: false
Boxcar width: 0
XAxis mode: Wavelengths
Number of Pixels in Spectrum: 2048
>>>>>Begin Spectral Data<<<<<
223.165	-3.38
223.4	-3.38
223.635	-3.38
223.869	-11.38
224.104	-20.38
224.338	-25.38
224.573	-6.38
224.808	0.62
225.042	-16.38
225.277	-13.38
225.511	-5.38
225.746	3.62
225.98	5.62
226.215	10.62
226.449	14.62
226.683	6.62
226.918	26.62
227.152	33.62
227.387	31.62
227.621	33.62
227.856	39.62
228.09	45.62
228.324	49.62
228.559	51.62
228.793	73.62
229.027	134.62
229.262	144.62
229.496	145.62
229.73	165.62
229.964	181.62
230.199	209.62
230.433	220.62
230.667	219.62
230.901	202.62
231.136	200.62
231.37	203.62
231.604	232.62
231.838	234.62
232.072	248.62
232.306	248.62
232.541	254.62
232.775	230.62
233.009	259.62
233.243	294.62
233.477	297.62
233.711	326.62
233.945	342.62
234.179	323.62
234.413	338.62
234.647	376.62
234.881	434.62
235.115	408.62
235.349	378.62
235.583	339.62
235.817	374.62
236.051	365.62
236.285	427.62
236.519	461.62
236.753	434.62
236.987	425.62
237.221	399.62
237.455	398.62
237.689	434.62
237.922	466.62
238.156	480.62
238.39	553.62
238.624	647.62
238.858	571.62
239.091	489.62
239.325	510.62
239.559	455.62
239.793	539.62
240.027	653.62
240.26	591.62
240.494	559.62
240.728	588.62
240.961	695.62
241.195	623.62
241.429	646.62
241.662	608.62
241.896	503.62
242.13	461.62
242.363	440.62
242.597	477.62
242.83	533.62
243.064	529.62
243.298	585.62
243.531	613.62
243.765	609.62
243.998	624.62
244.232	591.62
244.465	587.62
244.699	586.62
244.932	637.62
245.166	622.62
245.399	541.62
245.633	531.62
245.866	591.62
246.099	614.62
246.333	689.62
246.566	763.62
246.8	758.62
247.033	749.62
247.266	674.62
247.5	649.62
247.733	638.62
247.966	643.62
248.2	699.62
248.433	768.62
248.666	795.62
248.899	817.62
249.133	854.62
249.366	955.62
249.599	1026.62
249.832	912.62
250.066	811.62
250.299	849.62
250.532	798.62
250.765	769.62
250.998	741.62
251.231	709.62
251.465	772.62
251.698	819.62
251.931	777.62
252.164	813.62
252.397	919.62
252.63	1042.62
252.863	1112.62
253.096	1175.62
253.329	1108.62
253.562	1063.62
253.795	1184.62
254.028	1297.62
254.261	1360.62
254.494	1201.62
254.727	1092.62
254.96	1077.62
255.193	1153.62
255.426	1111.62
255.659	877.62
255.892	803.62
256.124	865.62
256.357	1009.62
256.59	1150.62
256.823	1106.62
257.056	975.62
257.289	892.62
257.521	938.62
257.754	1100.62
257.987	1258.62
258.22	1108.62
258.452	1005.62
258.685	1104.62
258.918	1234.62
259.151	1244.62
259.383	1274.62
259.616	1494.62
259.849	1545.62
260.081	1695.62
260.314	1886.62
260.547	1454.62
260.779	1448.62
261.012	1674.62
261.244	1557.62
261.477	1601.62
261.71	1517.62
261.942	1266.62
262.175	1281.62
262.407	1191.62
262.64	1251.62
262.872	1448.62
263.105	1581.62
263.337	1685.62
263.57	1518.62
263.802	1019.62
264.035	889.62
264.267	888.62
264.499	725.62
264.732	699.62
264.964	690.62
265.197	728.62
265.429	753.62
265.661	809.62
265.894	849.62
266.126	909.62
266.358	1021.62
266.591	1198.62
266.823	1423.62
267.055	1391.62
267.287	1233.62
267.52	1225.62
267.752	1288.62
267.984	1407.62
268.216	1341.62
268.448	1096.62
268.681	1087.62
268.913	1156.62
269.145	1259.62
269.377	1285.62
269.609	1313.62
269.841	1184.62
270.073	1252.62
270.306	1306.62
270.538	1379.62
270.77	1403.62
271.002	1400.62
271.234	1447.62
271.466	1456.62
271.698	1414.62
271.93	1387.62
272.162	1390.62
272.394	1401.62
272.626	1355.62
272.858	1376.62
273.09	1449.62
273.322	1302.62
273.553	1242.62
273.785	1434.62
274.017	1898.62
274.249	2368.62
274.481	2412.62
274.713	2655.62
274.945	3079.62
275.176	3199.62
275.408	2791.62
275.64	2535.62
275.872	2513.62
276.104	2197.62
276.335	1829.62
276.567	1879.62
276.799	1946.62
277.031	1982.62
277.262	1554.62
277.494	1238.62
277.726	1190.62
277.957	1297.62
278.189	1455.62
278.421	1437.62
278.652	1391.62
278.884	1331.62
279.115	1222.62
279.347	1192.62
279.579	1184.62
279.81	1152.62
280.042	1152.62
280.273	1203.62
280.505	1105.62
280.736	979.62
280.968	1013.62
281.199	1091.62
281.431	1220.62
281.662	1232.62
281.894	1165.62
282.125	1258.62
282.356	1327.62
282.588	1406.62
282.819	1246.62
283.051	1340.62
283.282	1668.62
283.513	1914.62
283.745	2149.62
283.976	2148.62
284.207	1950.62
284.439	2046.62
284.67	1963.62
284.901	1749.62
285.132	1874.62
285.364	1975.62
285.595	1839.62
285.826	1953.62
286.057	1987.62
286.288	1916.62
286.52	1941.62
286.751	2086.62
286.982	2007.62
287.213	1745.62
287.444	1677.62
287.675	1815.62
287.906	1758.62
288.138	1528.62
288.369	1375.62
288.6	1281.62
288.831	1336.62
289.062	1561.62
289.293	1660.62
289.524	1569.62
289.755	1572.62
289.986	1630.62
290.217	1419.62
290.448	1112.62
290.679	931.62
290.91	889.62
291.141	899.62
291.371	965.62
291.602	945.62
291.833	995.62
292.064	1045.62
292.295	1194.62
292.526	1370.62
292.757	1421.62
292.987	1523.62
293.218	1533.62
293.449	1572.62
293.68	1657.62
293.91	1541.62
294.141	1615.62
294.372	1488.62
294.603	1362.62
294.833	1502.62
295.064	1819.62
295.295	1665.62
295.525	1295.62
295.756	1116.62
295.987	998.62
296.217	1012.62
296.448	1002.62
296.679	1040.62
296.909	1166.62
297.14	1239.62
297.37	1387.62
297.601	1320.62
297.831	1137.62
298.062	1240.62
298.292	1387.62
298.523	1504.62
298.753	1752.62
298.984	1518.62
299.214	1213.62
299.445	1033.62
299.675	1016.62
299.905	963.62
300.136	1003.62
300.366	1116.62
300.597	1074.62
300.827	977.62
301.057	930.62
301.288	959.62
301.518	1043.62
301.748	1163.62
301.979	1234.62
302.209	1327.62
302.439	1372.62
302.669	1197.62
302.9	1188.62
303.13	1113.62
303.36	1084.62
303.59	1034.62
303.82	1059.62
304.051	1197.62
304.281	1301.62
304.511	1261.62
304.741	1090.62
304.971	1163.62
305.201	1267.62
305.431	1178.62
305.661	1037.62
305.891	1013.62
306.121	1029.62
306.352	914.62
306.582	841.62
306.812	821.62
307.042	816.62
307.272	764.62
307.502	773.62
307.731	822.62
307.961	880.62
308.191	841.62
308.421	788.62
308.651	787.62
308.881	760.62
309.111	797.62
309.341	808.62
309.571	873.62
309.8	878.62
310.03	909.62
310.26	964.62
310.49	970.62
310.72	847.62
310.949	865.62
311.179	867.62
311.409	907.62
311.639	1061.62
311.868	1337.62
312.098	1739.62
312.328	1878.62
312.557	1808.62
312.787	1827.62
313.017	1635.62
313.246	1775.62
313.476	1882.62
313.706	1572.62
313.935	1250.62
314.165	1033.62
314.394	934.62
314.624	929.62
314.853	1007.62
315.083	1019.62
315.312	973.62
315.542	977.62
315.771	898.62
316.001	862.62
316.23	813.62
316.46	805.62
316.689	828.62
316.919	849.62
317.148	861.62
317.377	843.62
317.607	874.62
317.836	944.62
318.065	1059.62
318.295	1188.62
318.524	1119.62
318.753	949.62
318.983	906.62
319.212	870.62
319.441	965.62
319.67	1066.62
319.9	1143.62
320.129	1074.62
320.358	927.62
320.587	915.62
320.816	988.62
321.046	1130.62
321.275	1265.62
321.504	1237.62
321.733	1225.62
321.962	1174.62
322.191	1075.62
322.42	1065.62
322.649	1066.62
322.878	1158.62
323.108	1144.62
323.337	1071.62
323.566	1071.62
323.795	1019.62
324.024	997.62
324.253	955.62
324.482	928.62
324.71	1050.62
324.939	1138.62
325.168	1085.62
325.397	917.62
325.626	890.62
325.855	877.62
326.084	879.62
326.313	820.62
326.542	821.62
326.77	867.62
326.999	887.62
327.228	930.62
327.457	992.62
327.686	978.62
327.914	850.62
328.143	795.62
328.372	806.62
328.6	800.62
328.829	847.62
329.058	875.62
329.287	887.62
329.515	883.62
329.744	896.62
329.972	804.62
330.201	756.62
330.43	803.62
330.658	918.62
330.887	1029.62
331.115	1002.62
331.344	965.62
331.572	961.62
331.801	896.62
332.03	827.62
332.258	861.62
332.486	927.62
332.715	968.62
332.943	891.62
333.172	904.62
333.4	944.62
333.629	1009.62
333.857	1070.62
334.085	1087.62
334.314	1087.62
334.542	1000.62
334.771	960.62
334.999	950.62
335.227	917.62
335.455	913.62
335.684	996.62
335.912	1181.62
336.14	1276.62
336.369	1215.62
336.597	1178.62
336.825	1346.62
337.053	1495.62
337.281	1204.62
337.51	964.62
337.738	983.62
337.966	1046.62
338.194	1132.62
338.422	1099.62
338.65	921.62
338.878	852.62
339.106	868.62
339.334	1000.62
339.562	1060.62
339.79	971.62
340.018	952.62
340.246	1009.62
340.474	1105.62
340.702	1236.62
340.93	1266.62
341.158	1255.62
341.386	1079.62
341.614	1047.62
341.842	1034.62
342.07	1124.62
342.298	1288.62
342.526	1339.62
342.754	1176.62
342.981	1080.62
343.209	1037.62
343.437	1073.62
343.665	1140.62
343.893	1109.62
344.12	1303.62
344.348	1529.62
344.576	1365.62
344.804	1141.62
345.031	980.62
345.259	931.62
345.487	949.62
345.714	1005.62
345.942	1074.62
346.17	1146.62
346.397	1066.62
346.625	964.62
346.853	941.62
347.08	932.62
347.308	960.62
347.535	1069.62
347.763	1096.62
347.99	971.62
348.218	919.62
348.445	948.62
348.673	929.62
348.9	934.62
349.128	1015.62
349.355	1034.62
349.583	1012.62
349.81	963.62
350.037	933.62
350.265	810.62
350.492	777.62
350.72	781.62
350.947	784.62
351.174	843.62
351.402	917.62
351.629	949.62
351.856	908.62
352.083	838.62
352.311	928.62
352.538	1032.62
352.765	1106.62
352.992	983.62
353.22	925.62
353.447	952.62
353.674	908.62
353.901	920.62
354.128	932.62
354.355	957.62
354.583	941.62
354.81	947.62
355.037	960.62
355.264	947.62
355.491	1028.62
355.718	1090.62
355.945	1067.62
356.172	1009.62
356.399	1019.62
356.626	1223.62
356.853	1479.62
357.08	1597.62
357.307	1599.62
357.534	1267.62
357.761	1294.62
357.988	1609.62
358.215	1899.62
358.441	1819.62
358.668	1502.62
358.895	1399.62
359.122	1151.62
359.349	1161.62
359.576	1249.62
359.802	1033.62
360.029	916.62
360.256	970.62
360.483	1194.62
360.709	1472.62
360.936	1520.62
361.163	1373.62
361.39	1063.62
361.616	986.62
361.843	1171.62
362.07	1361.62
362.296	1296.62
362.523	1005.62
362.749	900.62
362.976	950.62
363.203	1152.62
363.429	1286.62
363.656	1050.62
363.882	948.62
364.109	944.62
364.335	959.62
364.562	947.62
364.788	1072.62
365.015	1225.62
365.241	1089.62
365.468	920.62
365.694	815.62
365.92	777.62
366.147	787.62
366.373	756.62
366.599	751.62
366.826	781.62
367.052	809.62
367.278	821.62
367.505	815.62
367.731	858.62
367.957	949.62
368.184	977.62
368.41	943.62
368.636	956.62
368.862	982.62
369.089	976.62
369.315	851.62
369.541	847.62
369.767	849.62
369.993	804.62
370.219	833.62
370.445	851.62
370.672	952.62
370.898	1054.62
371.124	1040.62
371.35	907.62
371.576	888.62
371.802	950.62
372.028	1128.62
372.254	1250.62
372.48	1081.62
372.706	981.62
372.932	1037.62
373.158	1088.62
373.384	1278.62
373.61	1646.62
373.835	1709.62
374.061	1291.62
374.287	1124.62
374.513	1301.62
374.739	1517.62
374.965	1558.62
375.191	1573.62
375.416	1102.62
375.642	956.62
375.868	1157.62
376.094	1262.62
376.319	1122.62
376.545	1224.62
376.771	1218.62
376.997	1129.62
377.222	845.62
377.448	733.62
377.674	740.62
377.899	739.62
378.125	738.62
378.35	734.62
378.576	755.62
378.802	815.62
379.027	877.62
379.253	881.62
379.478	890.62
379.704	979.62
379.929	1049.62
380.155	1032.62
380.38	909.62
380.606	942.62
380.831	1063.62
381.057	978.62
381.282	946.62
381.507	1078.62
381.733	1322.62
381.958	1409.62
382.184	1495.62
382.409	1575.62
382.634	1511.62
382.86	1600.62
383.085	1353.62
383.31	1101.62
383.535	1138.62
383.761	1173.62
383.986	1135.62
384.211	1338.62
384.436	1252.62
384.662	989.62
384.887	961.62
385.112	985.62
385.337	1029.62
385.562	958.62
385.787	1043.62
386.013	1116.62
386.238	1154.62
386.463	978.62
386.688	969.62
386.913	910.62
387.138	887.62
387.363	925.62
387.588	942.62
387.813	898.62
388.038	1058.62
388.263	942.62
388.488	921.62
388.713	1073.62
388.938	1147.62
389.163	990.62
389.387	878.62
389.612	874.62
389.837	936.62
390.062	937.62
390.287	965.62
390.512	981.62
390.736	911.62
390.961	853.62
391.186	833.62
391.411	835.62
391.636	846.62
391.86	901.62
392.085	969.62
392.31	974.62
392.534	915.62
392.759	915.62
392.984	951.62
393.208	948.62
393.433	851.62
393.658	801.62
393.882	789.62
394.107	777.62
394.331	807.62
394.556	799.62
394.78	807.62
395.005	836.62
395.229	830.62
395.454	861.62
395.678	880.62
395.903	885.62
396.127	869.62
396.352	906.62
396.576	939.62
396.801	977.62
397.025	1068.62
397.249	1075.62
397.474	921.62
397.698	898.62
397.922	947.62
398.147	883.62
398.371	926.62
398.595	966.62
398.82	953.62
399.044	920.62
399.268	993.62
399.492	1022.62
399.717	1031.62
399.941	1062.62
400.165	1056.62
400.389	1014.62
400.613	1017.62
400.837	990.62
401.062	911.62
401.286	897.62
401.51	909.62
401.734	889.62
401.958	892.62
402.182	916.62
402.406	884.62
402.63	877.62
402.854	922.62
403.078	1020.62
403.302	1261.62
403.526	1298.62
403.75	1152.62
403.974	1020.62
404.198	1079.62
404.422	1161.62
404.645	1357.62
404.869	1474.62
405.093	1143.62
405.317	970.62
405.541	950.62
405.765	1012.62
405.988	998.62
406.212	1081.62
406.436	1224.62
406.66	1348.62
406.883	1102.62
407.107	1144.62
407.331	1265.62
407.555	1220.62
407.778	1073.62
408.002	1035.62
408.226	1027.62
408.449	1032.62
408.673	983.62
408.896	936.62
409.12	905.62
409.344	891.62
409.567	859.62
409.791	910.62
410.014	883.62
410.238	881.62
410.461	893.62
410.685	889.62
410.908	928.62
411.132	885.62
411.355	918.62
411.578	953.62
411.802	975.62
412.025	942.62
412.249	950.62
412.472	906.62
412.695	929.62
412.919	936.62
413.142	957.62
413.365	1030.62
413.589	1034.62
413.812	926.62
414.035	897.62
414.258	908.62
414.482	1025.62
414.705	1038.62
414.928	879.62
415.151	851.62
415.374	871.62
415.597	923.62
415.821	927.62
416.044	875.62
416.267	850.62
416.49	863.62
416.713	849.62
416.936	854.62
417.159	856.62
417.382	870.62
417.605	864.62
417.828	884.62
418.051	903.62
418.274	912.62
418.497	938.62
418.72	900.62
418.943	932.62
419.166	992.62
419.389	984.62
419.611	989.62
419.834	1003.62
420.057	1049.62
420.28	1082.62
420.503	980.62
420.726	885.62
420.948	851.62
421.171	882.62
421.394	864.62
421.617	857.62
421.839	867.62
422.062	930.62
422.285	939.62
422.507	908.62
422.73	936.62
422.953	938.62
423.175	922.62
423.398	947.62
423.621	991.62
423.843	988.62
424.066	979.62
424.288	928.62
424.511	906.62
424.733	913.62
424.956	946.62
425.178	1003.62
425.401	1179.62
425.623	1334.62
425.846	1101.62
426.068	960.62
426.291	1060.62
426.513	987.62
426.735	935.62
426.958	978.62
427.18	1069.62
427.402	1384.62
427.625	1371.62
427.847	1172.62
428.069	893.62
428.292	885.62
428.514	880.62
428.736	842.62
428.958	929.62
429.181	1075.62
429.403	943.62
429.625	874.62
429.847	873.62
430.069	865.62
430.292	882.62
430.514	859.62
430.736	940.62
430.958	1143.62
431.18	1055.62
431.402	833.62
431.624	793.62
431.846	793.62
432.068	778.62
432.29	808.62
432.512	911.62
432.734	1179.62
432.956	1121.62
433.178	873.62
433.4	822.62
433.622	844.62
433.844	887.62
434.066	934.62
434.287	912.62
434.509	882.62
434.731	936.62
434.953	876.62
435.175	901.62
435.397	1008.62
435.618	892.62
435.84	817.62
436.062	830.62
436.284	822.62
436.505	827.62
436.727	758.62
436.949	818.62
437.17	832.62
437.392	843.62
437.614	807.62
437.835	791.62
438.057	817.62
438.278	968.62
438.5	1316.62
438.721	1321.62
438.943	921.62
439.165	790.62
439.386	784.62
439.608	780.62
439.829	795.62
440.05	802.62
440.272	833.62
440.493	964.62
440.715	1151.62
440.936	951.62
441.158	842.62
441.379	820.62
441.6	947.62
441.822	989.62
442.043	853.62
442.264	847.62
442.486	866.62
442.707	853.62
442.928	866.62
443.149	852.62
443.371	876.62
443.592	895.62
443.813	908.62
444.034	905.62
444.255	901.62
444.476	942.62
444.698	925.62
444.919	941.62
445.14	1034.62
445.361	1001.62
445.582	951.62
445.803	908.62
446.024	943.62
446.245	939.62
446.466	895.62
446.687	852.62
446.908	860.62
447.129	842.62
447.35	822.62
447.571	817.62
447.792	807.62
448.013	791.62
448.234	764.62
448.455	786.62
448.675	785.62
448.896	801.62
449.117	790.62
449.338	794.62
449.559	814.62
449.779	866.62
450	872.62
450.221	794.62
450.442	813.62
450.662	770.62
450.883	800.62
451.104	785.62
451.324	788.62
451.545	814.62
451.766	794.62
451.986	795.62
452.207	740.62
452.428	769.62
452.648	777.62
452.869	798.62
453.089	816.62
453.31	825.62
453.53	747.62
453.751	738.62
453.971	766.62
454.192	742.62
454.412	787.62
454.633	745.62
454.853	736.62
455.073	720.62
455.294	739.62
455.514	747.62
455.734	783.62
455.955	792.62
456.175	795.62
456.395	730.62
456.616	723.62
456.836	705.62
457.056	675.62
457.276	692.62
457.497	685.62
457.717	700.62
457.937	720.62
458.157	722.62
458.377	730.62
458.598	732.62
458.818	775.62
459.038	794.62
459.258	830.62
459.478	836.62
459.698	901.62
459.918	886.62
460.138	847.62
460.358	868.62
460.578	860.62
460.798	880.62
461.018	878.62
461.238	851.62
461.458	868.62
461.678	866.62
461.898	920.62
462.118	917.62
462.338	932.62
462.558	932.62
462.777	977.62
462.997	990.62
463.217	982.62
463.437	1034.62
463.657	990.62
463.876	949.62
464.096	961.62
464.316	968.62
464.536	967.62
464.755	990.62
464.975	979.62
465.195	966.62
465.414	1023.62
465.634	937.62
465.854	923.62
466.073	868.62
466.293	870.62
466.512	897.62
466.732	1005.62
466.951	1023.62
467.171	894.62
467.391	878.62
467.61	851.62
467.829	917.62
468.049	925.62
468.268	878.62
468.488	871.62
468.707	911.62
468.927	1053.62
469.146	1187.62
469.365	1035.62
469.585	930.62
469.804	998.62
470.023	1097.62
470.243	968.62
470.462	908.62
470.681	925.62
470.901	911.62
471.12	982.62
471.339	968.62
471.558	913.62
471.777	934.62
471.997	972.62
472.216	1088.62
472.435	1021.62
472.654	952.62
472.873	951.62
473.092	982.62
473.311	1058.62
473.53	957.62
473.749	917.62
473.968	964.62
474.187	953.62
474.406	936.62
474.625	923.62
474.844	958.62
475.063	997.62
475.282	989.62
475.501	1060.62
475.72	1129.62
475.939	1083.62
476.158	1078.62
476.377	1204.62
476.596	1433.62
476.814	1493.62
477.033	1234.62
477.252	1049.62
477.471	986.62
477.69	994.62
477.908	1062.62
478.127	1119.62
478.346	1057.62
478.564	1142.62
478.783	1077.62
479.002	1098.62
479.22	1222.62
479.439	1382.62
479.658	1217.62
479.876	1126.62
480.095	1208.62
480.313	1237.62
480.532	1125.62
480.751	1082.62
480.969	1080.62
481.188	1247.62
481.406	1279.62
481.624	1190.62
481.843	1111.62
482.061	1059.62
482.28	1151.62
482.498	1445.62
482.717	1333.62
482.935	1147.62
483.153	1096.62
483.372	1039.62
483.59	1057.62
483.808	1038.62
484.027	1039.62
484.245	1017.62
484.463	986.62
484.681	991.62
484.9	1087.62
485.118	1159.62
485.336	1071.62
485.554	1059.62
485.772	1051.62
485.99	1158.62
486.209	1219.62
486.427	1218.62
486.645	1174.62
486.863	1211.62
487.081	1221.62
487.299	1360.62
487.517	1267.62
487.735	1179.62
487.953	1218.62
488.171	1260.62
488.389	1176.62
488.607	1097.62
488.825	1167.62
489.043	1197.62
489.261	1417.62
489.479	1510.62
489.696	1292.62
489.914	1171.62
490.132	1070.62
490.35	1099.62
490.568	1106.62
490.786	1107.62
491.003	1129.62
491.221	1135.62
491.439	1096.62
491.657	1122.62
491.874	1241.62
492.092	1414.62
492.31	1703.62
492.527	1677.62
492.745	1521.62
492.963	1335.62
493.18	1265.62
493.398	1290.62
493.615	1277.62
493.833	1226.62
494.05	1224.62
494.268	1270.62
494.485	1238.62
494.703	1164.62
494.92	1238.62
495.138	1203.62
495.355	1205.62
495.573	1245.62
495.79	1362.62
496.008	1735.62
496.225	1477.62
496.442	1351.62
496.66	1326.62
496.877	1381.62
497.094	1354.62
497.312	1280.62
497.529	1311.62
497.746	1288.62
497.963	1389.62
498.181	1474.62
498.398	1545.62
498.615	1592.62
498.832	1677.62
499.049	1741.62
499.267	1532.62
499.484	1559.62
499.701	1616.62
499.918	1755.62
500.135	1874.62
500.352	1879.62
500.569	1950.62
500.786	1979.62
501.003	1993.62
501.22	1773.62
501.437	1708.62
501.654	1654.62
501.871	1603.62
502.088	1625.62
502.305	1471.62
502.522	1499.62
502.739	1456.62
502.956	1375.62
503.172	1361.62
503.389	1282.62
503.606	1238.62
503.823	1259.62
504.04	1306.62
504.256	1327.62
504.473	1316.62
504.69	1384.62
504.907	1404.62
505.123	1360.62
505.34	1417.62
505.557	1414.62
505.773	1339.62
505.99	1279.62
506.207	1302.62
506.423	1246.62
506.64	1185.62
506.856	1222.62
507.073	1357.62
507.289	1320.62
507.506	1329.62
507.722	1356.62
507.939	1397.62
508.155	1434.62
508.372	1294.62
508.588	1274.62
508.805	1228.62
509.021	1187.62
509.238	1145.62
509.454	1175.62
509.67	1163.62
509.887	1168.62
510.103	1285.62
510.319	1289.62
510.536	1158.62
510.752	1094.62
510.968	1055.62
511.184	1014.62
511.401	1037.62
511.617	1012.62
511.833	1018.62
512.049	1066.62
512.265	1102.62
512.481	1093.62
512.698	1215.62
512.914	1346.62
513.13	1198.62
513.346	1127.62
513.562	1153.62
513.778	1133.62
513.994	1130.62
514.21	1229.62
514.426	1167.62
514.642	1147.62
514.858	1097.62
515.074	1159.62
515.29	1261.62
515.506	1432.62
515.721	1321.62
515.937	1209.62
516.153	1153.62
516.369	1137.62
516.585	1222.62
516.801	1379.62
517.016	1530.62
517.232	1509.62
517.448	1467.62
517.664	1325.62
517.879	1289.62
518.095	1256.62
518.311	1245.62
518.527	1293.62
518.742	1379.62
518.958	1454.62
519.173	1393.62
519.389	1323.62
519.605	1369.62
519.82	1427.62
520.036	1713.62
520.251	1669.62
520.467	1540.62
520.682	2215.62
520.898	2665.62
521.113	2587.62
521.329	1699.62
521.544	1537.62
521.76	1491.62
521.975	1300.62
522.19	1277.62
522.406	1306.62
522.621	1407.62
522.836	1471.62
523.052	1501.62
523.267	1243.62
523.482	1267.62
523.698	1349.62
523.913	1320.62
524.128	1218.62
524.343	1122.62
524.559	1137.62
524.774	1097.62
524.989	1107.62
525.204	1184.62
525.419	1272.62
525.634	1192.62
525.849	1207.62
526.064	1217.62
526.28	1263.62
526.495	1437.62
526.71	1476.62
526.925	1290.62
527.14	1351.62
527.355	1322.62
527.57	1099.62
527.785	1179.62
527.999	1118.62
528.214	1077.62
528.429	1064.62
528.644	1044.62
528.859	997.62
529.074	992.62
529.289	1002.62
529.503	987.62
529.718	1019.62
529.933	1185.62
530.148	1181.62
530.363	1037.62
530.577	1002.62
530.792	1021.62
531.007	1019.62
531.221	958.62
531.436	968.62
531.651	978.62
531.865	971.62
532.08	1001.62
532.295	958.62
532.509	1021.62
532.724	1144.62
532.938	1261.62
533.153	1448.62
533.367	1207.62
533.582	1151.62
533.796	1053.62
534.011	1023.62
534.225	1031.62
534.44	1057.62
534.654	1089.62
534.868	1259.62
535.083	1083.62
535.297	1004.62
535.511	1005.62
535.726	1132.62
535.94	1095.62
536.154	987.62
536.369	983.62
536.583	1014.62
536.797	1005.62
537.011	1006.62
537.225	1071.62
537.44	1117.62
537.654	1005.62
537.868	982.62
538.082	1015.62
538.296	968.62
538.51	1071.62
538.724	1073.62
538.938	1024.62
539.153	991.62
539.367	990.62
539.581	971.62
539.795	1044.62
540.009	1081.62
540.222	1041.62
540.436	1013.62
540.65	1105.62
540.864	1115.62
541.078	1138.62
541.292	1310.62
541.506	1111.62
541.72	1052.62
541.934	1005.62
542.147	1011.62
542.361	1021.62
542.575	1059.62
542.789	1005.62
543.002	958.62
543.216	1039.62
543.43	935.62
543.644	921.62
543.857	887.62
544.071	927.62
544.285	931.62
544.498	897.62
544.712	897.62
544.925	976.62
545.139	941.62
545.352	891.62
545.566	895.62
545.779	1028.62
545.993	951.62
546.206	869.62
546.42	861.62
546.633	879.62
546.847	850.62
547.06	848.62
547.274	857.62
547.487	851.62
547.7	948.62
547.914	982.62
548.127	1071.62
548.34	1076.62
548.554	934.62
548.767	993.62
548.98	1045.62
549.193	963.62
549.407	986.62
549.62	1177.62
549.833	1069.62
550.046	1133.62
550.259	1139.62
550.473	1001.62
550.686	954.62
550.899	987.62
551.112	981.62
551.325	1014.62
551.538	1111.62
551.751	942.62
551.964	913.62
552.177	903.62
552.39	861.62
552.603	881.62
552.816	945.62
553.029	873.62
553.242	868.62
553.455	936.62
553.667	1037.62
553.88	937.62
554.093	914.62
554.306	822.62
554.519	811.62
554.732	791.62
554.944	792.62
555.157	804.62
555.37	785.62
555.583	767.62
555.795	788.62
556.008	781.62
556.221	785.62
556.433	788.62
556.646	769.62
556.859	793.62
557.071	809.62
557.284	803.62
557.496	803.62
557.709	789.62
557.921	775.62
558.134	733.62
558.346	691.62
558.559	712.62
558.771	746.62
558.984	787.62
559.196	735.62
559.409	718.62
559.621	709.62
559.833	695.62
560.046	723.62
560.258	694.62
560.47	734.62
560.683	708.62
560.895	665.62
561.107	655.62
561.32	651.62
561.532	674.62
561.744	755.62
561.956	770.62
562.168	659.62
562.381	704.62
562.593	701.62
562.805	742.62
563.017	695.62
563.229	647.62
563.441	678.62
563.653	655.62
563.865	669.62
564.077	700.62
564.289	659.62
564.501	688.62
564.713	747.62
564.925	696.62
565.137	694.62
565.349	682.62
565.561	707.62
565.773	721.62
565.985	746.62
566.197	785.62
566.408	826.62
566.62	843.62
566.832	839.62
567.044	846.62
567.255	899.62
567.467	962.62
567.679	883.62
567.891	874.62
568.102	865.62
568.314	889.62
568.526	840.62
568.737	815.62
568.949	853.62
569.161	755.62
569.372	687.62
569.584	679.62
569.795	672.62
570.007	693.62
570.218	748.62
570.43	714.62
570.641	690.62
570.853	662.62
571.064	671.62
571.276	683.62
571.487	720.62
571.698	678.62
571.91	651.62
572.121	661.62
572.333	631.62
572.544	626.62
572.755	622.62
572.966	598.62
573.178	625.62
573.389	640.62
573.6	636.62
573.811	616.62
574.023	579.62
574.234	575.62
574.445	579.62
574.656	548.62
574.867	578.62
575.078	573.62
575.289	575.62
575.501	639.62
575.712	610.62
575.923	561.62
576.134	537.62
576.345	553.62
576.556	562.62
576.767	550.62
576.978	521.62
577.188	528.62
577.399	530.62
577.61	515.62
577.821	510.62
578.032	519.62
578.243	566.62
578.454	581.62
578.665	571.62
578.875	560.62
579.086	569.62
579.297	588.62
579.508	570.62
579.718	541.62
579.929	543.62
580.14	516.62
580.35	506.62
580.561	501.62
580.772	474.62
580.982	470.62
581.193	471.62
581.403	458.62
581.614	455.62
581.825	466.62
582.035	481.62
582.246	453.62
582.456	463.62
582.667	479.62
582.877	468.62
583.087	477.62
583.298	480.62
583.508	478.62
583.719	462.62
583.929	468.62
584.139	421.62
584.35	460.62
584.56	467.62
584.77	472.62
584.981	465.62
585.191	465.62
585.401	479.62
585.611	481.62
585.821	485.62
586.032	514.62
586.242	469.62
586.452	471.62
586.662	454.62
586.872	493.62
587.082	479.62
587.292	471.62
587.502	463.62
587.713	453.62
587.923	467.62
588.133	498.62
588.343	463.62
588.553	439.62
588.762	439.62
588.972	443.62
589.182	456.62
589.392	439.62
589.602	458.62
589.812	480.62
590.022	523.62
590.232	510.62
590.441	465.62
590.651	433.62
590.861	442.62
591.071	462.62
591.281	446.62
591.49	443.62
591.7	447.62
591.91	451.62
592.119	462.62
592.329	426.62
592.539	460.62
592.748	479.62
592.958	466.62
593.167	457.62
593.377	477.62
593.587	500.62
593.796	485.62
594.006	453.62
594.215	455.62
594.424	483.62
594.634	493.62
594.843	486.62
595.053	468.62
595.262	431.62
595.472	447.62
595.681	414.62
595.89	422.62
596.1	420.62
596.309	433.62
596.518	425.62
596.727	424.62
596.937	425.62
597.146	445.62
597.355	454.62
597.564	441.62
597.774	399.62
597.983	414.62
598.192	408.62
598.401	392.62
598.61	381.62
598.819	401.62
599.028	384.62
599.237	380.62
599.446	378.62
599.655	390.62
599.864	372.62
600.073	371.62
600.282	385.62
600.491	399.62
600.7	374.62
600.909	398.62
601.118	384.62
601.327	369.62
601.536	373.62
601.745	399.62
601.953	410.62
602.162	392.62
602.371	382.62
602.58	388.62
602.789	382.62
602.997	381.62
603.206	388.62
603.415	380.62
603.623	362.62
603.832	373.62
604.041	373.62
604.249	366.62
604.458	378.62
604.666	374.62
604.875	347.62
605.084	360.62
605.292	329.62
605.501	358.62
605.709	371.62
605.918	366.62
606.126	341.62
606.334	353.62
606.543	354.62
606.751	340.62
606.96	350.62
607.168	366.62
607.376	334.62
607.585	326.62
607.793	358.62
608.001	355.62
608.21	360.62
608.418	363.62
608.626	368.62
608.834	332.62
609.043	346.62
609.251	317.62
609.459	339.62
609.667	347.62
609.875	338.62
610.083	343.62
610.291	351.62
610.499	354.62
610.707	333.62
610.916	330.62
611.124	335.62
611.332	323.62
611.54	342.62
611.748	358.62
611.955	335.62
612.163	319.62
612.371	348.62
612.579	316.62
612.787	353.62
612.995	333.62
613.203	338.62
613.411	331.62
613.618	329.62
613.826	342.62
614.034	361.62
614.242	335.62
614.449	335.62
614.657	329.62
614.865	309.62
615.072	321.62
615.28	317.62
615.488	313.62
615.695	299.62
615.903	331.62
616.111	321.62
616.318	325.62
616.526	334.62
616.733	321.62
616.941	305.62
617.148	337.62
617.356	294.62
617.563	307.62
617.771	316.62
617.978	323.62
618.185	313.62
618.393	311.62
618.6	307.62
618.807	314.62
619.015	315.62
619.222	323.62
619.429	311.62
619.637	303.62
619.844	310.62
620.051	325.62
620.258	311.62
620.466	301.62
620.673	301.62
620.88	289.62
621.087	296.62
621.294	286.62
621.501	299.62
621.708	306.62
621.915	283.62
622.122	300.62
622.329	285.62
622.536	305.62
622.743	299.62
622.95	263.62
623.157	306.62
623.364	313.62
623.571	298.62
623.778	303.62
623.985	299.62
624.192	309.62
624.399	317.62
624.606	297.62
624.812	295.62
625.019	304.62
625.226	311.62
625.433	307.62
625.639	298.62
625.846	273.62
626.053	266.62
626.259	279.62
626.466	285.62
626.673	298.62
626.879	267.62
627.086	280.62
627.293	285.62
627.499	279.62
627.706	265.62
627.912	274.62
628.119	284.62
628.325	257.62
628.532	270.62
628.738	268.62
628.945	284.62
629.151	267.62
629.357	258.62
629.564	254.62
629.77	264.62
629.976	268.62
630.183	281.62
630.389	243.62
630.595	272.62
630.802	253.62
631.008	260.62
631.214	255.62
631.42	261.62
631.627	245.62
631.833	247.62
632.039	239.62
632.245	265.62
632.451	242.62
632.657	251.62
632.863	240.62
633.069	255.62
633.275	254.62
633.481	234.62
633.688	252.62
633.893	243.62
634.099	241.62
634.305	251.62
634.511	247.62
634.717	226.62
634.923	233.62
635.129	232.62
635.335	231.62
635.541	238.62
635.747	239.62
635.952	236.62
636.158	236.62
636.364	227.62
636.57	251.62
636.775	236.62
636.981	237.62
637.187	240.62
637.392	211.62
637.598	228.62
637.804	237.62
638.009	231.62
638.215	228.62
638.421	216.62
638.626	244.62
638.832	221.62
639.037	234.62
639.243	221.62
639.448	229.62
639.654	254.62
639.859	228.62
640.065	215.62
640.27	226.62
640.475	214.62
640.681	219.62
640.886	222.62
641.091	229.62
641.297	217.62
641.502	223.62
641.707	218.62
641.913	225.62
642.118	227.62
642.323	210.62
642.528	218.62
642.733	227.62
642.939	217.62
643.144	234.62
643.349	211.62
643.554	209.62
643.759	198.62
643.964	212.62
644.169	208.62
644.374	228.62
644.579	226.62
644.784	184.62
644.989	200.62
645.194	203.62
645.399	198.62
645.604	219.62
645.809	224.62
646.014	195.62
646.219	209.62
646.423	220.62
646.628	198.62
646.833	207.62
647.038	199.62
647.243	191.62
647.447	215.62
647.652	219.62
647.857	202.62
648.062	209.62
648.266	216.62
648.471	203.62
648.676	212.62
648.88	202.62
649.085	217.62
649.289	192.62
649.494	198.62
649.698	201.62
649.903	214.62
650.107	198.62
650.312	186.62
650.516	199.62
650.721	208.62
650.925	191.62
651.13	191.62
651.334	193.62
651.539	203.62
651.743	187.62
651.947	193.62
652.152	173.62
652.356	178.62
652.56	186.62
652.764	168.62
652.969	181.62
653.173	167.62
653.377	165.62
653.581	164.62
653.785	169.62
653.99	157.62
654.194	154.62
654.398	149.62
654.602	167.62
654.806	171.62
655.01	144.62
655.214	174.62
655.418	127.62
655.622	158.62
655.826	159.62
656.03	159.62
656.234	160.62
656.438	172.62
656.642	160.62
656.846	148.62
657.049	154.62
657.253	168.62
657.457	137.62
657.661	136.62
657.865	126.62
658.068	127.62
658.272	122.62
658.476	114.62
658.68	112.62
658.883	113.62
659.087	115.62
659.291	122.62
659.494	112.62
659.698	101.62
659.901	117.62
660.105	101.62
660.309	97.62
660.512	98.62
660.716	98.62
660.919	106.62
661.123	102.62
661.326	91.62
661.53	102.62
661.733	106.62
661.936	98.62
662.14	82.62
662.343	98.62
662.546	97.62
662.75	96.62
662.953	106.62
663.156	90.62
663.36	74.62
663.563	90.62
663.766	88.62
663.969	74.62
664.173	90.62
664.376	85.62
664.579	67.62
664.782	81.62
664.985	91.62
665.188	79.62
665.391	80.62
665.594	86.62
665.797	79.62
666	90.62
666.203	96.62
666.406	70.62
666.609	79.62
666.812	81.62
667.015	96.62
667.218	78.62
667.421	76.62
667.624	77.62
667.827	80.62
668.03	79.62
668.232	78.62
668.435	69.62
668.638	94.62
668.841	65.62
669.043	76.62
669.246	78.62
669.449	85.62
669.651	84.62
669.854	77.62
670.057	76.62
670.259	86.62
670.462	93.62
670.665	96.62
670.867	83.62
671.07	86.62
671.272	78.62
671.475	94.62
671.677	87.62
671.88	74.62
672.082	85.62
672.284	77.62
672.487	78.62
672.689	70.62
672.892	74.62
