Data from NickelSpatula.Lamp.E5.5.P2_HRD10591_11-52-50-552.txt Node
Date: Tue Jul 23 11:52:50 EDT 2019
User: cochatt
Spectrometer: HR+D1059
Trigger mode: 1
Integration Time (sec): 1.000000E-1
Scans to average: 1
Electric dark correction enabled: true
Nonlinearity correction enabled: false
Boxcar width: 0
XAxis mode: Wavelengths
Number of Pixels in Spectrum: 2048
>>>>>Begin Spectral Data<<<<<
223.165	-21.62
223.4	-21.62
223.635	-21.62
223.869	-26.62
224.104	-19.62
224.338	-6.62
224.573	-26.62
224.808	-20.62
225.042	11.38
225.277	-1.62
225.511	2.38
225.746	0.38
225.98	10.38
226.215	7.38
226.449	8.38
226.683	12.38
226.918	27.38
227.152	43.38
227.387	18.38
227.621	28.38
227.856	54.38
228.09	45.38
228.324	43.38
228.559	72.38
228.793	81.38
229.027	58.38
229.262	77.38
229.496	66.38
229.73	78.38
229.964	104.38
230.199	89.38
230.433	92.38
230.667	76.38
230.901	105.38
231.136	88.38
231.37	99.38
231.604	107.38
231.838	104.38
232.072	84.38
232.306	113.38
232.541	114.38
232.775	103.38
233.009	120.38
233.243	130.38
233.477	104.38
233.711	134.38
233.945	122.38
234.179	122.38
234.413	129.38
234.647	136.38
234.881	136.38
235.115	145.38
235.349	142.38
235.583	121.38
235.817	126.38
236.051	126.38
236.285	131.38
236.519	150.38
236.753	135.38
236.987	127.38
237.221	129.38
237.455	143.38
237.689	123.38
237.922	138.38
238.156	146.38
238.39	156.38
238.624	167.38
238.858	162.38
239.091	138.38
239.325	146.38
239.559	137.38
239.793	148.38
240.027	185.38
240.26	156.38
240.494	163.38
240.728	158.38
240.961	183.38
241.195	177.38
241.429	178.38
241.662	169.38
241.896	158.38
242.13	131.38
242.363	126.38
242.597	139.38
242.83	163.38
243.064	148.38
243.298	158.38
243.531	172.38
243.765	184.38
243.998	184.38
244.232	158.38
244.465	166.38
244.699	164.38
244.932	160.38
245.166	162.38
245.399	159.38
245.633	147.38
245.866	171.38
246.099	159.38
246.333	203.38
246.566	209.38
246.8	194.38
247.033	202.38
247.266	175.38
247.5	178.38
247.733	172.38
247.966	171.38
248.2	180.38
248.433	198.38
248.666	215.38
248.899	219.38
249.133	202.38
249.366	235.38
249.599	249.38
249.832	220.38
250.066	194.38
250.299	200.38
250.532	200.38
250.765	203.38
250.998	187.38
251.231	183.38
251.465	195.38
251.698	204.38
251.931	207.38
252.164	201.38
252.397	219.38
252.63	258.38
252.863	262.38
253.096	292.38
253.329	272.38
253.562	264.38
253.795	295.38
254.028	312.38
254.261	315.38
254.494	289.38
254.727	275.38
254.96	264.38
255.193	284.38
255.426	280.38
255.659	222.38
255.892	211.38
256.124	213.38
256.357	242.38
256.59	282.38
256.823	281.38
257.056	232.38
257.289	222.38
257.521	214.38
257.754	260.38
257.987	312.38
258.22	289.38
258.452	250.38
258.685	274.38
258.918	298.38
259.151	303.38
259.383	322.38
259.616	372.38
259.849	357.38
260.081	374.38
260.314	425.38
260.547	337.38
260.779	355.38
261.012	390.38
261.244	378.38
261.477	375.38
261.71	340.38
261.942	300.38
262.175	294.38
262.407	304.38
262.64	293.38
262.872	328.38
263.105	393.38
263.337	378.38
263.57	339.38
263.802	246.38
264.035	233.38
264.267	213.38
264.499	199.38
264.732	185.38
264.964	182.38
265.197	192.38
265.429	200.38
265.661	199.38
265.894	216.38
266.126	227.38
266.358	254.38
266.591	308.38
266.823	329.38
267.055	327.38
267.287	281.38
267.52	310.38
267.752	312.38
267.984	331.38
268.216	338.38
268.448	269.38
268.681	269.38
268.913	283.38
269.145	277.38
269.377	284.38
269.609	322.38
269.841	282.38
270.073	317.38
270.306	338.38
270.538	329.38
270.77	327.38
271.002	324.38
271.234	335.38
271.466	339.38
271.698	308.38
271.93	294.38
272.162	310.38
272.394	323.38
272.626	306.38
272.858	312.38
273.09	343.38
273.322	285.38
273.553	281.38
273.785	318.38
274.017	395.38
274.249	491.38
274.481	511.38
274.713	544.38
274.945	603.38
275.176	634.38
275.408	562.38
275.64	510.38
275.872	538.38
276.104	475.38
276.335	394.38
276.567	389.38
276.799	411.38
277.031	427.38
277.262	355.38
277.494	277.38
277.726	276.38
277.957	275.38
278.189	330.38
278.421	333.38
278.652	328.38
278.884	299.38
279.115	268.38
279.347	280.38
279.579	280.38
279.81	282.38
280.042	281.38
280.273	290.38
280.505	275.38
280.736	241.38
280.968	235.38
281.199	260.38
281.431	272.38
281.662	293.38
281.894	269.38
282.125	274.38
282.356	296.38
282.588	321.38
282.819	282.38
283.051	288.38
283.282	360.38
283.513	403.38
283.745	442.38
283.976	447.38
284.207	414.38
284.439	450.38
284.67	411.38
284.901	369.38
285.132	420.38
285.364	430.38
285.595	402.38
285.826	416.38
286.057	441.38
286.288	416.38
286.52	424.38
286.751	444.38
286.982	444.38
287.213	378.38
287.444	366.38
287.675	378.38
287.906	391.38
288.138	353.38
288.369	298.38
288.6	305.38
288.831	299.38
289.062	350.38
289.293	402.38
289.524	370.38
289.755	347.38
289.986	354.38
290.217	317.38
290.448	254.38
290.679	238.38
290.91	214.38
291.141	217.38
291.371	232.38
291.602	221.38
291.833	226.38
292.064	243.38
292.295	272.38
292.526	289.38
292.757	325.38
292.987	354.38
293.218	359.38
293.449	389.38
293.68	375.38
293.91	350.38
294.141	382.38
294.372	356.38
294.603	305.38
294.833	355.38
295.064	411.38
295.295	388.38
295.525	306.38
295.756	259.38
295.987	248.38
296.217	244.38
296.448	244.38
296.679	248.38
296.909	271.38
297.14	274.38
297.37	319.38
297.601	310.38
297.831	280.38
298.062	281.38
298.292	304.38
298.523	326.38
298.753	379.38
298.984	378.38
299.214	273.38
299.445	251.38
299.675	241.38
299.905	245.38
300.136	250.38
300.366	254.38
300.597	251.38
300.827	233.38
301.057	228.38
301.288	250.38
301.518	269.38
301.748	288.38
301.979	292.38
302.209	323.38
302.439	314.38
302.669	270.38
302.9	281.38
303.13	274.38
303.36	262.38
303.59	261.38
303.82	268.38
304.051	280.38
304.281	302.38
304.511	305.38
304.741	258.38
304.971	270.38
305.201	277.38
305.431	296.38
305.661	225.38
305.891	248.38
306.121	245.38
306.352	226.38
306.582	228.38
306.812	194.38
307.042	190.38
307.272	190.38
307.502	211.38
307.731	203.38
307.961	234.38
308.191	202.38
308.421	209.38
308.651	200.38
308.881	196.38
309.111	188.38
309.341	191.38
309.571	213.38
309.8	202.38
310.03	199.38
310.26	237.38
310.49	212.38
310.72	192.38
310.949	207.38
311.179	227.38
311.409	206.38
311.639	233.38
311.868	291.38
312.098	372.38
312.328	410.38
312.557	391.38
312.787	404.38
313.017	357.38
313.246	376.38
313.476	418.38
313.706	361.38
313.935	283.38
314.165	238.38
314.394	233.38
314.624	226.38
314.853	234.38
315.083	240.38
315.312	227.38
315.542	238.38
315.771	208.38
316.001	187.38
316.23	200.38
316.46	218.38
316.689	187.38
316.919	211.38
317.148	214.38
317.377	214.38
317.607	214.38
317.836	219.38
318.065	257.38
318.295	285.38
318.524	259.38
318.753	204.38
318.983	202.38
319.212	215.38
319.441	213.38
319.67	252.38
319.9	261.38
320.129	260.38
320.358	219.38
320.587	214.38
320.816	234.38
321.046	233.38
321.275	290.38
321.504	273.38
321.733	255.38
321.962	271.38
322.191	265.38
322.42	242.38
322.649	240.38
322.878	243.38
323.108	259.38
323.337	262.38
323.566	235.38
323.795	239.38
324.024	234.38
324.253	214.38
324.482	223.38
324.71	239.38
324.939	265.38
325.168	239.38
325.397	209.38
325.626	209.38
325.855	207.38
326.084	240.38
326.313	216.38
326.542	210.38
326.77	213.38
326.999	215.38
327.228	218.38
327.457	230.38
327.686	235.38
327.914	212.38
328.143	214.38
328.372	212.38
328.6	207.38
328.829	190.38
329.058	190.38
329.287	202.38
329.515	198.38
329.744	201.38
329.972	200.38
330.201	194.38
330.43	198.38
330.658	210.38
330.887	245.38
331.115	212.38
331.344	224.38
331.572	216.38
331.801	221.38
332.03	198.38
332.258	213.38
332.486	233.38
332.715	234.38
332.943	247.38
333.172	232.38
333.4	239.38
333.629	256.38
333.857	278.38
334.085	258.38
334.314	252.38
334.542	263.38
334.771	240.38
334.999	219.38
335.227	240.38
335.455	232.38
335.684	251.38
335.912	251.38
336.14	277.38
336.369	287.38
336.597	275.38
336.825	299.38
337.053	327.38
337.281	282.38
337.51	243.38
337.738	235.38
337.966	245.38
338.194	258.38
338.422	247.38
338.65	235.38
338.878	202.38
339.106	219.38
339.334	225.38
339.562	244.38
339.79	222.38
340.018	221.38
340.246	241.38
340.474	269.38
340.702	277.38
340.93	274.38
341.158	288.38
341.386	259.38
341.614	256.38
341.842	234.38
342.07	252.38
342.298	272.38
342.526	299.38
342.754	248.38
342.981	220.38
343.209	240.38
343.437	263.38
343.665	271.38
343.893	270.38
344.12	302.38
344.348	361.38
344.576	314.38
344.804	262.38
345.031	232.38
345.259	215.38
345.487	235.38
345.714	241.38
345.942	255.38
346.17	270.38
346.397	250.38
346.625	212.38
346.853	216.38
347.08	222.38
347.308	222.38
347.535	263.38
347.763	259.38
347.99	246.38
348.218	208.38
348.445	224.38
348.673	216.38
348.9	236.38
349.128	264.38
349.355	246.38
349.583	239.38
349.81	224.38
350.037	238.38
350.265	205.38
350.492	177.38
350.72	199.38
350.947	203.38
351.174	214.38
351.402	201.38
351.629	214.38
351.856	215.38
352.083	194.38
352.311	220.38
352.538	230.38
352.765	257.38
352.992	247.38
353.22	219.38
353.447	219.38
353.674	224.38
353.901	231.38
354.128	219.38
354.355	235.38
354.583	226.38
354.81	228.38
355.037	238.38
355.264	224.38
355.491	238.38
355.718	252.38
355.945	240.38
356.172	246.38
356.399	240.38
356.626	272.38
356.853	316.38
357.08	350.38
357.307	360.38
357.534	282.38
357.761	300.38
357.988	379.38
358.215	414.38
358.441	379.38
358.668	359.38
358.895	315.38
359.122	254.38
359.349	278.38
359.576	309.38
359.802	268.38
360.029	226.38
360.256	233.38
360.483	282.38
360.709	332.38
360.936	342.38
361.163	307.38
361.39	258.38
361.616	234.38
361.843	264.38
362.07	303.38
362.296	276.38
362.523	227.38
362.749	215.38
362.976	225.38
363.203	277.38
363.429	287.38
363.656	247.38
363.882	230.38
364.109	235.38
364.335	214.38
364.562	230.38
364.788	241.38
365.015	274.38
365.241	259.38
365.468	225.38
365.694	199.38
365.92	214.38
366.147	182.38
366.373	181.38
366.599	203.38
366.826	209.38
367.052	191.38
367.278	207.38
367.505	188.38
367.731	226.38
367.957	233.38
368.184	225.38
368.41	200.38
368.636	236.38
368.862	236.38
369.089	231.38
369.315	213.38
369.541	198.38
369.767	209.38
369.993	203.38
370.219	194.38
370.445	199.38
370.672	234.38
370.898	242.38
371.124	243.38
371.35	229.38
371.576	227.38
371.802	222.38
372.028	251.38
372.254	300.38
372.48	239.38
372.706	248.38
372.932	274.38
373.158	262.38
373.384	279.38
373.61	371.38
373.835	402.38
374.061	283.38
374.287	269.38
374.513	296.38
374.739	349.38
374.965	361.38
375.191	344.38
375.416	269.38
375.642	251.38
375.868	283.38
376.094	298.38
376.319	254.38
376.545	279.38
376.771	289.38
376.997	267.38
377.222	216.38
377.448	186.38
377.674	201.38
377.899	183.38
378.125	197.38
378.35	188.38
378.576	202.38
378.802	215.38
379.027	212.38
379.253	207.38
379.478	204.38
379.704	227.38
379.929	250.38
380.155	235.38
380.38	229.38
380.606	228.38
380.831	238.38
381.057	258.38
381.282	216.38
381.507	254.38
381.733	310.38
381.958	328.38
382.184	334.38
382.409	338.38
382.634	332.38
382.86	369.38
383.085	316.38
383.31	242.38
383.535	288.38
383.761	298.38
383.986	270.38
384.211	310.38
384.436	299.38
384.662	253.38
384.887	246.38
385.112	270.38
385.337	264.38
385.562	256.38
385.787	282.38
386.013	286.38
386.238	309.38
386.463	247.38
386.688	229.38
386.913	222.38
387.138	221.38
387.363	244.38
387.588	252.38
387.813	252.38
388.038	255.38
388.263	243.38
388.488	241.38
388.713	277.38
388.938	281.38
389.163	246.38
389.387	226.38
389.612	227.38
389.837	226.38
390.062	224.38
390.287	217.38
390.512	242.38
390.736	236.38
390.961	216.38
391.186	217.38
391.411	195.38
391.636	201.38
391.86	247.38
392.085	249.38
392.31	263.38
392.534	237.38
392.759	229.38
392.984	230.38
393.208	235.38
393.433	230.38
393.658	216.38
393.882	202.38
394.107	194.38
394.331	205.38
394.556	204.38
394.78	197.38
395.005	203.38
395.229	205.38
395.454	223.38
395.678	219.38
395.903	217.38
396.127	212.38
396.352	209.38
396.576	228.38
396.801	227.38
397.025	271.38
397.249	274.38
397.474	236.38
397.698	226.38
397.922	253.38
398.147	234.38
398.371	228.38
398.595	234.38
398.82	239.38
399.044	221.38
399.268	246.38
399.492	265.38
399.717	307.38
399.941	309.38
400.165	260.38
400.389	258.38
400.613	257.38
400.837	255.38
401.062	227.38
401.286	234.38
401.51	243.38
401.734	240.38
401.958	250.38
402.182	239.38
402.406	243.38
402.63	213.38
402.854	242.38
403.078	289.38
403.302	355.38
403.526	375.38
403.75	322.38
403.974	274.38
404.198	299.38
404.422	318.38
404.645	326.38
404.869	351.38
405.093	292.38
405.317	247.38
405.541	252.38
405.765	266.38
405.988	261.38
406.212	272.38
406.436	304.38
406.66	318.38
406.883	279.38
407.107	293.38
407.331	305.38
407.555	317.38
407.778	283.38
408.002	273.38
408.226	271.38
408.449	259.38
408.673	270.38
408.896	240.38
409.12	235.38
409.344	246.38
409.567	229.38
409.791	258.38
410.014	245.38
410.238	249.38
410.461	235.38
410.685	242.38
410.908	226.38
411.132	248.38
411.355	249.38
411.578	237.38
411.802	226.38
412.025	230.38
412.249	226.38
412.472	241.38
412.695	230.38
412.919	235.38
413.142	235.38
413.365	268.38
413.589	258.38
413.812	231.38
414.035	228.38
414.258	243.38
414.482	245.38
414.705	266.38
414.928	228.38
415.151	230.38
415.374	223.38
415.597	225.38
415.821	229.38
416.044	218.38
416.267	214.38
416.49	222.38
416.713	220.38
416.936	217.38
417.159	231.38
417.382	231.38
417.605	242.38
417.828	230.38
418.051	264.38
418.274	244.38
418.497	222.38
418.72	231.38
418.943	238.38
419.166	256.38
419.389	264.38
419.611	245.38
419.834	259.38
420.057	273.38
420.28	258.38
420.503	239.38
420.726	219.38
420.948	203.38
421.171	238.38
421.394	208.38
421.617	214.38
421.839	223.38
422.062	220.38
422.285	218.38
422.507	244.38
422.73	233.38
422.953	260.38
423.175	256.38
423.398	224.38
423.621	257.38
423.843	275.38
424.066	251.38
424.288	240.38
424.511	227.38
424.733	231.38
424.956	250.38
425.178	256.38
425.401	296.38
425.623	373.38
425.846	304.38
426.068	245.38
426.291	261.38
426.513	265.38
426.735	242.38
426.958	259.38
427.18	288.38
427.402	323.38
427.625	361.38
427.847	316.38
428.069	232.38
428.292	239.38
428.514	235.38
428.736	242.38
428.958	256.38
429.181	299.38
429.403	260.38
429.625	226.38
429.847	232.38
430.069	225.38
430.292	222.38
430.514	210.38
430.736	242.38
430.958	265.38
431.18	258.38
431.402	204.38
431.624	196.38
431.846	210.38
432.068	214.38
432.29	206.38
432.512	232.38
432.734	297.38
432.956	266.38
433.178	225.38
433.4	217.38
433.622	213.38
433.844	224.38
434.066	246.38
434.287	263.38
434.509	235.38
434.731	246.38
434.953	241.38
435.175	242.38
435.397	287.38
435.618	237.38
435.84	232.38
436.062	227.38
436.284	214.38
436.505	197.38
436.727	203.38
436.949	204.38
437.17	215.38
437.392	216.38
437.614	228.38
437.835	228.38
438.057	214.38
438.278	239.38
438.5	308.38
438.721	302.38
438.943	236.38
439.165	214.38
439.386	209.38
439.608	206.38
439.829	203.38
440.05	208.38
440.272	239.38
440.493	242.38
440.715	281.38
440.936	248.38
441.158	228.38
441.379	227.38
441.6	227.38
441.822	271.38
442.043	235.38
442.264	216.38
442.486	211.38
442.707	233.38
442.928	227.38
443.149	227.38
443.371	227.38
443.592	252.38
443.813	252.38
444.034	222.38
444.255	227.38
444.476	246.38
444.698	280.38
444.919	258.38
445.14	357.38
445.361	296.38
445.582	247.38
445.803	254.38
446.024	226.38
446.245	245.38
446.466	254.38
446.687	225.38
446.908	219.38
447.129	215.38
447.35	231.38
447.571	219.38
447.792	204.38
448.013	211.38
448.234	219.38
448.455	208.38
448.675	189.38
448.896	207.38
449.117	200.38
449.338	207.38
449.559	218.38
449.779	218.38
450	226.38
450.221	215.38
450.442	217.38
450.662	202.38
450.883	208.38
451.104	225.38
451.324	200.38
451.545	210.38
451.766	225.38
451.986	214.38
452.207	206.38
452.428	224.38
452.648	211.38
452.869	210.38
453.089	222.38
453.31	218.38
453.53	204.38
453.751	203.38
453.971	207.38
454.192	206.38
454.412	206.38
454.633	214.38
454.853	199.38
455.073	202.38
455.294	186.38
455.514	189.38
455.734	197.38
455.955	210.38
456.175	207.38
456.395	199.38
456.616	194.38
456.836	193.38
457.056	199.38
457.276	205.38
457.497	172.38
457.717	194.38
457.937	185.38
458.157	198.38
458.377	202.38
458.598	188.38
458.818	207.38
459.038	219.38
459.258	223.38
459.478	208.38
459.698	234.38
459.918	254.38
460.138	230.38
460.358	240.38
460.578	240.38
460.798	239.38
461.018	233.38
461.238	221.38
461.458	217.38
461.678	235.38
461.898	282.38
462.118	227.38
462.338	243.38
462.558	259.38
462.777	253.38
462.997	274.38
463.217	281.38
463.437	294.38
463.657	263.38
463.876	244.38
464.096	257.38
464.316	268.38
464.536	258.38
464.755	271.38
464.975	276.38
465.195	256.38
465.414	254.38
465.634	258.38
465.854	222.38
466.073	240.38
466.293	235.38
466.512	238.38
466.732	269.38
466.951	251.38
467.171	242.38
467.391	225.38
467.61	224.38
467.829	259.38
468.049	265.38
468.268	210.38
468.488	208.38
468.707	221.38
468.927	266.38
469.146	283.38
469.365	252.38
469.585	241.38
469.804	242.38
470.023	267.38
470.243	232.38
470.462	234.38
470.681	255.38
470.901	235.38
471.12	248.38
471.339	242.38
471.558	229.38
471.777	227.38
471.997	253.38
472.216	270.38
472.435	255.38
472.654	252.38
472.873	231.38
473.092	254.38
473.311	268.38
473.53	235.38
473.749	215.38
473.968	258.38
474.187	240.38
474.406	236.38
474.625	234.38
474.844	241.38
475.063	253.38
475.282	260.38
475.501	265.38
475.72	295.38
475.939	258.38
476.158	263.38
476.377	317.38
476.596	327.38
476.814	355.38
477.033	305.38
477.252	253.38
477.471	235.38
477.69	256.38
477.908	261.38
478.127	281.38
478.346	269.38
478.564	283.38
478.783	271.38
479.002	264.38
479.22	296.38
479.439	323.38
479.658	289.38
479.876	264.38
480.095	290.38
480.313	306.38
480.532	271.38
480.751	278.38
480.969	279.38
481.188	310.38
481.406	315.38
481.624	304.38
481.843	274.38
482.061	263.38
482.28	274.38
482.498	327.38
482.717	323.38
482.935	282.38
483.153	274.38
483.372	267.38
483.59	262.38
483.808	258.38
484.027	248.38
484.245	239.38
484.463	221.38
484.681	242.38
484.9	270.38
485.118	287.38
485.336	268.38
485.554	242.38
485.772	266.38
485.99	286.38
486.209	306.38
486.427	300.38
486.645	278.38
486.863	290.38
487.081	306.38
487.299	320.38
487.517	308.38
487.735	311.38
487.953	274.38
488.171	299.38
488.389	275.38
488.607	255.38
488.825	274.38
489.043	294.38
489.261	331.38
489.479	354.38
489.696	295.38
489.914	293.38
490.132	274.38
490.35	258.38
490.568	262.38
490.786	265.38
491.003	260.38
491.221	272.38
491.439	258.38
491.657	265.38
491.874	264.38
492.092	323.38
492.31	359.38
492.527	361.38
492.745	325.38
492.963	309.38
493.18	291.38
493.398	306.38
493.615	270.38
493.833	278.38
494.05	272.38
494.268	267.38
494.485	285.38
494.703	279.38
494.92	274.38
495.138	288.38
495.355	267.38
495.573	304.38
495.79	314.38
496.008	364.38
496.225	330.38
496.442	274.38
496.66	318.38
496.877	315.38
497.094	327.38
497.312	294.38
497.529	287.38
497.746	295.38
497.963	308.38
498.181	338.38
498.398	354.38
498.615	369.38
498.832	368.38
499.049	396.38
499.267	375.38
499.484	366.38
499.701	386.38
499.918	427.38
500.135	499.38
500.352	514.38
500.569	538.38
500.786	535.38
501.003	518.38
501.22	461.38
501.437	427.38
501.654	411.38
501.871	385.38
502.088	371.38
502.305	343.38
502.522	346.38
502.739	356.38
502.956	320.38
503.172	336.38
503.389	316.38
503.606	283.38
503.823	305.38
504.04	310.38
504.256	306.38
504.473	326.38
504.69	337.38
504.907	336.38
505.123	316.38
505.34	308.38
505.557	323.38
505.773	315.38
505.99	297.38
506.207	324.38
506.423	290.38
506.64	271.38
506.856	290.38
507.073	305.38
507.289	327.38
507.506	312.38
507.722	307.38
507.939	306.38
508.155	334.38
508.372	298.38
508.588	289.38
508.805	289.38
509.021	290.38
509.238	281.38
509.454	287.38
509.67	268.38
509.887	284.38
510.103	305.38
510.319	304.38
510.536	271.38
510.752	258.38
510.968	250.38
511.184	231.38
511.401	235.38
511.617	244.38
511.833	253.38
512.049	259.38
512.265	254.38
512.481	277.38
512.698	288.38
512.914	311.38
513.13	302.38
513.346	267.38
513.562	273.38
513.778	269.38
513.994	265.38
514.21	284.38
514.426	269.38
514.642	262.38
514.858	282.38
515.074	266.38
515.29	295.38
515.506	314.38
515.721	300.38
515.937	291.38
516.153	288.38
516.369	285.38
516.585	278.38
516.801	310.38
517.016	363.38
517.232	359.38
517.448	372.38
517.664	340.38
517.879	310.38
518.095	303.38
518.311	331.38
518.527	316.38
518.742	334.38
518.958	356.38
519.173	337.38
519.389	320.38
519.605	315.38
519.82	331.38
520.036	391.38
520.251	402.38
520.467	378.38
520.682	572.38
520.898	704.38
521.113	679.38
521.329	415.38
521.544	353.38
521.76	340.38
521.975	318.38
522.19	312.38
522.406	320.38
522.621	339.38
522.836	342.38
523.052	335.38
523.267	290.38
523.482	294.38
523.698	299.38
523.913	308.38
524.128	264.38
524.343	272.38
524.559	273.38
524.774	272.38
524.989	272.38
525.204	271.38
525.419	303.38
525.634	272.38
525.849	284.38
526.064	295.38
526.28	290.38
526.495	345.38
526.71	360.38
526.925	300.38
527.14	312.38
527.355	321.38
527.57	272.38
527.785	289.38
527.999	275.38
528.214	262.38
528.429	276.38
528.644	265.38
528.859	270.38
529.074	242.38
529.289	243.38
529.503	249.38
529.718	260.38
529.933	285.38
530.148	304.38
530.363	266.38
530.577	266.38
530.792	243.38
531.007	250.38
531.221	259.38
531.436	240.38
531.651	252.38
531.865	262.38
532.08	253.38
532.295	264.38
532.509	258.38
532.724	293.38
532.938	309.38
533.153	353.38
533.367	298.38
533.582	282.38
533.796	281.38
534.011	258.38
534.225	270.38
534.44	268.38
534.654	250.38
534.868	314.38
535.083	292.38
535.297	277.38
535.511	257.38
535.726	291.38
535.94	263.38
536.154	240.38
536.369	257.38
536.583	241.38
536.797	238.38
537.011	243.38
537.225	281.38
537.44	291.38
537.654	254.38
537.868	251.38
538.082	256.38
538.296	253.38
538.51	272.38
538.724	252.38
538.938	250.38
539.153	245.38
539.367	234.38
539.581	248.38
539.795	253.38
540.009	283.38
540.222	265.38
540.436	268.38
540.65	267.38
540.864	292.38
541.078	304.38
541.292	323.38
541.506	274.38
541.72	278.38
541.934	267.38
542.147	247.38
542.361	248.38
542.575	255.38
542.789	250.38
543.002	249.38
543.216	274.38
543.43	235.38
543.644	216.38
543.857	256.38
544.071	242.38
544.285	243.38
544.498	219.38
544.712	226.38
544.925	242.38
545.139	236.38
545.352	230.38
545.566	240.38
545.779	265.38
545.993	242.38
546.206	234.38
546.42	209.38
546.633	214.38
546.847	210.38
547.06	211.38
547.274	208.38
547.487	230.38
547.7	245.38
547.914	256.38
548.127	270.38
548.34	271.38
548.554	249.38
548.767	265.38
548.98	287.38
549.193	250.38
549.407	240.38
549.62	314.38
549.833	268.38
550.046	286.38
550.259	298.38
550.473	265.38
550.686	235.38
550.899	264.38
551.112	257.38
551.325	257.38
551.538	278.38
551.751	239.38
551.964	230.38
552.177	241.38
552.39	229.38
552.603	239.38
552.816	256.38
553.029	232.38
553.242	231.38
553.455	258.38
553.667	279.38
553.88	246.38
554.093	240.38
554.306	235.38
554.519	207.38
554.732	216.38
554.944	232.38
555.157	216.38
555.37	217.38
555.583	218.38
555.795	214.38
556.008	212.38
556.221	225.38
556.433	217.38
556.646	217.38
556.859	194.38
557.071	220.38
557.284	222.38
557.496	212.38
557.709	219.38
557.921	203.38
558.134	190.38
558.346	203.38
558.559	204.38
558.771	218.38
558.984	204.38
559.196	224.38
559.409	210.38
559.621	202.38
559.833	198.38
560.046	198.38
560.258	194.38
560.47	208.38
560.683	201.38
560.895	187.38
561.107	204.38
561.32	187.38
561.532	207.38
561.744	224.38
561.956	217.38
562.168	201.38
562.381	206.38
562.593	211.38
562.805	219.38
563.017	191.38
563.229	204.38
563.441	205.38
563.653	206.38
563.865	198.38
564.077	206.38
564.289	199.38
564.501	212.38
564.713	217.38
564.925	207.38
565.137	203.38
565.349	200.38
565.561	212.38
565.773	210.38
565.985	209.38
566.197	214.38
566.408	242.38
566.62	253.38
566.832	261.38
567.044	268.38
567.255	244.38
567.467	270.38
567.679	261.38
567.891	274.38
568.102	288.38
568.314	290.38
568.526	254.38
568.737	246.38
568.949	260.38
569.161	235.38
569.372	217.38
569.584	211.38
569.795	212.38
570.007	194.38
570.218	212.38
570.43	202.38
570.641	193.38
570.853	203.38
571.064	188.38
571.276	202.38
571.487	206.38
571.698	200.38
571.91	192.38
572.121	191.38
572.333	165.38
572.544	180.38
572.755	187.38
572.966	181.38
573.178	182.38
573.389	212.38
573.6	188.38
573.811	202.38
574.023	186.38
574.234	172.38
574.445	187.38
574.656	168.38
574.867	190.38
575.078	183.38
575.289	196.38
575.501	199.38
575.712	198.38
575.923	194.38
576.134	169.38
576.345	167.38
576.556	185.38
576.767	177.38
576.978	156.38
577.188	176.38
577.399	181.38
577.61	182.38
577.821	164.38
578.032	164.38
578.243	191.38
578.454	190.38
578.665	163.38
578.875	175.38
579.086	162.38
579.297	186.38
579.508	183.38
579.718	187.38
579.929	177.38
580.14	178.38
580.35	171.38
580.561	161.38
580.772	160.38
580.982	168.38
581.193	165.38
581.403	155.38
581.614	176.38
581.825	165.38
582.035	152.38
582.246	144.38
582.456	166.38
582.667	178.38
582.877	149.38
583.087	168.38
583.298	171.38
583.508	171.38
583.719	159.38
583.929	169.38
584.139	181.38
584.35	148.38
584.56	166.38
584.77	163.38
584.981	161.38
585.191	154.38
585.401	148.38
585.611	181.38
585.821	171.38
586.032	167.38
586.242	171.38
586.452	182.38
586.662	163.38
586.872	158.38
587.082	165.38
587.292	163.38
587.502	163.38
587.713	166.38
587.923	163.38
588.133	169.38
588.343	183.38
588.553	169.38
588.762	158.38
588.972	163.38
589.182	138.38
589.392	153.38
589.602	159.38
589.812	178.38
590.022	164.38
590.232	170.38
590.441	176.38
590.651	160.38
590.861	175.38
591.071	176.38
591.281	156.38
591.49	154.38
591.7	164.38
591.91	158.38
592.119	155.38
592.329	169.38
592.539	180.38
592.748	176.38
592.958	175.38
593.167	181.38
593.377	168.38
593.587	202.38
593.796	188.38
594.006	172.38
594.215	178.38
594.424	164.38
594.634	186.38
594.843	177.38
595.053	170.38
595.262	172.38
595.472	163.38
595.681	156.38
595.89	173.38
596.1	164.38
596.309	167.38
596.518	151.38
596.727	147.38
596.937	139.38
597.146	165.38
597.355	166.38
597.564	150.38
597.774	159.38
597.983	161.38
598.192	148.38
598.401	144.38
598.61	146.38
598.819	139.38
599.028	158.38
599.237	148.38
599.446	142.38
599.655	147.38
599.864	140.38
600.073	142.38
600.282	141.38
600.491	143.38
600.7	136.38
600.909	139.38
601.118	151.38
601.327	152.38
601.536	137.38
601.745	148.38
601.953	162.38
602.162	155.38
602.371	146.38
602.58	162.38
602.789	144.38
602.997	145.38
603.206	147.38
603.415	134.38
603.623	139.38
603.832	150.38
604.041	134.38
604.249	135.38
604.458	154.38
604.666	138.38
604.875	136.38
605.084	134.38
605.292	134.38
605.501	140.38
605.709	144.38
605.918	156.38
606.126	155.38
606.334	151.38
606.543	132.38
606.751	132.38
606.96	131.38
607.168	159.38
607.376	134.38
607.585	144.38
607.793	140.38
608.001	151.38
608.21	146.38
608.418	147.38
608.626	148.38
608.834	131.38
609.043	131.38
609.251	138.38
609.459	141.38
609.667	131.38
609.875	154.38
610.083	136.38
610.291	150.38
610.499	134.38
610.707	146.38
610.916	142.38
611.124	130.38
611.332	138.38
611.54	127.38
611.748	142.38
611.955	144.38
612.163	135.38
612.371	140.38
612.579	130.38
612.787	116.38
612.995	128.38
613.203	124.38
613.411	140.38
613.618	131.38
613.826	130.38
614.034	136.38
614.242	136.38
614.449	138.38
614.657	139.38
614.865	133.38
615.072	143.38
615.28	124.38
615.488	134.38
615.695	144.38
615.903	134.38
616.111	152.38
616.318	136.38
616.526	138.38
616.733	135.38
616.941	140.38
617.148	133.38
617.356	133.38
617.563	127.38
617.771	134.38
617.978	134.38
618.185	145.38
618.393	139.38
618.6	134.38
618.807	127.38
619.015	133.38
619.222	126.38
619.429	126.38
619.637	132.38
619.844	140.38
620.051	134.38
620.258	125.38
620.466	139.38
620.673	136.38
620.88	129.38
621.087	116.38
621.294	131.38
621.501	133.38
621.708	137.38
621.915	153.38
622.122	131.38
622.329	126.38
622.536	132.38
622.743	140.38
622.95	127.38
623.157	122.38
623.364	123.38
623.571	126.38
623.778	130.38
623.985	133.38
624.192	122.38
624.399	120.38
624.606	130.38
624.812	134.38
625.019	130.38
625.226	124.38
625.433	138.38
625.639	130.38
625.846	134.38
626.053	130.38
626.259	129.38
626.466	121.38
626.673	131.38
626.879	133.38
627.086	141.38
627.293	132.38
627.499	126.38
627.706	125.38
627.912	115.38
628.119	120.38
628.325	122.38
628.532	128.38
628.738	125.38
628.945	126.38
629.151	116.38
629.357	122.38
629.564	135.38
629.77	125.38
629.976	119.38
630.183	117.38
630.389	120.38
630.595	111.38
630.802	119.38
631.008	111.38
631.214	112.38
631.42	113.38
631.627	120.38
631.833	113.38
632.039	119.38
632.245	119.38
632.451	122.38
632.657	113.38
632.863	112.38
633.069	116.38
633.275	114.38
633.481	118.38
633.688	116.38
633.893	125.38
634.099	110.38
634.305	107.38
634.511	111.38
634.717	122.38
634.923	102.38
635.129	117.38
635.335	112.38
635.541	121.38
635.747	98.38
635.952	122.38
636.158	110.38
636.364	130.38
636.57	118.38
636.775	117.38
636.981	119.38
637.187	114.38
637.392	116.38
637.598	104.38
637.804	122.38
638.009	118.38
638.215	117.38
638.421	106.38
638.626	124.38
638.832	126.38
639.037	99.38
639.243	111.38
639.448	119.38
639.654	122.38
639.859	119.38
640.065	128.38
640.27	126.38
640.475	132.38
640.681	120.38
640.886	118.38
641.091	106.38
641.297	107.38
641.502	114.38
641.707	109.38
641.913	115.38
642.118	105.38
642.323	134.38
642.528	117.38
642.733	99.38
642.939	120.38
643.144	124.38
643.349	125.38
643.554	127.38
643.759	105.38
643.964	103.38
644.169	101.38
644.374	102.38
644.579	107.38
644.784	124.38
644.989	112.38
645.194	106.38
645.399	99.38
645.604	115.38
645.809	119.38
646.014	114.38
646.219	112.38
646.423	126.38
646.628	106.38
646.833	99.38
647.038	110.38
647.243	114.38
647.447	120.38
647.652	116.38
647.857	124.38
648.062	113.38
648.266	104.38
648.471	114.38
648.676	132.38
648.88	105.38
649.085	108.38
649.289	121.38
649.494	101.38
649.698	110.38
649.903	117.38
650.107	123.38
650.312	107.38
650.516	119.38
650.721	117.38
650.925	129.38
651.13	112.38
651.334	115.38
651.539	116.38
651.743	113.38
651.947	119.38
652.152	112.38
652.356	116.38
652.56	111.38
652.764	110.38
652.969	112.38
653.173	95.38
653.377	92.38
653.581	102.38
653.785	115.38
653.99	98.38
654.194	96.38
654.398	88.38
654.602	100.38
654.806	94.38
655.01	99.38
655.214	92.38
655.418	100.38
655.622	105.38
655.826	106.38
656.03	105.38
656.234	98.38
656.438	89.38
656.642	100.38
656.846	103.38
657.049	99.38
657.253	101.38
657.457	102.38
657.661	91.38
657.865	91.38
658.068	84.38
658.272	96.38
658.476	90.38
658.68	107.38
658.883	95.38
659.087	98.38
659.291	86.38
659.494	107.38
659.698	101.38
659.901	104.38
660.105	95.38
660.309	90.38
660.512	72.38
660.716	95.38
660.919	98.38
661.123	91.38
661.326	78.38
661.53	90.38
661.733	76.38
661.936	97.38
662.14	102.38
662.343	68.38
662.546	73.38
662.75	87.38
662.953	79.38
663.156	99.38
663.36	91.38
663.563	76.38
663.766	77.38
663.969	83.38
664.173	90.38
664.376	84.38
664.579	81.38
664.782	94.38
664.985	83.38
665.188	82.38
665.391	98.38
665.594	76.38
665.797	78.38
666	86.38
666.203	74.38
666.406	91.38
666.609	91.38
666.812	82.38
667.015	82.38
667.218	82.38
667.421	86.38
667.624	76.38
667.827	71.38
668.03	87.38
668.232	81.38
668.435	87.38
668.638	87.38
668.841	92.38
669.043	91.38
669.246	84.38
669.449	88.38
669.651	87.38
669.854	77.38
670.057	76.38
670.259	96.38
670.462	97.38
670.665	92.38
670.867	82.38
671.07	73.38
671.272	70.38
671.475	92.38
671.677	93.38
671.88	94.38
672.082	91.38
672.284	84.38
672.487	82.38
672.689	86.38
672.892	78.38
