Data from NickelSpatula.Lamp.E10.P2_HRD10591_11-59-00-526.txt Node
Date: Tue Jul 23 11:59:00 EDT 2019
User: cochatt
Spectrometer: HR+D1059
Trigger mode: 1
Integration Time (sec): 1.000000E-1
Scans to average: 1
Electric dark correction enabled: true
Nonlinearity correction enabled: false
Boxcar width: 0
XAxis mode: Wavelengths
Number of Pixels in Spectrum: 2048
>>>>>Begin Spectral Data<<<<<
223.165	-10.81
223.4	-10.81
223.635	-10.81
223.869	-19.81
224.104	-15.81
224.338	-29.81
224.573	-22.81
224.808	-3.81
225.042	-9.81
225.277	-14.81
225.511	5.19
225.746	12.19
225.98	27.19
226.215	14.19
226.449	10.19
226.683	16.19
226.918	26.19
227.152	16.19
227.387	40.19
227.621	48.19
227.856	54.19
228.09	39.19
228.324	54.19
228.559	51.19
228.793	81.19
229.027	134.19
229.262	153.19
229.496	144.19
229.73	172.19
229.964	189.19
230.199	218.19
230.433	214.19
230.667	205.19
230.901	216.19
231.136	195.19
231.37	216.19
231.604	220.19
231.838	233.19
232.072	252.19
232.306	236.19
232.541	254.19
232.775	266.19
233.009	272.19
233.243	304.19
233.477	305.19
233.711	345.19
233.945	332.19
234.179	324.19
234.413	345.19
234.647	388.19
234.881	454.19
235.115	408.19
235.349	414.19
235.583	352.19
235.817	353.19
236.051	385.19
236.285	414.19
236.519	460.19
236.753	436.19
236.987	441.19
237.221	407.19
237.455	410.19
237.689	436.19
237.922	480.19
238.156	481.19
238.39	535.19
238.624	651.19
238.858	592.19
239.091	497.19
239.325	531.19
239.559	500.19
239.793	538.19
240.027	650.19
240.26	595.19
240.494	573.19
240.728	568.19
240.961	677.19
241.195	657.19
241.429	663.19
241.662	612.19
241.896	555.19
242.13	486.19
242.363	470.19
242.597	466.19
242.83	538.19
243.064	525.19
243.298	605.19
243.531	626.19
243.765	626.19
243.998	625.19
244.232	611.19
244.465	588.19
244.699	588.19
244.932	648.19
245.166	618.19
245.399	549.19
245.633	547.19
245.866	571.19
246.099	619.19
246.333	717.19
246.566	766.19
246.8	793.19
247.033	742.19
247.266	674.19
247.5	690.19
247.733	680.19
247.966	668.19
248.2	701.19
248.433	764.19
248.666	861.19
248.899	858.19
249.133	875.19
249.366	996.19
249.599	1039.19
249.832	969.19
250.066	835.19
250.299	841.19
250.532	824.19
250.765	813.19
250.998	750.19
251.231	706.19
251.465	821.19
251.698	836.19
251.931	811.19
252.164	852.19
252.397	925.19
252.63	1049.19
252.863	1162.19
253.096	1198.19
253.329	1144.19
253.562	1103.19
253.795	1239.19
254.028	1338.19
254.261	1408.19
254.494	1268.19
254.727	1124.19
254.96	1126.19
255.193	1190.19
255.426	1152.19
255.659	889.19
255.892	782.19
256.124	843.19
256.357	1024.19
256.59	1196.19
256.823	1137.19
257.056	984.19
257.289	934.19
257.521	997.19
257.754	1122.19
257.987	1305.19
258.22	1120.19
258.452	1005.19
258.685	1146.19
258.918	1301.19
259.151	1246.19
259.383	1323.19
259.616	1519.19
259.849	1555.19
260.081	1746.19
260.314	1935.19
260.547	1468.19
260.779	1473.19
261.012	1693.19
261.244	1593.19
261.477	1640.19
261.71	1549.19
261.942	1326.19
262.175	1274.19
262.407	1210.19
262.64	1243.19
262.872	1491.19
263.105	1690.19
263.337	1735.19
263.57	1520.19
263.802	1040.19
264.035	872.19
264.267	859.19
264.499	772.19
264.732	715.19
264.964	709.19
265.197	704.19
265.429	788.19
265.661	808.19
265.894	844.19
266.126	893.19
266.358	1026.19
266.591	1244.19
266.823	1502.19
267.055	1398.19
267.287	1236.19
267.52	1217.19
267.752	1274.19
267.984	1445.19
268.216	1321.19
268.448	1108.19
268.681	1145.19
268.913	1208.19
269.145	1280.19
269.377	1302.19
269.609	1275.19
269.841	1175.19
270.073	1291.19
270.306	1381.19
270.538	1383.19
270.77	1394.19
271.002	1416.19
271.234	1462.19
271.466	1507.19
271.698	1448.19
271.93	1438.19
272.162	1442.19
272.394	1445.19
272.626	1385.19
272.858	1432.19
273.09	1468.19
273.322	1337.19
273.553	1264.19
273.785	1517.19
274.017	1965.19
274.249	2486.19
274.481	2490.19
274.713	2762.19
274.945	3190.19
275.176	3341.19
275.408	2921.19
275.64	2615.19
275.872	2624.19
276.104	2210.19
276.335	1931.19
276.567	1895.19
276.799	1995.19
277.031	2073.19
277.262	1575.19
277.494	1250.19
277.726	1202.19
277.957	1322.19
278.189	1464.19
278.421	1474.19
278.652	1427.19
278.884	1360.19
279.115	1248.19
279.347	1210.19
279.579	1192.19
279.81	1200.19
280.042	1206.19
280.273	1240.19
280.505	1142.19
280.736	1000.19
280.968	1027.19
281.199	1079.19
281.431	1200.19
281.662	1223.19
281.894	1169.19
282.125	1261.19
282.356	1357.19
282.588	1389.19
282.819	1255.19
283.051	1396.19
283.282	1662.19
283.513	1947.19
283.745	2209.19
283.976	2168.19
284.207	1962.19
284.439	2084.19
284.67	1992.19
284.901	1756.19
285.132	1938.19
285.364	2058.19
285.595	1884.19
285.826	1949.19
286.057	2020.19
286.288	1977.19
286.52	2004.19
286.751	2108.19
286.982	2058.19
287.213	1825.19
287.444	1755.19
287.675	1836.19
287.906	1836.19
288.138	1556.19
288.369	1381.19
288.6	1288.19
288.831	1347.19
289.062	1564.19
289.293	1700.19
289.524	1587.19
289.755	1592.19
289.986	1624.19
290.217	1437.19
290.448	1095.19
290.679	987.19
290.91	914.19
291.141	904.19
291.371	977.19
291.602	970.19
291.833	988.19
292.064	1069.19
292.295	1249.19
292.526	1365.19
292.757	1469.19
292.987	1512.19
293.218	1552.19
293.449	1576.19
293.68	1658.19
293.91	1541.19
294.141	1600.19
294.372	1527.19
294.603	1442.19
294.833	1581.19
295.064	1838.19
295.295	1775.19
295.525	1313.19
295.756	1149.19
295.987	960.19
296.217	1012.19
296.448	1046.19
296.679	1094.19
296.909	1217.19
297.14	1338.19
297.37	1445.19
297.601	1353.19
297.831	1166.19
298.062	1248.19
298.292	1415.19
298.523	1592.19
298.753	1751.19
298.984	1615.19
299.214	1256.19
299.445	1062.19
299.675	1013.19
299.905	1028.19
300.136	1059.19
300.366	1176.19
300.597	1166.19
300.827	1030.19
301.057	991.19
301.288	1039.19
301.518	1097.19
301.748	1216.19
301.979	1320.19
302.209	1430.19
302.439	1459.19
302.669	1254.19
302.9	1242.19
303.13	1130.19
303.36	1078.19
303.59	1057.19
303.82	1108.19
304.051	1235.19
304.281	1298.19
304.511	1302.19
304.741	1149.19
304.971	1144.19
305.201	1259.19
305.431	1183.19
305.661	1080.19
305.891	1068.19
306.121	1094.19
306.352	955.19
306.582	882.19
306.812	882.19
307.042	859.19
307.272	802.19
307.502	804.19
307.731	881.19
307.961	925.19
308.191	864.19
308.421	796.19
308.651	800.19
308.881	756.19
309.111	771.19
309.341	813.19
309.571	878.19
309.8	916.19
310.03	910.19
310.26	1012.19
310.49	958.19
310.72	860.19
310.949	854.19
311.179	878.19
311.409	932.19
311.639	1102.19
311.868	1397.19
312.098	1761.19
312.328	1939.19
312.557	1876.19
312.787	1852.19
313.017	1669.19
313.246	1800.19
313.476	1942.19
313.706	1638.19
313.935	1293.19
314.165	1015.19
314.394	938.19
314.624	966.19
314.853	1013.19
315.083	1013.19
315.312	1038.19
315.542	1016.19
315.771	958.19
316.001	843.19
316.23	839.19
316.46	864.19
316.689	862.19
316.919	848.19
317.148	877.19
317.377	887.19
317.607	880.19
317.836	974.19
318.065	1069.19
318.295	1261.19
318.524	1158.19
318.753	969.19
318.983	930.19
319.212	932.19
319.441	980.19
319.67	1130.19
319.9	1207.19
320.129	1122.19
320.358	966.19
320.587	946.19
320.816	1018.19
321.046	1158.19
321.275	1305.19
321.504	1355.19
321.733	1245.19
321.962	1240.19
322.191	1141.19
322.42	1096.19
322.649	1139.19
322.878	1198.19
323.108	1229.19
323.337	1112.19
323.566	1098.19
323.795	1050.19
324.024	993.19
324.253	956.19
324.482	975.19
324.71	1067.19
324.939	1207.19
325.168	1126.19
325.397	954.19
325.626	928.19
325.855	903.19
326.084	934.19
326.313	867.19
326.542	816.19
326.77	886.19
326.999	881.19
327.228	971.19
327.457	1025.19
327.686	1002.19
327.914	889.19
328.143	833.19
328.372	840.19
328.6	839.19
328.829	881.19
329.058	897.19
329.287	874.19
329.515	915.19
329.744	866.19
329.972	829.19
330.201	802.19
330.43	867.19
330.658	955.19
330.887	1103.19
331.115	1059.19
331.344	975.19
331.572	950.19
331.801	909.19
332.03	835.19
332.258	883.19
332.486	958.19
332.715	1001.19
332.943	893.19
333.172	900.19
333.4	907.19
333.629	1027.19
333.857	1086.19
334.085	1098.19
334.314	1104.19
334.542	1067.19
334.771	939.19
334.999	949.19
335.227	929.19
335.455	956.19
335.684	1030.19
335.912	1173.19
336.14	1315.19
336.369	1264.19
336.597	1201.19
336.825	1364.19
337.053	1517.19
337.281	1258.19
337.51	992.19
337.738	968.19
337.966	1043.19
338.194	1194.19
338.422	1108.19
338.65	952.19
338.878	882.19
339.106	909.19
339.334	1024.19
339.562	1090.19
339.79	1002.19
340.018	956.19
340.246	1021.19
340.474	1159.19
340.702	1267.19
340.93	1306.19
341.158	1261.19
341.386	1088.19
341.614	1104.19
341.842	1099.19
342.07	1183.19
342.298	1348.19
342.526	1381.19
342.754	1208.19
342.981	1101.19
343.209	1030.19
343.437	1122.19
343.665	1165.19
343.893	1198.19
344.12	1386.19
344.348	1579.19
344.576	1429.19
344.804	1167.19
345.031	1018.19
345.259	989.19
345.487	985.19
345.714	1041.19
345.942	1075.19
346.17	1200.19
346.397	1127.19
346.625	1008.19
346.853	974.19
347.08	922.19
347.308	992.19
347.535	1115.19
347.763	1149.19
347.99	1002.19
348.218	904.19
348.445	953.19
348.673	964.19
348.9	974.19
349.128	1039.19
349.355	1056.19
349.583	1060.19
349.81	1017.19
350.037	938.19
350.265	824.19
350.492	781.19
350.72	811.19
350.947	817.19
351.174	894.19
351.402	940.19
351.629	972.19
351.856	936.19
352.083	911.19
352.311	988.19
352.538	1083.19
352.765	1129.19
352.992	1033.19
353.22	980.19
353.447	990.19
353.674	938.19
353.901	946.19
354.128	971.19
354.355	996.19
354.583	988.19
354.81	989.19
355.037	998.19
355.264	990.19
355.491	1079.19
355.718	1185.19
355.945	1118.19
356.172	1096.19
356.399	1086.19
356.626	1325.19
356.853	1588.19
357.08	1696.19
357.307	1741.19
357.534	1363.19
357.761	1421.19
357.988	1741.19
358.215	2089.19
358.441	1944.19
358.668	1660.19
358.895	1470.19
359.122	1213.19
359.349	1245.19
359.576	1303.19
359.802	1106.19
360.029	936.19
360.256	1008.19
360.483	1253.19
360.709	1608.19
360.936	1629.19
361.163	1448.19
361.39	1149.19
361.616	1056.19
361.843	1234.19
362.07	1531.19
362.296	1369.19
362.523	1067.19
362.749	978.19
362.976	995.19
363.203	1209.19
363.429	1327.19
363.656	1057.19
363.882	993.19
364.109	1012.19
364.335	992.19
364.562	967.19
364.788	1118.19
365.015	1314.19
365.241	1164.19
365.468	954.19
365.694	835.19
365.92	782.19
366.147	807.19
366.373	786.19
366.599	799.19
366.826	814.19
367.052	832.19
367.278	819.19
367.505	816.19
367.731	916.19
367.957	1003.19
368.184	1036.19
368.41	1004.19
368.636	1015.19
368.862	1064.19
369.089	1042.19
369.315	903.19
369.541	894.19
369.767	893.19
369.993	850.19
370.219	860.19
370.445	912.19
370.672	1015.19
370.898	1109.19
371.124	1096.19
371.35	943.19
371.576	918.19
371.802	1008.19
372.028	1154.19
372.254	1350.19
372.48	1142.19
372.706	1038.19
372.932	1094.19
373.158	1146.19
373.384	1349.19
373.61	1857.19
373.835	1892.19
374.061	1370.19
374.287	1152.19
374.513	1376.19
374.739	1664.19
374.965	1738.19
375.191	1673.19
375.416	1145.19
375.642	995.19
375.868	1192.19
376.094	1345.19
376.319	1161.19
376.545	1295.19
376.771	1352.19
376.997	1148.19
377.222	851.19
377.448	734.19
377.674	740.19
377.899	737.19
378.125	747.19
378.35	736.19
378.576	781.19
378.802	837.19
379.027	911.19
379.253	896.19
379.478	903.19
379.704	1068.19
379.929	1084.19
380.155	1076.19
380.38	923.19
380.606	965.19
380.831	1138.19
381.057	1020.19
381.282	980.19
381.507	1178.19
381.733	1467.19
381.958	1560.19
382.184	1651.19
382.409	1738.19
382.634	1674.19
382.86	1752.19
383.085	1437.19
383.31	1149.19
383.535	1236.19
383.761	1213.19
383.986	1175.19
384.211	1458.19
384.436	1352.19
384.662	1064.19
384.887	1024.19
385.112	1055.19
385.337	1046.19
385.562	1008.19
385.787	1115.19
386.013	1245.19
386.238	1249.19
386.463	1032.19
386.688	992.19
386.913	934.19
387.138	907.19
387.363	930.19
387.588	989.19
387.813	1003.19
388.038	1126.19
388.263	1004.19
388.488	970.19
388.713	1138.19
388.938	1220.19
389.163	1029.19
389.387	898.19
389.612	910.19
389.837	980.19
390.062	946.19
390.287	998.19
390.512	1021.19
390.736	941.19
390.961	881.19
391.186	842.19
391.411	834.19
391.636	855.19
391.86	914.19
392.085	1014.19
392.31	1003.19
392.534	968.19
392.759	944.19
392.984	983.19
393.208	980.19
393.433	883.19
393.658	781.19
393.882	781.19
394.107	794.19
394.331	806.19
394.556	808.19
394.78	813.19
395.005	833.19
395.229	848.19
395.454	887.19
395.678	900.19
395.903	911.19
396.127	861.19
396.352	872.19
396.576	961.19
396.801	1018.19
397.025	1128.19
397.249	1149.19
397.474	940.19
397.698	923.19
397.922	982.19
398.147	907.19
398.371	911.19
398.595	1001.19
398.82	949.19
399.044	956.19
399.268	1006.19
399.492	1020.19
399.717	1037.19
399.941	1066.19
400.165	1058.19
400.389	1031.19
400.613	1055.19
400.837	1038.19
401.062	933.19
401.286	916.19
401.51	889.19
401.734	885.19
401.958	913.19
402.182	886.19
402.406	936.19
402.63	902.19
402.854	956.19
403.078	1085.19
403.302	1298.19
403.526	1339.19
403.75	1189.19
403.974	1024.19
404.198	1120.19
404.422	1226.19
404.645	1413.19
404.869	1605.19
405.093	1176.19
405.317	978.19
405.541	974.19
405.765	1002.19
405.988	1028.19
406.212	1097.19
406.436	1277.19
406.66	1413.19
406.883	1129.19
407.107	1207.19
407.331	1362.19
407.555	1298.19
407.778	1076.19
408.002	1004.19
408.226	1056.19
408.449	1031.19
408.673	1013.19
408.896	941.19
409.12	932.19
409.344	935.19
409.567	889.19
409.791	915.19
410.014	896.19
410.238	874.19
410.461	906.19
410.685	901.19
410.908	917.19
411.132	962.19
411.355	954.19
411.578	947.19
411.802	919.19
412.025	968.19
412.249	992.19
412.472	937.19
412.695	947.19
412.919	980.19
413.142	948.19
413.365	1045.19
413.589	1058.19
413.812	965.19
414.035	909.19
414.258	937.19
414.482	1048.19
414.705	1056.19
414.928	911.19
415.151	899.19
415.374	877.19
415.597	922.19
415.821	916.19
416.044	892.19
416.267	888.19
416.49	877.19
416.713	848.19
416.936	837.19
417.159	870.19
417.382	862.19
417.605	923.19
417.828	930.19
418.051	930.19
418.274	930.19
418.497	930.19
418.72	949.19
418.943	942.19
419.166	998.19
419.389	1039.19
419.611	1010.19
419.834	1024.19
420.057	1144.19
420.28	1125.19
420.503	1028.19
420.726	884.19
420.948	894.19
421.171	876.19
421.394	889.19
421.617	880.19
421.839	901.19
422.062	944.19
422.285	932.19
422.507	934.19
422.73	950.19
422.953	984.19
423.175	933.19
423.398	955.19
423.621	991.19
423.843	1083.19
424.066	993.19
424.288	930.19
424.511	900.19
424.733	918.19
424.956	987.19
425.178	1093.19
425.401	1233.19
425.623	1404.19
425.846	1157.19
426.068	1002.19
426.291	1115.19
426.513	1034.19
426.735	962.19
426.958	987.19
427.18	1152.19
427.402	1510.19
427.625	1473.19
427.847	1216.19
428.069	904.19
428.292	906.19
428.514	911.19
428.736	861.19
428.958	946.19
429.181	1129.19
429.403	969.19
429.625	896.19
429.847	868.19
430.069	888.19
430.292	892.19
430.514	878.19
430.736	952.19
430.958	1184.19
431.18	1092.19
431.402	843.19
431.624	804.19
431.846	816.19
432.068	786.19
432.29	826.19
432.512	940.19
432.734	1200.19
432.956	1121.19
433.178	847.19
433.4	856.19
433.622	847.19
433.844	886.19
434.066	956.19
434.287	919.19
434.509	885.19
434.731	930.19
434.953	875.19
435.175	910.19
435.397	1048.19
435.618	914.19
435.84	817.19
436.062	832.19
436.284	814.19
436.505	794.19
436.727	801.19
436.949	811.19
437.17	850.19
437.392	875.19
437.614	850.19
437.835	832.19
438.057	851.19
438.278	972.19
438.5	1388.19
438.721	1361.19
438.943	944.19
439.165	805.19
439.386	788.19
439.608	797.19
439.829	755.19
440.05	768.19
440.272	858.19
440.493	992.19
440.715	1230.19
440.936	1010.19
441.158	866.19
441.379	863.19
441.6	979.19
441.822	1026.19
442.043	884.19
442.264	859.19
442.486	856.19
442.707	859.19
442.928	889.19
443.149	884.19
443.371	873.19
443.592	922.19
443.813	916.19
444.034	893.19
444.255	900.19
444.476	966.19
444.698	941.19
444.919	946.19
445.14	1074.19
445.361	1054.19
445.582	959.19
445.803	928.19
446.024	927.19
446.245	919.19
446.466	906.19
446.687	877.19
446.908	909.19
447.129	852.19
447.35	826.19
447.571	806.19
447.792	802.19
448.013	747.19
448.234	786.19
448.455	776.19
448.675	784.19
448.896	795.19
449.117	809.19
449.338	808.19
449.559	823.19
449.779	862.19
450	879.19
450.221	814.19
450.442	835.19
450.662	806.19
450.883	798.19
451.104	793.19
451.324	766.19
451.545	786.19
451.766	805.19
451.986	765.19
452.207	763.19
452.428	792.19
452.648	756.19
452.869	839.19
453.089	834.19
453.31	846.19
453.53	747.19
453.751	742.19
453.971	770.19
454.192	757.19
454.412	779.19
454.633	760.19
454.853	760.19
455.073	747.19
455.294	736.19
455.514	740.19
455.734	774.19
455.955	817.19
456.175	798.19
456.395	758.19
456.616	698.19
456.836	708.19
457.056	694.19
457.276	686.19
457.497	711.19
457.717	728.19
457.937	738.19
458.157	725.19
458.377	732.19
458.598	737.19
458.818	757.19
459.038	810.19
459.258	802.19
459.478	861.19
459.698	905.19
459.918	910.19
460.138	868.19
460.358	898.19
460.578	870.19
460.798	904.19
461.018	891.19
461.238	832.19
461.458	853.19
461.678	922.19
461.898	926.19
462.118	882.19
462.338	924.19
462.558	950.19
462.777	998.19
462.997	1017.19
463.217	994.19
463.437	1038.19
463.657	1024.19
463.876	956.19
464.096	945.19
464.316	969.19
464.536	984.19
464.755	1015.19
464.975	989.19
465.195	968.19
465.414	1011.19
465.634	963.19
465.854	960.19
466.073	860.19
466.293	860.19
466.512	895.19
466.732	1032.19
466.951	1028.19
467.171	954.19
467.391	904.19
467.61	873.19
467.829	935.19
468.049	957.19
468.268	864.19
468.488	881.19
468.707	915.19
468.927	1062.19
469.146	1144.19
469.365	1054.19
469.585	950.19
469.804	1018.19
470.023	1083.19
470.243	965.19
470.462	921.19
470.681	902.19
470.901	914.19
471.12	996.19
471.339	984.19
471.558	902.19
471.777	953.19
471.997	1024.19
472.216	1133.19
472.435	1088.19
472.654	971.19
472.873	948.19
473.092	976.19
473.311	1047.19
473.53	958.19
473.749	922.19
473.968	998.19
474.187	973.19
474.406	932.19
474.625	942.19
474.844	961.19
475.063	1013.19
475.282	1004.19
475.501	1085.19
475.72	1125.19
475.939	1111.19
476.158	1112.19
476.377	1269.19
476.596	1453.19
476.814	1524.19
477.033	1247.19
477.252	1032.19
477.471	982.19
477.69	977.19
477.908	1120.19
478.127	1123.19
478.346	1069.19
478.564	1174.19
478.783	1096.19
479.002	1090.19
479.22	1299.19
479.439	1430.19
479.658	1228.19
479.876	1120.19
480.095	1215.19
480.313	1206.19
480.532	1100.19
480.751	1083.19
480.969	1116.19
481.188	1288.19
481.406	1322.19
481.624	1230.19
481.843	1123.19
482.061	1051.19
482.28	1198.19
482.498	1508.19
482.717	1417.19
482.935	1240.19
483.153	1138.19
483.372	1050.19
483.59	1030.19
483.808	1046.19
484.027	1027.19
484.245	966.19
484.463	993.19
484.681	1023.19
484.9	1093.19
485.118	1201.19
485.336	1110.19
485.554	1064.19
485.772	1083.19
485.99	1162.19
486.209	1230.19
486.427	1224.19
486.645	1205.19
486.863	1230.19
487.081	1224.19
487.299	1414.19
487.517	1360.19
487.735	1215.19
487.953	1227.19
488.171	1268.19
488.389	1196.19
488.607	1117.19
488.825	1160.19
489.043	1291.19
489.261	1482.19
489.479	1536.19
489.696	1277.19
489.914	1187.19
490.132	1121.19
490.35	1165.19
490.568	1145.19
490.786	1133.19
491.003	1149.19
491.221	1147.19
491.439	1145.19
491.657	1114.19
491.874	1219.19
492.092	1559.19
492.31	1855.19
492.527	1768.19
492.745	1542.19
492.963	1334.19
493.18	1289.19
493.398	1295.19
493.615	1280.19
493.833	1243.19
494.05	1242.19
494.268	1240.19
494.485	1260.19
494.703	1202.19
494.92	1242.19
495.138	1239.19
495.355	1218.19
495.573	1248.19
495.79	1384.19
496.008	1866.19
496.225	1586.19
496.442	1365.19
496.66	1353.19
496.877	1419.19
497.094	1408.19
497.312	1307.19
497.529	1319.19
497.746	1333.19
497.963	1363.19
498.181	1439.19
498.398	1598.19
498.615	1648.19
498.832	1679.19
499.049	1733.19
499.267	1542.19
499.484	1542.19
499.701	1617.19
499.918	1765.19
500.135	1890.19
500.352	1912.19
500.569	1992.19
500.786	2006.19
501.003	1997.19
501.22	1827.19
501.437	1712.19
501.654	1673.19
501.871	1598.19
502.088	1677.19
502.305	1504.19
502.522	1526.19
502.739	1452.19
502.956	1355.19
503.172	1350.19
503.389	1313.19
503.606	1275.19
503.823	1291.19
504.04	1343.19
504.256	1321.19
504.473	1335.19
504.69	1364.19
504.907	1394.19
505.123	1350.19
505.34	1429.19
505.557	1427.19
505.773	1367.19
505.99	1295.19
506.207	1338.19
506.423	1268.19
506.64	1215.19
506.856	1249.19
507.073	1398.19
507.289	1364.19
507.506	1342.19
507.722	1397.19
507.939	1440.19
508.155	1438.19
508.372	1292.19
508.588	1294.19
508.805	1232.19
509.021	1188.19
509.238	1168.19
509.454	1147.19
509.67	1147.19
509.887	1218.19
510.103	1324.19
510.319	1349.19
510.536	1178.19
510.752	1092.19
510.968	1058.19
511.184	1052.19
511.401	1038.19
511.617	1050.19
511.833	1057.19
512.049	1046.19
512.265	1095.19
512.481	1112.19
512.698	1226.19
512.914	1367.19
513.13	1223.19
513.346	1139.19
513.562	1222.19
513.778	1194.19
513.994	1138.19
514.21	1245.19
514.426	1189.19
514.642	1173.19
514.858	1123.19
515.074	1200.19
515.29	1246.19
515.506	1428.19
515.721	1340.19
515.937	1253.19
516.153	1150.19
516.369	1157.19
516.585	1204.19
516.801	1373.19
517.016	1602.19
517.232	1545.19
517.448	1557.19
517.664	1360.19
517.879	1313.19
518.095	1274.19
518.311	1273.19
518.527	1308.19
518.742	1393.19
518.958	1442.19
519.173	1405.19
519.389	1379.19
519.605	1379.19
519.82	1490.19
520.036	1763.19
520.251	1721.19
520.467	1594.19
520.682	2394.19
520.898	2978.19
521.113	2777.19
521.329	1726.19
521.544	1561.19
521.76	1509.19
521.975	1369.19
522.19	1285.19
522.406	1290.19
522.621	1480.19
522.836	1560.19
523.052	1554.19
523.267	1301.19
523.482	1309.19
523.698	1392.19
523.913	1336.19
524.128	1210.19
524.343	1172.19
524.559	1192.19
524.774	1143.19
524.989	1196.19
525.204	1191.19
525.419	1300.19
525.634	1234.19
525.849	1248.19
526.064	1278.19
526.28	1288.19
526.495	1509.19
526.71	1538.19
526.925	1351.19
527.14	1416.19
527.355	1356.19
527.57	1157.19
527.785	1202.19
527.999	1123.19
528.214	1089.19
528.429	1076.19
528.644	1066.19
528.859	999.19
529.074	996.19
529.289	992.19
529.503	987.19
529.718	1018.19
529.933	1167.19
530.148	1230.19
530.363	1053.19
530.577	1021.19
530.792	1001.19
531.007	1003.19
531.221	961.19
531.436	955.19
531.651	1001.19
531.865	1025.19
532.08	1026.19
532.295	999.19
532.509	1049.19
532.724	1185.19
532.938	1300.19
533.153	1529.19
533.367	1253.19
533.582	1165.19
533.796	1100.19
534.011	1043.19
534.225	1048.19
534.44	1068.19
534.654	1084.19
534.868	1244.19
535.083	1109.19
535.297	998.19
535.511	1006.19
535.726	1159.19
535.94	1088.19
536.154	1033.19
536.369	1004.19
536.583	1012.19
536.797	1038.19
537.011	1043.19
537.225	1096.19
537.44	1184.19
537.654	1026.19
537.868	1010.19
538.082	999.19
538.296	993.19
538.51	1080.19
538.724	1087.19
538.938	1065.19
539.153	983.19
539.367	958.19
539.581	1019.19
539.795	1028.19
540.009	1159.19
540.222	1062.19
540.436	1061.19
540.65	1151.19
540.864	1160.19
541.078	1197.19
541.292	1372.19
541.506	1116.19
541.72	1059.19
541.934	1029.19
542.147	1031.19
542.361	1041.19
542.575	1067.19
542.789	1043.19
543.002	971.19
543.216	1049.19
543.43	961.19
543.644	939.19
543.857	947.19
544.071	916.19
544.285	936.19
544.498	914.19
544.712	933.19
544.925	1005.19
545.139	958.19
545.352	896.19
545.566	909.19
545.779	1049.19
545.993	975.19
546.206	882.19
546.42	899.19
546.633	856.19
546.847	877.19
547.06	862.19
547.274	873.19
547.487	886.19
547.7	956.19
547.914	1015.19
548.127	1133.19
548.34	1068.19
548.554	948.19
548.767	1019.19
548.98	1060.19
549.193	979.19
549.407	1019.19
549.62	1196.19
549.833	1106.19
550.046	1115.19
550.259	1144.19
550.473	1024.19
550.686	964.19
550.899	1028.19
551.112	993.19
551.325	1037.19
551.538	1088.19
551.751	932.19
551.964	896.19
552.177	888.19
552.39	875.19
552.603	892.19
552.816	942.19
553.029	893.19
553.242	860.19
553.455	944.19
553.667	1032.19
553.88	989.19
554.093	874.19
554.306	839.19
554.519	821.19
554.732	775.19
554.944	800.19
555.157	774.19
555.37	780.19
555.583	777.19
555.795	787.19
556.008	820.19
556.221	803.19
556.433	797.19
556.646	764.19
556.859	791.19
557.071	804.19
557.284	812.19
557.496	844.19
557.709	818.19
557.921	788.19
558.134	721.19
558.346	704.19
558.559	732.19
558.771	789.19
558.984	843.19
559.196	768.19
559.409	738.19
559.621	748.19
559.833	719.19
560.046	748.19
560.258	721.19
560.47	754.19
560.683	721.19
560.895	691.19
561.107	679.19
561.32	676.19
561.532	708.19
561.744	760.19
561.956	788.19
562.168	705.19
562.381	696.19
562.593	718.19
562.805	727.19
563.017	696.19
563.229	670.19
563.441	666.19
563.653	689.19
563.865	676.19
564.077	691.19
564.289	647.19
564.501	688.19
564.713	728.19
564.925	721.19
565.137	708.19
565.349	678.19
565.561	728.19
565.773	718.19
565.985	740.19
566.197	765.19
566.408	847.19
566.62	860.19
566.832	832.19
567.044	848.19
567.255	896.19
567.467	980.19
567.679	868.19
567.891	845.19
568.102	898.19
568.314	896.19
568.526	845.19
568.737	826.19
568.949	866.19
569.161	758.19
569.372	692.19
569.584	677.19
569.795	691.19
570.007	712.19
570.218	776.19
570.43	704.19
570.641	685.19
570.853	697.19
571.064	658.19
571.276	662.19
571.487	693.19
571.698	692.19
571.91	673.19
572.121	657.19
572.333	635.19
572.544	622.19
572.755	633.19
572.966	602.19
573.178	618.19
573.389	633.19
573.6	640.19
573.811	628.19
574.023	595.19
574.234	584.19
574.445	603.19
574.656	553.19
574.867	570.19
575.078	593.19
575.289	580.19
575.501	623.19
575.712	601.19
575.923	552.19
576.134	532.19
576.345	551.19
576.556	562.19
576.767	516.19
576.978	532.19
577.188	494.19
577.399	524.19
577.61	538.19
577.821	523.19
578.032	530.19
578.243	567.19
578.454	596.19
578.665	566.19
578.875	556.19
579.086	571.19
579.297	566.19
579.508	573.19
579.718	565.19
579.929	567.19
580.14	544.19
580.35	513.19
580.561	487.19
580.772	481.19
580.982	458.19
581.193	471.19
581.403	479.19
581.614	471.19
581.825	468.19
582.035	485.19
582.246	465.19
582.456	470.19
582.667	468.19
582.877	453.19
583.087	460.19
583.298	485.19
583.508	452.19
583.719	467.19
583.929	458.19
584.139	446.19
584.35	462.19
584.56	475.19
584.77	469.19
584.981	468.19
585.191	468.19
585.401	468.19
585.611	497.19
585.821	474.19
586.032	478.19
586.242	466.19
586.452	478.19
586.662	452.19
586.872	496.19
587.082	496.19
587.292	485.19
587.502	430.19
587.713	442.19
587.923	466.19
588.133	523.19
588.343	477.19
588.553	460.19
588.762	473.19
588.972	442.19
589.182	457.19
589.392	472.19
589.602	457.19
589.812	470.19
590.022	526.19
590.232	504.19
590.441	462.19
590.651	467.19
590.861	464.19
591.071	450.19
591.281	454.19
591.49	458.19
591.7	460.19
591.91	443.19
592.119	450.19
592.329	464.19
592.539	454.19
592.748	458.19
592.958	470.19
593.167	474.19
593.377	483.19
593.587	499.19
593.796	490.19
594.006	477.19
594.215	509.19
594.424	501.19
594.634	496.19
594.843	481.19
595.053	466.19
595.262	446.19
595.472	430.19
595.681	444.19
595.89	443.19
596.1	432.19
596.309	453.19
596.518	432.19
596.727	419.19
596.937	424.19
597.146	438.19
597.355	484.19
597.564	436.19
597.774	404.19
597.983	419.19
598.192	404.19
598.401	392.19
598.61	387.19
598.819	395.19
599.028	397.19
599.237	405.19
599.446	391.19
599.655	378.19
599.864	375.19
600.073	358.19
600.282	379.19
600.491	383.19
600.7	390.19
600.909	392.19
601.118	377.19
601.327	381.19
601.536	380.19
601.745	393.19
601.953	412.19
602.162	394.19
602.371	403.19
602.58	413.19
602.789	396.19
602.997	382.19
603.206	387.19
603.415	376.19
603.623	364.19
603.832	380.19
604.041	370.19
604.249	377.19
604.458	392.19
604.666	369.19
604.875	352.19
605.084	361.19
605.292	358.19
605.501	361.19
605.709	376.19
605.918	355.19
606.126	354.19
606.334	349.19
606.543	358.19
606.751	350.19
606.96	358.19
607.168	354.19
607.376	339.19
607.585	344.19
607.793	380.19
608.001	354.19
608.21	348.19
608.418	371.19
608.626	353.19
608.834	358.19
609.043	339.19
609.251	342.19
609.459	342.19
609.667	335.19
609.875	350.19
610.083	335.19
610.291	369.19
610.499	352.19
610.707	341.19
610.916	341.19
611.124	337.19
611.332	333.19
611.54	318.19
611.748	349.19
611.955	349.19
612.163	329.19
612.371	328.19
612.579	334.19
612.787	338.19
612.995	339.19
613.203	340.19
613.411	321.19
613.618	320.19
613.826	331.19
614.034	363.19
614.242	336.19
614.449	330.19
614.657	347.19
614.865	312.19
615.072	309.19
615.28	320.19
615.488	346.19
615.695	346.19
615.903	339.19
616.111	328.19
616.318	346.19
616.526	336.19
616.733	334.19
616.941	320.19
617.148	324.19
617.356	323.19
617.563	325.19
617.771	323.19
617.978	306.19
618.185	324.19
618.393	310.19
618.6	298.19
618.807	321.19
619.015	329.19
619.222	333.19
619.429	311.19
619.637	331.19
619.844	319.19
620.051	311.19
620.258	301.19
620.466	300.19
620.673	282.19
620.88	288.19
621.087	294.19
621.294	291.19
621.501	288.19
621.708	284.19
621.915	272.19
622.122	307.19
622.329	284.19
622.536	301.19
622.743	277.19
622.95	292.19
623.157	301.19
623.364	319.19
623.571	312.19
623.778	304.19
623.985	309.19
624.192	314.19
624.399	301.19
624.606	312.19
624.812	285.19
625.019	292.19
625.226	306.19
625.433	314.19
625.639	291.19
625.846	291.19
626.053	265.19
626.259	274.19
626.466	293.19
626.673	288.19
626.879	285.19
627.086	279.19
627.293	286.19
627.499	288.19
627.706	280.19
627.912	274.19
628.119	280.19
628.325	283.19
628.532	258.19
628.738	264.19
628.945	263.19
629.151	270.19
629.357	285.19
629.564	259.19
629.77	267.19
629.976	277.19
630.183	262.19
630.389	278.19
630.595	263.19
630.802	260.19
631.008	270.19
631.214	256.19
631.42	245.19
631.627	252.19
631.833	273.19
632.039	256.19
632.245	245.19
632.451	241.19
632.657	244.19
632.863	240.19
633.069	247.19
633.275	261.19
633.481	254.19
633.688	232.19
633.893	243.19
634.099	243.19
634.305	244.19
634.511	234.19
634.717	221.19
634.923	244.19
635.129	223.19
635.335	237.19
635.541	245.19
635.747	231.19
635.952	227.19
636.158	221.19
636.364	252.19
636.57	237.19
636.775	222.19
636.981	232.19
637.187	225.19
637.392	227.19
637.598	224.19
637.804	226.19
638.009	226.19
638.215	218.19
638.421	238.19
638.626	222.19
638.832	238.19
639.037	225.19
639.243	224.19
639.448	223.19
639.654	248.19
639.859	230.19
640.065	220.19
640.27	228.19
640.475	212.19
640.681	221.19
640.886	225.19
641.091	237.19
641.297	235.19
641.502	224.19
641.707	210.19
641.913	220.19
642.118	225.19
642.323	229.19
642.528	222.19
642.733	228.19
642.939	220.19
643.144	223.19
643.349	224.19
643.554	217.19
643.759	216.19
643.964	208.19
644.169	223.19
644.374	226.19
644.579	195.19
644.784	216.19
644.989	209.19
645.194	198.19
645.399	216.19
645.604	217.19
645.809	231.19
646.014	211.19
646.219	194.19
646.423	213.19
646.628	221.19
646.833	214.19
647.038	213.19
647.243	222.19
647.447	219.19
647.652	212.19
647.857	215.19
648.062	209.19
648.266	227.19
648.471	218.19
648.676	220.19
648.88	223.19
649.085	214.19
649.289	209.19
649.494	213.19
649.698	230.19
649.903	221.19
650.107	199.19
650.312	217.19
650.516	198.19
650.721	174.19
650.925	186.19
651.13	187.19
651.334	194.19
651.539	196.19
651.743	167.19
651.947	194.19
652.152	187.19
652.356	186.19
652.56	182.19
652.764	184.19
652.969	178.19
653.173	176.19
653.377	170.19
653.581	172.19
653.785	164.19
653.99	154.19
654.194	151.19
654.398	179.19
654.602	161.19
654.806	176.19
655.01	164.19
655.214	173.19
655.418	176.19
655.622	169.19
655.826	161.19
656.03	185.19
656.234	160.19
656.438	174.19
656.642	167.19
656.846	167.19
657.049	152.19
657.253	152.19
657.457	126.19
657.661	143.19
657.865	132.19
658.068	129.19
658.272	121.19
658.476	117.19
658.68	134.19
658.883	128.19
659.087	109.19
659.291	131.19
659.494	124.19
659.698	117.19
659.901	106.19
660.105	102.19
660.309	102.19
660.512	110.19
660.716	98.19
660.919	97.19
661.123	90.19
661.326	98.19
661.53	112.19
661.733	106.19
661.936	102.19
662.14	96.19
662.343	105.19
662.546	86.19
662.75	92.19
662.953	84.19
663.156	95.19
663.36	96.19
663.563	114.19
663.766	88.19
663.969	81.19
664.173	92.19
664.376	89.19
664.579	96.19
664.782	85.19
664.985	80.19
665.188	88.19
665.391	94.19
665.594	84.19
665.797	84.19
666	90.19
666.203	90.19
666.406	67.19
666.609	92.19
666.812	97.19
667.015	90.19
667.218	89.19
667.421	90.19
667.624	85.19
667.827	84.19
668.03	88.19
668.232	76.19
668.435	89.19
668.638	85.19
668.841	86.19
669.043	100.19
669.246	103.19
669.449	79.19
669.651	72.19
669.854	80.19
670.057	78.19
670.259	86.19
670.462	95.19
670.665	95.19
670.867	94.19
671.07	77.19
671.272	92.19
671.475	95.19
671.677	88.19
671.88	80.19
672.082	84.19
672.284	102.19
672.487	91.19
672.689	87.19
672.892	93.19
