Data from NickelSpatula.Lamp.E10.P2_HRD10591_11-58-50-527.txt Node
Date: Tue Jul 23 11:58:50 EDT 2019
User: cochatt
Spectrometer: HR+D1059
Trigger mode: 1
Integration Time (sec): 1.000000E-1
Scans to average: 1
Electric dark correction enabled: true
Nonlinearity correction enabled: false
Boxcar width: 0
XAxis mode: Wavelengths
Number of Pixels in Spectrum: 2048
>>>>>Begin Spectral Data<<<<<
223.165	-13.38
223.4	-13.38
223.635	-13.38
223.869	-15.38
224.104	-13.38
224.338	-10.38
224.573	-6.38
224.808	-5.38
225.042	-17.38
225.277	-20.38
225.511	-0.38
225.746	-13.38
225.98	7.62
226.215	15.62
226.449	5.62
226.683	11.62
226.918	35.62
227.152	39.62
227.387	34.62
227.621	31.62
227.856	57.62
228.09	50.62
228.324	36.62
228.559	51.62
228.793	75.62
229.027	139.62
229.262	167.62
229.496	162.62
229.73	177.62
229.964	193.62
230.199	234.62
230.433	216.62
230.667	218.62
230.901	217.62
231.136	200.62
231.37	193.62
231.604	229.62
231.838	253.62
232.072	262.62
232.306	253.62
232.541	242.62
232.775	251.62
233.009	263.62
233.243	297.62
233.477	335.62
233.711	363.62
233.945	315.62
234.179	320.62
234.413	353.62
234.647	390.62
234.881	462.62
235.115	431.62
235.349	399.62
235.583	362.62
235.817	339.62
236.051	382.62
236.285	432.62
236.519	460.62
236.753	424.62
236.987	420.62
237.221	401.62
237.455	429.62
237.689	435.62
237.922	462.62
238.156	478.62
238.39	585.62
238.624	665.62
238.858	576.62
239.091	511.62
239.325	533.62
239.559	499.62
239.793	542.62
240.027	649.62
240.26	601.62
240.494	607.62
240.728	611.62
240.961	716.62
241.195	634.62
241.429	632.62
241.662	638.62
241.896	498.62
242.13	479.62
242.363	462.62
242.597	465.62
242.83	531.62
243.064	550.62
243.298	605.62
243.531	643.62
243.765	628.62
243.998	645.62
244.232	591.62
244.465	594.62
244.699	594.62
244.932	657.62
245.166	649.62
245.399	563.62
245.633	547.62
245.866	568.62
246.099	631.62
246.333	708.62
246.566	769.62
246.8	767.62
247.033	712.62
247.266	690.62
247.5	691.62
247.733	695.62
247.966	678.62
248.2	692.62
248.433	793.62
248.666	858.62
248.899	859.62
249.133	882.62
249.366	994.62
249.599	1056.62
249.832	961.62
250.066	822.62
250.299	843.62
250.532	826.62
250.765	813.62
250.998	747.62
251.231	739.62
251.465	790.62
251.698	850.62
251.931	805.62
252.164	854.62
252.397	918.62
252.63	1055.62
252.863	1176.62
253.096	1227.62
253.329	1165.62
253.562	1122.62
253.795	1233.62
254.028	1354.62
254.261	1394.62
254.494	1227.62
254.727	1130.62
254.96	1137.62
255.193	1218.62
255.426	1136.62
255.659	872.62
255.892	799.62
256.124	889.62
256.357	1037.62
256.59	1226.62
256.823	1149.62
257.056	985.62
257.289	927.62
257.521	973.62
257.754	1167.62
257.987	1304.62
258.22	1123.62
258.452	1021.62
258.685	1158.62
258.918	1327.62
259.151	1250.62
259.383	1306.62
259.616	1502.62
259.849	1571.62
260.081	1699.62
260.314	1868.62
260.547	1505.62
260.779	1475.62
261.012	1722.62
261.244	1640.62
261.477	1656.62
261.71	1544.62
261.942	1327.62
262.175	1303.62
262.407	1232.62
262.64	1267.62
262.872	1487.62
263.105	1638.62
263.337	1729.62
263.57	1530.62
263.802	1036.62
264.035	888.62
264.267	891.62
264.499	768.62
264.732	703.62
264.964	718.62
265.197	725.62
265.429	793.62
265.661	831.62
265.894	867.62
266.126	925.62
266.358	1002.62
266.591	1277.62
266.823	1557.62
267.055	1399.62
267.287	1248.62
267.52	1275.62
267.752	1336.62
267.984	1451.62
268.216	1413.62
268.448	1112.62
268.681	1149.62
268.913	1210.62
269.145	1277.62
269.377	1310.62
269.609	1303.62
269.841	1246.62
270.073	1295.62
270.306	1367.62
270.538	1339.62
270.77	1418.62
271.002	1405.62
271.234	1478.62
271.466	1480.62
271.698	1440.62
271.93	1431.62
272.162	1457.62
272.394	1423.62
272.626	1389.62
272.858	1490.62
273.09	1505.62
273.322	1295.62
273.553	1276.62
273.785	1531.62
274.017	1989.62
274.249	2467.62
274.481	2542.62
274.713	2750.62
274.945	3181.62
275.176	3316.62
275.408	2894.62
275.64	2685.62
275.872	2632.62
276.104	2210.62
276.335	1889.62
276.567	1888.62
276.799	2006.62
277.031	2096.62
277.262	1635.62
277.494	1267.62
277.726	1172.62
277.957	1337.62
278.189	1512.62
278.421	1487.62
278.652	1440.62
278.884	1385.62
279.115	1283.62
279.347	1241.62
279.579	1179.62
279.81	1186.62
280.042	1203.62
280.273	1236.62
280.505	1142.62
280.736	1018.62
280.968	975.62
281.199	1067.62
281.431	1251.62
281.662	1223.62
281.894	1183.62
282.125	1247.62
282.356	1337.62
282.588	1370.62
282.819	1249.62
283.051	1386.62
283.282	1725.62
283.513	1935.62
283.745	2207.62
283.976	2171.62
284.207	2023.62
284.439	2105.62
284.67	1999.62
284.901	1771.62
285.132	1932.62
285.364	2031.62
285.595	1898.62
285.826	1989.62
286.057	2079.62
286.288	1993.62
286.52	2015.62
286.751	2147.62
286.982	2081.62
287.213	1860.62
287.444	1761.62
287.675	1861.62
287.906	1847.62
288.138	1585.62
288.369	1373.62
288.6	1290.62
288.831	1323.62
289.062	1562.62
289.293	1689.62
289.524	1604.62
289.755	1603.62
289.986	1631.62
290.217	1426.62
290.448	1093.62
290.679	969.62
290.91	965.62
291.141	938.62
291.371	976.62
291.602	970.62
291.833	981.62
292.064	1081.62
292.295	1207.62
292.526	1404.62
292.757	1469.62
292.987	1568.62
293.218	1561.62
293.449	1578.62
293.68	1692.62
293.91	1597.62
294.141	1609.62
294.372	1537.62
294.603	1468.62
294.833	1609.62
295.064	1869.62
295.295	1703.62
295.525	1311.62
295.756	1153.62
295.987	1000.62
296.217	1027.62
296.448	1024.62
296.679	1095.62
296.909	1203.62
297.14	1273.62
297.37	1477.62
297.601	1338.62
297.831	1181.62
298.062	1249.62
298.292	1422.62
298.523	1577.62
298.753	1824.62
298.984	1610.62
299.214	1268.62
299.445	1086.62
299.675	1061.62
299.905	1027.62
300.136	1082.62
300.366	1180.62
300.597	1146.62
300.827	1019.62
301.057	973.62
301.288	1053.62
301.518	1080.62
301.748	1208.62
301.979	1351.62
302.209	1439.62
302.439	1490.62
302.669	1223.62
302.9	1252.62
303.13	1181.62
303.36	1116.62
303.59	1067.62
303.82	1117.62
304.051	1259.62
304.281	1313.62
304.511	1303.62
304.741	1139.62
304.971	1210.62
305.201	1287.62
305.431	1216.62
305.661	1065.62
305.891	1052.62
306.121	1069.62
306.352	978.62
306.582	879.62
306.812	884.62
307.042	856.62
307.272	825.62
307.502	800.62
307.731	866.62
307.961	918.62
308.191	857.62
308.421	805.62
308.651	807.62
308.881	774.62
309.111	765.62
309.341	833.62
309.571	891.62
309.8	914.62
310.03	929.62
310.26	1001.62
310.49	980.62
310.72	877.62
310.949	847.62
311.179	875.62
311.409	938.62
311.639	1111.62
311.868	1413.62
312.098	1754.62
312.328	1940.62
312.557	1874.62
312.787	1873.62
313.017	1662.62
313.246	1801.62
313.476	1971.62
313.706	1618.62
313.935	1320.62
314.165	1064.62
314.394	958.62
314.624	947.62
314.853	1025.62
315.083	1050.62
315.312	1021.62
315.542	1031.62
315.771	955.62
316.001	855.62
316.23	834.62
316.46	840.62
316.689	879.62
316.919	869.62
317.148	889.62
317.377	899.62
317.607	911.62
317.836	970.62
318.065	1118.62
318.295	1209.62
318.524	1163.62
318.753	1010.62
318.983	950.62
319.212	921.62
319.441	1041.62
319.67	1124.62
319.9	1189.62
320.129	1135.62
320.358	979.62
320.587	963.62
320.816	1012.62
321.046	1168.62
321.275	1343.62
321.504	1351.62
321.733	1291.62
321.962	1203.62
322.191	1159.62
322.42	1107.62
322.649	1147.62
322.878	1247.62
323.108	1214.62
323.337	1124.62
323.566	1100.62
323.795	1058.62
324.024	994.62
324.253	1000.62
324.482	971.62
324.71	1106.62
324.939	1222.62
325.168	1092.62
325.397	933.62
325.626	922.62
325.855	906.62
326.084	933.62
326.313	900.62
326.542	839.62
326.77	903.62
326.999	935.62
327.228	961.62
327.457	1002.62
327.686	1007.62
327.914	926.62
328.143	845.62
328.372	841.62
328.6	833.62
328.829	913.62
329.058	899.62
329.287	895.62
329.515	890.62
329.744	881.62
329.972	837.62
330.201	801.62
330.43	860.62
330.658	933.62
330.887	1095.62
331.115	1046.62
331.344	997.62
331.572	957.62
331.801	901.62
332.03	871.62
332.258	877.62
332.486	959.62
332.715	1005.62
332.943	927.62
333.172	934.62
333.4	926.62
333.629	1027.62
333.857	1151.62
334.085	1097.62
334.314	1105.62
334.542	1062.62
334.771	971.62
334.999	954.62
335.227	949.62
335.455	950.62
335.684	1027.62
335.912	1219.62
336.14	1293.62
336.369	1234.62
336.597	1213.62
336.825	1364.62
337.053	1534.62
337.281	1221.62
337.51	996.62
337.738	970.62
337.966	1061.62
338.194	1165.62
338.422	1101.62
338.65	953.62
338.878	911.62
339.106	913.62
339.334	1053.62
339.562	1092.62
339.79	995.62
340.018	972.62
340.246	1064.62
340.474	1202.62
340.702	1254.62
340.93	1350.62
341.158	1339.62
341.386	1120.62
341.614	1118.62
341.842	1136.62
342.07	1157.62
342.298	1309.62
342.526	1409.62
342.754	1241.62
342.981	1090.62
343.209	1055.62
343.437	1157.62
343.665	1181.62
343.893	1189.62
344.12	1408.62
344.348	1597.62
344.576	1470.62
344.804	1216.62
345.031	1065.62
345.259	995.62
345.487	1005.62
345.714	1030.62
345.942	1085.62
346.17	1193.62
346.397	1137.62
346.625	1003.62
346.853	989.62
347.08	936.62
347.308	1002.62
347.535	1115.62
347.763	1136.62
347.99	993.62
348.218	930.62
348.445	971.62
348.673	967.62
348.9	1000.62
349.128	1052.62
349.355	1094.62
349.583	1064.62
349.81	1043.62
350.037	947.62
350.265	856.62
350.492	799.62
350.72	802.62
350.947	853.62
351.174	917.62
351.402	943.62
351.629	988.62
351.856	961.62
352.083	879.62
352.311	988.62
352.538	1083.62
352.765	1169.62
352.992	1059.62
353.22	970.62
353.447	1040.62
353.674	1001.62
353.901	964.62
354.128	1006.62
354.355	1032.62
354.583	983.62
354.81	991.62
355.037	1032.62
355.264	990.62
355.491	1057.62
355.718	1192.62
355.945	1149.62
356.172	1105.62
356.399	1099.62
356.626	1323.62
356.853	1654.62
357.08	1727.62
357.307	1795.62
357.534	1375.62
357.761	1434.62
357.988	1770.62
358.215	2088.62
358.441	1965.62
358.668	1663.62
358.895	1553.62
359.122	1259.62
359.349	1233.62
359.576	1338.62
359.802	1077.62
360.029	965.62
360.256	1047.62
360.483	1261.62
360.709	1634.62
360.936	1690.62
361.163	1482.62
361.39	1150.62
361.616	1078.62
361.843	1217.62
362.07	1487.62
362.296	1401.62
362.523	1056.62
362.749	949.62
362.976	977.62
363.203	1213.62
363.429	1360.62
363.656	1097.62
363.882	997.62
364.109	993.62
364.335	982.62
364.562	981.62
364.788	1139.62
365.015	1303.62
365.241	1201.62
365.468	968.62
365.694	850.62
365.92	804.62
366.147	780.62
366.373	776.62
366.599	771.62
366.826	805.62
367.052	839.62
367.278	817.62
367.505	809.62
367.731	876.62
367.957	1034.62
368.184	1030.62
368.41	1025.62
368.636	1014.62
368.862	1079.62
369.089	1043.62
369.315	906.62
369.541	887.62
369.767	902.62
369.993	830.62
370.219	867.62
370.445	929.62
370.672	991.62
370.898	1099.62
371.124	1101.62
371.35	975.62
371.576	902.62
371.802	988.62
372.028	1174.62
372.254	1358.62
372.48	1145.62
372.706	1041.62
372.932	1062.62
373.158	1143.62
373.384	1393.62
373.61	1845.62
373.835	1892.62
374.061	1416.62
374.287	1182.62
374.513	1425.62
374.739	1660.62
374.965	1736.62
375.191	1713.62
375.416	1185.62
375.642	1025.62
375.868	1227.62
376.094	1377.62
376.319	1165.62
376.545	1322.62
376.771	1391.62
376.997	1173.62
377.222	867.62
377.448	733.62
377.674	763.62
377.899	765.62
378.125	755.62
378.35	749.62
378.576	799.62
378.802	881.62
379.027	946.62
379.253	903.62
379.478	938.62
379.704	1063.62
379.929	1112.62
380.155	1102.62
380.38	955.62
380.606	992.62
380.831	1114.62
381.057	1033.62
381.282	1009.62
381.507	1185.62
381.733	1482.62
381.958	1531.62
382.184	1659.62
382.409	1746.62
382.634	1688.62
382.86	1801.62
383.085	1466.62
383.31	1149.62
383.535	1226.62
383.761	1227.62
383.986	1176.62
384.211	1408.62
384.436	1398.62
384.662	1046.62
384.887	1004.62
385.112	1024.62
385.337	1070.62
385.562	1006.62
385.787	1136.62
386.013	1262.62
386.238	1264.62
386.463	1043.62
386.688	995.62
386.913	935.62
387.138	868.62
387.363	981.62
387.588	974.62
387.813	1002.62
388.038	1120.62
388.263	990.62
388.488	968.62
388.713	1143.62
388.938	1246.62
389.163	1042.62
389.387	921.62
389.612	931.62
389.837	962.62
390.062	941.62
390.287	995.62
390.512	1053.62
390.736	983.62
390.961	895.62
391.186	879.62
391.411	865.62
391.636	850.62
391.86	948.62
392.085	1013.62
392.31	1030.62
392.534	925.62
392.759	953.62
392.984	989.62
393.208	973.62
393.433	873.62
393.658	791.62
393.882	771.62
394.107	769.62
394.331	785.62
394.556	787.62
394.78	817.62
395.005	854.62
395.229	864.62
395.454	872.62
395.678	878.62
395.903	943.62
396.127	878.62
396.352	883.62
396.576	996.62
396.801	1015.62
397.025	1113.62
397.249	1163.62
397.474	939.62
397.698	916.62
397.922	980.62
398.147	934.62
398.371	903.62
398.595	938.62
398.82	953.62
399.044	943.62
399.268	995.62
399.492	1055.62
399.717	1076.62
399.941	1097.62
400.165	1080.62
400.389	1031.62
400.613	1086.62
400.837	1026.62
401.062	927.62
401.286	898.62
401.51	901.62
401.734	920.62
401.958	929.62
402.182	913.62
402.406	922.62
402.63	910.62
402.854	965.62
403.078	1089.62
403.302	1279.62
403.526	1351.62
403.75	1198.62
403.974	1059.62
404.198	1094.62
404.422	1249.62
404.645	1437.62
404.869	1569.62
405.093	1176.62
405.317	996.62
405.541	995.62
405.765	1005.62
405.988	1014.62
406.212	1089.62
406.436	1303.62
406.66	1428.62
406.883	1135.62
407.107	1178.62
407.331	1381.62
407.555	1311.62
407.778	1096.62
408.002	1017.62
408.226	1056.62
408.449	1065.62
408.673	1025.62
408.896	952.62
409.12	930.62
409.344	919.62
409.567	894.62
409.791	897.62
410.014	881.62
410.238	892.62
410.461	895.62
410.685	892.62
410.908	895.62
411.132	945.62
411.355	924.62
411.578	959.62
411.802	954.62
412.025	958.62
412.249	997.62
412.472	951.62
412.695	943.62
412.919	949.62
413.142	953.62
413.365	1043.62
413.589	1048.62
413.812	986.62
414.035	915.62
414.258	922.62
414.482	1041.62
414.705	1067.62
414.928	923.62
415.151	881.62
415.374	887.62
415.597	925.62
415.821	925.62
416.044	908.62
416.267	854.62
416.49	862.62
416.713	873.62
416.936	870.62
417.159	862.62
417.382	885.62
417.605	901.62
417.828	938.62
418.051	927.62
418.274	953.62
418.497	938.62
418.72	912.62
418.943	962.62
419.166	993.62
419.389	1038.62
419.611	991.62
419.834	1021.62
420.057	1137.62
420.28	1090.62
420.503	1047.62
420.726	915.62
420.948	897.62
421.171	897.62
421.394	901.62
421.617	856.62
421.839	902.62
422.062	963.62
422.285	895.62
422.507	929.62
422.73	977.62
422.953	979.62
423.175	959.62
423.398	970.62
423.621	1043.62
423.843	1095.62
424.066	952.62
424.288	945.62
424.511	909.62
424.733	915.62
424.956	958.62
425.178	1097.62
425.401	1222.62
425.623	1393.62
425.846	1163.62
426.068	1014.62
426.291	1141.62
426.513	1048.62
426.735	944.62
426.958	984.62
427.18	1179.62
427.402	1514.62
427.625	1480.62
427.847	1204.62
428.069	904.62
428.292	903.62
428.514	878.62
428.736	884.62
428.958	952.62
429.181	1128.62
429.403	973.62
429.625	893.62
429.847	869.62
430.069	926.62
430.292	890.62
430.514	866.62
430.736	965.62
430.958	1222.62
431.18	1087.62
431.402	842.62
431.624	819.62
431.846	804.62
432.068	782.62
432.29	849.62
432.512	922.62
432.734	1256.62
432.956	1136.62
433.178	851.62
433.4	833.62
433.622	853.62
433.844	887.62
434.066	965.62
434.287	929.62
434.509	868.62
434.731	927.62
434.953	877.62
435.175	935.62
435.397	1035.62
435.618	889.62
435.84	841.62
436.062	842.62
436.284	825.62
436.505	804.62
436.727	774.62
436.949	818.62
437.17	851.62
437.392	880.62
437.614	831.62
437.835	829.62
438.057	864.62
438.278	971.62
438.5	1417.62
438.721	1422.62
438.943	954.62
439.165	816.62
439.386	771.62
439.608	778.62
439.829	781.62
440.05	786.62
440.272	870.62
440.493	1011.62
440.715	1242.62
440.936	1009.62
441.158	879.62
441.379	862.62
441.6	999.62
441.822	1039.62
442.043	913.62
442.264	909.62
442.486	866.62
442.707	862.62
442.928	874.62
443.149	873.62
443.371	905.62
443.592	942.62
443.813	931.62
444.034	895.62
444.255	929.62
444.476	945.62
444.698	911.62
444.919	934.62
445.14	1089.62
445.361	1026.62
445.582	936.62
445.803	910.62
446.024	951.62
446.245	960.62
446.466	919.62
446.687	863.62
446.908	912.62
447.129	847.62
447.35	820.62
447.571	802.62
447.792	803.62
448.013	784.62
448.234	789.62
448.455	818.62
448.675	813.62
448.896	821.62
449.117	806.62
449.338	803.62
449.559	793.62
449.779	883.62
450	879.62
450.221	823.62
450.442	823.62
450.662	790.62
450.883	797.62
451.104	804.62
451.324	788.62
451.545	808.62
451.766	789.62
451.986	779.62
452.207	765.62
452.428	783.62
452.648	790.62
452.869	808.62
453.089	842.62
453.31	859.62
453.53	769.62
453.751	773.62
453.971	773.62
454.192	765.62
454.412	779.62
454.633	749.62
454.853	724.62
455.073	727.62
455.294	727.62
455.514	749.62
455.734	759.62
455.955	809.62
456.175	826.62
456.395	758.62
456.616	708.62
456.836	712.62
457.056	709.62
457.276	675.62
457.497	713.62
457.717	710.62
457.937	703.62
458.157	725.62
458.377	711.62
458.598	761.62
458.818	753.62
459.038	805.62
459.258	834.62
459.478	855.62
459.698	878.62
459.918	902.62
460.138	880.62
460.358	885.62
460.578	857.62
460.798	870.62
461.018	861.62
461.238	847.62
461.458	855.62
461.678	887.62
461.898	962.62
462.118	924.62
462.338	923.62
462.558	944.62
462.777	997.62
462.997	986.62
463.217	1013.62
463.437	1017.62
463.657	985.62
463.876	981.62
464.096	981.62
464.316	953.62
464.536	999.62
464.755	1030.62
464.975	1013.62
465.195	952.62
465.414	1017.62
465.634	961.62
465.854	955.62
466.073	876.62
466.293	848.62
466.512	937.62
466.732	1045.62
466.951	1058.62
467.171	929.62
467.391	871.62
467.61	873.62
467.829	922.62
468.049	938.62
468.268	872.62
468.488	894.62
468.707	911.62
468.927	1069.62
469.146	1143.62
469.365	1041.62
469.585	982.62
469.804	1024.62
470.023	1121.62
470.243	985.62
470.462	930.62
470.681	895.62
470.901	925.62
471.12	978.62
471.339	965.62
471.558	941.62
471.777	938.62
471.997	1006.62
472.216	1113.62
472.435	1066.62
472.654	991.62
472.873	950.62
473.092	1001.62
473.311	1062.62
473.53	962.62
473.749	946.62
473.968	978.62
474.187	967.62
474.406	958.62
474.625	925.62
474.844	945.62
475.063	1030.62
475.282	1027.62
475.501	1085.62
475.72	1161.62
475.939	1115.62
476.158	1111.62
476.377	1279.62
476.596	1447.62
476.814	1505.62
477.033	1271.62
477.252	1090.62
477.471	1002.62
477.69	1009.62
477.908	1117.62
478.127	1176.62
478.346	1037.62
478.564	1176.62
478.783	1111.62
479.002	1104.62
479.22	1320.62
479.439	1440.62
479.658	1247.62
479.876	1144.62
480.095	1193.62
480.313	1259.62
480.532	1159.62
480.751	1139.62
480.969	1114.62
481.188	1255.62
481.406	1313.62
481.624	1215.62
481.843	1141.62
482.061	1066.62
482.28	1201.62
482.498	1443.62
482.717	1367.62
482.935	1173.62
483.153	1147.62
483.372	1063.62
483.59	1049.62
483.808	1063.62
484.027	1019.62
484.245	980.62
484.463	1012.62
484.681	1022.62
484.9	1106.62
485.118	1206.62
485.336	1097.62
485.554	1041.62
485.772	1041.62
485.99	1180.62
486.209	1251.62
486.427	1223.62
486.645	1202.62
486.863	1259.62
487.081	1254.62
487.299	1391.62
487.517	1364.62
487.735	1229.62
487.953	1279.62
488.171	1259.62
488.389	1190.62
488.607	1104.62
488.825	1176.62
489.043	1272.62
489.261	1466.62
489.479	1599.62
489.696	1329.62
489.914	1189.62
490.132	1114.62
490.35	1153.62
490.568	1161.62
490.786	1117.62
491.003	1153.62
491.221	1143.62
491.439	1161.62
491.657	1142.62
491.874	1235.62
492.092	1513.62
492.31	1831.62
492.527	1786.62
492.745	1518.62
492.963	1365.62
493.18	1295.62
493.398	1297.62
493.615	1301.62
493.833	1232.62
494.05	1250.62
494.268	1289.62
494.485	1287.62
494.703	1214.62
494.92	1247.62
495.138	1211.62
495.355	1216.62
495.573	1235.62
495.79	1356.62
496.008	1877.62
496.225	1581.62
496.442	1381.62
496.66	1353.62
496.877	1442.62
497.094	1397.62
497.312	1331.62
497.529	1316.62
497.746	1338.62
497.963	1383.62
498.181	1501.62
498.398	1626.62
498.615	1655.62
498.832	1733.62
499.049	1725.62
499.267	1551.62
499.484	1568.62
499.701	1634.62
499.918	1740.62
500.135	1885.62
500.352	1870.62
500.569	1976.62
500.786	2029.62
501.003	1990.62
501.22	1810.62
501.437	1729.62
501.654	1665.62
501.871	1607.62
502.088	1675.62
502.305	1496.62
502.522	1519.62
502.739	1510.62
502.956	1382.62
503.172	1398.62
503.389	1301.62
503.606	1285.62
503.823	1319.62
504.04	1327.62
504.256	1320.62
504.473	1343.62
504.69	1374.62
504.907	1410.62
505.123	1317.62
505.34	1479.62
505.557	1419.62
505.773	1353.62
505.99	1276.62
506.207	1389.62
506.423	1286.62
506.64	1197.62
506.856	1225.62
507.073	1368.62
507.289	1372.62
507.506	1381.62
507.722	1386.62
507.939	1448.62
508.155	1495.62
508.372	1314.62
508.588	1287.62
508.805	1246.62
509.021	1248.62
509.238	1186.62
509.454	1181.62
509.67	1190.62
509.887	1187.62
510.103	1350.62
510.319	1344.62
510.536	1224.62
510.752	1099.62
510.968	1097.62
511.184	1005.62
511.401	1034.62
511.617	1023.62
511.833	1054.62
512.049	1040.62
512.265	1081.62
512.481	1148.62
512.698	1219.62
512.914	1359.62
513.13	1265.62
513.346	1121.62
513.562	1203.62
513.778	1185.62
513.994	1165.62
514.21	1269.62
514.426	1192.62
514.642	1150.62
514.858	1144.62
515.074	1231.62
515.29	1281.62
515.506	1443.62
515.721	1340.62
515.937	1245.62
516.153	1172.62
516.369	1165.62
516.585	1181.62
516.801	1395.62
517.016	1646.62
517.232	1572.62
517.448	1528.62
517.664	1393.62
517.879	1296.62
518.095	1287.62
518.311	1298.62
518.527	1343.62
518.742	1403.62
518.958	1487.62
519.173	1387.62
519.389	1369.62
519.605	1415.62
519.82	1517.62
520.036	1731.62
520.251	1723.62
520.467	1599.62
520.682	2432.62
520.898	2985.62
521.113	2758.62
521.329	1724.62
521.544	1553.62
521.76	1555.62
521.975	1356.62
522.19	1281.62
522.406	1324.62
522.621	1479.62
522.836	1543.62
523.052	1590.62
523.267	1310.62
523.482	1335.62
523.698	1399.62
523.913	1350.62
524.128	1251.62
524.343	1179.62
524.559	1201.62
524.774	1159.62
524.989	1157.62
525.204	1202.62
525.419	1344.62
525.634	1217.62
525.849	1238.62
526.064	1240.62
526.28	1271.62
526.495	1471.62
526.71	1547.62
526.925	1394.62
527.14	1422.62
527.355	1393.62
527.57	1168.62
527.785	1203.62
527.999	1147.62
528.214	1109.62
528.429	1066.62
528.644	1102.62
528.859	1028.62
529.074	1002.62
529.289	998.62
529.503	996.62
529.718	1032.62
529.933	1201.62
530.148	1227.62
530.363	1106.62
530.577	1009.62
530.792	1008.62
531.007	1010.62
531.221	968.62
531.436	990.62
531.651	982.62
531.865	993.62
532.08	1027.62
532.295	1012.62
532.509	1041.62
532.724	1167.62
532.938	1315.62
533.153	1545.62
533.367	1247.62
533.582	1185.62
533.796	1086.62
534.011	1045.62
534.225	1067.62
534.44	1073.62
534.654	1059.62
534.868	1276.62
535.083	1113.62
535.297	1048.62
535.511	1026.62
535.726	1146.62
535.94	1062.62
536.154	1053.62
536.369	1005.62
536.583	1003.62
536.797	1034.62
537.011	1019.62
537.225	1148.62
537.44	1195.62
537.654	1045.62
537.868	1023.62
538.082	1030.62
538.296	1010.62
538.51	1065.62
538.724	1113.62
538.938	1060.62
539.153	998.62
539.367	982.62
539.581	1007.62
539.795	1047.62
540.009	1149.62
540.222	1068.62
540.436	1066.62
540.65	1149.62
540.864	1189.62
541.078	1177.62
541.292	1369.62
541.506	1096.62
541.72	1069.62
541.934	1025.62
542.147	1071.62
542.361	1055.62
542.575	1063.62
542.789	1030.62
543.002	953.62
543.216	1063.62
543.43	945.62
543.644	951.62
543.857	917.62
544.071	959.62
544.285	925.62
544.498	941.62
544.712	949.62
544.925	1011.62
545.139	953.62
545.352	892.62
545.566	925.62
545.779	1053.62
545.993	946.62
546.206	906.62
546.42	875.62
546.633	879.62
546.847	839.62
547.06	862.62
547.274	861.62
547.487	872.62
547.7	957.62
547.914	1023.62
548.127	1148.62
548.34	1080.62
548.554	956.62
548.767	977.62
548.98	1042.62
549.193	996.62
549.407	1020.62
549.62	1180.62
549.833	1102.62
550.046	1163.62
550.259	1175.62
550.473	1049.62
550.686	977.62
550.899	1009.62
551.112	1003.62
551.325	1056.62
551.538	1076.62
551.751	936.62
551.964	932.62
552.177	913.62
552.39	887.62
552.603	883.62
552.816	907.62
553.029	883.62
553.242	874.62
553.455	933.62
553.667	1017.62
553.88	976.62
554.093	899.62
554.306	857.62
554.519	818.62
554.732	829.62
554.944	781.62
555.157	783.62
555.37	779.62
555.583	785.62
555.795	786.62
556.008	823.62
556.221	801.62
556.433	777.62
556.646	776.62
556.859	792.62
557.071	816.62
557.284	828.62
557.496	850.62
557.709	816.62
557.921	810.62
558.134	777.62
558.346	716.62
558.559	725.62
558.771	778.62
558.984	854.62
559.196	773.62
559.409	751.62
559.621	688.62
559.833	713.62
560.046	755.62
560.258	701.62
560.47	727.62
560.683	708.62
560.895	685.62
561.107	693.62
561.32	697.62
561.532	696.62
561.744	756.62
561.956	791.62
562.168	715.62
562.381	681.62
562.593	713.62
562.805	705.62
563.017	704.62
563.229	678.62
563.441	665.62
563.653	655.62
563.865	695.62
564.077	709.62
564.289	677.62
564.501	689.62
564.713	759.62
564.925	741.62
565.137	698.62
565.349	705.62
565.561	718.62
565.773	724.62
565.985	740.62
566.197	792.62
566.408	858.62
566.62	835.62
566.832	855.62
567.044	860.62
567.255	903.62
567.467	967.62
567.679	911.62
567.891	870.62
568.102	877.62
568.314	881.62
568.526	859.62
568.737	821.62
568.949	898.62
569.161	794.62
569.372	735.62
569.584	710.62
569.795	678.62
570.007	697.62
570.218	750.62
570.43	733.62
570.641	681.62
570.853	649.62
571.064	669.62
571.276	690.62
571.487	701.62
571.698	683.62
571.91	678.62
572.121	663.62
572.333	633.62
572.544	637.62
572.755	641.62
572.966	610.62
573.178	608.62
573.389	634.62
573.6	641.62
573.811	630.62
574.023	594.62
574.234	569.62
574.445	596.62
574.656	562.62
574.867	584.62
575.078	613.62
575.289	593.62
575.501	656.62
575.712	583.62
575.923	552.62
576.134	545.62
576.345	557.62
576.556	571.62
576.767	517.62
576.978	541.62
577.188	507.62
577.399	499.62
577.61	539.62
577.821	544.62
578.032	550.62
578.243	570.62
578.454	583.62
578.665	597.62
578.875	585.62
579.086	568.62
579.297	563.62
579.508	577.62
579.718	564.62
579.929	565.62
580.14	518.62
580.35	516.62
580.561	503.62
580.772	467.62
580.982	478.62
581.193	498.62
581.403	486.62
581.614	467.62
581.825	493.62
582.035	459.62
582.246	443.62
582.456	470.62
582.667	466.62
582.877	450.62
583.087	464.62
583.298	450.62
583.508	442.62
583.719	467.62
583.929	463.62
584.139	467.62
584.35	441.62
584.56	486.62
584.77	494.62
584.981	487.62
585.191	474.62
585.401	489.62
585.611	479.62
585.821	504.62
586.032	463.62
586.242	478.62
586.452	505.62
586.662	445.62
586.872	497.62
587.082	503.62
587.292	474.62
587.502	482.62
587.713	476.62
587.923	468.62
588.133	518.62
588.343	474.62
588.553	471.62
588.762	455.62
588.972	454.62
589.182	460.62
589.392	477.62
589.602	469.62
589.812	478.62
590.022	519.62
590.232	511.62
590.441	473.62
590.651	455.62
590.861	463.62
591.071	466.62
591.281	471.62
591.49	433.62
591.7	469.62
591.91	451.62
592.119	459.62
592.329	464.62
592.539	462.62
592.748	439.62
592.958	455.62
593.167	457.62
593.377	485.62
593.587	491.62
593.796	484.62
594.006	487.62
594.215	482.62
594.424	495.62
594.634	483.62
594.843	490.62
595.053	453.62
595.262	442.62
595.472	440.62
595.681	436.62
595.89	425.62
596.1	432.62
596.309	457.62
596.518	430.62
596.727	422.62
596.937	411.62
597.146	443.62
597.355	473.62
597.564	449.62
597.774	428.62
597.983	406.62
598.192	424.62
598.401	403.62
598.61	397.62
598.819	408.62
599.028	383.62
599.237	380.62
599.446	384.62
599.655	385.62
599.864	381.62
600.073	414.62
600.282	389.62
600.491	388.62
600.7	376.62
600.909	375.62
601.118	394.62
601.327	377.62
601.536	383.62
601.745	396.62
601.953	417.62
602.162	398.62
602.371	413.62
602.58	403.62
602.789	375.62
602.997	385.62
603.206	374.62
603.415	364.62
603.623	350.62
603.832	370.62
604.041	352.62
604.249	371.62
604.458	397.62
604.666	372.62
604.875	356.62
605.084	344.62
605.292	358.62
605.501	360.62
605.709	355.62
605.918	354.62
606.126	344.62
606.334	343.62
606.543	365.62
606.751	383.62
606.96	365.62
607.168	357.62
607.376	362.62
607.585	353.62
607.793	333.62
608.001	349.62
608.21	359.62
608.418	362.62
608.626	369.62
608.834	352.62
609.043	346.62
609.251	335.62
609.459	336.62
609.667	345.62
609.875	353.62
610.083	353.62
610.291	375.62
610.499	361.62
610.707	346.62
610.916	330.62
611.124	329.62
611.332	318.62
611.54	331.62
611.748	344.62
611.955	339.62
612.163	350.62
612.371	322.62
612.579	322.62
612.787	322.62
612.995	329.62
613.203	339.62
613.411	324.62
613.618	357.62
613.826	346.62
614.034	364.62
614.242	329.62
614.449	317.62
614.657	301.62
614.865	326.62
615.072	317.62
615.28	342.62
615.488	317.62
615.695	328.62
615.903	326.62
616.111	333.62
616.318	327.62
616.526	326.62
616.733	332.62
616.941	297.62
617.148	338.62
617.356	331.62
617.563	328.62
617.771	331.62
617.978	316.62
618.185	316.62
618.393	305.62
618.6	323.62
618.807	305.62
619.015	326.62
619.222	319.62
619.429	310.62
619.637	307.62
619.844	297.62
620.051	298.62
620.258	323.62
620.466	310.62
620.673	315.62
620.88	298.62
621.087	296.62
621.294	307.62
621.501	310.62
621.708	306.62
621.915	293.62
622.122	315.62
622.329	305.62
622.536	304.62
622.743	297.62
622.95	306.62
623.157	319.62
623.364	328.62
623.571	307.62
623.778	287.62
623.985	330.62
624.192	286.62
624.399	303.62
624.606	287.62
624.812	307.62
625.019	301.62
625.226	307.62
625.433	304.62
625.639	292.62
625.846	277.62
626.053	279.62
626.259	279.62
626.466	285.62
626.673	305.62
626.879	288.62
627.086	253.62
627.293	261.62
627.499	282.62
627.706	270.62
627.912	269.62
628.119	255.62
628.325	269.62
628.532	256.62
628.738	265.62
628.945	280.62
629.151	248.62
629.357	242.62
629.564	263.62
629.77	264.62
629.976	249.62
630.183	256.62
630.389	242.62
630.595	264.62
630.802	259.62
631.008	252.62
631.214	262.62
631.42	257.62
631.627	252.62
631.833	257.62
632.039	248.62
632.245	248.62
632.451	239.62
632.657	250.62
632.863	241.62
633.069	251.62
633.275	256.62
633.481	243.62
633.688	237.62
633.893	258.62
634.099	244.62
634.305	224.62
634.511	230.62
634.717	249.62
634.923	232.62
635.129	234.62
635.335	235.62
635.541	230.62
635.747	234.62
635.952	251.62
636.158	234.62
636.364	242.62
636.57	250.62
636.775	231.62
636.981	235.62
637.187	222.62
637.392	234.62
637.598	229.62
637.804	225.62
638.009	255.62
638.215	215.62
638.421	225.62
638.626	223.62
638.832	217.62
639.037	230.62
639.243	244.62
639.448	220.62
639.654	231.62
639.859	229.62
640.065	237.62
640.27	247.62
640.475	225.62
640.681	209.62
640.886	231.62
641.091	212.62
641.297	219.62
641.502	223.62
641.707	232.62
641.913	212.62
642.118	223.62
642.323	225.62
642.528	239.62
642.733	231.62
642.939	225.62
643.144	206.62
643.349	214.62
643.554	213.62
643.759	221.62
643.964	215.62
644.169	208.62
644.374	224.62
644.579	210.62
644.784	197.62
644.989	213.62
645.194	226.62
645.399	208.62
645.604	200.62
645.809	220.62
646.014	203.62
646.219	207.62
646.423	200.62
646.628	205.62
646.833	206.62
647.038	222.62
647.243	213.62
647.447	211.62
647.652	218.62
647.857	218.62
648.062	224.62
648.266	205.62
648.471	219.62
648.676	213.62
648.88	181.62
649.085	209.62
649.289	222.62
649.494	220.62
649.698	226.62
649.903	197.62
650.107	191.62
650.312	182.62
650.516	208.62
650.721	185.62
650.925	188.62
651.13	171.62
651.334	195.62
651.539	185.62
651.743	184.62
651.947	183.62
652.152	188.62
652.356	189.62
652.56	204.62
652.764	166.62
652.969	172.62
653.173	163.62
653.377	150.62
653.581	170.62
653.785	160.62
653.99	178.62
654.194	161.62
654.398	180.62
654.602	163.62
654.806	168.62
655.01	169.62
655.214	164.62
655.418	157.62
655.622	165.62
655.826	169.62
656.03	152.62
656.234	153.62
656.438	166.62
656.642	167.62
656.846	151.62
657.049	150.62
657.253	137.62
657.457	151.62
657.661	142.62
657.865	137.62
658.068	121.62
658.272	128.62
658.476	113.62
658.68	105.62
658.883	113.62
659.087	115.62
659.291	114.62
659.494	123.62
659.698	104.62
659.901	113.62
660.105	89.62
660.309	105.62
660.512	111.62
660.716	101.62
660.919	99.62
661.123	93.62
661.326	98.62
661.53	99.62
661.733	81.62
661.936	101.62
662.14	93.62
662.343	97.62
662.546	100.62
662.75	93.62
662.953	84.62
663.156	86.62
663.36	78.62
663.563	77.62
663.766	74.62
663.969	91.62
664.173	73.62
664.376	89.62
664.579	75.62
664.782	77.62
664.985	78.62
665.188	85.62
665.391	81.62
665.594	75.62
665.797	87.62
666	93.62
666.203	89.62
666.406	90.62
666.609	67.62
666.812	95.62
667.015	74.62
667.218	75.62
667.421	97.62
667.624	79.62
667.827	76.62
668.03	89.62
668.232	83.62
668.435	76.62
668.638	73.62
668.841	95.62
669.043	74.62
669.246	90.62
669.449	72.62
669.651	85.62
669.854	95.62
670.057	86.62
670.259	97.62
670.462	75.62
670.665	80.62
670.867	77.62
671.07	85.62
671.272	75.62
671.475	80.62
671.677	109.62
671.88	93.62
672.082	68.62
672.284	81.62
672.487	83.62
672.689	86.62
672.892	80.62
