Data from NickelSpatula.Lamp.E10.P2_HRD10591_11-57-56-530.txt Node
Date: Tue Jul 23 11:57:56 EDT 2019
User: cochatt
Spectrometer: HR+D1059
Trigger mode: 1
Integration Time (sec): 1.000000E-1
Scans to average: 1
Electric dark correction enabled: true
Nonlinearity correction enabled: false
Boxcar width: 0
XAxis mode: Wavelengths
Number of Pixels in Spectrum: 2048
>>>>>Begin Spectral Data<<<<<
223.165	-1.25
223.4	-1.25
223.635	-1.25
223.869	-12.25
224.104	-1.25
224.338	-18.25
224.573	-13.25
224.808	-20.25
225.042	-7.25
225.277	7.75
225.511	-8.25
225.746	-4.25
225.98	-0.25
226.215	-2.25
226.449	6.75
226.683	10.75
226.918	35.75
227.152	27.75
227.387	26.75
227.621	32.75
227.856	35.75
228.09	40.75
228.324	45.75
228.559	55.75
228.793	73.75
229.027	152.75
229.262	159.75
229.496	153.75
229.73	166.75
229.964	201.75
230.199	232.75
230.433	213.75
230.667	228.75
230.901	212.75
231.136	201.75
231.37	211.75
231.604	217.75
231.838	234.75
232.072	253.75
232.306	246.75
232.541	249.75
232.775	249.75
233.009	270.75
233.243	286.75
233.477	302.75
233.711	332.75
233.945	324.75
234.179	317.75
234.413	361.75
234.647	391.75
234.881	441.75
235.115	435.75
235.349	391.75
235.583	353.75
235.817	364.75
236.051	367.75
236.285	406.75
236.519	443.75
236.753	417.75
236.987	413.75
237.221	390.75
237.455	383.75
237.689	435.75
237.922	492.75
238.156	470.75
238.39	551.75
238.624	629.75
238.858	591.75
239.091	483.75
239.325	518.75
239.559	468.75
239.793	535.75
240.027	666.75
240.26	606.75
240.494	580.75
240.728	600.75
240.961	680.75
241.195	631.75
241.429	601.75
241.662	612.75
241.896	512.75
242.13	446.75
242.363	443.75
242.597	471.75
242.83	531.75
243.064	536.75
243.298	589.75
243.531	618.75
243.765	631.75
243.998	632.75
244.232	576.75
244.465	583.75
244.699	578.75
244.932	654.75
245.166	597.75
245.399	539.75
245.633	520.75
245.866	558.75
246.099	618.75
246.333	716.75
246.566	756.75
246.8	733.75
247.033	732.75
247.266	683.75
247.5	679.75
247.733	693.75
247.966	642.75
248.2	684.75
248.433	773.75
248.666	826.75
248.899	817.75
249.133	862.75
249.366	934.75
249.599	1023.75
249.832	934.75
250.066	811.75
250.299	843.75
250.532	804.75
250.765	789.75
250.998	728.75
251.231	689.75
251.465	765.75
251.698	815.75
251.931	798.75
252.164	827.75
252.397	922.75
252.63	1025.75
252.863	1132.75
253.096	1201.75
253.329	1173.75
253.562	1095.75
253.795	1222.75
254.028	1352.75
254.261	1358.75
254.494	1212.75
254.727	1109.75
254.96	1107.75
255.193	1165.75
255.426	1083.75
255.659	855.75
255.892	790.75
256.124	860.75
256.357	1001.75
256.59	1158.75
256.823	1128.75
257.056	964.75
257.289	914.75
257.521	968.75
257.754	1127.75
257.987	1291.75
258.22	1070.75
258.452	979.75
258.685	1122.75
258.918	1253.75
259.151	1237.75
259.383	1268.75
259.616	1490.75
259.849	1563.75
260.081	1688.75
260.314	1854.75
260.547	1463.75
260.779	1457.75
261.012	1689.75
261.244	1597.75
261.477	1625.75
261.71	1507.75
261.942	1250.75
262.175	1268.75
262.407	1218.75
262.64	1236.75
262.872	1485.75
263.105	1607.75
263.337	1680.75
263.57	1476.75
263.802	1005.75
264.035	891.75
264.267	870.75
264.499	758.75
264.732	721.75
264.964	712.75
265.197	714.75
265.429	773.75
265.661	828.75
265.894	821.75
266.126	887.75
266.358	1054.75
266.591	1242.75
266.823	1451.75
267.055	1401.75
267.287	1240.75
267.52	1221.75
267.752	1301.75
267.984	1405.75
268.216	1351.75
268.448	1113.75
268.681	1077.75
268.913	1165.75
269.145	1269.75
269.377	1289.75
269.609	1262.75
269.841	1194.75
270.073	1274.75
270.306	1348.75
270.538	1402.75
270.77	1386.75
271.002	1380.75
271.234	1454.75
271.466	1481.75
271.698	1451.75
271.93	1399.75
272.162	1408.75
272.394	1383.75
272.626	1360.75
272.858	1426.75
273.09	1469.75
273.322	1314.75
273.553	1272.75
273.785	1465.75
274.017	1973.75
274.249	2380.75
274.481	2457.75
274.713	2715.75
274.945	3085.75
275.176	3194.75
275.408	2858.75
275.64	2559.75
275.872	2603.75
276.104	2196.75
276.335	1907.75
276.567	1852.75
276.799	1962.75
277.031	2022.75
277.262	1541.75
277.494	1246.75
277.726	1201.75
277.957	1306.75
278.189	1469.75
278.421	1419.75
278.652	1393.75
278.884	1357.75
279.115	1275.75
279.347	1182.75
279.579	1189.75
279.81	1187.75
280.042	1173.75
280.273	1242.75
280.505	1155.75
280.736	1013.75
280.968	1024.75
281.199	1062.75
281.431	1213.75
281.662	1212.75
281.894	1176.75
282.125	1223.75
282.356	1291.75
282.588	1363.75
282.819	1270.75
283.051	1365.75
283.282	1634.75
283.513	1929.75
283.745	2160.75
283.976	2143.75
284.207	1989.75
284.439	2095.75
284.67	1982.75
284.901	1739.75
285.132	1872.75
285.364	1945.75
285.595	1843.75
285.826	1978.75
286.057	2005.75
286.288	1901.75
286.52	1962.75
286.751	2078.75
286.982	2039.75
287.213	1751.75
287.444	1735.75
287.675	1799.75
287.906	1793.75
288.138	1524.75
288.369	1353.75
288.6	1308.75
288.831	1335.75
289.062	1502.75
289.293	1631.75
289.524	1569.75
289.755	1567.75
289.986	1608.75
290.217	1378.75
290.448	1092.75
290.679	951.75
290.91	914.75
291.141	937.75
291.371	972.75
291.602	984.75
291.833	951.75
292.064	1050.75
292.295	1178.75
292.526	1330.75
292.757	1419.75
292.987	1528.75
293.218	1550.75
293.449	1566.75
293.68	1651.75
293.91	1595.75
294.141	1601.75
294.372	1478.75
294.603	1395.75
294.833	1539.75
295.064	1788.75
295.295	1723.75
295.525	1255.75
295.756	1094.75
295.987	987.75
296.217	1034.75
296.448	1048.75
296.679	1095.75
296.909	1210.75
297.14	1293.75
297.37	1403.75
297.601	1323.75
297.831	1155.75
298.062	1231.75
298.292	1399.75
298.523	1507.75
298.753	1702.75
298.984	1549.75
299.214	1256.75
299.445	1041.75
299.675	1014.75
299.905	1020.75
300.136	1024.75
300.366	1161.75
300.597	1110.75
300.827	993.75
301.057	951.75
301.288	1004.75
301.518	1057.75
301.748	1231.75
301.979	1262.75
302.209	1391.75
302.439	1393.75
302.669	1217.75
302.9	1171.75
303.13	1145.75
303.36	1060.75
303.59	1019.75
303.82	1091.75
304.051	1187.75
304.281	1270.75
304.511	1275.75
304.741	1156.75
304.971	1157.75
305.201	1259.75
305.431	1178.75
305.661	1050.75
305.891	1028.75
306.121	1082.75
306.352	947.75
306.582	854.75
306.812	825.75
307.042	847.75
307.272	805.75
307.502	802.75
307.731	840.75
307.961	901.75
308.191	866.75
308.421	790.75
308.651	789.75
308.881	757.75
309.111	770.75
309.341	820.75
309.571	897.75
309.8	892.75
310.03	895.75
310.26	979.75
310.49	947.75
310.72	855.75
310.949	846.75
311.179	857.75
311.409	906.75
311.639	1064.75
311.868	1380.75
312.098	1763.75
312.328	1919.75
312.557	1836.75
312.787	1842.75
313.017	1665.75
313.246	1778.75
313.476	1907.75
313.706	1604.75
313.935	1260.75
314.165	1053.75
314.394	951.75
314.624	990.75
314.853	1002.75
315.083	1021.75
315.312	991.75
315.542	1014.75
315.771	931.75
316.001	837.75
316.23	807.75
316.46	814.75
316.689	854.75
316.919	893.75
317.148	893.75
317.377	849.75
317.607	876.75
317.836	936.75
318.065	1055.75
318.295	1187.75
318.524	1149.75
318.753	971.75
318.983	924.75
319.212	912.75
319.441	991.75
319.67	1121.75
319.9	1191.75
320.129	1127.75
320.358	956.75
320.587	924.75
320.816	1002.75
321.046	1144.75
321.275	1290.75
321.504	1283.75
321.733	1246.75
321.962	1159.75
322.191	1130.75
322.42	1079.75
322.649	1077.75
322.878	1134.75
323.108	1158.75
323.337	1066.75
323.566	1062.75
323.795	1026.75
324.024	1011.75
324.253	951.75
324.482	964.75
324.71	1059.75
324.939	1198.75
325.168	1085.75
325.397	897.75
325.626	889.75
325.855	917.75
326.084	914.75
326.313	895.75
326.542	825.75
326.77	889.75
326.999	895.75
327.228	933.75
327.457	1007.75
327.686	1014.75
327.914	869.75
328.143	834.75
328.372	828.75
328.6	801.75
328.829	838.75
329.058	890.75
329.287	858.75
329.515	905.75
329.744	882.75
329.972	827.75
330.201	784.75
330.43	822.75
330.658	938.75
330.887	1057.75
331.115	1027.75
331.344	979.75
331.572	957.75
331.801	895.75
332.03	836.75
332.258	855.75
332.486	952.75
332.715	975.75
332.943	915.75
333.172	906.75
333.4	906.75
333.629	1026.75
333.857	1106.75
334.085	1086.75
334.314	1101.75
334.542	1028.75
334.771	980.75
334.999	961.75
335.227	902.75
335.455	915.75
335.684	1030.75
335.912	1169.75
336.14	1270.75
336.369	1238.75
336.597	1185.75
336.825	1366.75
337.053	1495.75
337.281	1207.75
337.51	965.75
337.738	952.75
337.966	1057.75
338.194	1163.75
338.422	1100.75
338.65	955.75
338.878	873.75
339.106	909.75
339.334	984.75
339.562	1069.75
339.79	963.75
340.018	945.75
340.246	1032.75
340.474	1161.75
340.702	1232.75
340.93	1289.75
341.158	1284.75
341.386	1064.75
341.614	1099.75
341.842	1106.75
342.07	1152.75
342.298	1294.75
342.526	1380.75
342.754	1180.75
342.981	1039.75
343.209	1040.75
343.437	1121.75
343.665	1167.75
343.893	1161.75
344.12	1354.75
344.348	1564.75
344.576	1393.75
344.804	1157.75
345.031	1033.75
345.259	949.75
345.487	971.75
345.714	1009.75
345.942	1089.75
346.17	1131.75
346.397	1096.75
346.625	959.75
346.853	947.75
347.08	943.75
347.308	1000.75
347.535	1051.75
347.763	1122.75
347.99	994.75
348.218	920.75
348.445	953.75
348.673	953.75
348.9	961.75
349.128	1031.75
349.355	1012.75
349.583	1038.75
349.81	976.75
350.037	931.75
350.265	854.75
350.492	787.75
350.72	806.75
350.947	837.75
351.174	874.75
351.402	947.75
351.629	975.75
351.856	901.75
352.083	877.75
352.311	941.75
352.538	1040.75
352.765	1134.75
352.992	1010.75
353.22	957.75
353.447	970.75
353.674	956.75
353.901	936.75
354.128	951.75
354.355	994.75
354.583	974.75
354.81	956.75
355.037	999.75
355.264	1007.75
355.491	1077.75
355.718	1124.75
355.945	1097.75
356.172	1050.75
356.399	1058.75
356.626	1294.75
356.853	1556.75
357.08	1653.75
357.307	1664.75
357.534	1311.75
357.761	1353.75
357.988	1686.75
358.215	1989.75
358.441	1869.75
358.668	1562.75
358.895	1416.75
359.122	1183.75
359.349	1179.75
359.576	1267.75
359.802	1085.75
360.029	937.75
360.256	1017.75
360.483	1272.75
360.709	1537.75
360.936	1596.75
361.163	1419.75
361.39	1083.75
361.616	1003.75
361.843	1203.75
362.07	1457.75
362.296	1324.75
362.523	1076.75
362.749	931.75
362.976	943.75
363.203	1179.75
363.429	1331.75
363.656	1043.75
363.882	956.75
364.109	958.75
364.335	962.75
364.562	976.75
364.788	1084.75
365.015	1271.75
365.241	1138.75
365.468	942.75
365.694	803.75
365.92	807.75
366.147	771.75
366.373	787.75
366.599	786.75
366.826	806.75
367.052	796.75
367.278	818.75
367.505	787.75
367.731	891.75
367.957	1000.75
368.184	1011.75
368.41	974.75
368.636	998.75
368.862	1023.75
369.089	968.75
369.315	875.75
369.541	899.75
369.767	874.75
369.993	825.75
370.219	839.75
370.445	896.75
370.672	965.75
370.898	1038.75
371.124	1074.75
371.35	948.75
371.576	869.75
371.802	957.75
372.028	1125.75
372.254	1286.75
372.48	1101.75
372.706	1001.75
372.932	1062.75
373.158	1107.75
373.384	1322.75
373.61	1762.75
373.835	1777.75
374.061	1347.75
374.287	1129.75
374.513	1336.75
374.739	1590.75
374.965	1644.75
375.191	1591.75
375.416	1118.75
375.642	990.75
375.868	1194.75
376.094	1317.75
376.319	1116.75
376.545	1243.75
376.771	1318.75
376.997	1122.75
377.222	864.75
377.448	742.75
377.674	757.75
377.899	727.75
378.125	762.75
378.35	742.75
378.576	785.75
378.802	842.75
379.027	910.75
379.253	884.75
379.478	915.75
379.704	1020.75
379.929	1077.75
380.155	1051.75
380.38	927.75
380.606	979.75
380.831	1073.75
381.057	1002.75
381.282	947.75
381.507	1104.75
381.733	1379.75
381.958	1454.75
382.184	1577.75
382.409	1685.75
382.634	1619.75
382.86	1704.75
383.085	1377.75
383.31	1125.75
383.535	1167.75
383.761	1203.75
383.986	1142.75
384.211	1366.75
384.436	1303.75
384.662	1015.75
384.887	966.75
385.112	1004.75
385.337	1018.75
385.562	956.75
385.787	1065.75
386.013	1183.75
386.238	1251.75
386.463	972.75
386.688	953.75
386.913	933.75
387.138	898.75
387.363	937.75
387.588	938.75
387.813	990.75
388.038	1063.75
388.263	966.75
388.488	915.75
388.713	1055.75
388.938	1203.75
389.163	1013.75
389.387	899.75
389.612	904.75
389.837	919.75
390.062	953.75
390.287	991.75
390.512	971.75
390.736	918.75
390.961	875.75
391.186	844.75
391.411	817.75
391.636	848.75
391.86	923.75
392.085	957.75
392.31	1000.75
392.534	951.75
392.759	917.75
392.984	978.75
393.208	965.75
393.433	823.75
393.658	793.75
393.882	772.75
394.107	778.75
394.331	805.75
394.556	798.75
394.78	813.75
395.005	836.75
395.229	848.75
395.454	854.75
395.678	907.75
395.903	919.75
396.127	861.75
396.352	887.75
396.576	953.75
396.801	963.75
397.025	1069.75
397.249	1107.75
397.474	932.75
397.698	909.75
397.922	988.75
398.147	901.75
398.371	893.75
398.595	961.75
398.82	958.75
399.044	909.75
399.268	1013.75
399.492	1033.75
399.717	1034.75
399.941	1089.75
400.165	1042.75
400.389	1029.75
400.613	1037.75
400.837	1005.75
401.062	939.75
401.286	921.75
401.51	911.75
401.734	870.75
401.958	899.75
402.182	889.75
402.406	886.75
402.63	916.75
402.854	956.75
403.078	1053.75
403.302	1288.75
403.526	1319.75
403.75	1189.75
403.974	1035.75
404.198	1083.75
404.422	1224.75
404.645	1374.75
404.869	1509.75
405.093	1151.75
405.317	990.75
405.541	993.75
405.765	999.75
405.988	1011.75
406.212	1070.75
406.436	1268.75
406.66	1395.75
406.883	1113.75
407.107	1127.75
407.331	1326.75
407.555	1283.75
407.778	1103.75
408.002	1050.75
408.226	1017.75
408.449	1023.75
408.673	1005.75
408.896	946.75
409.12	937.75
409.344	902.75
409.567	903.75
409.791	901.75
410.014	885.75
410.238	870.75
410.461	910.75
410.685	883.75
410.908	901.75
411.132	939.75
411.355	935.75
411.578	933.75
411.802	926.75
412.025	954.75
412.249	977.75
412.472	945.75
412.695	949.75
412.919	958.75
413.142	942.75
413.365	1037.75
413.589	1027.75
413.812	952.75
414.035	925.75
414.258	936.75
414.482	1049.75
414.705	1060.75
414.928	895.75
415.151	865.75
415.374	859.75
415.597	927.75
415.821	907.75
416.044	879.75
416.267	878.75
416.49	858.75
416.713	874.75
416.936	867.75
417.159	857.75
417.382	871.75
417.605	887.75
417.828	893.75
418.051	903.75
418.274	934.75
418.497	929.75
418.72	920.75
418.943	946.75
419.166	994.75
419.389	980.75
419.611	987.75
419.834	1005.75
420.057	1121.75
420.28	1115.75
420.503	1035.75
420.726	892.75
420.948	867.75
421.171	899.75
421.394	882.75
421.617	831.75
421.839	887.75
422.062	929.75
422.285	914.75
422.507	901.75
422.73	929.75
422.953	957.75
423.175	912.75
423.398	926.75
423.621	982.75
423.843	1055.75
424.066	971.75
424.288	929.75
424.511	891.75
424.733	887.75
424.956	941.75
425.178	1050.75
425.401	1245.75
425.623	1341.75
425.846	1118.75
426.068	975.75
426.291	1101.75
426.513	1009.75
426.735	956.75
426.958	997.75
427.18	1151.75
427.402	1454.75
427.625	1436.75
427.847	1160.75
428.069	906.75
428.292	894.75
428.514	877.75
428.736	877.75
428.958	957.75
429.181	1092.75
429.403	953.75
429.625	886.75
429.847	872.75
430.069	878.75
430.292	888.75
430.514	875.75
430.736	943.75
430.958	1161.75
431.18	1058.75
431.402	831.75
431.624	795.75
431.846	801.75
432.068	799.75
432.29	801.75
432.512	894.75
432.734	1196.75
432.956	1093.75
433.178	843.75
433.4	832.75
433.622	858.75
433.844	887.75
434.066	936.75
434.287	907.75
434.509	881.75
434.731	937.75
434.953	853.75
435.175	905.75
435.397	1029.75
435.618	882.75
435.84	817.75
436.062	829.75
436.284	846.75
436.505	791.75
436.727	780.75
436.949	806.75
437.17	838.75
437.392	860.75
437.614	833.75
437.835	811.75
438.057	865.75
438.278	941.75
438.5	1337.75
438.721	1367.75
438.943	971.75
439.165	809.75
439.386	777.75
439.608	788.75
439.829	781.75
440.05	783.75
440.272	834.75
440.493	995.75
440.715	1193.75
440.936	958.75
441.158	845.75
441.379	855.75
441.6	949.75
441.822	1003.75
442.043	870.75
442.264	864.75
442.486	876.75
442.707	857.75
442.928	844.75
443.149	895.75
443.371	885.75
443.592	919.75
443.813	924.75
444.034	890.75
444.255	911.75
444.476	935.75
444.698	905.75
444.919	933.75
445.14	1048.75
445.361	1009.75
445.582	980.75
445.803	926.75
446.024	925.75
446.245	933.75
446.466	922.75
446.687	883.75
446.908	883.75
447.129	857.75
447.35	787.75
447.571	799.75
447.792	773.75
448.013	783.75
448.234	767.75
448.455	764.75
448.675	780.75
448.896	773.75
449.117	796.75
449.338	819.75
449.559	800.75
449.779	884.75
450	883.75
450.221	846.75
450.442	806.75
450.662	797.75
450.883	821.75
451.104	801.75
451.324	782.75
451.545	787.75
451.766	803.75
451.986	796.75
452.207	761.75
452.428	743.75
452.648	787.75
452.869	816.75
453.089	807.75
453.31	811.75
453.53	742.75
453.751	730.75
453.971	758.75
454.192	749.75
454.412	797.75
454.633	748.75
454.853	727.75
455.073	741.75
455.294	723.75
455.514	733.75
455.734	776.75
455.955	830.75
456.175	833.75
456.395	733.75
456.616	721.75
456.836	715.75
457.056	719.75
457.276	707.75
457.497	718.75
457.717	717.75
457.937	699.75
458.157	721.75
458.377	729.75
458.598	755.75
458.818	761.75
459.038	794.75
459.258	795.75
459.478	846.75
459.698	879.75
459.918	906.75
460.138	862.75
460.358	887.75
460.578	844.75
460.798	881.75
461.018	871.75
461.238	842.75
461.458	856.75
461.678	880.75
461.898	925.75
462.118	914.75
462.338	933.75
462.558	960.75
462.777	1004.75
462.997	990.75
463.217	1021.75
463.437	1027.75
463.657	984.75
463.876	955.75
464.096	965.75
464.316	957.75
464.536	983.75
464.755	1023.75
464.975	1035.75
465.195	986.75
465.414	985.75
465.634	941.75
465.854	917.75
466.073	851.75
466.293	870.75
466.512	916.75
466.732	1005.75
466.951	1011.75
467.171	923.75
467.391	871.75
467.61	872.75
467.829	957.75
468.049	911.75
468.268	874.75
468.488	865.75
468.707	897.75
468.927	1069.75
469.146	1167.75
469.365	1053.75
469.585	940.75
469.804	985.75
470.023	1078.75
470.243	958.75
470.462	937.75
470.681	901.75
470.901	914.75
471.12	977.75
471.339	961.75
471.558	918.75
471.777	931.75
471.997	984.75
472.216	1112.75
472.435	1045.75
472.654	954.75
472.873	932.75
473.092	988.75
473.311	1056.75
473.53	935.75
473.749	935.75
473.968	963.75
474.187	963.75
474.406	933.75
474.625	919.75
474.844	936.75
475.063	1007.75
475.282	1007.75
475.501	1058.75
475.72	1102.75
475.939	1102.75
476.158	1088.75
476.377	1260.75
476.596	1407.75
476.814	1469.75
477.033	1235.75
477.252	1042.75
477.471	982.75
477.69	997.75
477.908	1103.75
478.127	1147.75
478.346	1082.75
478.564	1109.75
478.783	1062.75
479.002	1149.75
479.22	1279.75
479.439	1433.75
479.658	1229.75
479.876	1112.75
480.095	1195.75
480.313	1234.75
480.532	1121.75
480.751	1077.75
480.969	1110.75
481.188	1279.75
481.406	1325.75
481.624	1207.75
481.843	1111.75
482.061	1079.75
482.28	1202.75
482.498	1443.75
482.717	1370.75
482.935	1209.75
483.153	1136.75
483.372	1056.75
483.59	1052.75
483.808	1073.75
484.027	1010.75
484.245	1025.75
484.463	971.75
484.681	1020.75
484.9	1095.75
485.118	1222.75
485.336	1132.75
485.554	1031.75
485.772	1075.75
485.99	1150.75
486.209	1235.75
486.427	1221.75
486.645	1198.75
486.863	1231.75
487.081	1219.75
487.299	1368.75
487.517	1324.75
487.735	1175.75
487.953	1194.75
488.171	1266.75
488.389	1167.75
488.607	1111.75
488.825	1147.75
489.043	1267.75
489.261	1414.75
489.479	1525.75
489.696	1273.75
489.914	1171.75
490.132	1088.75
490.35	1111.75
490.568	1114.75
490.786	1097.75
491.003	1127.75
491.221	1124.75
491.439	1115.75
491.657	1137.75
491.874	1221.75
492.092	1467.75
492.31	1712.75
492.527	1696.75
492.745	1505.75
492.963	1339.75
493.18	1304.75
493.398	1305.75
493.615	1312.75
493.833	1224.75
494.05	1223.75
494.268	1277.75
494.485	1219.75
494.703	1186.75
494.92	1241.75
495.138	1183.75
495.355	1209.75
495.573	1227.75
495.79	1344.75
496.008	1742.75
496.225	1540.75
496.442	1355.75
496.66	1329.75
496.877	1402.75
497.094	1390.75
497.312	1287.75
497.529	1299.75
497.746	1337.75
497.963	1374.75
498.181	1454.75
498.398	1559.75
498.615	1622.75
498.832	1690.75
499.049	1661.75
499.267	1546.75
499.484	1487.75
499.701	1623.75
499.918	1736.75
500.135	1852.75
500.352	1913.75
500.569	1923.75
500.786	1996.75
501.003	2022.75
501.22	1773.75
501.437	1705.75
501.654	1647.75
501.871	1625.75
502.088	1623.75
502.305	1471.75
502.522	1501.75
502.739	1474.75
502.956	1379.75
503.172	1377.75
503.389	1307.75
503.606	1290.75
503.823	1269.75
504.04	1305.75
504.256	1301.75
504.473	1316.75
504.69	1366.75
504.907	1399.75
505.123	1324.75
505.34	1445.75
505.557	1388.75
505.773	1299.75
505.99	1285.75
506.207	1377.75
506.423	1265.75
506.64	1184.75
506.856	1282.75
507.073	1353.75
507.289	1319.75
507.506	1314.75
507.722	1391.75
507.939	1403.75
508.155	1427.75
508.372	1267.75
508.588	1220.75
508.805	1197.75
509.021	1193.75
509.238	1162.75
509.454	1148.75
509.67	1131.75
509.887	1167.75
510.103	1329.75
510.319	1297.75
510.536	1185.75
510.752	1057.75
510.968	1054.75
511.184	1017.75
511.401	1030.75
511.617	1032.75
511.833	1046.75
512.049	1046.75
512.265	1075.75
512.481	1113.75
512.698	1230.75
512.914	1364.75
513.13	1227.75
513.346	1116.75
513.562	1153.75
513.778	1131.75
513.994	1152.75
514.21	1195.75
514.426	1181.75
514.642	1165.75
514.858	1145.75
515.074	1191.75
515.29	1292.75
515.506	1418.75
515.721	1326.75
515.937	1220.75
516.153	1165.75
516.369	1168.75
516.585	1237.75
516.801	1417.75
517.016	1572.75
517.232	1525.75
517.448	1518.75
517.664	1363.75
517.879	1264.75
518.095	1251.75
518.311	1240.75
518.527	1299.75
518.742	1352.75
518.958	1446.75
519.173	1381.75
519.389	1333.75
519.605	1353.75
519.82	1463.75
520.036	1715.75
520.251	1690.75
520.467	1554.75
520.682	2276.75
520.898	2777.75
521.113	2659.75
521.329	1667.75
521.544	1501.75
521.76	1469.75
521.975	1303.75
522.19	1275.75
522.406	1299.75
522.621	1441.75
522.836	1478.75
523.052	1525.75
523.267	1270.75
523.482	1286.75
523.698	1362.75
523.913	1281.75
524.128	1171.75
524.343	1140.75
524.559	1167.75
524.774	1118.75
524.989	1130.75
525.204	1205.75
525.419	1290.75
525.634	1239.75
525.849	1231.75
526.064	1256.75
526.28	1266.75
526.495	1479.75
526.71	1517.75
526.925	1338.75
527.14	1361.75
527.355	1311.75
527.57	1127.75
527.785	1194.75
527.999	1133.75
528.214	1044.75
528.429	1061.75
528.644	1069.75
528.859	999.75
529.074	991.75
529.289	958.75
529.503	996.75
529.718	1023.75
529.933	1153.75
530.148	1190.75
530.363	1068.75
530.577	1007.75
530.792	998.75
531.007	1005.75
531.221	975.75
531.436	969.75
531.651	1004.75
531.865	980.75
532.08	1022.75
532.295	982.75
532.509	1035.75
532.724	1146.75
532.938	1282.75
533.153	1474.75
533.367	1187.75
533.582	1152.75
533.796	1070.75
534.011	1049.75
534.225	1061.75
534.44	1043.75
534.654	1070.75
534.868	1248.75
535.083	1122.75
535.297	1013.75
535.511	1031.75
535.726	1106.75
535.94	1057.75
536.154	1028.75
536.369	986.75
536.583	976.75
536.797	1010.75
537.011	1033.75
537.225	1081.75
537.44	1167.75
537.654	1012.75
537.868	996.75
538.082	1007.75
538.296	999.75
538.51	1064.75
538.724	1092.75
538.938	1027.75
539.153	994.75
539.367	974.75
539.581	994.75
539.795	1027.75
540.009	1110.75
540.222	1021.75
540.436	1012.75
540.65	1117.75
540.864	1140.75
541.078	1163.75
541.292	1322.75
541.506	1094.75
541.72	1054.75
541.934	1027.75
542.147	1010.75
542.361	1021.75
542.575	1057.75
542.789	1032.75
543.002	943.75
543.216	1057.75
543.43	937.75
543.644	932.75
543.857	939.75
544.071	948.75
544.285	945.75
544.498	911.75
544.712	901.75
544.925	1007.75
545.139	946.75
545.352	898.75
545.566	893.75
545.779	1039.75
545.993	942.75
546.206	872.75
546.42	896.75
546.633	863.75
546.847	841.75
547.06	846.75
547.274	845.75
547.487	870.75
547.7	949.75
547.914	1031.75
548.127	1115.75
548.34	1077.75
548.554	963.75
548.767	1003.75
548.98	1034.75
549.193	982.75
549.407	1004.75
549.62	1180.75
549.833	1125.75
550.046	1134.75
550.259	1142.75
550.473	1035.75
550.686	970.75
550.899	980.75
551.112	985.75
551.325	1031.75
551.538	1096.75
551.751	955.75
551.964	911.75
552.177	897.75
552.39	861.75
552.603	857.75
552.816	923.75
553.029	883.75
553.242	870.75
553.455	911.75
553.667	1019.75
553.88	967.75
554.093	895.75
554.306	827.75
554.519	789.75
554.732	782.75
554.944	772.75
555.157	738.75
555.37	773.75
555.583	800.75
555.795	773.75
556.008	769.75
556.221	806.75
556.433	775.75
556.646	782.75
556.859	808.75
557.071	791.75
557.284	814.75
557.496	813.75
557.709	807.75
557.921	782.75
558.134	747.75
558.346	749.75
558.559	729.75
558.771	775.75
558.984	788.75
559.196	757.75
559.409	778.75
559.621	705.75
559.833	710.75
560.046	704.75
560.258	728.75
560.47	742.75
560.683	721.75
560.895	673.75
561.107	655.75
561.32	675.75
561.532	659.75
561.744	767.75
561.956	777.75
562.168	724.75
562.381	710.75
562.593	712.75
562.805	761.75
563.017	711.75
563.229	675.75
563.441	685.75
563.653	665.75
563.865	690.75
564.077	705.75
564.289	666.75
564.501	671.75
564.713	766.75
564.925	710.75
565.137	687.75
565.349	693.75
565.561	708.75
565.773	704.75
565.985	733.75
566.197	770.75
566.408	847.75
566.62	843.75
566.832	838.75
567.044	871.75
567.255	902.75
567.467	961.75
567.679	871.75
567.891	861.75
568.102	903.75
568.314	897.75
568.526	874.75
568.737	819.75
568.949	876.75
569.161	774.75
569.372	701.75
569.584	689.75
569.795	685.75
570.007	681.75
570.218	723.75
570.43	725.75
570.641	690.75
570.853	689.75
571.064	658.75
571.276	662.75
571.487	712.75
571.698	669.75
571.91	675.75
572.121	658.75
572.333	624.75
572.544	605.75
572.755	609.75
572.966	602.75
573.178	617.75
573.389	659.75
573.6	624.75
573.811	633.75
574.023	586.75
574.234	579.75
574.445	583.75
574.656	554.75
574.867	580.75
575.078	597.75
575.289	598.75
575.501	620.75
575.712	598.75
575.923	569.75
576.134	546.75
576.345	555.75
576.556	543.75
576.767	510.75
576.978	523.75
577.188	522.75
577.399	516.75
577.61	530.75
577.821	540.75
578.032	524.75
578.243	559.75
578.454	555.75
578.665	575.75
578.875	571.75
579.086	550.75
579.297	566.75
579.508	542.75
579.718	563.75
579.929	537.75
580.14	534.75
580.35	503.75
580.561	477.75
580.772	500.75
580.982	501.75
581.193	468.75
581.403	467.75
581.614	478.75
581.825	459.75
582.035	474.75
582.246	443.75
582.456	486.75
582.667	477.75
582.877	467.75
583.087	458.75
583.298	472.75
583.508	442.75
583.719	476.75
583.929	438.75
584.139	465.75
584.35	475.75
584.56	482.75
584.77	470.75
584.981	485.75
585.191	474.75
585.401	435.75
585.611	495.75
585.821	488.75
586.032	492.75
586.242	483.75
586.452	493.75
586.662	478.75
586.872	474.75
587.082	478.75
587.292	471.75
587.502	468.75
587.713	460.75
587.923	459.75
588.133	507.75
588.343	503.75
588.553	439.75
588.762	440.75
588.972	482.75
589.182	468.75
589.392	445.75
589.602	461.75
589.812	487.75
590.022	509.75
590.232	487.75
590.441	461.75
590.651	443.75
590.861	457.75
591.071	456.75
591.281	442.75
591.49	443.75
591.7	439.75
591.91	460.75
592.119	452.75
592.329	445.75
592.539	481.75
592.748	482.75
592.958	482.75
593.167	480.75
593.377	478.75
593.587	496.75
593.796	487.75
594.006	480.75
594.215	478.75
594.424	494.75
594.634	478.75
594.843	463.75
595.053	481.75
595.262	459.75
595.472	443.75
595.681	421.75
595.89	440.75
596.1	435.75
596.309	429.75
596.518	423.75
596.727	436.75
596.937	427.75
597.146	425.75
597.355	452.75
597.564	447.75
597.774	411.75
597.983	406.75
598.192	417.75
598.401	387.75
598.61	391.75
598.819	384.75
599.028	389.75
599.237	399.75
599.446	381.75
599.655	388.75
599.864	375.75
600.073	371.75
600.282	379.75
600.491	395.75
600.7	390.75
600.909	384.75
601.118	379.75
601.327	370.75
601.536	378.75
601.745	371.75
601.953	394.75
602.162	392.75
602.371	416.75
602.58	404.75
602.789	389.75
602.997	393.75
603.206	398.75
603.415	397.75
603.623	371.75
603.832	371.75
604.041	374.75
604.249	362.75
604.458	389.75
604.666	349.75
604.875	337.75
605.084	343.75
605.292	342.75
605.501	374.75
605.709	381.75
605.918	353.75
606.126	348.75
606.334	370.75
606.543	365.75
606.751	362.75
606.96	349.75
607.168	335.75
607.376	361.75
607.585	365.75
607.793	355.75
608.001	363.75
608.21	369.75
608.418	368.75
608.626	336.75
608.834	355.75
609.043	381.75
609.251	350.75
609.459	342.75
609.667	346.75
609.875	361.75
610.083	353.75
610.291	358.75
610.499	364.75
610.707	335.75
610.916	338.75
611.124	337.75
611.332	343.75
611.54	320.75
611.748	325.75
611.955	349.75
612.163	334.75
612.371	345.75
612.579	334.75
612.787	341.75
612.995	334.75
613.203	329.75
613.411	316.75
613.618	318.75
613.826	353.75
614.034	361.75
614.242	346.75
614.449	324.75
614.657	331.75
614.865	325.75
615.072	336.75
615.28	343.75
615.488	329.75
615.695	346.75
615.903	313.75
616.111	330.75
616.318	314.75
616.526	335.75
616.733	313.75
616.941	321.75
617.148	323.75
617.356	324.75
617.563	323.75
617.771	344.75
617.978	327.75
618.185	317.75
618.393	335.75
618.6	319.75
618.807	326.75
619.015	332.75
619.222	310.75
619.429	319.75
619.637	313.75
619.844	314.75
620.051	308.75
620.258	298.75
620.466	295.75
620.673	292.75
620.88	297.75
621.087	281.75
621.294	307.75
621.501	311.75
621.708	316.75
621.915	286.75
622.122	301.75
622.329	315.75
622.536	310.75
622.743	300.75
622.95	306.75
623.157	305.75
623.364	324.75
623.571	302.75
623.778	307.75
623.985	300.75
624.192	291.75
624.399	305.75
624.606	305.75
624.812	290.75
625.019	300.75
625.226	322.75
625.433	315.75
625.639	281.75
625.846	293.75
626.053	293.75
626.259	270.75
626.466	303.75
626.673	312.75
626.879	280.75
627.086	270.75
627.293	276.75
627.499	266.75
627.706	283.75
627.912	280.75
628.119	266.75
628.325	255.75
628.532	273.75
628.738	280.75
628.945	269.75
629.151	268.75
629.357	266.75
629.564	258.75
629.77	250.75
629.976	257.75
630.183	250.75
630.389	262.75
630.595	266.75
630.802	261.75
631.008	269.75
631.214	253.75
631.42	267.75
631.627	243.75
631.833	253.75
632.039	274.75
632.245	259.75
632.451	259.75
632.657	237.75
632.863	242.75
633.069	250.75
633.275	262.75
633.481	230.75
633.688	243.75
633.893	261.75
634.099	247.75
634.305	242.75
634.511	228.75
634.717	254.75
634.923	244.75
635.129	236.75
635.335	239.75
635.541	242.75
635.747	229.75
635.952	231.75
636.158	253.75
636.364	240.75
636.57	246.75
636.775	257.75
636.981	244.75
637.187	228.75
637.392	221.75
637.598	241.75
637.804	249.75
638.009	238.75
638.215	229.75
638.421	232.75
638.626	223.75
638.832	221.75
639.037	249.75
639.243	223.75
639.448	231.75
639.654	253.75
639.859	220.75
640.065	226.75
640.27	225.75
640.475	243.75
640.681	231.75
640.886	220.75
641.091	225.75
641.297	223.75
641.502	225.75
641.707	212.75
641.913	221.75
642.118	215.75
642.323	234.75
642.528	244.75
642.733	229.75
642.939	222.75
643.144	222.75
643.349	222.75
643.554	220.75
643.759	213.75
643.964	206.75
644.169	205.75
644.374	215.75
644.579	201.75
644.784	200.75
644.989	204.75
645.194	213.75
645.399	211.75
645.604	211.75
645.809	206.75
646.014	219.75
646.219	211.75
646.423	214.75
646.628	199.75
646.833	204.75
647.038	214.75
647.243	209.75
647.447	213.75
647.652	222.75
647.857	214.75
648.062	221.75
648.266	229.75
648.471	217.75
648.676	190.75
648.88	214.75
649.085	217.75
649.289	187.75
649.494	201.75
649.698	220.75
649.903	208.75
650.107	212.75
650.312	201.75
650.516	196.75
650.721	198.75
650.925	196.75
651.13	189.75
651.334	185.75
651.539	189.75
651.743	175.75
651.947	192.75
652.152	183.75
652.356	193.75
652.56	179.75
652.764	180.75
652.969	183.75
653.173	186.75
653.377	177.75
653.581	158.75
653.785	157.75
653.99	162.75
654.194	155.75
654.398	165.75
654.602	167.75
654.806	152.75
655.01	166.75
655.214	178.75
655.418	172.75
655.622	179.75
655.826	163.75
656.03	173.75
656.234	177.75
656.438	169.75
656.642	159.75
656.846	163.75
657.049	149.75
657.253	143.75
657.457	147.75
657.661	152.75
657.865	140.75
658.068	146.75
658.272	137.75
658.476	131.75
658.68	130.75
658.883	122.75
659.087	129.75
659.291	113.75
659.494	113.75
659.698	118.75
659.901	119.75
660.105	108.75
660.309	113.75
660.512	115.75
660.716	104.75
660.919	113.75
661.123	109.75
661.326	119.75
661.53	102.75
661.733	96.75
661.936	103.75
662.14	102.75
662.343	96.75
662.546	93.75
662.75	73.75
662.953	97.75
663.156	97.75
663.36	87.75
663.563	102.75
663.766	92.75
663.969	95.75
664.173	82.75
664.376	92.75
664.579	84.75
664.782	106.75
664.985	89.75
665.188	83.75
665.391	78.75
665.594	94.75
665.797	86.75
666	86.75
666.203	80.75
666.406	95.75
666.609	101.75
666.812	90.75
667.015	82.75
667.218	96.75
667.421	82.75
667.624	91.75
667.827	100.75
668.03	94.75
668.232	100.75
668.435	93.75
668.638	88.75
668.841	95.75
669.043	86.75
669.246	78.75
669.449	94.75
669.651	99.75
669.854	92.75
670.057	76.75
670.259	82.75
670.462	85.75
670.665	84.75
670.867	92.75
671.07	92.75
671.272	86.75
671.475	99.75
671.677	89.75
671.88	75.75
672.082	91.75
672.284	84.75
672.487	90.75
672.689	78.75
672.892	78.75
