Data from NickelSpatula.Lamp.E5.5.P2_HRD10591_11-53-50-547.txt Node
Date: Tue Jul 23 11:53:50 EDT 2019
User: cochatt
Spectrometer: HR+D1059
Trigger mode: 1
Integration Time (sec): 1.000000E-1
Scans to average: 1
Electric dark correction enabled: true
Nonlinearity correction enabled: false
Boxcar width: 0
XAxis mode: Wavelengths
Number of Pixels in Spectrum: 2048
>>>>>Begin Spectral Data<<<<<
223.165	-0.12
223.4	-0.12
223.635	-0.12
223.869	-20.12
224.104	-13.12
224.338	-13.12
224.573	-9.12
224.808	-5.12
225.042	-14.12
225.277	-13.12
225.511	-10.12
225.746	-9.12
225.98	7.88
226.215	12.88
226.449	10.88
226.683	16.88
226.918	27.88
227.152	30.88
227.387	35.88
227.621	58.88
227.856	36.88
228.09	49.88
228.324	40.88
228.559	57.88
228.793	69.88
229.027	79.88
229.262	59.88
229.496	69.88
229.73	76.88
229.964	83.88
230.199	101.88
230.433	90.88
230.667	99.88
230.901	102.88
231.136	100.88
231.37	92.88
231.604	91.88
231.838	94.88
232.072	103.88
232.306	98.88
232.541	97.88
232.775	107.88
233.009	99.88
233.243	100.88
233.477	131.88
233.711	111.88
233.945	124.88
234.179	109.88
234.413	125.88
234.647	128.88
234.881	134.88
235.115	135.88
235.349	144.88
235.583	111.88
235.817	101.88
236.051	127.88
236.285	138.88
236.519	152.88
236.753	132.88
236.987	129.88
237.221	127.88
237.455	109.88
237.689	129.88
237.922	137.88
238.156	138.88
238.39	149.88
238.624	175.88
238.858	149.88
239.091	128.88
239.325	152.88
239.559	135.88
239.793	144.88
240.027	177.88
240.26	162.88
240.494	150.88
240.728	152.88
240.961	168.88
241.195	176.88
241.429	171.88
241.662	141.88
241.896	139.88
242.13	128.88
242.363	128.88
242.597	143.88
242.83	162.88
243.064	149.88
243.298	176.88
243.531	160.88
243.765	159.88
243.998	161.88
244.232	150.88
244.465	160.88
244.699	147.88
244.932	163.88
245.166	156.88
245.399	167.88
245.633	134.88
245.866	152.88
246.099	162.88
246.333	184.88
246.566	192.88
246.8	188.88
247.033	175.88
247.266	164.88
247.5	172.88
247.733	155.88
247.966	166.88
248.2	173.88
248.433	180.88
248.666	206.88
248.899	201.88
249.133	179.88
249.366	213.88
249.599	225.88
249.832	204.88
250.066	191.88
250.299	209.88
250.532	194.88
250.765	181.88
250.998	191.88
251.231	189.88
251.465	185.88
251.698	184.88
251.931	193.88
252.164	187.88
252.397	221.88
252.63	237.88
252.863	242.88
253.096	263.88
253.329	245.88
253.562	238.88
253.795	275.88
254.028	282.88
254.261	291.88
254.494	271.88
254.727	241.88
254.96	237.88
255.193	268.88
255.426	252.88
255.659	206.88
255.892	188.88
256.124	199.88
256.357	220.88
256.59	269.88
256.823	247.88
257.056	232.88
257.289	205.88
257.521	227.88
257.754	251.88
257.987	281.88
258.22	258.88
258.452	225.88
258.685	246.88
258.918	286.88
259.151	259.88
259.383	278.88
259.616	344.88
259.849	339.88
260.081	328.88
260.314	379.88
260.547	303.88
260.779	317.88
261.012	361.88
261.244	325.88
261.477	351.88
261.71	324.88
261.942	255.88
262.175	288.88
262.407	259.88
262.64	271.88
262.872	294.88
263.105	349.88
263.337	355.88
263.57	317.88
263.802	241.88
264.035	223.88
264.267	213.88
264.499	190.88
264.732	173.88
264.964	167.88
265.197	179.88
265.429	180.88
265.661	200.88
265.894	204.88
266.126	214.88
266.358	224.88
266.591	285.88
266.823	317.88
267.055	321.88
267.287	259.88
267.52	270.88
267.752	296.88
267.984	333.88
268.216	306.88
268.448	259.88
268.681	238.88
268.913	253.88
269.145	276.88
269.377	282.88
269.609	278.88
269.841	260.88
270.073	287.88
270.306	301.88
270.538	307.88
270.77	305.88
271.002	307.88
271.234	311.88
271.466	333.88
271.698	318.88
271.93	292.88
272.162	305.88
272.394	288.88
272.626	271.88
272.858	294.88
273.09	309.88
273.322	260.88
273.553	238.88
273.785	301.88
274.017	375.88
274.249	457.88
274.481	470.88
274.713	512.88
274.945	561.88
275.176	585.88
275.408	532.88
275.64	477.88
275.872	474.88
276.104	441.88
276.335	379.88
276.567	383.88
276.799	393.88
277.031	399.88
277.262	352.88
277.494	273.88
277.726	263.88
277.957	289.88
278.189	304.88
278.421	288.88
278.652	289.88
278.884	289.88
279.115	272.88
279.347	232.88
279.579	250.88
279.81	281.88
280.042	268.88
280.273	268.88
280.505	267.88
280.736	215.88
280.968	228.88
281.199	256.88
281.431	251.88
281.662	269.88
281.894	264.88
282.125	287.88
282.356	287.88
282.588	300.88
282.819	253.88
283.051	271.88
283.282	337.88
283.513	368.88
283.745	437.88
283.976	422.88
284.207	383.88
284.439	398.88
284.67	409.88
284.901	360.88
285.132	377.88
285.364	392.88
285.595	357.88
285.826	393.88
286.057	399.88
286.288	373.88
286.52	396.88
286.751	432.88
286.982	425.88
287.213	350.88
287.444	337.88
287.675	363.88
287.906	369.88
288.138	316.88
288.369	302.88
288.6	261.88
288.831	284.88
289.062	335.88
289.293	359.88
289.524	333.88
289.755	317.88
289.986	315.88
290.217	315.88
290.448	257.88
290.679	220.88
290.91	196.88
291.141	207.88
291.371	203.88
291.602	207.88
291.833	228.88
292.064	236.88
292.295	254.88
292.526	295.88
292.757	289.88
292.987	306.88
293.218	327.88
293.449	329.88
293.68	377.88
293.91	342.88
294.141	363.88
294.372	335.88
294.603	301.88
294.833	336.88
295.064	386.88
295.295	387.88
295.525	285.88
295.756	246.88
295.987	224.88
296.217	228.88
296.448	236.88
296.679	222.88
296.909	251.88
297.14	244.88
297.37	289.88
297.601	271.88
297.831	252.88
298.062	267.88
298.292	317.88
298.523	301.88
298.753	361.88
298.984	317.88
299.214	274.88
299.445	243.88
299.675	239.88
299.905	230.88
300.136	227.88
300.366	244.88
300.597	232.88
300.827	225.88
301.057	209.88
301.288	217.88
301.518	237.88
301.748	255.88
301.979	277.88
302.209	294.88
302.439	301.88
302.669	258.88
302.9	271.88
303.13	260.88
303.36	245.88
303.59	228.88
303.82	246.88
304.051	259.88
304.281	275.88
304.511	285.88
304.741	253.88
304.971	271.88
305.201	258.88
305.431	261.88
305.661	226.88
305.891	243.88
306.121	218.88
306.352	191.88
306.582	208.88
306.812	203.88
307.042	200.88
307.272	177.88
307.502	179.88
307.731	195.88
307.961	204.88
308.191	199.88
308.421	177.88
308.651	196.88
308.881	175.88
309.111	194.88
309.341	185.88
309.571	207.88
309.8	215.88
310.03	211.88
310.26	217.88
310.49	215.88
310.72	198.88
310.949	201.88
311.179	212.88
311.409	201.88
311.639	238.88
311.868	282.88
312.098	349.88
312.328	379.88
312.557	358.88
312.787	367.88
313.017	343.88
313.246	356.88
313.476	376.88
313.706	295.88
313.935	275.88
314.165	218.88
314.394	197.88
314.624	224.88
314.853	229.88
315.083	238.88
315.312	222.88
315.542	219.88
315.771	207.88
316.001	201.88
316.23	201.88
316.46	180.88
316.689	185.88
316.919	212.88
317.148	214.88
317.377	195.88
317.607	203.88
317.836	207.88
318.065	237.88
318.295	259.88
318.524	221.88
318.753	224.88
318.983	221.88
319.212	184.88
319.441	214.88
319.67	234.88
319.9	249.88
320.129	220.88
320.358	208.88
320.587	209.88
320.816	203.88
321.046	262.88
321.275	270.88
321.504	247.88
321.733	255.88
321.962	222.88
322.191	249.88
322.42	216.88
322.649	236.88
322.878	251.88
323.108	216.88
323.337	231.88
323.566	245.88
323.795	220.88
324.024	214.88
324.253	216.88
324.482	216.88
324.71	232.88
324.939	246.88
325.168	226.88
325.397	208.88
325.626	203.88
325.855	211.88
326.084	207.88
326.313	209.88
326.542	193.88
326.77	186.88
326.999	214.88
327.228	217.88
327.457	219.88
327.686	222.88
327.914	201.88
328.143	188.88
328.372	197.88
328.6	193.88
328.829	197.88
329.058	199.88
329.287	201.88
329.515	207.88
329.744	205.88
329.972	206.88
330.201	181.88
330.43	200.88
330.658	221.88
330.887	240.88
331.115	219.88
331.344	215.88
331.572	208.88
331.801	202.88
332.03	204.88
332.258	196.88
332.486	214.88
332.715	229.88
332.943	221.88
333.172	199.88
333.4	227.88
333.629	235.88
333.857	249.88
334.085	246.88
334.314	241.88
334.542	235.88
334.771	208.88
334.999	235.88
335.227	216.88
335.455	231.88
335.684	231.88
335.912	244.88
336.14	257.88
336.369	267.88
336.597	269.88
336.825	272.88
337.053	295.88
337.281	269.88
337.51	211.88
337.738	213.88
337.966	209.88
338.194	252.88
338.422	236.88
338.65	214.88
338.878	205.88
339.106	215.88
339.334	237.88
339.562	238.88
339.79	212.88
340.018	213.88
340.246	224.88
340.474	253.88
340.702	261.88
340.93	255.88
341.158	274.88
341.386	245.88
341.614	248.88
341.842	221.88
342.07	236.88
342.298	253.88
342.526	291.88
342.754	257.88
342.981	240.88
343.209	215.88
343.437	251.88
343.665	264.88
343.893	237.88
344.12	303.88
344.348	344.88
344.576	303.88
344.804	244.88
345.031	221.88
345.259	212.88
345.487	208.88
345.714	207.88
345.942	232.88
346.17	261.88
346.397	264.88
346.625	220.88
346.853	222.88
347.08	225.88
347.308	231.88
347.535	248.88
347.763	251.88
347.99	236.88
348.218	222.88
348.445	209.88
348.673	213.88
348.9	227.88
349.128	249.88
349.355	230.88
349.583	222.88
349.81	220.88
350.037	211.88
350.265	195.88
350.492	187.88
350.72	184.88
350.947	203.88
351.174	205.88
351.402	198.88
351.629	217.88
351.856	193.88
352.083	193.88
352.311	218.88
352.538	218.88
352.765	228.88
352.992	226.88
353.22	214.88
353.447	223.88
353.674	220.88
353.901	202.88
354.128	222.88
354.355	207.88
354.583	214.88
354.81	225.88
355.037	229.88
355.264	228.88
355.491	231.88
355.718	238.88
355.945	240.88
356.172	246.88
356.399	243.88
356.626	250.88
356.853	316.88
357.08	326.88
357.307	320.88
357.534	293.88
357.761	287.88
357.988	365.88
358.215	383.88
358.441	356.88
358.668	304.88
358.895	289.88
359.122	257.88
359.349	253.88
359.576	302.88
359.802	245.88
360.029	215.88
360.256	230.88
360.483	265.88
360.709	307.88
360.936	330.88
361.163	285.88
361.39	227.88
361.616	218.88
361.843	237.88
362.07	289.88
362.296	249.88
362.523	222.88
362.749	213.88
362.976	209.88
363.203	253.88
363.429	278.88
363.656	229.88
363.882	227.88
364.109	207.88
364.335	221.88
364.562	222.88
364.788	222.88
365.015	261.88
365.241	261.88
365.468	220.88
365.694	197.88
365.92	202.88
366.147	178.88
366.373	186.88
366.599	183.88
366.826	173.88
367.052	195.88
367.278	193.88
367.505	181.88
367.731	198.88
367.957	202.88
368.184	227.88
368.41	218.88
368.636	208.88
368.862	218.88
369.089	215.88
369.315	211.88
369.541	208.88
369.767	199.88
369.993	198.88
370.219	192.88
370.445	199.88
370.672	220.88
370.898	239.88
371.124	225.88
371.35	224.88
371.576	205.88
371.802	194.88
372.028	259.88
372.254	278.88
372.48	235.88
372.706	227.88
372.932	219.88
373.158	251.88
373.384	273.88
373.61	343.88
373.835	355.88
374.061	268.88
374.287	241.88
374.513	282.88
374.739	327.88
374.965	340.88
375.191	345.88
375.416	263.88
375.642	211.88
375.868	254.88
376.094	289.88
376.319	244.88
376.545	259.88
376.771	277.88
376.997	252.88
377.222	220.88
377.448	185.88
377.674	192.88
377.899	192.88
378.125	183.88
378.35	172.88
378.576	185.88
378.802	189.88
379.027	198.88
379.253	207.88
379.478	210.88
379.704	232.88
379.929	225.88
380.155	225.88
380.38	205.88
380.606	229.88
380.831	238.88
381.057	243.88
381.282	222.88
381.507	241.88
381.733	283.88
381.958	309.88
382.184	320.88
382.409	309.88
382.634	333.88
382.86	348.88
383.085	275.88
383.31	259.88
383.535	272.88
383.761	258.88
383.986	241.88
384.211	288.88
384.436	275.88
384.662	231.88
384.887	221.88
385.112	245.88
385.337	247.88
385.562	236.88
385.787	229.88
386.013	254.88
386.238	288.88
386.463	258.88
386.688	240.88
386.913	223.88
387.138	215.88
387.363	216.88
387.588	238.88
387.813	216.88
388.038	237.88
388.263	217.88
388.488	217.88
388.713	234.88
388.938	268.88
389.163	220.88
389.387	207.88
389.612	213.88
389.837	201.88
390.062	220.88
390.287	225.88
390.512	238.88
390.736	219.88
390.961	216.88
391.186	205.88
391.411	196.88
391.636	223.88
391.86	223.88
392.085	228.88
392.31	239.88
392.534	216.88
392.759	225.88
392.984	235.88
393.208	233.88
393.433	212.88
393.658	195.88
393.882	203.88
394.107	219.88
394.331	198.88
394.556	212.88
394.78	198.88
395.005	193.88
395.229	215.88
395.454	201.88
395.678	228.88
395.903	221.88
396.127	216.88
396.352	221.88
396.576	211.88
396.801	239.88
397.025	242.88
397.249	252.88
397.474	204.88
397.698	224.88
397.922	212.88
398.147	211.88
398.371	211.88
398.595	232.88
398.82	229.88
399.044	226.88
399.268	262.88
399.492	284.88
399.717	269.88
399.941	276.88
400.165	264.88
400.389	243.88
400.613	243.88
400.837	242.88
401.062	231.88
401.286	227.88
401.51	220.88
401.734	214.88
401.958	214.88
402.182	212.88
402.406	236.88
402.63	234.88
402.854	236.88
403.078	289.88
403.302	357.88
403.526	347.88
403.75	315.88
403.974	268.88
404.198	284.88
404.422	287.88
404.645	325.88
404.869	314.88
405.093	260.88
405.317	224.88
405.541	234.88
405.765	255.88
405.988	255.88
406.212	251.88
406.436	279.88
406.66	308.88
406.883	277.88
407.107	282.88
407.331	301.88
407.555	304.88
407.778	270.88
408.002	235.88
408.226	255.88
408.449	272.88
408.673	244.88
408.896	234.88
409.12	229.88
409.344	238.88
409.567	213.88
409.791	231.88
410.014	235.88
410.238	225.88
410.461	225.88
410.685	230.88
410.908	239.88
411.132	235.88
411.355	226.88
411.578	235.88
411.802	234.88
412.025	236.88
412.249	235.88
412.472	247.88
412.695	231.88
412.919	237.88
413.142	232.88
413.365	253.88
413.589	239.88
413.812	223.88
414.035	215.88
414.258	231.88
414.482	236.88
414.705	248.88
414.928	226.88
415.151	213.88
415.374	206.88
415.597	220.88
415.821	218.88
416.044	231.88
416.267	209.88
416.49	199.88
416.713	219.88
416.936	220.88
417.159	226.88
417.382	237.88
417.605	196.88
417.828	224.88
418.051	253.88
418.274	226.88
418.497	228.88
418.72	233.88
418.943	228.88
419.166	256.88
419.389	242.88
419.611	261.88
419.834	244.88
420.057	256.88
420.28	243.88
420.503	237.88
420.726	225.88
420.948	224.88
421.171	233.88
421.394	229.88
421.617	209.88
421.839	208.88
422.062	225.88
422.285	232.88
422.507	231.88
422.73	247.88
422.953	222.88
423.175	224.88
423.398	242.88
423.621	250.88
423.843	241.88
424.066	238.88
424.288	241.88
424.511	244.88
424.733	210.88
424.956	252.88
425.178	277.88
425.401	301.88
425.623	334.88
425.846	261.88
426.068	250.88
426.291	259.88
426.513	249.88
426.735	232.88
426.958	241.88
427.18	269.88
427.402	345.88
427.625	340.88
427.847	276.88
428.069	238.88
428.292	211.88
428.514	245.88
428.736	227.88
428.958	242.88
429.181	281.88
429.403	277.88
429.625	219.88
429.847	213.88
430.069	196.88
430.292	221.88
430.514	209.88
430.736	228.88
430.958	248.88
431.18	237.88
431.402	219.88
431.624	216.88
431.846	215.88
432.068	211.88
432.29	208.88
432.512	211.88
432.734	251.88
432.956	265.88
433.178	218.88
433.4	212.88
433.622	207.88
433.844	220.88
434.066	237.88
434.287	211.88
434.509	221.88
434.731	235.88
434.953	231.88
435.175	259.88
435.397	258.88
435.618	241.88
435.84	204.88
436.062	213.88
436.284	228.88
436.505	208.88
436.727	207.88
436.949	218.88
437.17	204.88
437.392	211.88
437.614	211.88
437.835	205.88
438.057	219.88
438.278	209.88
438.5	293.88
438.721	303.88
438.943	222.88
439.165	213.88
439.386	214.88
439.608	208.88
439.829	204.88
440.05	200.88
440.272	223.88
440.493	233.88
440.715	280.88
440.936	242.88
441.158	222.88
441.379	228.88
441.6	228.88
441.822	252.88
442.043	231.88
442.264	210.88
442.486	220.88
442.707	223.88
442.928	221.88
443.149	209.88
443.371	237.88
443.592	230.88
443.813	227.88
444.034	237.88
444.255	240.88
444.476	264.88
444.698	237.88
444.919	257.88
445.14	355.88
445.361	284.88
445.582	255.88
445.803	241.88
446.024	242.88
446.245	230.88
446.466	232.88
446.687	221.88
446.908	199.88
447.129	205.88
447.35	205.88
447.571	205.88
447.792	207.88
448.013	175.88
448.234	192.88
448.455	200.88
448.675	204.88
448.896	209.88
449.117	200.88
449.338	201.88
449.559	213.88
449.779	216.88
450	226.88
450.221	203.88
450.442	203.88
450.662	211.88
450.883	217.88
451.104	201.88
451.324	195.88
451.545	226.88
451.766	213.88
451.986	204.88
452.207	193.88
452.428	203.88
452.648	210.88
452.869	207.88
453.089	217.88
453.31	205.88
453.53	211.88
453.751	200.88
453.971	201.88
454.192	199.88
454.412	188.88
454.633	201.88
454.853	224.88
455.073	193.88
455.294	187.88
455.514	192.88
455.734	198.88
455.955	196.88
456.175	201.88
456.395	195.88
456.616	194.88
456.836	192.88
457.056	189.88
457.276	170.88
457.497	195.88
457.717	199.88
457.937	190.88
458.157	190.88
458.377	185.88
458.598	198.88
458.818	199.88
459.038	198.88
459.258	204.88
459.478	215.88
459.698	203.88
459.918	233.88
460.138	235.88
460.358	238.88
460.578	224.88
460.798	214.88
461.018	222.88
461.238	212.88
461.458	219.88
461.678	233.88
461.898	248.88
462.118	236.88
462.338	248.88
462.558	262.88
462.777	264.88
462.997	266.88
463.217	283.88
463.437	280.88
463.657	288.88
463.876	252.88
464.096	247.88
464.316	245.88
464.536	243.88
464.755	273.88
464.975	273.88
465.195	245.88
465.414	264.88
465.634	219.88
465.854	226.88
466.073	232.88
466.293	209.88
466.512	231.88
466.732	229.88
466.951	254.88
467.171	224.88
467.391	200.88
467.61	215.88
467.829	220.88
468.049	246.88
468.268	223.88
468.488	194.88
468.707	199.88
468.927	241.88
469.146	254.88
469.365	243.88
469.585	231.88
469.804	239.88
470.023	256.88
470.243	234.88
470.462	223.88
470.681	223.88
470.901	230.88
471.12	213.88
471.339	236.88
471.558	211.88
471.777	232.88
471.997	238.88
472.216	263.88
472.435	252.88
472.654	227.88
472.873	242.88
473.092	223.88
473.311	245.88
473.53	221.88
473.749	228.88
473.968	235.88
474.187	231.88
474.406	238.88
474.625	214.88
474.844	227.88
475.063	225.88
475.282	243.88
475.501	265.88
475.72	271.88
475.939	255.88
476.158	253.88
476.377	288.88
476.596	321.88
476.814	320.88
477.033	285.88
477.252	259.88
477.471	220.88
477.69	232.88
477.908	251.88
478.127	265.88
478.346	243.88
478.564	274.88
478.783	256.88
479.002	257.88
479.22	276.88
479.439	312.88
479.658	283.88
479.876	269.88
480.095	262.88
480.313	288.88
480.532	278.88
480.751	270.88
480.969	280.88
481.188	293.88
481.406	293.88
481.624	270.88
481.843	245.88
482.061	233.88
482.28	281.88
482.498	337.88
482.717	304.88
482.935	288.88
483.153	268.88
483.372	259.88
483.59	255.88
483.808	249.88
484.027	231.88
484.245	216.88
484.463	245.88
484.681	248.88
484.9	258.88
485.118	274.88
485.336	253.88
485.554	273.88
485.772	266.88
485.99	283.88
486.209	288.88
486.427	293.88
486.645	292.88
486.863	296.88
487.081	293.88
487.299	284.88
487.517	295.88
487.735	279.88
487.953	285.88
488.171	283.88
488.389	270.88
488.607	277.88
488.825	265.88
489.043	277.88
489.261	301.88
489.479	319.88
489.696	270.88
489.914	275.88
490.132	252.88
490.35	261.88
490.568	259.88
490.786	248.88
491.003	237.88
491.221	250.88
491.439	260.88
491.657	245.88
491.874	268.88
492.092	307.88
492.31	355.88
492.527	348.88
492.745	306.88
492.963	272.88
493.18	295.88
493.398	280.88
493.615	281.88
493.833	289.88
494.05	272.88
494.268	271.88
494.485	281.88
494.703	257.88
494.92	275.88
495.138	287.88
495.355	274.88
495.573	270.88
495.79	302.88
496.008	348.88
496.225	317.88
496.442	299.88
496.66	302.88
496.877	304.88
497.094	303.88
497.312	288.88
497.529	269.88
497.746	298.88
497.963	282.88
498.181	328.88
498.398	347.88
498.615	349.88
498.832	368.88
499.049	390.88
499.267	370.88
499.484	362.88
499.701	405.88
499.918	430.88
500.135	459.88
500.352	503.88
500.569	561.88
500.786	549.88
501.003	507.88
501.22	475.88
501.437	409.88
501.654	383.88
501.871	367.88
502.088	376.88
502.305	348.88
502.522	341.88
502.739	339.88
502.956	317.88
503.172	324.88
503.389	280.88
503.606	283.88
503.823	291.88
504.04	300.88
504.256	313.88
504.473	325.88
504.69	289.88
504.907	317.88
505.123	304.88
505.34	313.88
505.557	300.88
505.773	316.88
505.99	268.88
506.207	277.88
506.423	273.88
506.64	270.88
506.856	279.88
507.073	299.88
507.289	301.88
507.506	269.88
507.722	308.88
507.939	321.88
508.155	320.88
508.372	280.88
508.588	272.88
508.805	270.88
509.021	275.88
509.238	270.88
509.454	253.88
509.67	255.88
509.887	253.88
510.103	289.88
510.319	284.88
510.536	256.88
510.752	231.88
510.968	235.88
511.184	249.88
511.401	231.88
511.617	240.88
511.833	255.88
512.049	239.88
512.265	255.88
512.481	265.88
512.698	263.88
512.914	303.88
513.13	276.88
513.346	246.88
513.562	258.88
513.778	263.88
513.994	251.88
514.21	258.88
514.426	259.88
514.642	261.88
514.858	259.88
515.074	271.88
515.29	289.88
515.506	316.88
515.721	290.88
515.937	285.88
516.153	260.88
516.369	255.88
516.585	261.88
516.801	294.88
517.016	320.88
517.232	316.88
517.448	351.88
517.664	329.88
517.879	318.88
518.095	305.88
518.311	294.88
518.527	319.88
518.742	332.88
518.958	329.88
519.173	315.88
519.389	290.88
519.605	296.88
519.82	317.88
520.036	356.88
520.251	350.88
520.467	344.88
520.682	509.88
520.898	649.88
521.113	639.88
521.329	399.88
521.544	348.88
521.76	320.88
521.975	301.88
522.19	293.88
522.406	293.88
522.621	319.88
522.836	329.88
523.052	323.88
523.267	268.88
523.482	271.88
523.698	289.88
523.913	297.88
524.128	281.88
524.343	271.88
524.559	266.88
524.774	252.88
524.989	272.88
525.204	270.88
525.419	296.88
525.634	281.88
525.849	288.88
526.064	283.88
526.28	286.88
526.495	308.88
526.71	333.88
526.925	328.88
527.14	305.88
527.355	294.88
527.57	265.88
527.785	291.88
527.999	278.88
528.214	261.88
528.429	246.88
528.644	263.88
528.859	236.88
529.074	227.88
529.289	226.88
529.503	236.88
529.718	257.88
529.933	304.88
530.148	306.88
530.363	260.88
530.577	238.88
530.792	230.88
531.007	252.88
531.221	243.88
531.436	221.88
531.651	245.88
531.865	233.88
532.08	248.88
532.295	232.88
532.509	245.88
532.724	244.88
532.938	297.88
533.153	329.88
533.367	279.88
533.582	281.88
533.796	264.88
534.011	261.88
534.225	242.88
534.44	244.88
534.654	266.88
534.868	304.88
535.083	273.88
535.297	238.88
535.511	237.88
535.726	257.88
535.94	243.88
536.154	233.88
536.369	243.88
536.583	228.88
536.797	240.88
537.011	257.88
537.225	253.88
537.44	269.88
537.654	247.88
537.868	218.88
538.082	237.88
538.296	235.88
538.51	265.88
538.724	256.88
538.938	269.88
539.153	218.88
539.367	238.88
539.581	247.88
539.795	241.88
540.009	256.88
540.222	239.88
540.436	244.88
540.65	255.88
540.864	244.88
541.078	270.88
541.292	319.88
541.506	257.88
541.72	227.88
541.934	251.88
542.147	239.88
542.361	260.88
542.575	232.88
542.789	230.88
543.002	228.88
543.216	246.88
543.43	212.88
543.644	245.88
543.857	229.88
544.071	239.88
544.285	226.88
544.498	239.88
544.712	224.88
544.925	235.88
545.139	231.88
545.352	227.88
545.566	229.88
545.779	247.88
545.993	224.88
546.206	212.88
546.42	208.88
546.633	225.88
546.847	195.88
547.06	204.88
547.274	212.88
547.487	227.88
547.7	220.88
547.914	241.88
548.127	262.88
548.34	247.88
548.554	225.88
548.767	236.88
548.98	263.88
549.193	226.88
549.407	246.88
549.62	269.88
549.833	277.88
550.046	261.88
550.259	255.88
550.473	244.88
550.686	242.88
550.899	249.88
551.112	249.88
551.325	248.88
551.538	247.88
551.751	243.88
551.964	223.88
552.177	229.88
552.39	236.88
552.603	226.88
552.816	241.88
553.029	223.88
553.242	231.88
553.455	224.88
553.667	233.88
553.88	228.88
554.093	224.88
554.306	215.88
554.519	199.88
554.732	223.88
554.944	214.88
555.157	205.88
555.37	188.88
555.583	201.88
555.795	206.88
556.008	206.88
556.221	213.88
556.433	228.88
556.646	214.88
556.859	189.88
557.071	210.88
557.284	198.88
557.496	201.88
557.709	202.88
557.921	212.88
558.134	209.88
558.346	187.88
558.559	188.88
558.771	196.88
558.984	215.88
559.196	199.88
559.409	187.88
559.621	197.88
559.833	189.88
560.046	186.88
560.258	197.88
560.47	191.88
560.683	199.88
560.895	172.88
561.107	166.88
561.32	187.88
561.532	179.88
561.744	189.88
561.956	207.88
562.168	182.88
562.381	198.88
562.593	197.88
562.805	193.88
563.017	183.88
563.229	186.88
563.441	193.88
563.653	219.88
563.865	189.88
564.077	213.88
564.289	196.88
564.501	200.88
564.713	195.88
564.925	206.88
565.137	193.88
565.349	207.88
565.561	186.88
565.773	196.88
565.985	202.88
566.197	203.88
566.408	227.88
566.62	238.88
566.832	242.88
567.044	241.88
567.255	273.88
567.467	276.88
567.679	262.88
567.891	269.88
568.102	265.88
568.314	261.88
568.526	247.88
568.737	245.88
568.949	241.88
569.161	215.88
569.372	199.88
569.584	219.88
569.795	202.88
570.007	193.88
570.218	194.88
570.43	196.88
570.641	199.88
570.853	193.88
571.064	185.88
571.276	199.88
571.487	215.88
571.698	205.88
571.91	179.88
572.121	183.88
572.333	180.88
572.544	173.88
572.755	192.88
572.966	183.88
573.178	180.88
573.389	199.88
573.6	201.88
573.811	183.88
574.023	175.88
574.234	173.88
574.445	177.88
574.656	172.88
574.867	179.88
575.078	168.88
575.289	170.88
575.501	194.88
575.712	171.88
575.923	168.88
576.134	164.88
576.345	177.88
576.556	162.88
576.767	171.88
576.978	164.88
577.188	167.88
577.399	172.88
577.61	163.88
577.821	168.88
578.032	178.88
578.243	165.88
578.454	195.88
578.665	171.88
578.875	166.88
579.086	162.88
579.297	168.88
579.508	176.88
579.718	174.88
579.929	158.88
580.14	174.88
580.35	153.88
580.561	150.88
580.772	142.88
580.982	145.88
581.193	149.88
581.403	146.88
581.614	157.88
581.825	165.88
582.035	159.88
582.246	163.88
582.456	163.88
582.667	153.88
582.877	152.88
583.087	148.88
583.298	156.88
583.508	143.88
583.719	154.88
583.929	145.88
584.139	145.88
584.35	154.88
584.56	155.88
584.77	177.88
584.981	151.88
585.191	145.88
585.401	139.88
585.611	158.88
585.821	175.88
586.032	175.88
586.242	165.88
586.452	159.88
586.662	164.88
586.872	179.88
587.082	144.88
587.292	151.88
587.502	161.88
587.713	145.88
587.923	165.88
588.133	177.88
588.343	150.88
588.553	150.88
588.762	155.88
588.972	154.88
589.182	135.88
589.392	136.88
589.602	146.88
589.812	150.88
590.022	172.88
590.232	159.88
590.441	162.88
590.651	159.88
590.861	171.88
591.071	174.88
591.281	156.88
591.49	147.88
591.7	145.88
591.91	160.88
592.119	166.88
592.329	147.88
592.539	147.88
592.748	151.88
592.958	160.88
593.167	157.88
593.377	163.88
593.587	173.88
593.796	179.88
594.006	164.88
594.215	170.88
594.424	173.88
594.634	174.88
594.843	141.88
595.053	175.88
595.262	141.88
595.472	152.88
595.681	145.88
595.89	144.88
596.1	135.88
596.309	151.88
596.518	152.88
596.727	148.88
596.937	136.88
597.146	135.88
597.355	151.88
597.564	150.88
597.774	145.88
597.983	145.88
598.192	139.88
598.401	133.88
598.61	139.88
598.819	157.88
599.028	143.88
599.237	124.88
599.446	137.88
599.655	150.88
599.864	148.88
600.073	149.88
600.282	137.88
600.491	128.88
600.7	127.88
600.909	149.88
601.118	133.88
601.327	153.88
601.536	145.88
601.745	145.88
601.953	134.88
602.162	140.88
602.371	145.88
602.58	154.88
602.789	142.88
602.997	149.88
603.206	136.88
603.415	136.88
603.623	142.88
603.832	132.88
604.041	133.88
604.249	134.88
604.458	128.88
604.666	126.88
604.875	135.88
605.084	134.88
605.292	132.88
605.501	138.88
605.709	132.88
605.918	141.88
606.126	142.88
606.334	128.88
606.543	117.88
606.751	138.88
606.96	131.88
607.168	131.88
607.376	127.88
607.585	147.88
607.793	131.88
608.001	129.88
608.21	134.88
608.418	120.88
608.626	132.88
608.834	135.88
609.043	127.88
609.251	123.88
609.459	132.88
609.667	144.88
609.875	126.88
610.083	145.88
610.291	121.88
610.499	127.88
610.707	120.88
610.916	129.88
611.124	119.88
611.332	136.88
611.54	135.88
611.748	123.88
611.955	132.88
612.163	136.88
612.371	124.88
612.579	141.88
612.787	135.88
612.995	132.88
613.203	121.88
613.411	133.88
613.618	133.88
613.826	118.88
614.034	139.88
614.242	132.88
614.449	125.88
614.657	121.88
614.865	126.88
615.072	121.88
615.28	132.88
615.488	127.88
615.695	130.88
615.903	148.88
616.111	143.88
616.318	123.88
616.526	123.88
616.733	136.88
616.941	116.88
617.148	138.88
617.356	125.88
617.563	120.88
617.771	134.88
617.978	126.88
618.185	136.88
618.393	131.88
618.6	120.88
618.807	127.88
619.015	131.88
619.222	131.88
619.429	120.88
619.637	136.88
619.844	135.88
620.051	127.88
620.258	128.88
620.466	130.88
620.673	117.88
620.88	142.88
621.087	131.88
621.294	122.88
621.501	113.88
621.708	130.88
621.915	118.88
622.122	117.88
622.329	125.88
622.536	128.88
622.743	136.88
622.95	132.88
623.157	116.88
623.364	111.88
623.571	134.88
623.778	110.88
623.985	105.88
624.192	117.88
624.399	112.88
624.606	126.88
624.812	131.88
625.019	135.88
625.226	119.88
625.433	127.88
625.639	113.88
625.846	118.88
626.053	129.88
626.259	115.88
626.466	131.88
626.673	125.88
626.879	126.88
627.086	130.88
627.293	114.88
627.499	128.88
627.706	123.88
627.912	114.88
628.119	95.88
628.325	120.88
628.532	119.88
628.738	125.88
628.945	118.88
629.151	123.88
629.357	113.88
629.564	118.88
629.77	124.88
629.976	109.88
630.183	125.88
630.389	117.88
630.595	132.88
630.802	119.88
631.008	93.88
631.214	104.88
631.42	109.88
631.627	123.88
631.833	114.88
632.039	94.88
632.245	117.88
632.451	119.88
632.657	119.88
632.863	101.88
633.069	112.88
633.275	113.88
633.481	117.88
633.688	120.88
633.893	112.88
634.099	116.88
634.305	100.88
634.511	94.88
634.717	116.88
634.923	107.88
635.129	112.88
635.335	102.88
635.541	115.88
635.747	113.88
635.952	120.88
636.158	121.88
636.364	116.88
636.57	101.88
636.775	107.88
636.981	100.88
637.187	123.88
637.392	116.88
637.598	94.88
637.804	115.88
638.009	113.88
638.215	101.88
638.421	115.88
638.626	113.88
638.832	113.88
639.037	110.88
639.243	113.88
639.448	117.88
639.654	118.88
639.859	119.88
640.065	108.88
640.27	125.88
640.475	104.88
640.681	108.88
640.886	119.88
641.091	104.88
641.297	112.88
641.502	113.88
641.707	115.88
641.913	109.88
642.118	119.88
642.323	105.88
642.528	127.88
642.733	111.88
642.939	108.88
643.144	116.88
643.349	104.88
643.554	100.88
643.759	113.88
643.964	102.88
644.169	127.88
644.374	93.88
644.579	95.88
644.784	98.88
644.989	98.88
645.194	87.88
645.399	96.88
645.604	108.88
645.809	105.88
646.014	107.88
646.219	102.88
646.423	118.88
646.628	100.88
646.833	117.88
647.038	114.88
647.243	119.88
647.447	111.88
647.652	99.88
647.857	113.88
648.062	101.88
648.266	115.88
648.471	117.88
648.676	115.88
648.88	105.88
649.085	109.88
649.289	99.88
649.494	111.88
649.698	103.88
649.903	112.88
650.107	100.88
650.312	99.88
650.516	114.88
650.721	108.88
650.925	105.88
651.13	117.88
651.334	108.88
651.539	96.88
651.743	95.88
651.947	100.88
652.152	104.88
652.356	101.88
652.56	104.88
652.764	96.88
652.969	83.88
653.173	98.88
653.377	110.88
653.581	97.88
653.785	107.88
653.99	101.88
654.194	105.88
654.398	71.88
654.602	91.88
654.806	97.88
655.01	110.88
655.214	96.88
655.418	88.88
655.622	101.88
655.826	93.88
656.03	97.88
656.234	98.88
656.438	96.88
656.642	83.88
656.846	97.88
657.049	92.88
657.253	99.88
657.457	84.88
657.661	89.88
657.865	90.88
658.068	91.88
658.272	84.88
658.476	88.88
658.68	81.88
658.883	94.88
659.087	86.88
659.291	97.88
659.494	99.88
659.698	92.88
659.901	86.88
660.105	96.88
660.309	86.88
660.512	72.88
660.716	71.88
660.919	85.88
661.123	86.88
661.326	80.88
661.53	83.88
661.733	72.88
661.936	79.88
662.14	96.88
662.343	88.88
662.546	91.88
662.75	79.88
662.953	92.88
663.156	81.88
663.36	79.88
663.563	72.88
663.766	82.88
663.969	86.88
664.173	76.88
664.376	82.88
664.579	88.88
664.782	92.88
664.985	98.88
665.188	83.88
665.391	74.88
665.594	82.88
665.797	87.88
666	83.88
666.203	78.88
666.406	93.88
666.609	79.88
666.812	88.88
667.015	75.88
667.218	69.88
667.421	75.88
667.624	86.88
667.827	79.88
668.03	85.88
668.232	88.88
668.435	81.88
668.638	91.88
668.841	83.88
669.043	79.88
669.246	88.88
669.449	75.88
669.651	74.88
669.854	73.88
670.057	77.88
670.259	72.88
670.462	87.88
670.665	87.88
670.867	82.88
671.07	88.88
671.272	75.88
671.475	83.88
671.677	69.88
671.88	70.88
672.082	61.88
672.284	81.88
672.487	84.88
672.689	79.88
672.892	81.88
