Data from NickelSpatula.Lamp.E10.P2_HRD10591_11-59-06-527.txt Node
Date: Tue Jul 23 11:59:06 EDT 2019
User: cochatt
Spectrometer: HR+D1059
Trigger mode: 1
Integration Time (sec): 1.000000E-1
Scans to average: 1
Electric dark correction enabled: true
Nonlinearity correction enabled: false
Boxcar width: 0
XAxis mode: Wavelengths
Number of Pixels in Spectrum: 2048
>>>>>Begin Spectral Data<<<<<
223.165	-15.81
223.4	-15.81
223.635	-15.81
223.869	0.19
224.104	-13.81
224.338	-20.81
224.573	-12.81
224.808	-9.81
225.042	-16.81
225.277	-2.81
225.511	-0.81
225.746	1.19
225.98	-0.81
226.215	16.19
226.449	12.19
226.683	27.19
226.918	23.19
227.152	14.19
227.387	23.19
227.621	29.19
227.856	39.19
228.09	47.19
228.324	61.19
228.559	47.19
228.793	71.19
229.027	156.19
229.262	158.19
229.496	161.19
229.73	160.19
229.964	192.19
230.199	211.19
230.433	213.19
230.667	188.19
230.901	201.19
231.136	194.19
231.37	208.19
231.604	221.19
231.838	244.19
232.072	239.19
232.306	249.19
232.541	232.19
232.775	228.19
233.009	277.19
233.243	305.19
233.477	327.19
233.711	357.19
233.945	347.19
234.179	331.19
234.413	343.19
234.647	388.19
234.881	452.19
235.115	407.19
235.349	370.19
235.583	342.19
235.817	349.19
236.051	362.19
236.285	407.19
236.519	455.19
236.753	427.19
236.987	438.19
237.221	409.19
237.455	436.19
237.689	439.19
237.922	453.19
238.156	475.19
238.39	541.19
238.624	640.19
238.858	592.19
239.091	486.19
239.325	520.19
239.559	464.19
239.793	543.19
240.027	666.19
240.26	608.19
240.494	574.19
240.728	591.19
240.961	697.19
241.195	637.19
241.429	624.19
241.662	609.19
241.896	525.19
242.13	477.19
242.363	449.19
242.597	478.19
242.83	544.19
243.064	537.19
243.298	612.19
243.531	609.19
243.765	639.19
243.998	621.19
244.232	596.19
244.465	600.19
244.699	582.19
244.932	644.19
245.166	612.19
245.399	544.19
245.633	551.19
245.866	598.19
246.099	603.19
246.333	696.19
246.566	751.19
246.8	769.19
247.033	745.19
247.266	702.19
247.5	671.19
247.733	675.19
247.966	670.19
248.2	696.19
248.433	768.19
248.666	867.19
248.899	842.19
249.133	855.19
249.366	992.19
249.599	1091.19
249.832	954.19
250.066	801.19
250.299	853.19
250.532	796.19
250.765	811.19
250.998	743.19
251.231	693.19
251.465	815.19
251.698	835.19
251.931	830.19
252.164	831.19
252.397	919.19
252.63	1069.19
252.863	1154.19
253.096	1207.19
253.329	1166.19
253.562	1119.19
253.795	1223.19
254.028	1329.19
254.261	1415.19
254.494	1240.19
254.727	1171.19
254.96	1126.19
255.193	1208.19
255.426	1111.19
255.659	869.19
255.892	803.19
256.124	843.19
256.357	1027.19
256.59	1216.19
256.823	1138.19
257.056	961.19
257.289	902.19
257.521	941.19
257.754	1102.19
257.987	1262.19
258.22	1083.19
258.452	1012.19
258.685	1139.19
258.918	1282.19
259.151	1243.19
259.383	1287.19
259.616	1485.19
259.849	1544.19
260.081	1686.19
260.314	1913.19
260.547	1445.19
260.779	1471.19
261.012	1709.19
261.244	1597.19
261.477	1639.19
261.71	1554.19
261.942	1308.19
262.175	1283.19
262.407	1199.19
262.64	1256.19
262.872	1487.19
263.105	1647.19
263.337	1723.19
263.57	1549.19
263.802	1049.19
264.035	892.19
264.267	868.19
264.499	763.19
264.732	688.19
264.964	687.19
265.197	716.19
265.429	775.19
265.661	809.19
265.894	850.19
266.126	926.19
266.358	1022.19
266.591	1255.19
266.823	1533.19
267.055	1408.19
267.287	1245.19
267.52	1232.19
267.752	1309.19
267.984	1428.19
268.216	1349.19
268.448	1156.19
268.681	1113.19
268.913	1240.19
269.145	1269.19
269.377	1277.19
269.609	1285.19
269.841	1205.19
270.073	1285.19
270.306	1387.19
270.538	1382.19
270.77	1362.19
271.002	1368.19
271.234	1426.19
271.466	1496.19
271.698	1438.19
271.93	1400.19
272.162	1457.19
272.394	1437.19
272.626	1418.19
272.858	1474.19
273.09	1486.19
273.322	1315.19
273.553	1275.19
273.785	1500.19
274.017	1959.19
274.249	2465.19
274.481	2545.19
274.713	2772.19
274.945	3125.19
275.176	3184.19
275.408	2879.19
275.64	2633.19
275.872	2609.19
276.104	2204.19
276.335	1923.19
276.567	1907.19
276.799	1943.19
277.031	2053.19
277.262	1605.19
277.494	1238.19
277.726	1206.19
277.957	1326.19
278.189	1475.19
278.421	1440.19
278.652	1468.19
278.884	1340.19
279.115	1276.19
279.347	1184.19
279.579	1197.19
279.81	1199.19
280.042	1188.19
280.273	1252.19
280.505	1149.19
280.736	1013.19
280.968	1016.19
281.199	1075.19
281.431	1238.19
281.662	1201.19
281.894	1133.19
282.125	1251.19
282.356	1320.19
282.588	1403.19
282.819	1273.19
283.051	1360.19
283.282	1653.19
283.513	1925.19
283.745	2149.19
283.976	2137.19
284.207	2015.19
284.439	2112.19
284.67	2035.19
284.901	1755.19
285.132	1909.19
285.364	2031.19
285.595	1908.19
285.826	1967.19
286.057	2009.19
286.288	1945.19
286.52	2002.19
286.751	2091.19
286.982	2069.19
287.213	1806.19
287.444	1743.19
287.675	1832.19
287.906	1805.19
288.138	1530.19
288.369	1334.19
288.6	1279.19
288.831	1285.19
289.062	1567.19
289.293	1663.19
289.524	1559.19
289.755	1594.19
289.986	1604.19
290.217	1440.19
290.448	1127.19
290.679	975.19
290.91	887.19
291.141	946.19
291.371	971.19
291.602	952.19
291.833	961.19
292.064	1039.19
292.295	1189.19
292.526	1382.19
292.757	1457.19
292.987	1531.19
293.218	1523.19
293.449	1590.19
293.68	1649.19
293.91	1545.19
294.141	1625.19
294.372	1531.19
294.603	1395.19
294.833	1559.19
295.064	1822.19
295.295	1680.19
295.525	1311.19
295.756	1144.19
295.987	1022.19
296.217	988.19
296.448	1022.19
296.679	1109.19
296.909	1239.19
297.14	1271.19
297.37	1400.19
297.601	1335.19
297.831	1181.19
298.062	1231.19
298.292	1398.19
298.523	1584.19
298.753	1798.19
298.984	1558.19
299.214	1257.19
299.445	1080.19
299.675	1037.19
299.905	1045.19
300.136	1105.19
300.366	1177.19
300.597	1144.19
300.827	1007.19
301.057	977.19
301.288	1006.19
301.518	1075.19
301.748	1219.19
301.979	1306.19
302.209	1445.19
302.439	1447.19
302.669	1224.19
302.9	1229.19
303.13	1161.19
303.36	1061.19
303.59	1043.19
303.82	1091.19
304.051	1232.19
304.281	1334.19
304.511	1255.19
304.741	1122.19
304.971	1206.19
305.201	1287.19
305.431	1195.19
305.661	1055.19
305.891	1066.19
306.121	1075.19
306.352	964.19
306.582	868.19
306.812	857.19
307.042	854.19
307.272	789.19
307.502	794.19
307.731	887.19
307.961	933.19
308.191	850.19
308.421	802.19
308.651	779.19
308.881	758.19
309.111	790.19
309.341	826.19
309.571	889.19
309.8	928.19
310.03	943.19
310.26	993.19
310.49	987.19
310.72	841.19
310.949	859.19
311.179	870.19
311.409	923.19
311.639	1105.19
311.868	1393.19
312.098	1741.19
312.328	1958.19
312.557	1836.19
312.787	1850.19
313.017	1661.19
313.246	1788.19
313.476	1941.19
313.706	1648.19
313.935	1283.19
314.165	1029.19
314.394	927.19
314.624	971.19
314.853	983.19
315.083	1056.19
315.312	1021.19
315.542	1000.19
315.771	964.19
316.001	864.19
316.23	855.19
316.46	827.19
316.689	861.19
316.919	860.19
317.148	898.19
317.377	866.19
317.607	897.19
317.836	941.19
318.065	1095.19
318.295	1222.19
318.524	1134.19
318.753	974.19
318.983	936.19
319.212	927.19
319.441	996.19
319.67	1134.19
319.9	1191.19
320.129	1137.19
320.358	957.19
320.587	946.19
320.816	1013.19
321.046	1171.19
321.275	1321.19
321.504	1345.19
321.733	1299.19
321.962	1222.19
322.191	1149.19
322.42	1078.19
322.649	1115.19
322.878	1204.19
323.108	1201.19
323.337	1106.19
323.566	1082.19
323.795	1052.19
324.024	1010.19
324.253	961.19
324.482	973.19
324.71	1056.19
324.939	1210.19
325.168	1104.19
325.397	921.19
325.626	886.19
325.855	908.19
326.084	923.19
326.313	873.19
326.542	824.19
326.77	884.19
326.999	903.19
327.228	933.19
327.457	1002.19
327.686	1011.19
327.914	870.19
328.143	827.19
328.372	836.19
328.6	817.19
328.829	867.19
329.058	913.19
329.287	881.19
329.515	893.19
329.744	885.19
329.972	824.19
330.201	794.19
330.43	837.19
330.658	951.19
330.887	1051.19
331.115	1037.19
331.344	991.19
331.572	945.19
331.801	895.19
332.03	841.19
332.258	864.19
332.486	926.19
332.715	941.19
332.943	883.19
333.172	903.19
333.4	949.19
333.629	1015.19
333.857	1100.19
334.085	1097.19
334.314	1076.19
334.542	1039.19
334.771	941.19
334.999	932.19
335.227	899.19
335.455	925.19
335.684	1037.19
335.912	1222.19
336.14	1295.19
336.369	1264.19
336.597	1228.19
336.825	1368.19
337.053	1527.19
337.281	1227.19
337.51	980.19
337.738	987.19
337.966	1019.19
338.194	1160.19
338.422	1057.19
338.65	946.19
338.878	876.19
339.106	901.19
339.334	994.19
339.562	1081.19
339.79	1001.19
340.018	947.19
340.246	1039.19
340.474	1186.19
340.702	1249.19
340.93	1320.19
341.158	1293.19
341.386	1138.19
341.614	1127.19
341.842	1094.19
342.07	1136.19
342.298	1316.19
342.526	1359.19
342.754	1184.19
342.981	1076.19
343.209	1047.19
343.437	1132.19
343.665	1185.19
343.893	1144.19
344.12	1389.19
344.348	1579.19
344.576	1426.19
344.804	1177.19
345.031	1027.19
345.259	975.19
345.487	992.19
345.714	1012.19
345.942	1062.19
346.17	1159.19
346.397	1133.19
346.625	999.19
346.853	974.19
347.08	924.19
347.308	985.19
347.535	1094.19
347.763	1124.19
347.99	983.19
348.218	920.19
348.445	947.19
348.673	988.19
348.9	985.19
349.128	1052.19
349.355	1087.19
349.583	1092.19
349.81	1004.19
350.037	945.19
350.265	829.19
350.492	797.19
350.72	784.19
350.947	819.19
351.174	877.19
351.402	942.19
351.629	996.19
351.856	949.19
352.083	889.19
352.311	987.19
352.538	1094.19
352.765	1139.19
352.992	1061.19
353.22	956.19
353.447	972.19
353.674	969.19
353.901	971.19
354.128	973.19
354.355	1001.19
354.583	976.19
354.81	960.19
355.037	1017.19
355.264	1008.19
355.491	1087.19
355.718	1203.19
355.945	1166.19
356.172	1094.19
356.399	1105.19
356.626	1308.19
356.853	1597.19
357.08	1697.19
357.307	1756.19
357.534	1371.19
357.761	1398.19
357.988	1761.19
358.215	2101.19
358.441	1955.19
358.668	1647.19
358.895	1485.19
359.122	1196.19
359.349	1199.19
359.576	1303.19
359.802	1109.19
360.029	929.19
360.256	1025.19
360.483	1285.19
360.709	1655.19
360.936	1668.19
361.163	1421.19
361.39	1122.19
361.616	1042.19
361.843	1220.19
362.07	1545.19
362.296	1391.19
362.523	1068.19
362.749	931.19
362.976	989.19
363.203	1214.19
363.429	1357.19
363.656	1092.19
363.882	992.19
364.109	999.19
364.335	1021.19
364.562	983.19
364.788	1133.19
365.015	1301.19
365.241	1145.19
365.468	932.19
365.694	837.19
365.92	813.19
366.147	800.19
366.373	777.19
366.599	815.19
366.826	779.19
367.052	825.19
367.278	830.19
367.505	811.19
367.731	866.19
367.957	1003.19
368.184	1027.19
368.41	977.19
368.636	1040.19
368.862	1056.19
369.089	1015.19
369.315	887.19
369.541	902.19
369.767	871.19
369.993	830.19
370.219	838.19
370.445	879.19
370.672	1011.19
370.898	1080.19
371.124	1080.19
371.35	941.19
371.576	891.19
371.802	927.19
372.028	1166.19
372.254	1307.19
372.48	1116.19
372.706	999.19
372.932	1086.19
373.158	1144.19
373.384	1358.19
373.61	1809.19
373.835	1839.19
374.061	1403.19
374.287	1174.19
374.513	1399.19
374.739	1664.19
374.965	1730.19
375.191	1667.19
375.416	1151.19
375.642	1003.19
375.868	1211.19
376.094	1381.19
376.319	1140.19
376.545	1286.19
376.771	1350.19
376.997	1151.19
377.222	876.19
377.448	753.19
377.674	747.19
377.899	755.19
378.125	764.19
378.35	754.19
378.576	803.19
378.802	845.19
379.027	904.19
379.253	895.19
379.478	901.19
379.704	1039.19
379.929	1082.19
380.155	1081.19
380.38	940.19
380.606	1011.19
380.831	1107.19
381.057	1021.19
381.282	978.19
381.507	1175.19
381.733	1481.19
381.958	1512.19
382.184	1660.19
382.409	1720.19
382.634	1678.19
382.86	1730.19
383.085	1443.19
383.31	1123.19
383.535	1224.19
383.761	1211.19
383.986	1147.19
384.211	1435.19
384.436	1338.19
384.662	1023.19
384.887	981.19
385.112	1037.19
385.337	1025.19
385.562	992.19
385.787	1084.19
386.013	1198.19
386.238	1247.19
386.463	1011.19
386.688	975.19
386.913	946.19
387.138	882.19
387.363	966.19
387.588	969.19
387.813	974.19
388.038	1083.19
388.263	998.19
388.488	951.19
388.713	1109.19
388.938	1186.19
389.163	1018.19
389.387	921.19
389.612	900.19
389.837	961.19
390.062	947.19
390.287	971.19
390.512	1006.19
390.736	915.19
390.961	909.19
391.186	843.19
391.411	835.19
391.636	852.19
391.86	904.19
392.085	1021.19
392.31	1003.19
392.534	942.19
392.759	926.19
392.984	986.19
393.208	964.19
393.433	860.19
393.658	803.19
393.882	758.19
394.107	795.19
394.331	774.19
394.556	792.19
394.78	789.19
395.005	836.19
395.229	862.19
395.454	877.19
395.678	891.19
395.903	917.19
396.127	871.19
396.352	890.19
396.576	1003.19
396.801	993.19
397.025	1092.19
397.249	1110.19
397.474	924.19
397.698	916.19
397.922	960.19
398.147	886.19
398.371	914.19
398.595	984.19
398.82	942.19
399.044	955.19
399.268	994.19
399.492	1069.19
399.717	1032.19
399.941	1093.19
400.165	1062.19
400.389	1032.19
400.613	1072.19
400.837	1038.19
401.062	923.19
401.286	891.19
401.51	899.19
401.734	896.19
401.958	909.19
402.182	934.19
402.406	926.19
402.63	918.19
402.854	942.19
403.078	1078.19
403.302	1287.19
403.526	1343.19
403.75	1192.19
403.974	1048.19
404.198	1110.19
404.422	1224.19
404.645	1448.19
404.869	1551.19
405.093	1165.19
405.317	992.19
405.541	964.19
405.765	1014.19
405.988	1009.19
406.212	1095.19
406.436	1300.19
406.66	1439.19
406.883	1135.19
407.107	1193.19
407.331	1386.19
407.555	1305.19
407.778	1099.19
408.002	1055.19
408.226	1007.19
408.449	1043.19
408.673	1011.19
408.896	959.19
409.12	902.19
409.344	890.19
409.567	906.19
409.791	889.19
410.014	889.19
410.238	896.19
410.461	878.19
410.685	893.19
410.908	914.19
411.132	928.19
411.355	909.19
411.578	945.19
411.802	915.19
412.025	988.19
412.249	998.19
412.472	930.19
412.695	917.19
412.919	964.19
413.142	977.19
413.365	1049.19
413.589	1079.19
413.812	950.19
414.035	930.19
414.258	919.19
414.482	1047.19
414.705	1055.19
414.928	911.19
415.151	878.19
415.374	889.19
415.597	897.19
415.821	920.19
416.044	905.19
416.267	876.19
416.49	864.19
416.713	850.19
416.936	819.19
417.159	854.19
417.382	880.19
417.605	875.19
417.828	920.19
418.051	931.19
418.274	924.19
418.497	941.19
418.72	915.19
418.943	978.19
419.166	1005.19
419.389	1038.19
419.611	1045.19
419.834	1007.19
420.057	1103.19
420.28	1120.19
420.503	1027.19
420.726	909.19
420.948	880.19
421.171	897.19
421.394	848.19
421.617	856.19
421.839	889.19
422.062	935.19
422.285	939.19
422.507	944.19
422.73	932.19
422.953	969.19
423.175	913.19
423.398	945.19
423.621	991.19
423.843	1040.19
424.066	977.19
424.288	913.19
424.511	910.19
424.733	915.19
424.956	939.19
425.178	1092.19
425.401	1217.19
425.623	1373.19
425.846	1122.19
426.068	1014.19
426.291	1120.19
426.513	1021.19
426.735	929.19
426.958	995.19
427.18	1163.19
427.402	1513.19
427.625	1451.19
427.847	1170.19
428.069	888.19
428.292	896.19
428.514	892.19
428.736	873.19
428.958	943.19
429.181	1107.19
429.403	953.19
429.625	913.19
429.847	856.19
430.069	885.19
430.292	905.19
430.514	889.19
430.736	957.19
430.958	1211.19
431.18	1102.19
431.402	844.19
431.624	813.19
431.846	793.19
432.068	768.19
432.29	807.19
432.512	921.19
432.734	1209.19
432.956	1136.19
433.178	860.19
433.4	854.19
433.622	849.19
433.844	864.19
434.066	914.19
434.287	899.19
434.509	905.19
434.731	900.19
434.953	849.19
435.175	897.19
435.397	1053.19
435.618	882.19
435.84	817.19
436.062	829.19
436.284	827.19
436.505	781.19
436.727	799.19
436.949	793.19
437.17	825.19
437.392	834.19
437.614	855.19
437.835	817.19
438.057	844.19
438.278	989.19
438.5	1419.19
438.721	1401.19
438.943	961.19
439.165	811.19
439.386	781.19
439.608	783.19
439.829	791.19
440.05	792.19
440.272	849.19
440.493	1004.19
440.715	1228.19
440.936	968.19
441.158	859.19
441.379	877.19
441.6	973.19
441.822	1029.19
442.043	889.19
442.264	868.19
442.486	869.19
442.707	854.19
442.928	861.19
443.149	909.19
443.371	885.19
443.592	924.19
443.813	926.19
444.034	884.19
444.255	884.19
444.476	934.19
444.698	954.19
444.919	962.19
445.14	1072.19
445.361	1034.19
445.582	960.19
445.803	925.19
446.024	932.19
446.245	936.19
446.466	882.19
446.687	849.19
446.908	893.19
447.129	866.19
447.35	808.19
447.571	795.19
447.792	800.19
448.013	801.19
448.234	759.19
448.455	770.19
448.675	772.19
448.896	798.19
449.117	783.19
449.338	813.19
449.559	815.19
449.779	862.19
450	855.19
450.221	828.19
450.442	801.19
450.662	795.19
450.883	806.19
451.104	820.19
451.324	814.19
451.545	801.19
451.766	801.19
451.986	769.19
452.207	799.19
452.428	751.19
452.648	782.19
452.869	815.19
453.089	848.19
453.31	813.19
453.53	755.19
453.751	745.19
453.971	741.19
454.192	770.19
454.412	799.19
454.633	759.19
454.853	768.19
455.073	709.19
455.294	748.19
455.514	747.19
455.734	766.19
455.955	807.19
456.175	821.19
456.395	730.19
456.616	716.19
456.836	731.19
457.056	671.19
457.276	696.19
457.497	701.19
457.717	704.19
457.937	695.19
458.157	723.19
458.377	710.19
458.598	749.19
458.818	763.19
459.038	785.19
459.258	829.19
459.478	846.19
459.698	907.19
459.918	889.19
460.138	870.19
460.358	881.19
460.578	887.19
460.798	882.19
461.018	894.19
461.238	889.19
461.458	866.19
461.678	877.19
461.898	957.19
462.118	941.19
462.338	932.19
462.558	974.19
462.777	1017.19
462.997	1029.19
463.217	981.19
463.437	1026.19
463.657	1025.19
463.876	965.19
464.096	976.19
464.316	974.19
464.536	961.19
464.755	1005.19
464.975	1037.19
465.195	958.19
465.414	983.19
465.634	968.19
465.854	931.19
466.073	863.19
466.293	854.19
466.512	921.19
466.732	1029.19
466.951	1014.19
467.171	936.19
467.391	900.19
467.61	887.19
467.829	943.19
468.049	961.19
468.268	871.19
468.488	891.19
468.707	909.19
468.927	1075.19
469.146	1144.19
469.365	1043.19
469.585	945.19
469.804	1000.19
470.023	1087.19
470.243	991.19
470.462	921.19
470.681	912.19
470.901	922.19
471.12	953.19
471.339	953.19
471.558	919.19
471.777	919.19
471.997	989.19
472.216	1109.19
472.435	1087.19
472.654	967.19
472.873	945.19
473.092	1000.19
473.311	1060.19
473.53	943.19
473.749	931.19
473.968	982.19
474.187	982.19
474.406	945.19
474.625	917.19
474.844	947.19
475.063	1078.19
475.282	1042.19
475.501	1086.19
475.72	1132.19
475.939	1077.19
476.158	1110.19
476.377	1268.19
476.596	1437.19
476.814	1495.19
477.033	1248.19
477.252	1077.19
477.471	1013.19
477.69	1028.19
477.908	1096.19
478.127	1169.19
478.346	1033.19
478.564	1157.19
478.783	1076.19
479.002	1105.19
479.22	1261.19
479.439	1414.19
479.658	1205.19
479.876	1115.19
480.095	1250.19
480.313	1231.19
480.532	1127.19
480.751	1109.19
480.969	1118.19
481.188	1265.19
481.406	1285.19
481.624	1229.19
481.843	1115.19
482.061	1074.19
482.28	1195.19
482.498	1491.19
482.717	1397.19
482.935	1214.19
483.153	1152.19
483.372	1061.19
483.59	1068.19
483.808	1049.19
484.027	1051.19
484.245	990.19
484.463	996.19
484.681	1037.19
484.9	1099.19
485.118	1180.19
485.336	1096.19
485.554	1037.19
485.772	1093.19
485.99	1164.19
486.209	1249.19
486.427	1211.19
486.645	1189.19
486.863	1211.19
487.081	1232.19
487.299	1368.19
487.517	1334.19
487.735	1213.19
487.953	1219.19
488.171	1238.19
488.389	1171.19
488.607	1124.19
488.825	1165.19
489.043	1256.19
489.261	1403.19
489.479	1539.19
489.696	1286.19
489.914	1180.19
490.132	1071.19
490.35	1109.19
490.568	1159.19
490.786	1115.19
491.003	1135.19
491.221	1157.19
491.439	1132.19
491.657	1131.19
491.874	1256.19
492.092	1526.19
492.31	1775.19
492.527	1743.19
492.745	1499.19
492.963	1341.19
493.18	1279.19
493.398	1288.19
493.615	1296.19
493.833	1244.19
494.05	1225.19
494.268	1259.19
494.485	1262.19
494.703	1228.19
494.92	1223.19
495.138	1191.19
495.355	1182.19
495.573	1243.19
495.79	1409.19
496.008	1848.19
496.225	1570.19
496.442	1401.19
496.66	1342.19
496.877	1411.19
497.094	1404.19
497.312	1317.19
497.529	1319.19
497.746	1336.19
497.963	1374.19
498.181	1468.19
498.398	1578.19
498.615	1648.19
498.832	1695.19
499.049	1703.19
499.267	1535.19
499.484	1543.19
499.701	1631.19
499.918	1734.19
500.135	1893.19
500.352	1895.19
500.569	1921.19
500.786	2017.19
501.003	2021.19
501.22	1825.19
501.437	1683.19
501.654	1656.19
501.871	1639.19
502.088	1615.19
502.305	1510.19
502.522	1523.19
502.739	1518.19
502.956	1369.19
503.172	1359.19
503.389	1312.19
503.606	1244.19
503.823	1290.19
504.04	1304.19
504.256	1315.19
504.473	1339.19
504.69	1361.19
504.907	1343.19
505.123	1360.19
505.34	1454.19
505.557	1428.19
505.773	1351.19
505.99	1308.19
506.207	1342.19
506.423	1289.19
506.64	1198.19
506.856	1250.19
507.073	1405.19
507.289	1347.19
507.506	1347.19
507.722	1404.19
507.939	1423.19
508.155	1441.19
508.372	1318.19
508.588	1276.19
508.805	1224.19
509.021	1212.19
509.238	1176.19
509.454	1188.19
509.67	1177.19
509.887	1184.19
510.103	1301.19
510.319	1319.19
510.536	1197.19
510.752	1074.19
510.968	1048.19
511.184	1049.19
511.401	1072.19
511.617	1058.19
511.833	1025.19
512.049	1074.19
512.265	1115.19
512.481	1129.19
512.698	1219.19
512.914	1372.19
513.13	1204.19
513.346	1148.19
513.562	1197.19
513.778	1154.19
513.994	1151.19
514.21	1235.19
514.426	1198.19
514.642	1160.19
514.858	1111.19
515.074	1205.19
515.29	1242.19
515.506	1399.19
515.721	1335.19
515.937	1201.19
516.153	1183.19
516.369	1179.19
516.585	1207.19
516.801	1335.19
517.016	1615.19
517.232	1570.19
517.448	1549.19
517.664	1398.19
517.879	1253.19
518.095	1264.19
518.311	1288.19
518.527	1358.19
518.742	1371.19
518.958	1465.19
519.173	1409.19
519.389	1343.19
519.605	1400.19
519.82	1507.19
520.036	1693.19
520.251	1688.19
520.467	1589.19
520.682	2381.19
520.898	2909.19
521.113	2683.19
521.329	1777.19
521.544	1546.19
521.76	1523.19
521.975	1335.19
522.19	1260.19
522.406	1306.19
522.621	1421.19
522.836	1521.19
523.052	1535.19
523.267	1296.19
523.482	1300.19
523.698	1376.19
523.913	1340.19
524.128	1205.19
524.343	1177.19
524.559	1205.19
524.774	1127.19
524.989	1147.19
525.204	1206.19
525.419	1302.19
525.634	1238.19
525.849	1262.19
526.064	1261.19
526.28	1286.19
526.495	1477.19
526.71	1530.19
526.925	1376.19
527.14	1397.19
527.355	1365.19
527.57	1133.19
527.785	1230.19
527.999	1120.19
528.214	1081.19
528.429	1071.19
528.644	1060.19
528.859	989.19
529.074	990.19
529.289	976.19
529.503	972.19
529.718	1000.19
529.933	1164.19
530.148	1224.19
530.363	1042.19
530.577	996.19
530.792	982.19
531.007	985.19
531.221	950.19
531.436	977.19
531.651	985.19
531.865	1023.19
532.08	1040.19
532.295	975.19
532.509	1055.19
532.724	1160.19
532.938	1290.19
533.153	1515.19
533.367	1233.19
533.582	1180.19
533.796	1080.19
534.011	1031.19
534.225	1030.19
534.44	1035.19
534.654	1085.19
534.868	1225.19
535.083	1097.19
535.297	1043.19
535.511	1041.19
535.726	1169.19
535.94	1095.19
536.154	1027.19
536.369	1017.19
536.583	1015.19
536.797	1021.19
537.011	1021.19
537.225	1144.19
537.44	1149.19
537.654	1015.19
537.868	1022.19
538.082	1018.19
538.296	1034.19
538.51	1080.19
538.724	1088.19
538.938	1045.19
539.153	979.19
539.367	937.19
539.581	991.19
539.795	1054.19
540.009	1123.19
540.222	1029.19
540.436	1042.19
540.65	1157.19
540.864	1190.19
541.078	1191.19
541.292	1374.19
541.506	1083.19
541.72	1056.19
541.934	1019.19
542.147	1015.19
542.361	1024.19
542.575	1087.19
542.789	1030.19
543.002	936.19
543.216	1065.19
543.43	950.19
543.644	943.19
543.857	911.19
544.071	945.19
544.285	943.19
544.498	912.19
544.712	931.19
544.925	982.19
545.139	971.19
545.352	904.19
545.566	908.19
545.779	1048.19
545.993	990.19
546.206	879.19
546.42	893.19
546.633	878.19
546.847	886.19
547.06	856.19
547.274	852.19
547.487	902.19
547.7	967.19
547.914	1023.19
548.127	1097.19
548.34	1096.19
548.554	964.19
548.767	982.19
548.98	1075.19
549.193	969.19
549.407	1013.19
549.62	1173.19
549.833	1093.19
550.046	1167.19
550.259	1134.19
550.473	1043.19
550.686	979.19
550.899	1005.19
551.112	1003.19
551.325	1025.19
551.538	1094.19
551.751	940.19
551.964	901.19
552.177	883.19
552.39	864.19
552.603	877.19
552.816	957.19
553.029	894.19
553.242	870.19
553.455	917.19
553.667	999.19
553.88	949.19
554.093	869.19
554.306	837.19
554.519	804.19
554.732	811.19
554.944	784.19
555.157	773.19
555.37	783.19
555.583	782.19
555.795	785.19
556.008	774.19
556.221	811.19
556.433	777.19
556.646	781.19
556.859	815.19
557.071	813.19
557.284	807.19
557.496	821.19
557.709	808.19
557.921	808.19
558.134	751.19
558.346	747.19
558.559	733.19
558.771	768.19
558.984	839.19
559.196	760.19
559.409	738.19
559.621	695.19
559.833	712.19
560.046	720.19
560.258	716.19
560.47	767.19
560.683	712.19
560.895	679.19
561.107	675.19
561.32	669.19
561.532	684.19
561.744	781.19
561.956	765.19
562.168	687.19
562.381	702.19
562.593	726.19
562.805	744.19
563.017	704.19
563.229	677.19
563.441	648.19
563.653	679.19
563.865	671.19
564.077	683.19
564.289	689.19
564.501	674.19
564.713	740.19
564.925	726.19
565.137	695.19
565.349	725.19
565.561	695.19
565.773	719.19
565.985	737.19
566.197	768.19
566.408	866.19
566.62	831.19
566.832	854.19
567.044	835.19
567.255	909.19
567.467	983.19
567.679	905.19
567.891	891.19
568.102	871.19
568.314	893.19
568.526	856.19
568.737	862.19
568.949	841.19
569.161	738.19
569.372	697.19
569.584	691.19
569.795	677.19
570.007	699.19
570.218	747.19
570.43	730.19
570.641	713.19
570.853	653.19
571.064	634.19
571.276	675.19
571.487	677.19
571.698	661.19
571.91	652.19
572.121	675.19
572.333	620.19
572.544	631.19
572.755	641.19
572.966	627.19
573.178	600.19
573.389	640.19
573.6	643.19
573.811	617.19
574.023	553.19
574.234	572.19
574.445	574.19
574.656	529.19
574.867	577.19
575.078	573.19
575.289	579.19
575.501	625.19
575.712	569.19
575.923	561.19
576.134	534.19
576.345	542.19
576.556	569.19
576.767	529.19
576.978	514.19
577.188	514.19
577.399	498.19
577.61	526.19
577.821	527.19
578.032	530.19
578.243	552.19
578.454	542.19
578.665	572.19
578.875	543.19
579.086	539.19
579.297	550.19
579.508	565.19
579.718	565.19
579.929	563.19
580.14	525.19
580.35	480.19
580.561	471.19
580.772	484.19
580.982	448.19
581.193	484.19
581.403	484.19
581.614	460.19
581.825	473.19
582.035	473.19
582.246	456.19
582.456	477.19
582.667	460.19
582.877	466.19
583.087	476.19
583.298	475.19
583.508	442.19
583.719	453.19
583.929	451.19
584.139	452.19
584.35	455.19
584.56	487.19
584.77	486.19
584.981	465.19
585.191	482.19
585.401	464.19
585.611	475.19
585.821	502.19
586.032	498.19
586.242	488.19
586.452	486.19
586.662	460.19
586.872	500.19
587.082	480.19
587.292	457.19
587.502	453.19
587.713	479.19
587.923	459.19
588.133	519.19
588.343	476.19
588.553	453.19
588.762	448.19
588.972	452.19
589.182	463.19
589.392	438.19
589.602	456.19
589.812	473.19
590.022	521.19
590.232	499.19
590.441	458.19
590.651	470.19
590.861	457.19
591.071	479.19
591.281	449.19
591.49	430.19
591.7	455.19
591.91	456.19
592.119	454.19
592.329	455.19
592.539	461.19
592.748	464.19
592.958	455.19
593.167	484.19
593.377	489.19
593.587	487.19
593.796	494.19
594.006	495.19
594.215	483.19
594.424	468.19
594.634	501.19
594.843	465.19
595.053	443.19
595.262	449.19
595.472	435.19
595.681	409.19
595.89	414.19
596.1	433.19
596.309	442.19
596.518	438.19
596.727	439.19
596.937	407.19
597.146	433.19
597.355	454.19
597.564	433.19
597.774	429.19
597.983	407.19
598.192	404.19
598.401	406.19
598.61	386.19
598.819	375.19
599.028	416.19
599.237	399.19
599.446	381.19
599.655	379.19
599.864	366.19
600.073	366.19
600.282	369.19
600.491	383.19
600.7	389.19
600.909	401.19
601.118	384.19
601.327	370.19
601.536	367.19
601.745	388.19
601.953	387.19
602.162	374.19
602.371	393.19
602.58	392.19
602.789	378.19
602.997	379.19
603.206	367.19
603.415	380.19
603.623	357.19
603.832	371.19
604.041	367.19
604.249	370.19
604.458	375.19
604.666	360.19
604.875	342.19
605.084	342.19
605.292	347.19
605.501	371.19
605.709	371.19
605.918	365.19
606.126	368.19
606.334	358.19
606.543	359.19
606.751	365.19
606.96	349.19
607.168	339.19
607.376	339.19
607.585	336.19
607.793	349.19
608.001	353.19
608.21	344.19
608.418	369.19
608.626	368.19
608.834	336.19
609.043	332.19
609.251	334.19
609.459	328.19
609.667	358.19
609.875	346.19
610.083	334.19
610.291	343.19
610.499	351.19
610.707	334.19
610.916	323.19
611.124	335.19
611.332	355.19
611.54	337.19
611.748	339.19
611.955	369.19
612.163	356.19
612.371	323.19
612.579	315.19
612.787	335.19
612.995	327.19
613.203	336.19
613.411	341.19
613.618	331.19
613.826	335.19
614.034	360.19
614.242	316.19
614.449	318.19
614.657	307.19
614.865	313.19
615.072	329.19
615.28	319.19
615.488	309.19
615.695	325.19
615.903	326.19
616.111	318.19
616.318	324.19
616.526	300.19
616.733	329.19
616.941	309.19
617.148	301.19
617.356	332.19
617.563	323.19
617.771	322.19
617.978	296.19
618.185	312.19
618.393	327.19
618.6	339.19
618.807	324.19
619.015	319.19
619.222	320.19
619.429	321.19
619.637	307.19
619.844	310.19
620.051	297.19
620.258	296.19
620.466	294.19
620.673	283.19
620.88	298.19
621.087	281.19
621.294	282.19
621.501	295.19
621.708	280.19
621.915	298.19
622.122	292.19
622.329	299.19
622.536	283.19
622.743	284.19
622.95	277.19
623.157	295.19
623.364	305.19
623.571	292.19
623.778	280.19
623.985	308.19
624.192	303.19
624.399	295.19
624.606	303.19
624.812	283.19
625.019	305.19
625.226	305.19
625.433	318.19
625.639	275.19
625.846	263.19
626.053	264.19
626.259	276.19
626.466	269.19
626.673	315.19
626.879	295.19
627.086	267.19
627.293	281.19
627.499	278.19
627.706	289.19
627.912	253.19
628.119	257.19
628.325	269.19
628.532	262.19
628.738	251.19
628.945	269.19
629.151	265.19
629.357	269.19
629.564	255.19
629.77	278.19
629.976	263.19
630.183	268.19
630.389	268.19
630.595	271.19
630.802	251.19
631.008	272.19
631.214	253.19
631.42	242.19
631.627	252.19
631.833	227.19
632.039	241.19
632.245	240.19
632.451	251.19
632.657	245.19
632.863	246.19
633.069	230.19
633.275	242.19
633.481	234.19
633.688	251.19
633.893	236.19
634.099	229.19
634.305	240.19
634.511	235.19
634.717	230.19
634.923	219.19
635.129	212.19
635.335	235.19
635.541	211.19
635.747	225.19
635.952	260.19
636.158	239.19
636.364	235.19
636.57	238.19
636.775	247.19
636.981	243.19
637.187	212.19
637.392	247.19
637.598	232.19
637.804	224.19
638.009	222.19
638.215	215.19
638.421	222.19
638.626	228.19
638.832	206.19
639.037	229.19
639.243	214.19
639.448	237.19
639.654	251.19
639.859	242.19
640.065	231.19
640.27	237.19
640.475	211.19
640.681	230.19
640.886	225.19
641.091	199.19
641.297	205.19
641.502	223.19
641.707	226.19
641.913	212.19
642.118	236.19
642.323	239.19
642.528	223.19
642.733	209.19
642.939	228.19
643.144	214.19
643.349	217.19
643.554	225.19
643.759	211.19
643.964	207.19
644.169	206.19
644.374	188.19
644.579	218.19
644.784	212.19
644.989	196.19
645.194	200.19
645.399	209.19
645.604	214.19
645.809	200.19
646.014	209.19
646.219	205.19
646.423	195.19
646.628	207.19
646.833	187.19
647.038	199.19
647.243	191.19
647.447	202.19
647.652	202.19
647.857	213.19
648.062	203.19
648.266	222.19
648.471	205.19
648.676	209.19
648.88	200.19
649.085	219.19
649.289	207.19
649.494	219.19
649.698	214.19
649.903	213.19
650.107	181.19
650.312	201.19
650.516	211.19
650.721	191.19
650.925	187.19
651.13	196.19
651.334	191.19
651.539	191.19
651.743	184.19
651.947	192.19
652.152	186.19
652.356	186.19
652.56	173.19
652.764	179.19
652.969	172.19
653.173	166.19
653.377	173.19
653.581	155.19
653.785	148.19
653.99	150.19
654.194	155.19
654.398	151.19
654.602	161.19
654.806	160.19
655.01	143.19
655.214	164.19
655.418	151.19
655.622	164.19
655.826	179.19
656.03	183.19
656.234	157.19
656.438	165.19
656.642	167.19
656.846	143.19
657.049	159.19
657.253	155.19
657.457	131.19
657.661	129.19
657.865	118.19
658.068	127.19
658.272	113.19
658.476	117.19
658.68	111.19
658.883	117.19
659.087	114.19
659.291	116.19
659.494	98.19
659.698	119.19
659.901	90.19
660.105	103.19
660.309	102.19
660.512	104.19
660.716	102.19
660.919	95.19
661.123	94.19
661.326	99.19
661.53	88.19
661.733	88.19
661.936	86.19
662.14	85.19
662.343	95.19
662.546	84.19
662.75	83.19
662.953	92.19
663.156	88.19
663.36	87.19
663.563	97.19
663.766	93.19
663.969	80.19
664.173	63.19
664.376	76.19
664.579	90.19
664.782	73.19
664.985	76.19
665.188	96.19
665.391	94.19
665.594	101.19
665.797	99.19
666	92.19
666.203	89.19
666.406	83.19
666.609	83.19
666.812	73.19
667.015	81.19
667.218	79.19
667.421	83.19
667.624	81.19
667.827	76.19
668.03	79.19
668.232	70.19
668.435	80.19
668.638	80.19
668.841	80.19
669.043	73.19
669.246	60.19
669.449	76.19
669.651	69.19
669.854	95.19
670.057	81.19
670.259	83.19
670.462	77.19
670.665	78.19
670.867	80.19
671.07	87.19
671.272	88.19
671.475	70.19
671.677	83.19
671.88	89.19
672.082	94.19
672.284	96.19
672.487	77.19
672.689	80.19
672.892	88.19
