Data from NickelSpatula.Lamp.E5.5.P2_HRD10591_11-52-44-553.txt Node
Date: Tue Jul 23 11:52:44 EDT 2019
User: cochatt
Spectrometer: HR+D1059
Trigger mode: 1
Integration Time (sec): 1.000000E-1
Scans to average: 1
Electric dark correction enabled: true
Nonlinearity correction enabled: false
Boxcar width: 0
XAxis mode: Wavelengths
Number of Pixels in Spectrum: 2048
>>>>>Begin Spectral Data<<<<<
223.165	-23.62
223.4	-23.62
223.635	-23.62
223.869	-12.62
224.104	-17.62
224.338	-15.62
224.573	-12.62
224.808	-17.62
225.042	-13.62
225.277	0.38
225.511	0.38
225.746	3.38
225.98	13.38
226.215	12.38
226.449	15.38
226.683	19.38
226.918	25.38
227.152	23.38
227.387	33.38
227.621	36.38
227.856	42.38
228.09	44.38
228.324	51.38
228.559	61.38
228.793	55.38
229.027	68.38
229.262	64.38
229.496	73.38
229.73	89.38
229.964	91.38
230.199	88.38
230.433	90.38
230.667	95.38
230.901	87.38
231.136	95.38
231.37	98.38
231.604	95.38
231.838	99.38
232.072	95.38
232.306	114.38
232.541	105.38
232.775	103.38
233.009	120.38
233.243	107.38
233.477	117.38
233.711	129.38
233.945	124.38
234.179	122.38
234.413	144.38
234.647	122.38
234.881	157.38
235.115	148.38
235.349	125.38
235.583	120.38
235.817	131.38
236.051	133.38
236.285	136.38
236.519	153.38
236.753	133.38
236.987	122.38
237.221	125.38
237.455	126.38
237.689	130.38
237.922	127.38
238.156	145.38
238.39	169.38
238.624	193.38
238.858	167.38
239.091	143.38
239.325	140.38
239.559	156.38
239.793	149.38
240.027	171.38
240.26	169.38
240.494	172.38
240.728	170.38
240.961	177.38
241.195	181.38
241.429	180.38
241.662	186.38
241.896	149.38
242.13	155.38
242.363	134.38
242.597	159.38
242.83	168.38
243.064	155.38
243.298	169.38
243.531	177.38
243.765	182.38
243.998	167.38
244.232	187.38
244.465	178.38
244.699	165.38
244.932	169.38
245.166	182.38
245.399	170.38
245.633	167.38
245.866	154.38
246.099	165.38
246.333	181.38
246.566	201.38
246.8	206.38
247.033	189.38
247.266	191.38
247.5	185.38
247.733	190.38
247.966	163.38
248.2	184.38
248.433	197.38
248.666	202.38
248.899	219.38
249.133	206.38
249.366	237.38
249.599	269.38
249.832	244.38
250.066	199.38
250.299	208.38
250.532	210.38
250.765	204.38
250.998	185.38
251.231	199.38
251.465	197.38
251.698	198.38
251.931	194.38
252.164	210.38
252.397	230.38
252.63	230.38
252.863	261.38
253.096	272.38
253.329	292.38
253.562	258.38
253.795	294.38
254.028	320.38
254.261	311.38
254.494	287.38
254.727	275.38
254.96	262.38
255.193	274.38
255.426	262.38
255.659	199.38
255.892	199.38
256.124	214.38
256.357	241.38
256.59	287.38
256.823	262.38
257.056	242.38
257.289	223.38
257.521	253.38
257.754	271.38
257.987	314.38
258.22	273.38
258.452	243.38
258.685	268.38
258.918	309.38
259.151	290.38
259.383	313.38
259.616	345.38
259.849	357.38
260.081	387.38
260.314	433.38
260.547	335.38
260.779	351.38
261.012	395.38
261.244	364.38
261.477	370.38
261.71	357.38
261.942	312.38
262.175	309.38
262.407	264.38
262.64	282.38
262.872	331.38
263.105	375.38
263.337	393.38
263.57	343.38
263.802	255.38
264.035	214.38
264.267	229.38
264.499	196.38
264.732	192.38
264.964	174.38
265.197	196.38
265.429	209.38
265.661	225.38
265.894	240.38
266.126	232.38
266.358	247.38
266.591	288.38
266.823	337.38
267.055	338.38
267.287	281.38
267.52	299.38
267.752	329.38
267.984	349.38
268.216	343.38
268.448	275.38
268.681	257.38
268.913	311.38
269.145	311.38
269.377	305.38
269.609	302.38
269.841	282.38
270.073	313.38
270.306	355.38
270.538	330.38
270.77	313.38
271.002	341.38
271.234	332.38
271.466	345.38
271.698	331.38
271.93	321.38
272.162	318.38
272.394	319.38
272.626	300.38
272.858	307.38
273.09	336.38
273.322	296.38
273.553	298.38
273.785	323.38
274.017	409.38
274.249	496.38
274.481	512.38
274.713	572.38
274.945	641.38
275.176	667.38
275.408	617.38
275.64	524.38
275.872	536.38
276.104	466.38
276.335	420.38
276.567	410.38
276.799	452.38
277.031	457.38
277.262	381.38
277.494	293.38
277.726	251.38
277.957	290.38
278.189	322.38
278.421	312.38
278.652	331.38
278.884	325.38
279.115	281.38
279.347	294.38
279.579	277.38
279.81	270.38
280.042	290.38
280.273	290.38
280.505	267.38
280.736	242.38
280.968	251.38
281.199	266.38
281.431	294.38
281.662	286.38
281.894	265.38
282.125	296.38
282.356	311.38
282.588	321.38
282.819	273.38
283.051	311.38
283.282	349.38
283.513	417.38
283.745	459.38
283.976	480.38
284.207	424.38
284.439	442.38
284.67	410.38
284.901	381.38
285.132	412.38
285.364	449.38
285.595	410.38
285.826	428.38
286.057	428.38
286.288	416.38
286.52	447.38
286.751	454.38
286.982	462.38
287.213	401.38
287.444	356.38
287.675	389.38
287.906	411.38
288.138	346.38
288.369	310.38
288.6	297.38
288.831	319.38
289.062	375.38
289.293	400.38
289.524	354.38
289.755	361.38
289.986	368.38
290.217	323.38
290.448	267.38
290.679	252.38
290.91	232.38
291.141	226.38
291.371	235.38
291.602	237.38
291.833	232.38
292.064	248.38
292.295	266.38
292.526	313.38
292.757	317.38
292.987	345.38
293.218	362.38
293.449	383.38
293.68	381.38
293.91	382.38
294.141	363.38
294.372	363.38
294.603	334.38
294.833	387.38
295.064	405.38
295.295	389.38
295.525	325.38
295.756	280.38
295.987	234.38
296.217	245.38
296.448	234.38
296.679	247.38
296.909	266.38
297.14	298.38
297.37	310.38
297.601	299.38
297.831	273.38
298.062	283.38
298.292	312.38
298.523	333.38
298.753	389.38
298.984	341.38
299.214	285.38
299.445	254.38
299.675	261.38
299.905	232.38
300.136	235.38
300.366	263.38
300.597	249.38
300.827	255.38
301.057	231.38
301.288	245.38
301.518	257.38
301.748	285.38
301.979	311.38
302.209	298.38
302.439	321.38
302.669	283.38
302.9	290.38
303.13	269.38
303.36	258.38
303.59	251.38
303.82	281.38
304.051	274.38
304.281	299.38
304.511	304.38
304.741	285.38
304.971	295.38
305.201	292.38
305.431	286.38
305.661	245.38
305.891	243.38
306.121	254.38
306.352	231.38
306.582	218.38
306.812	193.38
307.042	204.38
307.272	195.38
307.502	191.38
307.731	193.38
307.961	220.38
308.191	217.38
308.421	217.38
308.651	208.38
308.881	188.38
309.111	188.38
309.341	216.38
309.571	221.38
309.8	213.38
310.03	230.38
310.26	217.38
310.49	242.38
310.72	218.38
310.949	220.38
311.179	223.38
311.409	237.38
311.639	246.38
311.868	303.38
312.098	389.38
312.328	433.38
312.557	399.38
312.787	403.38
313.017	351.38
313.246	391.38
313.476	427.38
313.706	364.38
313.935	299.38
314.165	241.38
314.394	238.38
314.624	214.38
314.853	246.38
315.083	244.38
315.312	217.38
315.542	228.38
315.771	218.38
316.001	205.38
316.23	200.38
316.46	197.38
316.689	200.38
316.919	195.38
317.148	217.38
317.377	224.38
317.607	203.38
317.836	202.38
318.065	246.38
318.295	262.38
318.524	267.38
318.753	229.38
318.983	201.38
319.212	210.38
319.441	206.38
319.67	223.38
319.9	270.38
320.129	262.38
320.358	216.38
320.587	218.38
320.816	226.38
321.046	242.38
321.275	281.38
321.504	279.38
321.733	273.38
321.962	271.38
322.191	262.38
322.42	218.38
322.649	249.38
322.878	264.38
323.108	271.38
323.337	239.38
323.566	247.38
323.795	231.38
324.024	232.38
324.253	223.38
324.482	225.38
324.71	230.38
324.939	271.38
325.168	258.38
325.397	219.38
325.626	227.38
325.855	222.38
326.084	216.38
326.313	216.38
326.542	218.38
326.77	213.38
326.999	223.38
327.228	228.38
327.457	245.38
327.686	230.38
327.914	205.38
328.143	193.38
328.372	193.38
328.6	212.38
328.829	208.38
329.058	193.38
329.287	213.38
329.515	223.38
329.744	210.38
329.972	200.38
330.201	188.38
330.43	209.38
330.658	215.38
330.887	236.38
331.115	255.38
331.344	238.38
331.572	230.38
331.801	221.38
332.03	209.38
332.258	227.38
332.486	212.38
332.715	239.38
332.943	231.38
333.172	233.38
333.4	219.38
333.629	257.38
333.857	261.38
334.085	270.38
334.314	263.38
334.542	240.38
334.771	251.38
334.999	230.38
335.227	232.38
335.455	212.38
335.684	251.38
335.912	286.38
336.14	307.38
336.369	271.38
336.597	288.38
336.825	291.38
337.053	338.38
337.281	271.38
337.51	223.38
337.738	223.38
337.966	233.38
338.194	277.38
338.422	245.38
338.65	218.38
338.878	212.38
339.106	225.38
339.334	242.38
339.562	250.38
339.79	234.38
340.018	227.38
340.246	223.38
340.474	274.38
340.702	249.38
340.93	271.38
341.158	285.38
341.386	262.38
341.614	224.38
341.842	235.38
342.07	265.38
342.298	292.38
342.526	289.38
342.754	268.38
342.981	241.38
343.209	225.38
343.437	253.38
343.665	281.38
343.893	260.38
344.12	311.38
344.348	359.38
344.576	325.38
344.804	261.38
345.031	241.38
345.259	219.38
345.487	233.38
345.714	235.38
345.942	258.38
346.17	269.38
346.397	266.38
346.625	239.38
346.853	245.38
347.08	225.38
347.308	227.38
347.535	251.38
347.763	289.38
347.99	234.38
348.218	213.38
348.445	246.38
348.673	230.38
348.9	249.38
349.128	253.38
349.355	250.38
349.583	250.38
349.81	229.38
350.037	232.38
350.265	194.38
350.492	204.38
350.72	194.38
350.947	217.38
351.174	226.38
351.402	232.38
351.629	239.38
351.856	210.38
352.083	217.38
352.311	225.38
352.538	235.38
352.765	259.38
352.992	249.38
353.22	239.38
353.447	240.38
353.674	222.38
353.901	226.38
354.128	237.38
354.355	237.38
354.583	232.38
354.81	235.38
355.037	247.38
355.264	228.38
355.491	230.38
355.718	257.38
355.945	257.38
356.172	245.38
356.399	252.38
356.626	277.38
356.853	315.38
357.08	377.38
357.307	369.38
357.534	294.38
357.761	309.38
357.988	374.38
358.215	423.38
358.441	393.38
358.668	352.38
358.895	323.38
359.122	267.38
359.349	281.38
359.576	317.38
359.802	263.38
360.029	228.38
360.256	246.38
360.483	301.38
360.709	327.38
360.936	368.38
361.163	305.38
361.39	255.38
361.616	238.38
361.843	267.38
362.07	308.38
362.296	301.38
362.523	239.38
362.749	224.38
362.976	215.38
363.203	264.38
363.429	273.38
363.656	242.38
363.882	226.38
364.109	241.38
364.335	238.38
364.562	222.38
364.788	248.38
365.015	269.38
365.241	245.38
365.468	231.38
365.694	198.38
365.92	193.38
366.147	167.38
366.373	189.38
366.599	206.38
366.826	202.38
367.052	190.38
367.278	191.38
367.505	206.38
367.731	200.38
367.957	221.38
368.184	234.38
368.41	223.38
368.636	241.38
368.862	232.38
369.089	244.38
369.315	201.38
369.541	206.38
369.767	223.38
369.993	219.38
370.219	222.38
370.445	200.38
370.672	237.38
370.898	256.38
371.124	255.38
371.35	229.38
371.576	218.38
371.802	209.38
372.028	254.38
372.254	297.38
372.48	266.38
372.706	239.38
372.932	249.38
373.158	245.38
373.384	281.38
373.61	362.38
373.835	367.38
374.061	292.38
374.287	263.38
374.513	312.38
374.739	340.38
374.965	362.38
375.191	354.38
375.416	260.38
375.642	233.38
375.868	257.38
376.094	307.38
376.319	255.38
376.545	280.38
376.771	295.38
376.997	260.38
377.222	214.38
377.448	186.38
377.674	201.38
377.899	201.38
378.125	179.38
378.35	190.38
378.576	189.38
378.802	216.38
379.027	217.38
379.253	215.38
379.478	237.38
379.704	255.38
379.929	258.38
380.155	250.38
380.38	221.38
380.606	226.38
380.831	246.38
381.057	261.38
381.282	220.38
381.507	256.38
381.733	310.38
381.958	316.38
382.184	335.38
382.409	373.38
382.634	351.38
382.86	343.38
383.085	309.38
383.31	250.38
383.535	287.38
383.761	290.38
383.986	240.38
384.211	297.38
384.436	282.38
384.662	255.38
384.887	240.38
385.112	258.38
385.337	263.38
385.562	247.38
385.787	255.38
386.013	286.38
386.238	287.38
386.463	228.38
386.688	241.38
386.913	237.38
387.138	231.38
387.363	237.38
387.588	238.38
387.813	247.38
388.038	244.38
388.263	240.38
388.488	237.38
388.713	262.38
388.938	287.38
389.163	227.38
389.387	222.38
389.612	228.38
389.837	225.38
390.062	228.38
390.287	220.38
390.512	256.38
390.736	230.38
390.961	224.38
391.186	215.38
391.411	209.38
391.636	223.38
391.86	250.38
392.085	256.38
392.31	242.38
392.534	246.38
392.759	226.38
392.984	239.38
393.208	239.38
393.433	225.38
393.658	201.38
393.882	200.38
394.107	210.38
394.331	208.38
394.556	225.38
394.78	219.38
395.005	213.38
395.229	209.38
395.454	225.38
395.678	201.38
395.903	232.38
396.127	221.38
396.352	237.38
396.576	234.38
396.801	239.38
397.025	234.38
397.249	268.38
397.474	216.38
397.698	235.38
397.922	236.38
398.147	234.38
398.371	224.38
398.595	226.38
398.82	240.38
399.044	216.38
399.268	241.38
399.492	265.38
399.717	274.38
399.941	275.38
400.165	272.38
400.389	275.38
400.613	259.38
400.837	242.38
401.062	232.38
401.286	207.38
401.51	228.38
401.734	197.38
401.958	233.38
402.182	235.38
402.406	240.38
402.63	223.38
402.854	265.38
403.078	287.38
403.302	373.38
403.526	391.38
403.75	335.38
403.974	281.38
404.198	275.38
404.422	315.38
404.645	338.38
404.869	356.38
405.093	296.38
405.317	266.38
405.541	274.38
405.765	239.38
405.988	265.38
406.212	261.38
406.436	297.38
406.66	317.38
406.883	277.38
407.107	261.38
407.331	314.38
407.555	301.38
407.778	277.38
408.002	277.38
408.226	285.38
408.449	253.38
408.673	271.38
408.896	244.38
409.12	232.38
409.344	235.38
409.567	233.38
409.791	256.38
410.014	245.38
410.238	231.38
410.461	235.38
410.685	217.38
410.908	255.38
411.132	241.38
411.355	253.38
411.578	251.38
411.802	247.38
412.025	252.38
412.249	246.38
412.472	239.38
412.695	243.38
412.919	238.38
413.142	248.38
413.365	263.38
413.589	255.38
413.812	244.38
414.035	243.38
414.258	240.38
414.482	263.38
414.705	257.38
414.928	237.38
415.151	221.38
415.374	221.38
415.597	226.38
415.821	231.38
416.044	213.38
416.267	230.38
416.49	223.38
416.713	220.38
416.936	207.38
417.159	221.38
417.382	233.38
417.605	231.38
417.828	240.38
418.051	234.38
418.274	241.38
418.497	232.38
418.72	237.38
418.943	245.38
419.166	264.38
419.389	266.38
419.611	263.38
419.834	254.38
420.057	263.38
420.28	264.38
420.503	250.38
420.726	219.38
420.948	211.38
421.171	230.38
421.394	242.38
421.617	212.38
421.839	229.38
422.062	222.38
422.285	249.38
422.507	235.38
422.73	209.38
422.953	248.38
423.175	250.38
423.398	254.38
423.621	271.38
423.843	279.38
424.066	262.38
424.288	226.38
424.511	223.38
424.733	240.38
424.956	245.38
425.178	250.38
425.401	312.38
425.623	361.38
425.846	289.38
426.068	243.38
426.291	264.38
426.513	247.38
426.735	237.38
426.958	234.38
427.18	268.38
427.402	327.38
427.625	346.38
427.847	301.38
428.069	241.38
428.292	223.38
428.514	224.38
428.736	226.38
428.958	255.38
429.181	314.38
429.403	264.38
429.625	238.38
429.847	233.38
430.069	234.38
430.292	216.38
430.514	226.38
430.736	226.38
430.958	287.38
431.18	264.38
431.402	217.38
431.624	214.38
431.846	207.38
432.068	219.38
432.29	204.38
432.512	226.38
432.734	296.38
432.956	260.38
433.178	230.38
433.4	237.38
433.622	225.38
433.844	240.38
434.066	234.38
434.287	240.38
434.509	239.38
434.731	256.38
434.953	241.38
435.175	238.38
435.397	265.38
435.618	243.38
435.84	217.38
436.062	220.38
436.284	227.38
436.505	196.38
436.727	209.38
436.949	202.38
437.17	229.38
437.392	228.38
437.614	218.38
437.835	210.38
438.057	225.38
438.278	244.38
438.5	307.38
438.721	318.38
438.943	240.38
439.165	217.38
439.386	205.38
439.608	218.38
439.829	208.38
440.05	216.38
440.272	226.38
440.493	235.38
440.715	296.38
440.936	246.38
441.158	230.38
441.379	237.38
441.6	257.38
441.822	285.38
442.043	212.38
442.264	225.38
442.486	232.38
442.707	221.38
442.928	240.38
443.149	233.38
443.371	237.38
443.592	229.38
443.813	247.38
444.034	231.38
444.255	216.38
444.476	240.38
444.698	259.38
444.919	250.38
445.14	371.38
445.361	312.38
445.582	246.38
445.803	240.38
446.024	240.38
446.245	226.38
446.466	234.38
446.687	230.38
446.908	227.38
447.129	222.38
447.35	223.38
447.571	199.38
447.792	203.38
448.013	221.38
448.234	208.38
448.455	204.38
448.675	202.38
448.896	209.38
449.117	198.38
449.338	217.38
449.559	201.38
449.779	224.38
450	236.38
450.221	220.38
450.442	213.38
450.662	210.38
450.883	209.38
451.104	228.38
451.324	220.38
451.545	222.38
451.766	219.38
451.986	222.38
452.207	214.38
452.428	213.38
452.648	218.38
452.869	199.38
453.089	204.38
453.31	213.38
453.53	199.38
453.751	199.38
453.971	211.38
454.192	223.38
454.412	211.38
454.633	211.38
454.853	214.38
455.073	189.38
455.294	192.38
455.514	208.38
455.734	193.38
455.955	201.38
456.175	214.38
456.395	197.38
456.616	210.38
456.836	189.38
457.056	202.38
457.276	207.38
457.497	193.38
457.717	195.38
457.937	191.38
458.157	191.38
458.377	195.38
458.598	194.38
458.818	198.38
459.038	217.38
459.258	222.38
459.478	216.38
459.698	217.38
459.918	230.38
460.138	234.38
460.358	246.38
460.578	234.38
460.798	234.38
461.018	252.38
461.238	227.38
461.458	237.38
461.678	241.38
461.898	243.38
462.118	243.38
462.338	258.38
462.558	253.38
462.777	278.38
462.997	287.38
463.217	294.38
463.437	293.38
463.657	270.38
463.876	250.38
464.096	265.38
464.316	281.38
464.536	275.38
464.755	277.38
464.975	266.38
465.195	259.38
465.414	259.38
465.634	252.38
465.854	240.38
466.073	223.38
466.293	227.38
466.512	256.38
466.732	255.38
466.951	269.38
467.171	241.38
467.391	217.38
467.61	219.38
467.829	231.38
468.049	235.38
468.268	220.38
468.488	203.38
468.707	225.38
468.927	255.38
469.146	286.38
469.365	265.38
469.585	237.38
469.804	248.38
470.023	257.38
470.243	233.38
470.462	233.38
470.681	228.38
470.901	223.38
471.12	236.38
471.339	236.38
471.558	222.38
471.777	227.38
471.997	245.38
472.216	277.38
472.435	261.38
472.654	254.38
472.873	237.38
473.092	242.38
473.311	267.38
473.53	244.38
473.749	224.38
473.968	233.38
474.187	244.38
474.406	233.38
474.625	224.38
474.844	246.38
475.063	251.38
475.282	240.38
475.501	254.38
475.72	292.38
475.939	262.38
476.158	270.38
476.377	312.38
476.596	346.38
476.814	339.38
477.033	301.38
477.252	279.38
477.471	251.38
477.69	253.38
477.908	254.38
478.127	288.38
478.346	267.38
478.564	294.38
478.783	257.38
479.002	267.38
479.22	308.38
479.439	341.38
479.658	290.38
479.876	296.38
480.095	282.38
480.313	311.38
480.532	279.38
480.751	279.38
480.969	269.38
481.188	304.38
481.406	323.38
481.624	307.38
481.843	270.38
482.061	258.38
482.28	275.38
482.498	350.38
482.717	331.38
482.935	279.38
483.153	286.38
483.372	249.38
483.59	266.38
483.808	258.38
484.027	250.38
484.245	241.38
484.463	234.38
484.681	256.38
484.9	267.38
485.118	282.38
485.336	280.38
485.554	242.38
485.772	255.38
485.99	285.38
486.209	295.38
486.427	294.38
486.645	312.38
486.863	293.38
487.081	298.38
487.299	339.38
487.517	302.38
487.735	275.38
487.953	291.38
488.171	287.38
488.389	264.38
488.607	263.38
488.825	266.38
489.043	307.38
489.261	321.38
489.479	328.38
489.696	297.38
489.914	274.38
490.132	262.38
490.35	262.38
490.568	266.38
490.786	275.38
491.003	273.38
491.221	262.38
491.439	252.38
491.657	267.38
491.874	290.38
492.092	327.38
492.31	357.38
492.527	331.38
492.745	331.38
492.963	307.38
493.18	311.38
493.398	287.38
493.615	317.38
493.833	280.38
494.05	291.38
494.268	303.38
494.485	302.38
494.703	279.38
494.92	275.38
495.138	289.38
495.355	269.38
495.573	281.38
495.79	309.38
496.008	360.38
496.225	310.38
496.442	301.38
496.66	293.38
496.877	306.38
497.094	313.38
497.312	305.38
497.529	312.38
497.746	304.38
497.963	306.38
498.181	329.38
498.398	343.38
498.615	360.38
498.832	376.38
499.049	389.38
499.267	366.38
499.484	377.38
499.701	389.38
499.918	430.38
500.135	481.38
500.352	511.38
500.569	537.38
500.786	557.38
501.003	507.38
501.22	449.38
501.437	431.38
501.654	405.38
501.871	371.38
502.088	375.38
502.305	334.38
502.522	343.38
502.739	362.38
502.956	319.38
503.172	311.38
503.389	301.38
503.606	293.38
503.823	297.38
504.04	312.38
504.256	327.38
504.473	327.38
504.69	319.38
504.907	344.38
505.123	328.38
505.34	330.38
505.557	312.38
505.773	300.38
505.99	295.38
506.207	302.38
506.423	294.38
506.64	271.38
506.856	290.38
507.073	320.38
507.289	297.38
507.506	301.38
507.722	322.38
507.939	324.38
508.155	340.38
508.372	299.38
508.588	281.38
508.805	277.38
509.021	303.38
509.238	270.38
509.454	260.38
509.67	273.38
509.887	291.38
510.103	309.38
510.319	299.38
510.536	278.38
510.752	264.38
510.968	266.38
511.184	238.38
511.401	243.38
511.617	255.38
511.833	250.38
512.049	261.38
512.265	266.38
512.481	257.38
512.698	283.38
512.914	301.38
513.13	292.38
513.346	274.38
513.562	270.38
513.778	271.38
513.994	286.38
514.21	290.38
514.426	265.38
514.642	264.38
514.858	257.38
515.074	273.38
515.29	289.38
515.506	344.38
515.721	313.38
515.937	302.38
516.153	278.38
516.369	267.38
516.585	272.38
516.801	318.38
517.016	350.38
517.232	337.38
517.448	363.38
517.664	340.38
517.879	314.38
518.095	317.38
518.311	311.38
518.527	322.38
518.742	335.38
518.958	349.38
519.173	331.38
519.389	322.38
519.605	311.38
519.82	342.38
520.036	387.38
520.251	375.38
520.467	376.38
520.682	562.38
520.898	707.38
521.113	678.38
521.329	401.38
521.544	353.38
521.76	353.38
521.975	323.38
522.19	306.38
522.406	324.38
522.621	338.38
522.836	354.38
523.052	338.38
523.267	299.38
523.482	281.38
523.698	291.38
523.913	324.38
524.128	281.38
524.343	283.38
524.559	276.38
524.774	275.38
524.989	306.38
525.204	277.38
525.419	338.38
525.634	295.38
525.849	301.38
526.064	296.38
526.28	314.38
526.495	335.38
526.71	361.38
526.925	309.38
527.14	307.38
527.355	320.38
527.57	269.38
527.785	289.38
527.999	285.38
528.214	279.38
528.429	269.38
528.644	243.38
528.859	245.38
529.074	243.38
529.289	241.38
529.503	259.38
529.718	244.38
529.933	316.38
530.148	304.38
530.363	267.38
530.577	234.38
530.792	248.38
531.007	254.38
531.221	231.38
531.436	244.38
531.651	241.38
531.865	250.38
532.08	255.38
532.295	269.38
532.509	248.38
532.724	281.38
532.938	298.38
533.153	352.38
533.367	288.38
533.582	286.38
533.796	285.38
534.011	273.38
534.225	254.38
534.44	263.38
534.654	272.38
534.868	326.38
535.083	304.38
535.297	277.38
535.511	251.38
535.726	282.38
535.94	272.38
536.154	249.38
536.369	235.38
536.583	254.38
536.797	263.38
537.011	245.38
537.225	271.38
537.44	286.38
537.654	255.38
537.868	253.38
538.082	272.38
538.296	250.38
538.51	257.38
538.724	241.38
538.938	261.38
539.153	249.38
539.367	258.38
539.581	233.38
539.795	244.38
540.009	287.38
540.222	275.38
540.436	274.38
540.65	272.38
540.864	281.38
541.078	289.38
541.292	339.38
541.506	260.38
541.72	245.38
541.934	258.38
542.147	237.38
542.361	263.38
542.575	264.38
542.789	239.38
543.002	215.38
543.216	265.38
543.43	251.38
543.644	241.38
543.857	248.38
544.071	233.38
544.285	231.38
544.498	227.38
544.712	225.38
544.925	258.38
545.139	245.38
545.352	228.38
545.566	250.38
545.779	255.38
545.993	257.38
546.206	240.38
546.42	223.38
546.633	237.38
546.847	230.38
547.06	217.38
547.274	222.38
547.487	219.38
547.7	225.38
547.914	226.38
548.127	270.38
548.34	278.38
548.554	252.38
548.767	245.38
548.98	277.38
549.193	216.38
549.407	251.38
549.62	285.38
549.833	297.38
550.046	294.38
550.259	278.38
550.473	254.38
550.686	252.38
550.899	261.38
551.112	254.38
551.325	272.38
551.538	283.38
551.751	244.38
551.964	229.38
552.177	237.38
552.39	228.38
552.603	235.38
552.816	249.38
553.029	229.38
553.242	254.38
553.455	259.38
553.667	265.38
553.88	278.38
554.093	232.38
554.306	239.38
554.519	221.38
554.732	211.38
554.944	229.38
555.157	203.38
555.37	212.38
555.583	176.38
555.795	196.38
556.008	227.38
556.221	205.38
556.433	205.38
556.646	212.38
556.859	221.38
557.071	222.38
557.284	205.38
557.496	211.38
557.709	210.38
557.921	219.38
558.134	199.38
558.346	213.38
558.559	199.38
558.771	217.38
558.984	213.38
559.196	205.38
559.409	181.38
559.621	197.38
559.833	187.38
560.046	191.38
560.258	207.38
560.47	204.38
560.683	199.38
560.895	195.38
561.107	183.38
561.32	187.38
561.532	186.38
561.744	207.38
561.956	189.38
562.168	201.38
562.381	202.38
562.593	197.38
562.805	208.38
563.017	197.38
563.229	192.38
563.441	191.38
563.653	201.38
563.865	181.38
564.077	204.38
564.289	190.38
564.501	198.38
564.713	204.38
564.925	202.38
565.137	182.38
565.349	191.38
565.561	212.38
565.773	197.38
565.985	225.38
566.197	223.38
566.408	227.38
566.62	256.38
566.832	258.38
567.044	242.38
567.255	253.38
567.467	273.38
567.679	273.38
567.891	276.38
568.102	287.38
568.314	280.38
568.526	266.38
568.737	245.38
568.949	253.38
569.161	229.38
569.372	211.38
569.584	215.38
569.795	216.38
570.007	200.38
570.218	210.38
570.43	195.38
570.641	188.38
570.853	181.38
571.064	200.38
571.276	213.38
571.487	205.38
571.698	189.38
571.91	203.38
572.121	203.38
572.333	189.38
572.544	176.38
572.755	186.38
572.966	184.38
573.178	193.38
573.389	185.38
573.6	198.38
573.811	190.38
574.023	190.38
574.234	181.38
574.445	192.38
574.656	182.38
574.867	174.38
575.078	179.38
575.289	174.38
575.501	192.38
575.712	175.38
575.923	181.38
576.134	179.38
576.345	173.38
576.556	173.38
576.767	180.38
576.978	166.38
577.188	167.38
577.399	168.38
577.61	168.38
577.821	174.38
578.032	158.38
578.243	184.38
578.454	164.38
578.665	185.38
578.875	175.38
579.086	182.38
579.297	175.38
579.508	185.38
579.718	183.38
579.929	171.38
580.14	177.38
580.35	173.38
580.561	161.38
580.772	161.38
580.982	162.38
581.193	163.38
581.403	152.38
581.614	149.38
581.825	149.38
582.035	164.38
582.246	150.38
582.456	150.38
582.667	162.38
582.877	160.38
583.087	154.38
583.298	155.38
583.508	171.38
583.719	153.38
583.929	149.38
584.139	158.38
584.35	156.38
584.56	158.38
584.77	169.38
584.981	155.38
585.191	161.38
585.401	157.38
585.611	161.38
585.821	166.38
586.032	162.38
586.242	155.38
586.452	168.38
586.662	178.38
586.872	171.38
587.082	167.38
587.292	155.38
587.502	163.38
587.713	167.38
587.923	162.38
588.133	173.38
588.343	157.38
588.553	168.38
588.762	148.38
588.972	168.38
589.182	152.38
589.392	154.38
589.602	169.38
589.812	166.38
590.022	177.38
590.232	184.38
590.441	160.38
590.651	159.38
590.861	154.38
591.071	158.38
591.281	169.38
591.49	150.38
591.7	161.38
591.91	152.38
592.119	174.38
592.329	173.38
592.539	163.38
592.748	155.38
592.958	157.38
593.167	194.38
593.377	162.38
593.587	191.38
593.796	169.38
594.006	168.38
594.215	176.38
594.424	182.38
594.634	191.38
594.843	173.38
595.053	168.38
595.262	159.38
595.472	151.38
595.681	162.38
595.89	154.38
596.1	162.38
596.309	168.38
596.518	153.38
596.727	150.38
596.937	150.38
597.146	148.38
597.355	157.38
597.564	179.38
597.774	154.38
597.983	147.38
598.192	139.38
598.401	134.38
598.61	139.38
598.819	150.38
599.028	143.38
599.237	135.38
599.446	142.38
599.655	149.38
599.864	138.38
600.073	157.38
600.282	135.38
600.491	142.38
600.7	143.38
600.909	138.38
601.118	166.38
601.327	138.38
601.536	145.38
601.745	157.38
601.953	149.38
602.162	144.38
602.371	145.38
602.58	159.38
602.789	162.38
602.997	157.38
603.206	155.38
603.415	135.38
603.623	146.38
603.832	150.38
604.041	139.38
604.249	127.38
604.458	153.38
604.666	147.38
604.875	157.38
605.084	139.38
605.292	146.38
605.501	153.38
605.709	151.38
605.918	138.38
606.126	128.38
606.334	134.38
606.543	123.38
606.751	126.38
606.96	125.38
607.168	146.38
607.376	125.38
607.585	131.38
607.793	129.38
608.001	132.38
608.21	140.38
608.418	162.38
608.626	146.38
608.834	131.38
609.043	126.38
609.251	138.38
609.459	139.38
609.667	135.38
609.875	135.38
610.083	138.38
610.291	151.38
610.499	137.38
610.707	119.38
610.916	128.38
611.124	135.38
611.332	141.38
611.54	160.38
611.748	148.38
611.955	132.38
612.163	133.38
612.371	135.38
612.579	119.38
612.787	134.38
612.995	149.38
613.203	151.38
613.411	138.38
613.618	120.38
613.826	152.38
614.034	139.38
614.242	133.38
614.449	155.38
614.657	110.38
614.865	123.38
615.072	137.38
615.28	134.38
615.488	133.38
615.695	127.38
615.903	140.38
616.111	146.38
616.318	145.38
616.526	138.38
616.733	121.38
616.941	131.38
617.148	142.38
617.356	127.38
617.563	138.38
617.771	129.38
617.978	130.38
618.185	132.38
618.393	136.38
618.6	121.38
618.807	133.38
619.015	139.38
619.222	133.38
619.429	123.38
619.637	125.38
619.844	125.38
620.051	118.38
620.258	112.38
620.466	120.38
620.673	121.38
620.88	117.38
621.087	131.38
621.294	130.38
621.501	122.38
621.708	120.38
621.915	129.38
622.122	121.38
622.329	119.38
622.536	122.38
622.743	123.38
622.95	118.38
623.157	137.38
623.364	138.38
623.571	148.38
623.778	135.38
623.985	138.38
624.192	121.38
624.399	124.38
624.606	125.38
624.812	133.38
625.019	127.38
625.226	136.38
625.433	120.38
625.639	129.38
625.846	122.38
626.053	121.38
626.259	130.38
626.466	129.38
626.673	131.38
626.879	132.38
627.086	131.38
627.293	122.38
627.499	129.38
627.706	129.38
627.912	136.38
628.119	122.38
628.325	130.38
628.532	119.38
628.738	126.38
628.945	131.38
629.151	129.38
629.357	113.38
629.564	121.38
629.77	113.38
629.976	121.38
630.183	118.38
630.389	120.38
630.595	117.38
630.802	112.38
631.008	105.38
631.214	125.38
631.42	114.38
631.627	106.38
631.833	103.38
632.039	102.38
632.245	114.38
632.451	121.38
632.657	113.38
632.863	118.38
633.069	113.38
633.275	109.38
633.481	120.38
633.688	126.38
633.893	129.38
634.099	103.38
634.305	121.38
634.511	130.38
634.717	124.38
634.923	113.38
635.129	118.38
635.335	131.38
635.541	121.38
635.747	119.38
635.952	111.38
636.158	118.38
636.364	126.38
636.57	125.38
636.775	120.38
636.981	117.38
637.187	111.38
637.392	119.38
637.598	130.38
637.804	115.38
638.009	116.38
638.215	99.38
638.421	117.38
638.626	118.38
638.832	118.38
639.037	109.38
639.243	118.38
639.448	113.38
639.654	118.38
639.859	110.38
640.065	122.38
640.27	113.38
640.475	113.38
640.681	105.38
640.886	105.38
641.091	123.38
641.297	121.38
641.502	110.38
641.707	117.38
641.913	117.38
642.118	112.38
642.323	99.38
642.528	102.38
642.733	100.38
642.939	106.38
643.144	105.38
643.349	109.38
643.554	102.38
643.759	102.38
643.964	116.38
644.169	98.38
644.374	96.38
644.579	108.38
644.784	106.38
644.989	119.38
645.194	113.38
645.399	112.38
645.604	115.38
645.809	106.38
646.014	111.38
646.219	112.38
646.423	98.38
646.628	108.38
646.833	100.38
647.038	106.38
647.243	105.38
647.447	120.38
647.652	116.38
647.857	112.38
648.062	112.38
648.266	110.38
648.471	119.38
648.676	128.38
648.88	115.38
649.085	122.38
649.289	119.38
649.494	121.38
649.698	116.38
649.903	98.38
650.107	112.38
650.312	112.38
650.516	116.38
650.721	109.38
650.925	114.38
651.13	110.38
651.334	109.38
651.539	103.38
651.743	96.38
651.947	109.38
652.152	109.38
652.356	99.38
652.56	96.38
652.764	87.38
652.969	104.38
653.173	103.38
653.377	104.38
653.581	90.38
653.785	95.38
653.99	99.38
654.194	98.38
654.398	98.38
654.602	99.38
654.806	96.38
655.01	101.38
655.214	100.38
655.418	111.38
655.622	93.38
655.826	80.38
656.03	94.38
656.234	83.38
656.438	91.38
656.642	92.38
656.846	95.38
657.049	89.38
657.253	105.38
657.457	90.38
657.661	82.38
657.865	85.38
658.068	89.38
658.272	93.38
658.476	93.38
658.68	97.38
658.883	82.38
659.087	99.38
659.291	86.38
659.494	79.38
659.698	84.38
659.901	88.38
660.105	93.38
660.309	88.38
660.512	84.38
660.716	85.38
660.919	82.38
661.123	83.38
661.326	90.38
661.53	101.38
661.733	80.38
661.936	73.38
662.14	82.38
662.343	80.38
662.546	94.38
662.75	86.38
662.953	80.38
663.156	72.38
663.36	87.38
663.563	88.38
663.766	89.38
663.969	87.38
664.173	77.38
664.376	78.38
664.579	70.38
664.782	76.38
664.985	78.38
665.188	81.38
665.391	93.38
665.594	83.38
665.797	88.38
666	67.38
666.203	85.38
666.406	69.38
666.609	86.38
666.812	77.38
667.015	91.38
667.218	93.38
667.421	89.38
667.624	77.38
667.827	88.38
668.03	62.38
668.232	89.38
668.435	79.38
668.638	77.38
668.841	91.38
669.043	75.38
669.246	73.38
669.449	77.38
669.651	79.38
669.854	77.38
670.057	96.38
670.259	76.38
670.462	71.38
670.665	82.38
670.867	94.38
671.07	81.38
671.272	87.38
671.475	81.38
671.677	81.38
671.88	80.38
672.082	95.38
672.284	83.38
672.487	72.38
672.689	83.38
672.892	88.38
