Data from NickelSpatula.Lamp.E5.5.P2_HRD10591_11-51-49-558.txt Node
Date: Tue Jul 23 11:51:49 EDT 2019
User: cochatt
Spectrometer: HR+D1059
Trigger mode: 1
Integration Time (sec): 1.000000E-1
Scans to average: 1
Electric dark correction enabled: true
Nonlinearity correction enabled: false
Boxcar width: 0
XAxis mode: Wavelengths
Number of Pixels in Spectrum: 2048
>>>>>Begin Spectral Data<<<<<
223.165	-17.31
223.4	-17.31
223.635	-17.31
223.869	-32.31
224.104	-26.31
224.338	-11.31
224.573	-13.31
224.808	-10.31
225.042	-1.31
225.277	0.69
225.511	11.69
225.746	1.69
225.98	-3.31
226.215	10.69
226.449	8.69
226.683	22.69
226.918	22.69
227.152	36.69
227.387	34.69
227.621	39.69
227.856	50.69
228.09	44.69
228.324	56.69
228.559	72.69
228.793	64.69
229.027	73.69
229.262	76.69
229.496	88.69
229.73	82.69
229.964	86.69
230.199	86.69
230.433	95.69
230.667	92.69
230.901	97.69
231.136	84.69
231.37	103.69
231.604	98.69
231.838	109.69
232.072	115.69
232.306	110.69
232.541	108.69
232.775	99.69
233.009	108.69
233.243	126.69
233.477	98.69
233.711	126.69
233.945	117.69
234.179	127.69
234.413	130.69
234.647	137.69
234.881	185.69
235.115	148.69
235.349	125.69
235.583	127.69
235.817	131.69
236.051	130.69
236.285	142.69
236.519	155.69
236.753	127.69
236.987	136.69
237.221	127.69
237.455	140.69
237.689	134.69
237.922	132.69
238.156	161.69
238.39	154.69
238.624	171.69
238.858	166.69
239.091	139.69
239.325	162.69
239.559	150.69
239.793	153.69
240.027	190.69
240.26	158.69
240.494	151.69
240.728	166.69
240.961	188.69
241.195	155.69
241.429	184.69
241.662	164.69
241.896	138.69
242.13	147.69
242.363	144.69
242.597	148.69
242.83	165.69
243.064	158.69
243.298	178.69
243.531	172.69
243.765	198.69
243.998	167.69
244.232	168.69
244.465	175.69
244.699	161.69
244.932	161.69
245.166	171.69
245.399	159.69
245.633	163.69
245.866	162.69
246.099	169.69
246.333	186.69
246.566	202.69
246.8	206.69
247.033	201.69
247.266	165.69
247.5	176.69
247.733	167.69
247.966	179.69
248.2	190.69
248.433	209.69
248.666	208.69
248.899	201.69
249.133	194.69
249.366	225.69
249.599	252.69
249.832	215.69
250.066	232.69
250.299	228.69
250.532	214.69
250.765	212.69
250.998	201.69
251.231	175.69
251.465	187.69
251.698	209.69
251.931	212.69
252.164	207.69
252.397	230.69
252.63	251.69
252.863	269.69
253.096	271.69
253.329	251.69
253.562	258.69
253.795	256.69
254.028	300.69
254.261	307.69
254.494	282.69
254.727	268.69
254.96	263.69
255.193	275.69
255.426	258.69
255.659	228.69
255.892	194.69
256.124	201.69
256.357	242.69
256.59	289.69
256.823	265.69
257.056	209.69
257.289	212.69
257.521	220.69
257.754	247.69
257.987	313.69
258.22	264.69
258.452	228.69
258.685	280.69
258.918	291.69
259.151	314.69
259.383	286.69
259.616	341.69
259.849	342.69
260.081	368.69
260.314	407.69
260.547	335.69
260.779	336.69
261.012	381.69
261.244	355.69
261.477	369.69
261.71	340.69
261.942	286.69
262.175	292.69
262.407	288.69
262.64	304.69
262.872	346.69
263.105	353.69
263.337	390.69
263.57	338.69
263.802	266.69
264.035	223.69
264.267	228.69
264.499	218.69
264.732	189.69
264.964	206.69
265.197	183.69
265.429	213.69
265.661	211.69
265.894	225.69
266.126	240.69
266.358	264.69
266.591	294.69
266.823	339.69
267.055	314.69
267.287	289.69
267.52	292.69
267.752	327.69
267.984	329.69
268.216	309.69
268.448	282.69
268.681	267.69
268.913	294.69
269.145	303.69
269.377	313.69
269.609	314.69
269.841	282.69
270.073	289.69
270.306	307.69
270.538	326.69
270.77	341.69
271.002	323.69
271.234	337.69
271.466	343.69
271.698	323.69
271.93	309.69
272.162	316.69
272.394	331.69
272.626	300.69
272.858	322.69
273.09	327.69
273.322	294.69
273.553	277.69
273.785	314.69
274.017	411.69
274.249	473.69
274.481	496.69
274.713	554.69
274.945	612.69
275.176	616.69
275.408	545.69
275.64	528.69
275.872	524.69
276.104	444.69
276.335	408.69
276.567	422.69
276.799	406.69
277.031	458.69
277.262	376.69
277.494	293.69
277.726	284.69
277.957	302.69
278.189	336.69
278.421	335.69
278.652	309.69
278.884	294.69
279.115	292.69
279.347	280.69
279.579	306.69
279.81	280.69
280.042	281.69
280.273	299.69
280.505	281.69
280.736	255.69
280.968	241.69
281.199	266.69
281.431	305.69
281.662	290.69
281.894	289.69
282.125	298.69
282.356	312.69
282.588	328.69
282.819	304.69
283.051	314.69
283.282	372.69
283.513	398.69
283.745	459.69
283.976	446.69
284.207	419.69
284.439	421.69
284.67	428.69
284.901	388.69
285.132	414.69
285.364	445.69
285.595	394.69
285.826	430.69
286.057	427.69
286.288	409.69
286.52	407.69
286.751	449.69
286.982	451.69
287.213	421.69
287.444	376.69
287.675	407.69
287.906	409.69
288.138	366.69
288.369	319.69
288.6	310.69
288.831	312.69
289.062	360.69
289.293	399.69
289.524	376.69
289.755	358.69
289.986	356.69
290.217	328.69
290.448	283.69
290.679	251.69
290.91	243.69
291.141	212.69
291.371	231.69
291.602	242.69
291.833	232.69
292.064	245.69
292.295	264.69
292.526	307.69
292.757	327.69
292.987	349.69
293.218	347.69
293.449	386.69
293.68	398.69
293.91	363.69
294.141	380.69
294.372	363.69
294.603	326.69
294.833	357.69
295.064	432.69
295.295	416.69
295.525	344.69
295.756	288.69
295.987	260.69
296.217	246.69
296.448	243.69
296.679	244.69
296.909	279.69
297.14	306.69
297.37	328.69
297.601	306.69
297.831	281.69
298.062	303.69
298.292	304.69
298.523	330.69
298.753	391.69
298.984	359.69
299.214	310.69
299.445	280.69
299.675	248.69
299.905	267.69
300.136	246.69
300.366	274.69
300.597	276.69
300.827	260.69
301.057	249.69
301.288	248.69
301.518	270.69
301.748	292.69
301.979	311.69
302.209	332.69
302.439	313.69
302.669	292.69
302.9	299.69
303.13	274.69
303.36	277.69
303.59	262.69
303.82	252.69
304.051	304.69
304.281	315.69
304.511	291.69
304.741	289.69
304.971	284.69
305.201	310.69
305.431	295.69
305.661	241.69
305.891	265.69
306.121	258.69
306.352	234.69
306.582	229.69
306.812	220.69
307.042	231.69
307.272	210.69
307.502	219.69
307.731	215.69
307.961	230.69
308.191	230.69
308.421	213.69
308.651	208.69
308.881	207.69
309.111	211.69
309.341	207.69
309.571	227.69
309.8	230.69
310.03	229.69
310.26	237.69
310.49	246.69
310.72	202.69
310.949	226.69
311.179	217.69
311.409	222.69
311.639	252.69
311.868	308.69
312.098	385.69
312.328	413.69
312.557	413.69
312.787	399.69
313.017	359.69
313.246	394.69
313.476	438.69
313.706	362.69
313.935	302.69
314.165	260.69
314.394	235.69
314.624	246.69
314.853	248.69
315.083	249.69
315.312	241.69
315.542	250.69
315.771	228.69
316.001	242.69
316.23	209.69
316.46	209.69
316.689	204.69
316.919	216.69
317.148	219.69
317.377	220.69
317.607	208.69
317.836	222.69
318.065	254.69
318.295	290.69
318.524	263.69
318.753	224.69
318.983	231.69
319.212	224.69
319.441	229.69
319.67	267.69
319.9	278.69
320.129	262.69
320.358	247.69
320.587	254.69
320.816	238.69
321.046	252.69
321.275	296.69
321.504	289.69
321.733	272.69
321.962	257.69
322.191	271.69
322.42	258.69
322.649	258.69
322.878	262.69
323.108	254.69
323.337	257.69
323.566	260.69
323.795	256.69
324.024	256.69
324.253	240.69
324.482	240.69
324.71	263.69
324.939	268.69
325.168	266.69
325.397	249.69
325.626	230.69
325.855	218.69
326.084	231.69
326.313	220.69
326.542	220.69
326.77	217.69
326.999	222.69
327.228	212.69
327.457	247.69
327.686	240.69
327.914	231.69
328.143	212.69
328.372	212.69
328.6	212.69
328.829	223.69
329.058	216.69
329.287	214.69
329.515	215.69
329.744	222.69
329.972	215.69
330.201	202.69
330.43	235.69
330.658	234.69
330.887	243.69
331.115	255.69
331.344	248.69
331.572	246.69
331.801	213.69
332.03	218.69
332.258	242.69
332.486	241.69
332.715	258.69
332.943	228.69
333.172	238.69
333.4	237.69
333.629	260.69
333.857	286.69
334.085	265.69
334.314	266.69
334.542	260.69
334.771	246.69
334.999	244.69
335.227	235.69
335.455	240.69
335.684	250.69
335.912	272.69
336.14	292.69
336.369	303.69
336.597	278.69
336.825	292.69
337.053	343.69
337.281	288.69
337.51	250.69
337.738	238.69
337.966	241.69
338.194	282.69
338.422	243.69
338.65	225.69
338.878	206.69
339.106	230.69
339.334	237.69
339.562	248.69
339.79	235.69
340.018	228.69
340.246	249.69
340.474	276.69
340.702	304.69
340.93	294.69
341.158	307.69
341.386	257.69
341.614	238.69
341.842	249.69
342.07	260.69
342.298	279.69
342.526	300.69
342.754	266.69
342.981	262.69
343.209	254.69
343.437	272.69
343.665	274.69
343.893	282.69
344.12	321.69
344.348	394.69
344.576	340.69
344.804	286.69
345.031	243.69
345.259	222.69
345.487	249.69
345.714	246.69
345.942	263.69
346.17	279.69
346.397	284.69
346.625	242.69
346.853	238.69
347.08	217.69
347.308	260.69
347.535	293.69
347.763	276.69
347.99	256.69
348.218	247.69
348.445	244.69
348.673	239.69
348.9	251.69
349.128	255.69
349.355	247.69
349.583	247.69
349.81	244.69
350.037	231.69
350.265	232.69
350.492	215.69
350.72	210.69
350.947	199.69
351.174	232.69
351.402	237.69
351.629	240.69
351.856	211.69
352.083	220.69
352.311	231.69
352.538	245.69
352.765	260.69
352.992	246.69
353.22	247.69
353.447	265.69
353.674	252.69
353.901	242.69
354.128	243.69
354.355	254.69
354.583	243.69
354.81	239.69
355.037	263.69
355.264	251.69
355.491	264.69
355.718	268.69
355.945	250.69
356.172	265.69
356.399	248.69
356.626	310.69
356.853	343.69
357.08	362.69
357.307	366.69
357.534	310.69
357.761	322.69
357.988	410.69
358.215	444.69
358.441	390.69
358.668	352.69
358.895	323.69
359.122	275.69
359.349	288.69
359.576	318.69
359.802	296.69
360.029	252.69
360.256	248.69
360.483	281.69
360.709	353.69
360.936	370.69
361.163	334.69
361.39	266.69
361.616	249.69
361.843	288.69
362.07	314.69
362.296	296.69
362.523	268.69
362.749	219.69
362.976	243.69
363.203	290.69
363.429	295.69
363.656	250.69
363.882	257.69
364.109	233.69
364.335	233.69
364.562	229.69
364.788	260.69
365.015	295.69
365.241	268.69
365.468	233.69
365.694	214.69
365.92	206.69
366.147	195.69
366.373	195.69
366.599	200.69
366.826	200.69
367.052	192.69
367.278	230.69
367.505	204.69
367.731	225.69
367.957	250.69
368.184	255.69
368.41	245.69
368.636	232.69
368.862	257.69
369.089	256.69
369.315	218.69
369.541	210.69
369.767	210.69
369.993	212.69
370.219	212.69
370.445	236.69
370.672	258.69
370.898	248.69
371.124	267.69
371.35	220.69
371.576	244.69
371.802	231.69
372.028	276.69
372.254	341.69
372.48	265.69
372.706	256.69
372.932	258.69
373.158	283.69
373.384	302.69
373.61	382.69
373.835	396.69
374.061	303.69
374.287	298.69
374.513	316.69
374.739	384.69
374.965	378.69
375.191	372.69
375.416	288.69
375.642	251.69
375.868	284.69
376.094	323.69
376.319	280.69
376.545	285.69
376.771	295.69
376.997	274.69
377.222	226.69
377.448	195.69
377.674	196.69
377.899	200.69
378.125	212.69
378.35	205.69
378.576	211.69
378.802	209.69
379.027	252.69
379.253	232.69
379.478	232.69
379.704	246.69
379.929	258.69
380.155	288.69
380.38	238.69
380.606	246.69
380.831	281.69
381.057	264.69
381.282	231.69
381.507	284.69
381.733	327.69
381.958	352.69
382.184	355.69
382.409	356.69
382.634	362.69
382.86	378.69
383.085	328.69
383.31	278.69
383.535	270.69
383.761	291.69
383.986	268.69
384.211	333.69
384.436	311.69
384.662	262.69
384.887	249.69
385.112	258.69
385.337	262.69
385.562	267.69
385.787	295.69
386.013	306.69
386.238	318.69
386.463	257.69
386.688	253.69
386.913	240.69
387.138	236.69
387.363	238.69
387.588	244.69
387.813	247.69
388.038	277.69
388.263	264.69
388.488	230.69
388.713	283.69
388.938	295.69
389.163	250.69
389.387	217.69
389.612	247.69
389.837	245.69
390.062	258.69
390.287	252.69
390.512	256.69
390.736	216.69
390.961	244.69
391.186	241.69
391.411	222.69
391.636	226.69
391.86	260.69
392.085	282.69
392.31	264.69
392.534	251.69
392.759	263.69
392.984	269.69
393.208	254.69
393.433	227.69
393.658	218.69
393.882	218.69
394.107	210.69
394.331	231.69
394.556	225.69
394.78	224.69
395.005	222.69
395.229	215.69
395.454	220.69
395.678	223.69
395.903	219.69
396.127	235.69
396.352	218.69
396.576	247.69
396.801	277.69
397.025	258.69
397.249	265.69
397.474	229.69
397.698	250.69
397.922	262.69
398.147	249.69
398.371	238.69
398.595	243.69
398.82	260.69
399.044	270.69
399.268	274.69
399.492	279.69
399.717	293.69
399.941	297.69
400.165	279.69
400.389	252.69
400.613	272.69
400.837	262.69
401.062	223.69
401.286	229.69
401.51	246.69
401.734	236.69
401.958	264.69
402.182	239.69
402.406	244.69
402.63	244.69
402.854	279.69
403.078	310.69
403.302	385.69
403.526	396.69
403.75	347.69
403.974	301.69
404.198	306.69
404.422	332.69
404.645	353.69
404.869	380.69
405.093	295.69
405.317	263.69
405.541	272.69
405.765	265.69
405.988	268.69
406.212	296.69
406.436	298.69
406.66	350.69
406.883	288.69
407.107	297.69
407.331	333.69
407.555	325.69
407.778	318.69
408.002	306.69
408.226	296.69
408.449	280.69
408.673	258.69
408.896	259.69
409.12	251.69
409.344	235.69
409.567	231.69
409.791	254.69
410.014	246.69
410.238	259.69
410.461	241.69
410.685	260.69
410.908	242.69
411.132	267.69
411.355	239.69
411.578	236.69
411.802	248.69
412.025	256.69
412.249	247.69
412.472	252.69
412.695	263.69
412.919	236.69
413.142	262.69
413.365	277.69
413.589	263.69
413.812	269.69
414.035	278.69
414.258	244.69
414.482	258.69
414.705	279.69
414.928	243.69
415.151	241.69
415.374	234.69
415.597	228.69
415.821	234.69
416.044	228.69
416.267	256.69
416.49	243.69
416.713	231.69
416.936	235.69
417.159	235.69
417.382	230.69
417.605	248.69
417.828	250.69
418.051	253.69
418.274	235.69
418.497	245.69
418.72	227.69
418.943	260.69
419.166	272.69
419.389	293.69
419.611	266.69
419.834	273.69
420.057	272.69
420.28	296.69
420.503	272.69
420.726	239.69
420.948	241.69
421.171	229.69
421.394	250.69
421.617	242.69
421.839	242.69
422.062	232.69
422.285	258.69
422.507	258.69
422.73	243.69
422.953	257.69
423.175	242.69
423.398	240.69
423.621	254.69
423.843	280.69
424.066	274.69
424.288	258.69
424.511	259.69
424.733	245.69
424.956	258.69
425.178	281.69
425.401	311.69
425.623	368.69
425.846	309.69
426.068	281.69
426.291	295.69
426.513	255.69
426.735	256.69
426.958	248.69
427.18	285.69
427.402	369.69
427.625	388.69
427.847	330.69
428.069	260.69
428.292	244.69
428.514	245.69
428.736	231.69
428.958	268.69
429.181	318.69
429.403	268.69
429.625	239.69
429.847	239.69
430.069	222.69
430.292	246.69
430.514	234.69
430.736	238.69
430.958	280.69
431.18	265.69
431.402	217.69
431.624	233.69
431.846	231.69
432.068	226.69
432.29	228.69
432.512	244.69
432.734	305.69
432.956	282.69
433.178	233.69
433.4	234.69
433.622	249.69
433.844	245.69
434.066	249.69
434.287	275.69
434.509	254.69
434.731	256.69
434.953	239.69
435.175	266.69
435.397	294.69
435.618	267.69
435.84	227.69
436.062	216.69
436.284	236.69
436.505	215.69
436.727	210.69
436.949	212.69
437.17	212.69
437.392	229.69
437.614	230.69
437.835	215.69
438.057	219.69
438.278	244.69
438.5	321.69
438.721	323.69
438.943	247.69
439.165	228.69
439.386	228.69
439.608	221.69
439.829	212.69
440.05	219.69
440.272	231.69
440.493	248.69
440.715	321.69
440.936	280.69
441.158	241.69
441.379	226.69
441.6	259.69
441.822	282.69
442.043	241.69
442.264	235.69
442.486	257.69
442.707	222.69
442.928	252.69
443.149	252.69
443.371	247.69
443.592	261.69
443.813	254.69
444.034	238.69
444.255	249.69
444.476	266.69
444.698	250.69
444.919	279.69
445.14	364.69
445.361	297.69
445.582	267.69
445.803	263.69
446.024	254.69
446.245	254.69
446.466	252.69
446.687	256.69
446.908	237.69
447.129	227.69
447.35	227.69
447.571	241.69
447.792	220.69
448.013	229.69
448.234	225.69
448.455	211.69
448.675	221.69
448.896	212.69
449.117	216.69
449.338	230.69
449.559	222.69
449.779	235.69
450	237.69
450.221	232.69
450.442	219.69
450.662	227.69
450.883	215.69
451.104	249.69
451.324	224.69
451.545	225.69
451.766	230.69
451.986	233.69
452.207	209.69
452.428	203.69
452.648	218.69
452.869	225.69
453.089	218.69
453.31	222.69
453.53	216.69
453.751	214.69
453.971	223.69
454.192	227.69
454.412	237.69
454.633	210.69
454.853	212.69
455.073	206.69
455.294	202.69
455.514	207.69
455.734	212.69
455.955	209.69
456.175	210.69
456.395	220.69
456.616	215.69
456.836	186.69
457.056	208.69
457.276	200.69
457.497	204.69
457.717	203.69
457.937	190.69
458.157	206.69
458.377	200.69
458.598	208.69
458.818	213.69
459.038	225.69
459.258	241.69
459.478	245.69
459.698	266.69
459.918	264.69
460.138	259.69
460.358	258.69
460.578	241.69
460.798	255.69
461.018	256.69
461.238	256.69
461.458	262.69
461.678	261.69
461.898	257.69
462.118	262.69
462.338	260.69
462.558	257.69
462.777	284.69
462.997	294.69
463.217	262.69
463.437	299.69
463.657	290.69
463.876	276.69
464.096	290.69
464.316	271.69
464.536	260.69
464.755	294.69
464.975	308.69
465.195	263.69
465.414	268.69
465.634	267.69
465.854	246.69
466.073	236.69
466.293	228.69
466.512	250.69
466.732	248.69
466.951	260.69
467.171	253.69
467.391	233.69
467.61	230.69
467.829	229.69
468.049	234.69
468.268	253.69
468.488	216.69
468.707	223.69
468.927	261.69
469.146	290.69
469.365	256.69
469.585	248.69
469.804	258.69
470.023	285.69
470.243	262.69
470.462	247.69
470.681	251.69
470.901	258.69
471.12	265.69
471.339	268.69
471.558	237.69
471.777	251.69
471.997	286.69
472.216	278.69
472.435	270.69
472.654	250.69
472.873	242.69
473.092	276.69
473.311	267.69
473.53	242.69
473.749	230.69
473.968	261.69
474.187	254.69
474.406	240.69
474.625	235.69
474.844	250.69
475.063	253.69
475.282	248.69
475.501	283.69
475.72	309.69
475.939	297.69
476.158	268.69
476.377	312.69
476.596	360.69
476.814	373.69
477.033	314.69
477.252	280.69
477.471	254.69
477.69	261.69
477.908	278.69
478.127	295.69
478.346	262.69
478.564	302.69
478.783	295.69
479.002	286.69
479.22	330.69
479.439	340.69
479.658	298.69
479.876	288.69
480.095	291.69
480.313	303.69
480.532	306.69
480.751	268.69
480.969	283.69
481.188	306.69
481.406	318.69
481.624	296.69
481.843	304.69
482.061	254.69
482.28	313.69
482.498	340.69
482.717	360.69
482.935	292.69
483.153	283.69
483.372	270.69
483.59	267.69
483.808	283.69
484.027	274.69
484.245	253.69
484.463	246.69
484.681	252.69
484.9	286.69
485.118	291.69
485.336	274.69
485.554	282.69
485.772	283.69
485.99	294.69
486.209	304.69
486.427	315.69
486.645	280.69
486.863	311.69
487.081	305.69
487.299	336.69
487.517	320.69
487.735	282.69
487.953	303.69
488.171	283.69
488.389	264.69
488.607	269.69
488.825	288.69
489.043	299.69
489.261	335.69
489.479	342.69
489.696	283.69
489.914	290.69
490.132	278.69
490.35	282.69
490.568	263.69
490.786	282.69
491.003	276.69
491.221	288.69
491.439	259.69
491.657	291.69
491.874	299.69
492.092	350.69
492.31	388.69
492.527	406.69
492.745	343.69
492.963	299.69
493.18	311.69
493.398	312.69
493.615	317.69
493.833	318.69
494.05	289.69
494.268	302.69
494.485	307.69
494.703	284.69
494.92	296.69
495.138	282.69
495.355	282.69
495.573	296.69
495.79	323.69
496.008	406.69
496.225	350.69
496.442	297.69
496.66	320.69
496.877	339.69
497.094	329.69
497.312	297.69
497.529	299.69
497.746	311.69
497.963	320.69
498.181	353.69
498.398	364.69
498.615	356.69
498.832	383.69
499.049	402.69
499.267	374.69
499.484	403.69
499.701	440.69
499.918	448.69
500.135	536.69
500.352	542.69
500.569	589.69
500.786	567.69
501.003	554.69
501.22	510.69
501.437	450.69
501.654	424.69
501.871	381.69
502.088	373.69
502.305	365.69
502.522	346.69
502.739	352.69
502.956	333.69
503.172	321.69
503.389	329.69
503.606	322.69
503.823	298.69
504.04	314.69
504.256	359.69
504.473	340.69
504.69	333.69
504.907	345.69
505.123	312.69
505.34	322.69
505.557	331.69
505.773	333.69
505.99	308.69
506.207	327.69
506.423	297.69
506.64	278.69
506.856	290.69
507.073	322.69
507.289	302.69
507.506	308.69
507.722	339.69
507.939	313.69
508.155	345.69
508.372	298.69
508.588	299.69
508.805	318.69
509.021	293.69
509.238	291.69
509.454	290.69
509.67	272.69
509.887	303.69
510.103	314.69
510.319	310.69
510.536	281.69
510.752	262.69
510.968	260.69
511.184	262.69
511.401	247.69
511.617	265.69
511.833	254.69
512.049	271.69
512.265	266.69
512.481	268.69
512.698	283.69
512.914	303.69
513.13	297.69
513.346	272.69
513.562	283.69
513.778	281.69
513.994	282.69
514.21	308.69
514.426	295.69
514.642	279.69
514.858	291.69
515.074	291.69
515.29	305.69
515.506	339.69
515.721	325.69
515.937	326.69
516.153	293.69
516.369	284.69
516.585	311.69
516.801	318.69
517.016	362.69
517.232	367.69
517.448	380.69
517.664	333.69
517.879	343.69
518.095	327.69
518.311	311.69
518.527	313.69
518.742	337.69
518.958	368.69
519.173	342.69
519.389	339.69
519.605	321.69
519.82	346.69
520.036	385.69
520.251	403.69
520.467	402.69
520.682	641.69
520.898	803.69
521.113	739.69
521.329	426.69
521.544	384.69
521.76	349.69
521.975	322.69
522.19	326.69
522.406	316.69
522.621	355.69
522.836	358.69
523.052	373.69
523.267	319.69
523.482	298.69
523.698	313.69
523.913	326.69
524.128	300.69
524.343	300.69
524.559	299.69
524.774	289.69
524.989	274.69
525.204	291.69
525.419	324.69
525.634	298.69
525.849	296.69
526.064	308.69
526.28	305.69
526.495	350.69
526.71	376.69
526.925	330.69
527.14	336.69
527.355	345.69
527.57	287.69
527.785	316.69
527.999	287.69
528.214	257.69
528.429	274.69
528.644	264.69
528.859	263.69
529.074	260.69
529.289	267.69
529.503	276.69
529.718	262.69
529.933	324.69
530.148	332.69
530.363	292.69
530.577	257.69
530.792	256.69
531.007	262.69
531.221	274.69
531.436	262.69
531.651	270.69
531.865	271.69
532.08	277.69
532.295	259.69
532.509	280.69
532.724	299.69
532.938	346.69
533.153	376.69
533.367	311.69
533.582	291.69
533.796	286.69
534.011	255.69
534.225	283.69
534.44	269.69
534.654	292.69
534.868	352.69
535.083	305.69
535.297	287.69
535.511	255.69
535.726	298.69
535.94	294.69
536.154	284.69
536.369	256.69
536.583	266.69
536.797	252.69
537.011	267.69
537.225	277.69
537.44	287.69
537.654	267.69
537.868	258.69
538.082	264.69
538.296	257.69
538.51	279.69
538.724	262.69
538.938	280.69
539.153	250.69
539.367	269.69
539.581	264.69
539.795	252.69
540.009	303.69
540.222	274.69
540.436	282.69
540.65	288.69
540.864	295.69
541.078	316.69
541.292	370.69
541.506	282.69
541.72	279.69
541.934	266.69
542.147	270.69
542.361	284.69
542.575	280.69
542.789	260.69
543.002	253.69
543.216	269.69
543.43	265.69
543.644	245.69
543.857	256.69
544.071	240.69
544.285	264.69
544.498	238.69
544.712	246.69
544.925	269.69
545.139	259.69
545.352	229.69
545.566	245.69
545.779	262.69
545.993	277.69
546.206	228.69
546.42	229.69
546.633	210.69
546.847	215.69
547.06	236.69
547.274	238.69
547.487	230.69
547.7	237.69
547.914	242.69
548.127	273.69
548.34	277.69
548.554	251.69
548.767	268.69
548.98	274.69
549.193	245.69
549.407	274.69
549.62	310.69
549.833	290.69
550.046	304.69
550.259	286.69
550.473	263.69
550.686	258.69
550.899	271.69
551.112	259.69
551.325	273.69
551.538	274.69
551.751	249.69
551.964	246.69
552.177	256.69
552.39	247.69
552.603	251.69
552.816	259.69
553.029	254.69
553.242	265.69
553.455	266.69
553.667	272.69
553.88	286.69
554.093	247.69
554.306	215.69
554.519	220.69
554.732	224.69
554.944	201.69
555.157	224.69
555.37	215.69
555.583	226.69
555.795	208.69
556.008	220.69
556.221	220.69
556.433	237.69
556.646	240.69
556.859	213.69
557.071	214.69
557.284	215.69
557.496	227.69
557.709	230.69
557.921	221.69
558.134	232.69
558.346	197.69
558.559	219.69
558.771	202.69
558.984	228.69
559.196	217.69
559.409	196.69
559.621	206.69
559.833	193.69
560.046	210.69
560.258	212.69
560.47	216.69
560.683	221.69
560.895	204.69
561.107	202.69
561.32	207.69
561.532	216.69
561.744	229.69
561.956	218.69
562.168	204.69
562.381	214.69
562.593	203.69
562.805	222.69
563.017	202.69
563.229	204.69
563.441	184.69
563.653	207.69
563.865	201.69
564.077	206.69
564.289	212.69
564.501	226.69
564.713	222.69
564.925	222.69
565.137	217.69
565.349	202.69
565.561	217.69
565.773	226.69
565.985	222.69
566.197	226.69
566.408	252.69
566.62	269.69
566.832	273.69
567.044	266.69
567.255	283.69
567.467	306.69
567.679	284.69
567.891	283.69
568.102	270.69
568.314	295.69
568.526	264.69
568.737	252.69
568.949	248.69
569.161	214.69
569.372	222.69
569.584	200.69
569.795	208.69
570.007	201.69
570.218	211.69
570.43	215.69
570.641	214.69
570.853	207.69
571.064	227.69
571.276	213.69
571.487	226.69
571.698	195.69
571.91	210.69
572.121	207.69
572.333	194.69
572.544	185.69
572.755	206.69
572.966	201.69
573.178	197.69
573.389	207.69
573.6	206.69
573.811	183.69
574.023	184.69
574.234	186.69
574.445	176.69
574.656	183.69
574.867	195.69
575.078	192.69
575.289	189.69
575.501	208.69
575.712	191.69
575.923	193.69
576.134	193.69
576.345	169.69
576.556	195.69
576.767	170.69
576.978	171.69
577.188	184.69
577.399	189.69
577.61	188.69
577.821	178.69
578.032	182.69
578.243	191.69
578.454	187.69
578.665	187.69
578.875	177.69
579.086	178.69
579.297	171.69
579.508	181.69
579.718	193.69
579.929	195.69
580.14	180.69
580.35	176.69
580.561	169.69
580.772	174.69
580.982	166.69
581.193	155.69
581.403	166.69
581.614	155.69
581.825	174.69
582.035	178.69
582.246	175.69
582.456	186.69
582.667	167.69
582.877	153.69
583.087	151.69
583.298	165.69
583.508	183.69
583.719	169.69
583.929	178.69
584.139	158.69
584.35	174.69
584.56	179.69
584.77	176.69
584.981	160.69
585.191	158.69
585.401	163.69
585.611	178.69
585.821	189.69
586.032	183.69
586.242	168.69
586.452	167.69
586.662	161.69
586.872	183.69
587.082	181.69
587.292	171.69
587.502	161.69
587.713	166.69
587.923	163.69
588.133	178.69
588.343	169.69
588.553	165.69
588.762	177.69
588.972	164.69
589.182	154.69
589.392	157.69
589.602	158.69
589.812	184.69
590.022	179.69
590.232	182.69
590.441	162.69
590.651	164.69
590.861	170.69
591.071	168.69
591.281	158.69
591.49	172.69
591.7	148.69
591.91	166.69
592.119	170.69
592.329	158.69
592.539	169.69
592.748	164.69
592.958	176.69
593.167	180.69
593.377	178.69
593.587	191.69
593.796	178.69
594.006	171.69
594.215	175.69
594.424	190.69
594.634	174.69
594.843	180.69
595.053	169.69
595.262	174.69
595.472	151.69
595.681	170.69
595.89	164.69
596.1	164.69
596.309	184.69
596.518	171.69
596.727	170.69
596.937	152.69
597.146	155.69
597.355	174.69
597.564	158.69
597.774	156.69
597.983	161.69
598.192	164.69
598.401	158.69
598.61	167.69
598.819	162.69
599.028	152.69
599.237	142.69
599.446	155.69
599.655	146.69
599.864	154.69
600.073	158.69
600.282	159.69
600.491	143.69
600.7	145.69
600.909	146.69
601.118	143.69
601.327	153.69
601.536	150.69
601.745	152.69
601.953	149.69
602.162	153.69
602.371	154.69
602.58	164.69
602.789	155.69
602.997	148.69
603.206	143.69
603.415	150.69
603.623	140.69
603.832	154.69
604.041	150.69
604.249	138.69
604.458	144.69
604.666	146.69
604.875	161.69
605.084	149.69
605.292	132.69
605.501	141.69
605.709	150.69
605.918	147.69
606.126	150.69
606.334	149.69
606.543	156.69
606.751	162.69
606.96	145.69
607.168	139.69
607.376	146.69
607.585	144.69
607.793	138.69
608.001	146.69
608.21	122.69
608.418	149.69
608.626	132.69
608.834	140.69
609.043	138.69
609.251	129.69
609.459	127.69
609.667	152.69
609.875	132.69
610.083	141.69
610.291	145.69
610.499	147.69
610.707	141.69
610.916	142.69
611.124	135.69
611.332	131.69
611.54	155.69
611.748	154.69
611.955	138.69
612.163	127.69
612.371	131.69
612.579	119.69
612.787	136.69
612.995	138.69
613.203	141.69
613.411	138.69
613.618	158.69
613.826	153.69
614.034	154.69
614.242	136.69
614.449	143.69
614.657	131.69
614.865	138.69
615.072	151.69
615.28	143.69
615.488	147.69
615.695	128.69
615.903	132.69
616.111	142.69
616.318	157.69
616.526	150.69
616.733	146.69
616.941	136.69
617.148	146.69
617.356	138.69
617.563	139.69
617.771	155.69
617.978	144.69
618.185	147.69
618.393	140.69
618.6	139.69
618.807	131.69
619.015	123.69
619.222	141.69
619.429	116.69
619.637	134.69
619.844	128.69
620.051	132.69
620.258	134.69
620.466	136.69
620.673	131.69
620.88	124.69
621.087	132.69
621.294	135.69
621.501	134.69
621.708	136.69
621.915	134.69
622.122	137.69
622.329	143.69
622.536	127.69
622.743	128.69
622.95	130.69
623.157	124.69
623.364	130.69
623.571	132.69
623.778	124.69
623.985	153.69
624.192	138.69
624.399	142.69
624.606	132.69
624.812	119.69
625.019	143.69
625.226	148.69
625.433	131.69
625.639	126.69
625.846	124.69
626.053	126.69
626.259	133.69
626.466	136.69
626.673	132.69
626.879	124.69
627.086	129.69
627.293	139.69
627.499	129.69
627.706	122.69
627.912	119.69
628.119	118.69
628.325	121.69
628.532	120.69
628.738	128.69
628.945	122.69
629.151	128.69
629.357	121.69
629.564	124.69
629.77	127.69
629.976	124.69
630.183	116.69
630.389	114.69
630.595	121.69
630.802	124.69
631.008	112.69
631.214	123.69
631.42	127.69
631.627	130.69
631.833	128.69
632.039	124.69
632.245	126.69
632.451	118.69
632.657	122.69
632.863	116.69
633.069	129.69
633.275	120.69
633.481	122.69
633.688	117.69
633.893	129.69
634.099	114.69
634.305	120.69
634.511	107.69
634.717	110.69
634.923	108.69
635.129	118.69
635.335	104.69
635.541	105.69
635.747	118.69
635.952	119.69
636.158	124.69
636.364	123.69
636.57	120.69
636.775	120.69
636.981	113.69
637.187	124.69
637.392	130.69
637.598	124.69
637.804	108.69
638.009	116.69
638.215	118.69
638.421	114.69
638.626	113.69
638.832	131.69
639.037	119.69
639.243	116.69
639.448	123.69
639.654	119.69
639.859	113.69
640.065	112.69
640.27	111.69
640.475	112.69
640.681	110.69
640.886	128.69
641.091	118.69
641.297	124.69
641.502	119.69
641.707	115.69
641.913	122.69
642.118	121.69
642.323	114.69
642.528	120.69
642.733	115.69
642.939	117.69
643.144	124.69
643.349	112.69
643.554	116.69
643.759	122.69
643.964	101.69
644.169	100.69
644.374	113.69
644.579	112.69
644.784	121.69
644.989	111.69
645.194	116.69
645.399	123.69
645.604	114.69
645.809	114.69
646.014	109.69
646.219	107.69
646.423	110.69
646.628	120.69
646.833	121.69
647.038	112.69
647.243	115.69
647.447	110.69
647.652	120.69
647.857	119.69
648.062	120.69
648.266	127.69
648.471	130.69
648.676	111.69
648.88	118.69
649.085	107.69
649.289	113.69
649.494	108.69
649.698	118.69
649.903	120.69
650.107	119.69
650.312	98.69
650.516	99.69
650.721	105.69
650.925	104.69
651.13	107.69
651.334	114.69
651.539	100.69
651.743	116.69
651.947	112.69
652.152	101.69
652.356	104.69
652.56	104.69
652.764	94.69
652.969	108.69
653.173	114.69
653.377	110.69
653.581	98.69
653.785	114.69
653.99	120.69
654.194	93.69
654.398	110.69
654.602	98.69
654.806	108.69
655.01	103.69
655.214	90.69
655.418	90.69
655.622	108.69
655.826	99.69
656.03	100.69
656.234	101.69
656.438	113.69
656.642	105.69
656.846	107.69
657.049	102.69
657.253	104.69
657.457	94.69
657.661	88.69
657.865	72.69
658.068	90.69
658.272	103.69
658.476	103.69
658.68	95.69
658.883	87.69
659.087	92.69
659.291	80.69
659.494	72.69
659.698	96.69
659.901	86.69
660.105	95.69
660.309	96.69
660.512	83.69
660.716	98.69
660.919	98.69
661.123	95.69
661.326	83.69
661.53	74.69
661.733	80.69
661.936	70.69
662.14	98.69
662.343	70.69
662.546	76.69
662.75	83.69
662.953	87.69
663.156	79.69
663.36	73.69
663.563	90.69
663.766	76.69
663.969	78.69
664.173	92.69
664.376	87.69
664.579	87.69
664.782	87.69
664.985	83.69
665.188	87.69
665.391	82.69
665.594	74.69
665.797	79.69
666	89.69
666.203	87.69
666.406	77.69
666.609	75.69
666.812	69.69
667.015	75.69
667.218	82.69
667.421	71.69
667.624	94.69
667.827	80.69
668.03	79.69
668.232	89.69
668.435	76.69
668.638	71.69
668.841	87.69
669.043	90.69
669.246	86.69
669.449	77.69
669.651	94.69
669.854	83.69
670.057	92.69
670.259	71.69
670.462	87.69
670.665	78.69
670.867	80.69
671.07	91.69
671.272	83.69
671.475	87.69
671.677	91.69
671.88	89.69
672.082	92.69
672.284	98.69
672.487	100.69
672.689	90.69
672.892	89.69
