Data from NickelSpatula.Lamp.E10.P2_HRD10591_12-00-03-524.txt Node
Date: Tue Jul 23 12:00:03 EDT 2019
User: cochatt
Spectrometer: HR+D1059
Trigger mode: 1
Integration Time (sec): 1.000000E-1
Scans to average: 1
Electric dark correction enabled: true
Nonlinearity correction enabled: false
Boxcar width: 0
XAxis mode: Wavelengths
Number of Pixels in Spectrum: 2048
>>>>>Begin Spectral Data<<<<<
223.165	-2.56
223.4	-2.56
223.635	-2.56
223.869	-27.56
224.104	-16.56
224.338	-22.56
224.573	-17.56
224.808	-13.56
225.042	-19.56
225.277	-3.56
225.511	-3.56
225.746	10.44
225.98	10.44
226.215	6.44
226.449	23.44
226.683	26.44
226.918	16.44
227.152	33.44
227.387	39.44
227.621	19.44
227.856	38.44
228.09	31.44
228.324	36.44
228.559	61.44
228.793	92.44
229.027	132.44
229.262	145.44
229.496	171.44
229.73	162.44
229.964	183.44
230.199	201.44
230.433	195.44
230.667	201.44
230.901	212.44
231.136	182.44
231.37	204.44
231.604	231.44
231.838	250.44
232.072	227.44
232.306	251.44
232.541	246.44
232.775	247.44
233.009	261.44
233.243	300.44
233.477	309.44
233.711	347.44
233.945	333.44
234.179	330.44
234.413	339.44
234.647	390.44
234.881	445.44
235.115	437.44
235.349	399.44
235.583	352.44
235.817	361.44
236.051	357.44
236.285	433.44
236.519	477.44
236.753	424.44
236.987	432.44
237.221	407.44
237.455	401.44
237.689	428.44
237.922	468.44
238.156	476.44
238.39	531.44
238.624	659.44
238.858	576.44
239.091	483.44
239.325	541.44
239.559	484.44
239.793	537.44
240.027	639.44
240.26	629.44
240.494	592.44
240.728	604.44
240.961	711.44
241.195	637.44
241.429	633.44
241.662	642.44
241.896	538.44
242.13	501.44
242.363	442.44
242.597	494.44
242.83	539.44
243.064	562.44
243.298	593.44
243.531	621.44
243.765	639.44
243.998	628.44
244.232	589.44
244.465	617.44
244.699	594.44
244.932	661.44
245.166	655.44
245.399	557.44
245.633	560.44
245.866	575.44
246.099	619.44
246.333	733.44
246.566	772.44
246.8	804.44
247.033	767.44
247.266	706.44
247.5	685.44
247.733	672.44
247.966	698.44
248.2	685.44
248.433	766.44
248.666	867.44
248.899	855.44
249.133	882.44
249.366	996.44
249.599	1075.44
249.832	963.44
250.066	816.44
250.299	860.44
250.532	826.44
250.765	821.44
250.998	777.44
251.231	720.44
251.465	787.44
251.698	864.44
251.931	811.44
252.164	860.44
252.397	963.44
252.63	1045.44
252.863	1184.44
253.096	1224.44
253.329	1161.44
253.562	1127.44
253.795	1287.44
254.028	1386.44
254.261	1401.44
254.494	1233.44
254.727	1160.44
254.96	1147.44
255.193	1202.44
255.426	1129.44
255.659	853.44
255.892	789.44
256.124	891.44
256.357	1066.44
256.59	1231.44
256.823	1174.44
257.056	981.44
257.289	932.44
257.521	978.44
257.754	1125.44
257.987	1262.44
258.22	1137.44
258.452	1007.44
258.685	1166.44
258.918	1313.44
259.151	1253.44
259.383	1298.44
259.616	1517.44
259.849	1588.44
260.081	1702.44
260.314	1945.44
260.547	1500.44
260.779	1476.44
261.012	1728.44
261.244	1629.44
261.477	1669.44
261.71	1565.44
261.942	1327.44
262.175	1301.44
262.407	1249.44
262.64	1265.44
262.872	1499.44
263.105	1669.44
263.337	1759.44
263.57	1583.44
263.802	1014.44
264.035	909.44
264.267	854.44
264.499	767.44
264.732	728.44
264.964	716.44
265.197	735.44
265.429	787.44
265.661	817.44
265.894	853.44
266.126	931.44
266.358	1029.44
266.591	1264.44
266.823	1513.44
267.055	1401.44
267.287	1256.44
267.52	1262.44
267.752	1324.44
267.984	1438.44
268.216	1378.44
268.448	1163.44
268.681	1137.44
268.913	1208.44
269.145	1289.44
269.377	1310.44
269.609	1328.44
269.841	1229.44
270.073	1285.44
270.306	1368.44
270.538	1394.44
270.77	1376.44
271.002	1418.44
271.234	1437.44
271.466	1492.44
271.698	1465.44
271.93	1412.44
272.162	1475.44
272.394	1414.44
272.626	1406.44
272.858	1467.44
273.09	1505.44
273.322	1333.44
273.553	1273.44
273.785	1572.44
274.017	2037.44
274.249	2511.44
274.481	2573.44
274.713	2809.44
274.945	3172.44
275.176	3317.44
275.408	2915.44
275.64	2661.44
275.872	2669.44
276.104	2281.44
276.335	1945.44
276.567	1901.44
276.799	2011.44
277.031	2074.44
277.262	1625.44
277.494	1276.44
277.726	1213.44
277.957	1337.44
278.189	1489.44
278.421	1485.44
278.652	1459.44
278.884	1381.44
279.115	1268.44
279.347	1207.44
279.579	1231.44
279.81	1203.44
280.042	1208.44
280.273	1265.44
280.505	1159.44
280.736	1010.44
280.968	1005.44
281.199	1116.44
281.431	1238.44
281.662	1207.44
281.894	1220.44
282.125	1292.44
282.356	1327.44
282.588	1375.44
282.819	1282.44
283.051	1369.44
283.282	1702.44
283.513	1965.44
283.745	2159.44
283.976	2202.44
284.207	1991.44
284.439	2107.44
284.67	2038.44
284.901	1790.44
285.132	2005.44
285.364	2054.44
285.595	1852.44
285.826	1950.44
286.057	2104.44
286.288	1981.44
286.52	2026.44
286.751	2143.44
286.982	2137.44
287.213	1791.44
287.444	1765.44
287.675	1850.44
287.906	1870.44
288.138	1558.44
288.369	1392.44
288.6	1290.44
288.831	1339.44
289.062	1566.44
289.293	1727.44
289.524	1562.44
289.755	1575.44
289.986	1662.44
290.217	1421.44
290.448	1109.44
290.679	977.44
290.91	902.44
291.141	909.44
291.371	990.44
291.602	963.44
291.833	991.44
292.064	1045.44
292.295	1232.44
292.526	1375.44
292.757	1445.44
292.987	1571.44
293.218	1586.44
293.449	1634.44
293.68	1691.44
293.91	1617.44
294.141	1638.44
294.372	1494.44
294.603	1435.44
294.833	1585.44
295.064	1833.44
295.295	1729.44
295.525	1314.44
295.756	1161.44
295.987	1019.44
296.217	1043.44
296.448	1013.44
296.679	1093.44
296.909	1251.44
297.14	1308.44
297.37	1437.44
297.601	1357.44
297.831	1150.44
298.062	1259.44
298.292	1410.44
298.523	1563.44
298.753	1791.44
298.984	1603.44
299.214	1277.44
299.445	1103.44
299.675	1034.44
299.905	1039.44
300.136	1085.44
300.366	1183.44
300.597	1168.44
300.827	1034.44
301.057	1019.44
301.288	1018.44
301.518	1108.44
301.748	1226.44
301.979	1341.44
302.209	1437.44
302.439	1452.44
302.669	1226.44
302.9	1237.44
303.13	1139.44
303.36	1088.44
303.59	1053.44
303.82	1119.44
304.051	1203.44
304.281	1363.44
304.511	1313.44
304.741	1185.44
304.971	1232.44
305.201	1293.44
305.431	1209.44
305.661	1039.44
305.891	1053.44
306.121	1084.44
306.352	951.44
306.582	880.44
306.812	843.44
307.042	865.44
307.272	802.44
307.502	812.44
307.731	887.44
307.961	957.44
308.191	879.44
308.421	797.44
308.651	780.44
308.881	764.44
309.111	803.44
309.341	831.44
309.571	905.44
309.8	915.44
310.03	923.44
310.26	976.44
310.49	1000.44
310.72	868.44
310.949	846.44
311.179	880.44
311.409	923.44
311.639	1135.44
311.868	1392.44
312.098	1778.44
312.328	1972.44
312.557	1842.44
312.787	1885.44
313.017	1687.44
313.246	1813.44
313.476	1995.44
313.706	1645.44
313.935	1321.44
314.165	1013.44
314.394	945.44
314.624	965.44
314.853	1002.44
315.083	1068.44
315.312	1013.44
315.542	1028.44
315.771	949.44
316.001	876.44
316.23	829.44
316.46	835.44
316.689	845.44
316.919	865.44
317.148	869.44
317.377	880.44
317.607	891.44
317.836	951.44
318.065	1114.44
318.295	1234.44
318.524	1127.44
318.753	981.44
318.983	961.44
319.212	913.44
319.441	1005.44
319.67	1137.44
319.9	1201.44
320.129	1115.44
320.358	977.44
320.587	967.44
320.816	1030.44
321.046	1168.44
321.275	1315.44
321.504	1301.44
321.733	1284.44
321.962	1232.44
322.191	1183.44
322.42	1093.44
322.649	1120.44
322.878	1202.44
323.108	1220.44
323.337	1098.44
323.566	1065.44
323.795	1074.44
324.024	1011.44
324.253	964.44
324.482	973.44
324.71	1103.44
324.939	1217.44
325.168	1145.44
325.397	961.44
325.626	942.44
325.855	915.44
326.084	918.44
326.313	861.44
326.542	805.44
326.77	886.44
326.999	948.44
327.228	981.44
327.457	1040.44
327.686	1011.44
327.914	885.44
328.143	844.44
328.372	853.44
328.6	835.44
328.829	873.44
329.058	911.44
329.287	884.44
329.515	884.44
329.744	876.44
329.972	851.44
330.201	813.44
330.43	839.44
330.658	977.44
330.887	1086.44
331.115	1013.44
331.344	997.44
331.572	940.44
331.801	915.44
332.03	862.44
332.258	877.44
332.486	961.44
332.715	969.44
332.943	909.44
333.172	913.44
333.4	906.44
333.629	1030.44
333.857	1113.44
334.085	1091.44
334.314	1102.44
334.542	1057.44
334.771	967.44
334.999	971.44
335.227	934.44
335.455	959.44
335.684	1043.44
335.912	1176.44
336.14	1327.44
336.369	1265.44
336.597	1211.44
336.825	1359.44
337.053	1514.44
337.281	1213.44
337.51	995.44
337.738	984.44
337.966	1057.44
338.194	1195.44
338.422	1125.44
338.65	972.44
338.878	871.44
339.106	925.44
339.334	1021.44
339.562	1087.44
339.79	1035.44
340.018	982.44
340.246	1057.44
340.474	1205.44
340.702	1249.44
340.93	1335.44
341.158	1344.44
341.386	1132.44
341.614	1116.44
341.842	1118.44
342.07	1160.44
342.298	1335.44
342.526	1391.44
342.754	1197.44
342.981	1105.44
343.209	1046.44
343.437	1156.44
343.665	1180.44
343.893	1205.44
344.12	1393.44
344.348	1577.44
344.576	1430.44
344.804	1188.44
345.031	1051.44
345.259	964.44
345.487	1003.44
345.714	1044.44
345.942	1126.44
346.17	1211.44
346.397	1134.44
346.625	973.44
346.853	969.44
347.08	927.44
347.308	992.44
347.535	1117.44
347.763	1129.44
347.99	1003.44
348.218	907.44
348.445	928.44
348.673	961.44
348.9	973.44
349.128	1060.44
349.355	1094.44
349.583	1076.44
349.81	967.44
350.037	943.44
350.265	832.44
350.492	797.44
350.72	819.44
350.947	876.44
351.174	893.44
351.402	940.44
351.629	983.44
351.856	942.44
352.083	889.44
352.311	972.44
352.538	1078.44
352.765	1153.44
352.992	1049.44
353.22	981.44
353.447	978.44
353.674	967.44
353.901	983.44
354.128	962.44
354.355	996.44
354.583	980.44
354.81	1006.44
355.037	1014.44
355.264	994.44
355.491	1089.44
355.718	1161.44
355.945	1125.44
356.172	1101.44
356.399	1099.44
356.626	1360.44
356.853	1618.44
357.08	1709.44
357.307	1757.44
357.534	1376.44
357.761	1384.44
357.988	1757.44
358.215	2080.44
358.441	1972.44
358.668	1614.44
358.895	1513.44
359.122	1222.44
359.349	1216.44
359.576	1333.44
359.802	1072.44
360.029	943.44
360.256	1005.44
360.483	1279.44
360.709	1652.44
360.936	1652.44
361.163	1487.44
361.39	1135.44
361.616	1050.44
361.843	1235.44
362.07	1529.44
362.296	1391.44
362.523	1078.44
362.749	930.44
362.976	1011.44
363.203	1235.44
363.429	1353.44
363.656	1055.44
363.882	1003.44
364.109	1024.44
364.335	998.44
364.562	961.44
364.788	1145.44
365.015	1316.44
365.241	1197.44
365.468	953.44
365.694	841.44
365.92	825.44
366.147	780.44
366.373	783.44
366.599	809.44
366.826	785.44
367.052	840.44
367.278	842.44
367.505	827.44
367.731	911.44
367.957	1014.44
368.184	1058.44
368.41	1017.44
368.636	1043.44
368.862	1058.44
369.089	1014.44
369.315	916.44
369.541	897.44
369.767	873.44
369.993	863.44
370.219	834.44
370.445	907.44
370.672	1035.44
370.898	1100.44
371.124	1101.44
371.35	957.44
371.576	915.44
371.802	969.44
372.028	1182.44
372.254	1326.44
372.48	1132.44
372.706	1063.44
372.932	1092.44
373.158	1157.44
373.384	1395.44
373.61	1849.44
373.835	1880.44
374.061	1372.44
374.287	1199.44
374.513	1420.44
374.739	1665.44
374.965	1735.44
375.191	1664.44
375.416	1161.44
375.642	1044.44
375.868	1248.44
376.094	1370.44
376.319	1161.44
376.545	1328.44
376.771	1371.44
376.997	1145.44
377.222	847.44
377.448	749.44
377.674	747.44
377.899	745.44
378.125	756.44
378.35	758.44
378.576	798.44
378.802	871.44
379.027	944.44
379.253	883.44
379.478	917.44
379.704	1060.44
379.929	1103.44
380.155	1077.44
380.38	952.44
380.606	1023.44
380.831	1118.44
381.057	1015.44
381.282	1006.44
381.507	1171.44
381.733	1439.44
381.958	1579.44
382.184	1666.44
382.409	1728.44
382.634	1655.44
382.86	1791.44
383.085	1437.44
383.31	1132.44
383.535	1246.44
383.761	1235.44
383.986	1178.44
384.211	1403.44
384.436	1359.44
384.662	1054.44
384.887	990.44
385.112	1013.44
385.337	1065.44
385.562	959.44
385.787	1099.44
386.013	1188.44
386.238	1275.44
386.463	1038.44
386.688	973.44
386.913	962.44
387.138	894.44
387.363	990.44
387.588	977.44
387.813	995.44
388.038	1107.44
388.263	1012.44
388.488	950.44
388.713	1134.44
388.938	1246.44
389.163	1011.44
389.387	931.44
389.612	919.44
389.837	948.44
390.062	967.44
390.287	993.44
390.512	1010.44
390.736	938.44
390.961	897.44
391.186	865.44
391.411	849.44
391.636	861.44
391.86	945.44
392.085	1021.44
392.31	994.44
392.534	931.44
392.759	941.44
392.984	971.44
393.208	977.44
393.433	859.44
393.658	815.44
393.882	788.44
394.107	785.44
394.331	789.44
394.556	788.44
394.78	843.44
395.005	855.44
395.229	872.44
395.454	880.44
395.678	867.44
395.903	918.44
396.127	898.44
396.352	915.44
396.576	968.44
396.801	1004.44
397.025	1089.44
397.249	1139.44
397.474	946.44
397.698	949.44
397.922	993.44
398.147	904.44
398.371	911.44
398.595	979.44
398.82	967.44
399.044	921.44
399.268	990.44
399.492	1012.44
399.717	1065.44
399.941	1094.44
400.165	1044.44
400.389	1018.44
400.613	1063.44
400.837	1063.44
401.062	950.44
401.286	903.44
401.51	921.44
401.734	902.44
401.958	930.44
402.182	907.44
402.406	894.44
402.63	939.44
402.854	926.44
403.078	1055.44
403.302	1302.44
403.526	1350.44
403.75	1207.44
403.974	1051.44
404.198	1111.44
404.422	1230.44
404.645	1452.44
404.869	1583.44
405.093	1195.44
405.317	1014.44
405.541	973.44
405.765	1010.44
405.988	1058.44
406.212	1129.44
406.436	1301.44
406.66	1445.44
406.883	1150.44
407.107	1163.44
407.331	1361.44
407.555	1303.44
407.778	1130.44
408.002	1070.44
408.226	1032.44
408.449	1042.44
408.673	992.44
408.896	957.44
409.12	921.44
409.344	899.44
409.567	904.44
409.791	885.44
410.014	919.44
410.238	891.44
410.461	882.44
410.685	892.44
410.908	905.44
411.132	949.44
411.355	936.44
411.578	963.44
411.802	930.44
412.025	1003.44
412.249	994.44
412.472	982.44
412.695	954.44
412.919	948.44
413.142	963.44
413.365	1039.44
413.589	1057.44
413.812	948.44
414.035	917.44
414.258	928.44
414.482	1042.44
414.705	1072.44
414.928	908.44
415.151	886.44
415.374	888.44
415.597	927.44
415.821	947.44
416.044	885.44
416.267	845.44
416.49	861.44
416.713	843.44
416.936	844.44
417.159	835.44
417.382	891.44
417.605	923.44
417.828	910.44
418.051	914.44
418.274	932.44
418.497	962.44
418.72	914.44
418.943	955.44
419.166	1018.44
419.389	1021.44
419.611	1039.44
419.834	1053.44
420.057	1134.44
420.28	1139.44
420.503	1026.44
420.726	908.44
420.948	881.44
421.171	886.44
421.394	899.44
421.617	864.44
421.839	882.44
422.062	951.44
422.285	923.44
422.507	946.44
422.73	947.44
422.953	981.44
423.175	937.44
423.398	929.44
423.621	998.44
423.843	1033.44
424.066	1003.44
424.288	938.44
424.511	913.44
424.733	907.44
424.956	965.44
425.178	1083.44
425.401	1220.44
425.623	1373.44
425.846	1151.44
426.068	1009.44
426.291	1113.44
426.513	985.44
426.735	956.44
426.958	993.44
427.18	1204.44
427.402	1476.44
427.625	1454.44
427.847	1192.44
428.069	919.44
428.292	950.44
428.514	907.44
428.736	859.44
428.958	971.44
429.181	1098.44
429.403	982.44
429.625	882.44
429.847	852.44
430.069	907.44
430.292	926.44
430.514	883.44
430.736	950.44
430.958	1188.44
431.18	1094.44
431.402	850.44
431.624	817.44
431.846	786.44
432.068	818.44
432.29	821.44
432.512	910.44
432.734	1236.44
432.956	1130.44
433.178	871.44
433.4	863.44
433.622	880.44
433.844	901.44
434.066	926.44
434.287	896.44
434.509	883.44
434.731	912.44
434.953	866.44
435.175	926.44
435.397	1048.44
435.618	914.44
435.84	834.44
436.062	833.44
436.284	811.44
436.505	794.44
436.727	803.44
436.949	815.44
437.17	849.44
437.392	843.44
437.614	838.44
437.835	827.44
438.057	833.44
438.278	991.44
438.5	1425.44
438.721	1399.44
438.943	967.44
439.165	816.44
439.386	778.44
439.608	805.44
439.829	790.44
440.05	805.44
440.272	853.44
440.493	987.44
440.715	1249.44
440.936	970.44
441.158	858.44
441.379	858.44
441.6	985.44
441.822	1046.44
442.043	899.44
442.264	877.44
442.486	876.44
442.707	870.44
442.928	876.44
443.149	885.44
443.371	894.44
443.592	953.44
443.813	911.44
444.034	904.44
444.255	937.44
444.476	957.44
444.698	917.44
444.919	938.44
445.14	1071.44
445.361	1032.44
445.582	955.44
445.803	948.44
446.024	923.44
446.245	949.44
446.466	902.44
446.687	868.44
446.908	871.44
447.129	828.44
447.35	812.44
447.571	790.44
447.792	797.44
448.013	795.44
448.234	781.44
448.455	789.44
448.675	802.44
448.896	801.44
449.117	788.44
449.338	801.44
449.559	850.44
449.779	859.44
450	852.44
450.221	845.44
450.442	819.44
450.662	796.44
450.883	815.44
451.104	816.44
451.324	813.44
451.545	845.44
451.766	811.44
451.986	782.44
452.207	779.44
452.428	790.44
452.648	757.44
452.869	831.44
453.089	818.44
453.31	814.44
453.53	749.44
453.751	766.44
453.971	754.44
454.192	800.44
454.412	815.44
454.633	766.44
454.853	774.44
455.073	733.44
455.294	722.44
455.514	773.44
455.734	777.44
455.955	789.44
456.175	834.44
456.395	757.44
456.616	734.44
456.836	712.44
457.056	703.44
457.276	694.44
457.497	697.44
457.717	740.44
457.937	725.44
458.157	759.44
458.377	743.44
458.598	745.44
458.818	763.44
459.038	806.44
459.258	838.44
459.478	849.44
459.698	892.44
459.918	876.44
460.138	903.44
460.358	913.44
460.578	881.44
460.798	900.44
461.018	912.44
461.238	862.44
461.458	883.44
461.678	891.44
461.898	923.44
462.118	906.44
462.338	946.44
462.558	957.44
462.777	999.44
462.997	986.44
463.217	1014.44
463.437	1034.44
463.657	1042.44
463.876	971.44
464.096	957.44
464.316	957.44
464.536	961.44
464.755	1030.44
464.975	1021.44
465.195	959.44
465.414	1006.44
465.634	965.44
465.854	941.44
466.073	878.44
466.293	883.44
466.512	931.44
466.732	1038.44
466.951	1048.44
467.171	934.44
467.391	905.44
467.61	900.44
467.829	939.44
468.049	957.44
468.268	856.44
468.488	864.44
468.707	908.44
468.927	1072.44
469.146	1175.44
469.365	1046.44
469.585	941.44
469.804	1021.44
470.023	1134.44
470.243	974.44
470.462	939.44
470.681	929.44
470.901	930.44
471.12	976.44
471.339	996.44
471.558	914.44
471.777	913.44
471.997	1024.44
472.216	1125.44
472.435	1100.44
472.654	990.44
472.873	959.44
473.092	996.44
473.311	1059.44
473.53	977.44
473.749	931.44
473.968	989.44
474.187	992.44
474.406	959.44
474.625	942.44
474.844	954.44
475.063	1037.44
475.282	1026.44
475.501	1093.44
475.72	1100.44
475.939	1085.44
476.158	1109.44
476.377	1275.44
476.596	1449.44
476.814	1554.44
477.033	1250.44
477.252	1060.44
477.471	987.44
477.69	994.44
477.908	1108.44
478.127	1169.44
478.346	1083.44
478.564	1107.44
478.783	1103.44
479.002	1137.44
479.22	1318.44
479.439	1438.44
479.658	1251.44
479.876	1138.44
480.095	1219.44
480.313	1263.44
480.532	1139.44
480.751	1090.44
480.969	1131.44
481.188	1287.44
481.406	1310.44
481.624	1249.44
481.843	1117.44
482.061	1096.44
482.28	1216.44
482.498	1485.44
482.717	1355.44
482.935	1197.44
483.153	1131.44
483.372	1072.44
483.59	1078.44
483.808	1081.44
484.027	1041.44
484.245	1002.44
484.463	998.44
484.681	1028.44
484.9	1135.44
485.118	1195.44
485.336	1113.44
485.554	1041.44
485.772	1087.44
485.99	1159.44
486.209	1232.44
486.427	1247.44
486.645	1233.44
486.863	1269.44
487.081	1241.44
487.299	1363.44
487.517	1364.44
487.735	1186.44
487.953	1228.44
488.171	1273.44
488.389	1181.44
488.607	1102.44
488.825	1177.44
489.043	1251.44
489.261	1488.44
489.479	1558.44
489.696	1291.44
489.914	1188.44
490.132	1123.44
490.35	1099.44
490.568	1147.44
490.786	1129.44
491.003	1141.44
491.221	1175.44
491.439	1140.44
491.657	1158.44
491.874	1219.44
492.092	1519.44
492.31	1771.44
492.527	1723.44
492.745	1522.44
492.963	1341.44
493.18	1325.44
493.398	1313.44
493.615	1284.44
493.833	1249.44
494.05	1224.44
494.268	1279.44
494.485	1222.44
494.703	1189.44
494.92	1239.44
495.138	1214.44
495.355	1226.44
495.573	1263.44
495.79	1377.44
496.008	1827.44
496.225	1570.44
496.442	1369.44
496.66	1375.44
496.877	1450.44
497.094	1412.44
497.312	1307.44
497.529	1339.44
497.746	1342.44
497.963	1373.44
498.181	1510.44
498.398	1620.44
498.615	1661.44
498.832	1744.44
499.049	1709.44
499.267	1545.44
499.484	1522.44
499.701	1658.44
499.918	1758.44
500.135	1906.44
500.352	1921.44
500.569	2002.44
500.786	2066.44
501.003	2026.44
501.22	1829.44
501.437	1750.44
501.654	1663.44
501.871	1637.44
502.088	1657.44
502.305	1528.44
502.522	1520.44
502.739	1511.44
502.956	1413.44
503.172	1368.44
503.389	1305.44
503.606	1288.44
503.823	1329.44
504.04	1289.44
504.256	1345.44
504.473	1372.44
504.69	1385.44
504.907	1423.44
505.123	1379.44
505.34	1457.44
505.557	1450.44
505.773	1375.44
505.99	1308.44
506.207	1383.44
506.423	1266.44
506.64	1173.44
506.856	1278.44
507.073	1374.44
507.289	1352.44
507.506	1350.44
507.722	1411.44
507.939	1425.44
508.155	1466.44
508.372	1330.44
508.588	1297.44
508.805	1245.44
509.021	1214.44
509.238	1163.44
509.454	1170.44
509.67	1196.44
509.887	1216.44
510.103	1350.44
510.319	1311.44
510.536	1186.44
510.752	1133.44
510.968	1057.44
511.184	1002.44
511.401	1044.44
511.617	1051.44
511.833	1027.44
512.049	1048.44
512.265	1077.44
512.481	1123.44
512.698	1243.44
512.914	1368.44
513.13	1221.44
513.346	1149.44
513.562	1193.44
513.778	1199.44
513.994	1154.44
514.21	1260.44
514.426	1209.44
514.642	1145.44
514.858	1129.44
515.074	1219.44
515.29	1276.44
515.506	1433.44
515.721	1342.44
515.937	1244.44
516.153	1179.44
516.369	1185.44
516.585	1218.44
516.801	1379.44
517.016	1613.44
517.232	1553.44
517.448	1540.44
517.664	1365.44
517.879	1314.44
518.095	1286.44
518.311	1278.44
518.527	1318.44
518.742	1398.44
518.958	1490.44
519.173	1427.44
519.389	1385.44
519.605	1404.44
519.82	1486.44
520.036	1764.44
520.251	1744.44
520.467	1596.44
520.682	2354.44
520.898	2882.44
521.113	2716.44
521.329	1732.44
521.544	1559.44
521.76	1498.44
521.975	1369.44
522.19	1259.44
522.406	1333.44
522.621	1477.44
522.836	1497.44
523.052	1570.44
523.267	1314.44
523.482	1291.44
523.698	1418.44
523.913	1375.44
524.128	1236.44
524.343	1171.44
524.559	1202.44
524.774	1123.44
524.989	1171.44
525.204	1205.44
525.419	1328.44
525.634	1223.44
525.849	1255.44
526.064	1255.44
526.28	1293.44
526.495	1516.44
526.71	1541.44
526.925	1346.44
527.14	1423.44
527.355	1359.44
527.57	1149.44
527.785	1201.44
527.999	1168.44
528.214	1079.44
528.429	1029.44
528.644	1079.44
528.859	1056.44
529.074	985.44
529.289	1001.44
529.503	957.44
529.718	1035.44
529.933	1193.44
530.148	1217.44
530.363	1062.44
530.577	1017.44
530.792	995.44
531.007	990.44
531.221	994.44
531.436	959.44
531.651	989.44
531.865	1002.44
532.08	1047.44
532.295	1009.44
532.509	1040.44
532.724	1154.44
532.938	1319.44
533.153	1507.44
533.367	1230.44
533.582	1197.44
533.796	1104.44
534.011	1067.44
534.225	1038.44
534.44	1063.44
534.654	1090.44
534.868	1245.44
535.083	1110.44
535.297	1005.44
535.511	1016.44
535.726	1143.44
535.94	1092.44
536.154	1003.44
536.369	985.44
536.583	1007.44
536.797	1021.44
537.011	1053.44
537.225	1144.44
537.44	1160.44
537.654	1019.44
537.868	1017.44
538.082	1015.44
538.296	1009.44
538.51	1083.44
538.724	1098.44
538.938	1091.44
539.153	983.44
539.367	1009.44
539.581	977.44
539.795	1039.44
540.009	1163.44
540.222	1048.44
540.436	1049.44
540.65	1162.44
540.864	1157.44
541.078	1189.44
541.292	1337.44
541.506	1101.44
541.72	1074.44
541.934	1044.44
542.147	1069.44
542.361	1065.44
542.575	1037.44
542.789	1015.44
543.002	994.44
543.216	1067.44
543.43	949.44
543.644	945.44
543.857	951.44
544.071	954.44
544.285	932.44
544.498	921.44
544.712	925.44
544.925	1002.44
545.139	943.44
545.352	921.44
545.566	955.44
545.779	1035.44
545.993	975.44
546.206	881.44
546.42	900.44
546.633	861.44
546.847	866.44
547.06	876.44
547.274	853.44
547.487	871.44
547.7	977.44
547.914	1007.44
548.127	1104.44
548.34	1074.44
548.554	1018.44
548.767	1015.44
548.98	1049.44
549.193	967.44
549.407	1003.44
549.62	1198.44
549.833	1106.44
550.046	1159.44
550.259	1180.44
550.473	1037.44
550.686	987.44
550.899	1009.44
551.112	990.44
551.325	1047.44
551.538	1081.44
551.751	971.44
551.964	907.44
552.177	902.44
552.39	900.44
552.603	879.44
552.816	945.44
553.029	864.44
553.242	884.44
553.455	941.44
553.667	1040.44
553.88	1006.44
554.093	904.44
554.306	843.44
554.519	809.44
554.732	809.44
554.944	776.44
555.157	807.44
555.37	787.44
555.583	791.44
555.795	779.44
556.008	816.44
556.221	809.44
556.433	793.44
556.646	752.44
556.859	781.44
557.071	816.44
557.284	842.44
557.496	855.44
557.709	801.44
557.921	802.44
558.134	745.44
558.346	736.44
558.559	759.44
558.771	779.44
558.984	822.44
559.196	781.44
559.409	746.44
559.621	739.44
559.833	702.44
560.046	726.44
560.258	724.44
560.47	765.44
560.683	729.44
560.895	665.44
561.107	675.44
561.32	676.44
561.532	691.44
561.744	757.44
561.956	799.44
562.168	714.44
562.381	685.44
562.593	725.44
562.805	743.44
563.017	692.44
563.229	659.44
563.441	672.44
563.653	684.44
563.865	690.44
564.077	674.44
564.289	678.44
564.501	670.44
564.713	763.44
564.925	750.44
565.137	678.44
565.349	697.44
565.561	692.44
565.773	724.44
565.985	776.44
566.197	789.44
566.408	842.44
566.62	880.44
566.832	859.44
567.044	861.44
567.255	891.44
567.467	993.44
567.679	891.44
567.891	887.44
568.102	868.44
568.314	909.44
568.526	863.44
568.737	825.44
568.949	860.44
569.161	779.44
569.372	699.44
569.584	689.44
569.795	684.44
570.007	711.44
570.218	775.44
570.43	718.44
570.641	684.44
570.853	653.44
571.064	663.44
571.276	699.44
571.487	719.44
571.698	671.44
571.91	648.44
572.121	671.44
572.333	615.44
572.544	614.44
572.755	639.44
572.966	633.44
573.178	614.44
573.389	619.44
573.6	612.44
573.811	651.44
574.023	591.44
574.234	590.44
574.445	613.44
574.656	582.44
574.867	580.44
575.078	583.44
575.289	594.44
575.501	626.44
575.712	589.44
575.923	541.44
576.134	537.44
576.345	559.44
576.556	567.44
576.767	539.44
576.978	534.44
577.188	519.44
577.399	527.44
577.61	535.44
577.821	530.44
578.032	559.44
578.243	589.44
578.454	564.44
578.665	575.44
578.875	548.44
579.086	557.44
579.297	576.44
579.508	572.44
579.718	557.44
579.929	544.44
580.14	537.44
580.35	516.44
580.561	518.44
580.772	481.44
580.982	484.44
581.193	464.44
581.403	480.44
581.614	453.44
581.825	478.44
582.035	473.44
582.246	462.44
582.456	479.44
582.667	489.44
582.877	471.44
583.087	464.44
583.298	451.44
583.508	451.44
583.719	465.44
583.929	460.44
584.139	442.44
584.35	457.44
584.56	482.44
584.77	464.44
584.981	455.44
585.191	464.44
585.401	468.44
585.611	508.44
585.821	493.44
586.032	490.44
586.242	470.44
586.452	469.44
586.662	470.44
586.872	510.44
587.082	517.44
587.292	451.44
587.502	469.44
587.713	457.44
587.923	503.44
588.133	515.44
588.343	484.44
588.553	457.44
588.762	449.44
588.972	443.44
589.182	470.44
589.392	459.44
589.602	470.44
589.812	478.44
590.022	517.44
590.232	522.44
590.441	450.44
590.651	429.44
590.861	458.44
591.071	479.44
591.281	426.44
591.49	447.44
591.7	452.44
591.91	456.44
592.119	445.44
592.329	455.44
592.539	478.44
592.748	463.44
592.958	478.44
593.167	486.44
593.377	481.44
593.587	481.44
593.796	482.44
594.006	479.44
594.215	505.44
594.424	485.44
594.634	502.44
594.843	476.44
595.053	455.44
595.262	425.44
595.472	441.44
595.681	438.44
595.89	409.44
596.1	438.44
596.309	438.44
596.518	435.44
596.727	422.44
596.937	421.44
597.146	447.44
597.355	467.44
597.564	443.44
597.774	421.44
597.983	403.44
598.192	427.44
598.401	395.44
598.61	372.44
598.819	382.44
599.028	397.44
599.237	397.44
599.446	384.44
599.655	395.44
599.864	373.44
600.073	371.44
600.282	358.44
600.491	371.44
600.7	403.44
600.909	391.44
601.118	395.44
601.327	377.44
601.536	380.44
601.745	383.44
601.953	400.44
602.162	388.44
602.371	389.44
602.58	389.44
602.789	389.44
602.997	388.44
603.206	391.44
603.415	395.44
603.623	353.44
603.832	369.44
604.041	367.44
604.249	386.44
604.458	389.44
604.666	364.44
604.875	354.44
605.084	341.44
605.292	338.44
605.501	371.44
605.709	369.44
605.918	359.44
606.126	371.44
606.334	351.44
606.543	358.44
606.751	367.44
606.96	351.44
607.168	353.44
607.376	350.44
607.585	355.44
607.793	374.44
608.001	369.44
608.21	338.44
608.418	345.44
608.626	364.44
608.834	352.44
609.043	359.44
609.251	331.44
609.459	323.44
609.667	351.44
609.875	337.44
610.083	341.44
610.291	352.44
610.499	342.44
610.707	322.44
610.916	341.44
611.124	350.44
611.332	321.44
611.54	349.44
611.748	353.44
611.955	345.44
612.163	345.44
612.371	331.44
612.579	341.44
612.787	346.44
612.995	329.44
613.203	316.44
613.411	335.44
613.618	338.44
613.826	343.44
614.034	364.44
614.242	320.44
614.449	321.44
614.657	342.44
614.865	331.44
615.072	346.44
615.28	327.44
615.488	318.44
615.695	317.44
615.903	315.44
616.111	327.44
616.318	322.44
616.526	310.44
616.733	309.44
616.941	313.44
617.148	313.44
617.356	300.44
617.563	322.44
617.771	321.44
617.978	311.44
618.185	309.44
618.393	325.44
618.6	321.44
618.807	328.44
619.015	313.44
619.222	304.44
619.429	321.44
619.637	327.44
619.844	303.44
620.051	304.44
620.258	300.44
620.466	301.44
620.673	293.44
620.88	293.44
621.087	301.44
621.294	294.44
621.501	301.44
621.708	315.44
621.915	298.44
622.122	297.44
622.329	291.44
622.536	284.44
622.743	270.44
622.95	290.44
623.157	292.44
623.364	291.44
623.571	307.44
623.778	301.44
623.985	309.44
624.192	325.44
624.399	287.44
624.606	263.44
624.812	304.44
625.019	281.44
625.226	305.44
625.433	298.44
625.639	276.44
625.846	288.44
626.053	267.44
626.259	278.44
626.466	280.44
626.673	307.44
626.879	274.44
627.086	275.44
627.293	269.44
627.499	272.44
627.706	271.44
627.912	252.44
628.119	263.44
628.325	261.44
628.532	254.44
628.738	270.44
628.945	269.44
629.151	266.44
629.357	254.44
629.564	265.44
629.77	260.44
629.976	274.44
630.183	271.44
630.389	255.44
630.595	269.44
630.802	253.44
631.008	250.44
631.214	251.44
631.42	260.44
631.627	241.44
631.833	245.44
632.039	245.44
632.245	239.44
632.451	234.44
632.657	236.44
632.863	237.44
633.069	262.44
633.275	255.44
633.481	241.44
633.688	241.44
633.893	251.44
634.099	214.44
634.305	237.44
634.511	238.44
634.717	240.44
634.923	231.44
635.129	233.44
635.335	235.44
635.541	244.44
635.747	235.44
635.952	228.44
636.158	233.44
636.364	249.44
636.57	231.44
636.775	246.44
636.981	245.44
637.187	241.44
637.392	216.44
637.598	229.44
637.804	223.44
638.009	232.44
638.215	228.44
638.421	221.44
638.626	216.44
638.832	217.44
639.037	222.44
639.243	225.44
639.448	214.44
639.654	242.44
639.859	220.44
640.065	230.44
640.27	243.44
640.475	230.44
640.681	220.44
640.886	213.44
641.091	221.44
641.297	218.44
641.502	225.44
641.707	228.44
641.913	221.44
642.118	233.44
642.323	226.44
642.528	221.44
642.733	210.44
642.939	203.44
643.144	221.44
643.349	222.44
643.554	230.44
643.759	208.44
643.964	227.44
644.169	199.44
644.374	206.44
644.579	214.44
644.784	224.44
644.989	206.44
645.194	205.44
645.399	207.44
645.604	214.44
645.809	224.44
646.014	214.44
646.219	205.44
646.423	175.44
646.628	204.44
646.833	193.44
647.038	203.44
647.243	201.44
647.447	195.44
647.652	210.44
647.857	195.44
648.062	217.44
648.266	227.44
648.471	238.44
648.676	221.44
648.88	217.44
649.085	206.44
649.289	198.44
649.494	199.44
649.698	218.44
649.903	211.44
650.107	201.44
650.312	210.44
650.516	189.44
650.721	184.44
650.925	189.44
651.13	203.44
651.334	190.44
651.539	178.44
651.743	173.44
651.947	188.44
652.152	161.44
652.356	182.44
652.56	187.44
652.764	162.44
652.969	178.44
653.173	159.44
653.377	157.44
653.581	156.44
653.785	149.44
653.99	166.44
654.194	166.44
654.398	151.44
654.602	158.44
654.806	162.44
655.01	153.44
655.214	158.44
655.418	167.44
655.622	150.44
655.826	154.44
656.03	158.44
656.234	162.44
656.438	172.44
656.642	161.44
656.846	163.44
657.049	151.44
657.253	158.44
657.457	127.44
657.661	138.44
657.865	129.44
658.068	133.44
658.272	141.44
658.476	122.44
658.68	115.44
658.883	99.44
659.087	117.44
659.291	105.44
659.494	118.44
659.698	102.44
659.901	105.44
660.105	97.44
660.309	99.44
660.512	92.44
660.716	90.44
660.919	96.44
661.123	92.44
661.326	89.44
661.53	96.44
661.733	91.44
661.936	101.44
662.14	82.44
662.343	93.44
662.546	86.44
662.75	71.44
662.953	91.44
663.156	77.44
663.36	90.44
663.563	97.44
663.766	76.44
663.969	85.44
664.173	78.44
664.376	78.44
664.579	86.44
664.782	83.44
664.985	84.44
665.188	92.44
665.391	87.44
665.594	80.44
665.797	75.44
666	82.44
666.203	82.44
666.406	87.44
666.609	74.44
666.812	94.44
667.015	76.44
667.218	88.44
667.421	68.44
667.624	84.44
667.827	78.44
668.03	86.44
668.232	94.44
668.435	79.44
668.638	83.44
668.841	69.44
669.043	87.44
669.246	80.44
669.449	88.44
669.651	65.44
669.854	66.44
670.057	72.44
670.259	73.44
670.462	79.44
670.665	67.44
670.867	71.44
671.07	98.44
671.272	95.44
671.475	84.44
671.677	82.44
671.88	82.44
672.082	71.44
672.284	83.44
672.487	90.44
672.689	76.44
672.892	80.44
