Data from NickelSpatula.Lamp.E10.P2_HRD10591_11-58-39-528.txt Node
Date: Tue Jul 23 11:58:39 EDT 2019
User: cochatt
Spectrometer: HR+D1059
Trigger mode: 1
Integration Time (sec): 1.000000E-1
Scans to average: 1
Electric dark correction enabled: true
Nonlinearity correction enabled: false
Boxcar width: 0
XAxis mode: Wavelengths
Number of Pixels in Spectrum: 2048
>>>>>Begin Spectral Data<<<<<
223.165	-17.56
223.4	-17.56
223.635	-17.56
223.869	-20.56
224.104	-15.56
224.338	-28.56
224.573	-5.56
224.808	-7.56
225.042	-12.56
225.277	0.44
225.511	-7.56
225.746	-8.56
225.98	-1.56
226.215	15.44
226.449	19.44
226.683	36.44
226.918	22.44
227.152	31.44
227.387	53.44
227.621	37.44
227.856	37.44
228.09	35.44
228.324	46.44
228.559	52.44
228.793	75.44
229.027	135.44
229.262	143.44
229.496	171.44
229.73	170.44
229.964	179.44
230.199	202.44
230.433	200.44
230.667	201.44
230.901	193.44
231.136	207.44
231.37	213.44
231.604	217.44
231.838	241.44
232.072	240.44
232.306	235.44
232.541	244.44
232.775	231.44
233.009	264.44
233.243	290.44
233.477	309.44
233.711	359.44
233.945	326.44
234.179	340.44
234.413	353.44
234.647	390.44
234.881	441.44
235.115	424.44
235.349	392.44
235.583	358.44
235.817	346.44
236.051	383.44
236.285	437.44
236.519	469.44
236.753	432.44
236.987	440.44
237.221	414.44
237.455	426.44
237.689	426.44
237.922	466.44
238.156	469.44
238.39	557.44
238.624	680.44
238.858	590.44
239.091	479.44
239.325	516.44
239.559	486.44
239.793	546.44
240.027	665.44
240.26	604.44
240.494	596.44
240.728	602.44
240.961	675.44
241.195	668.44
241.429	668.44
241.662	637.44
241.896	519.44
242.13	474.44
242.363	438.44
242.597	456.44
242.83	533.44
243.064	549.44
243.298	614.44
243.531	634.44
243.765	634.44
243.998	598.44
244.232	632.44
244.465	592.44
244.699	562.44
244.932	666.44
245.166	654.44
245.399	559.44
245.633	548.44
245.866	597.44
246.099	611.44
246.333	737.44
246.566	779.44
246.8	761.44
247.033	768.44
247.266	690.44
247.5	685.44
247.733	672.44
247.966	677.44
248.2	700.44
248.433	794.44
248.666	868.44
248.899	866.44
249.133	864.44
249.366	1013.44
249.599	1066.44
249.832	965.44
250.066	844.44
250.299	845.44
250.532	835.44
250.765	795.44
250.998	756.44
251.231	708.44
251.465	790.44
251.698	820.44
251.931	795.44
252.164	845.44
252.397	948.44
252.63	1076.44
252.863	1177.44
253.096	1190.44
253.329	1153.44
253.562	1113.44
253.795	1278.44
254.028	1386.44
254.261	1395.44
254.494	1262.44
254.727	1170.44
254.96	1125.44
255.193	1207.44
255.426	1099.44
255.659	867.44
255.892	804.44
256.124	864.44
256.357	1011.44
256.59	1212.44
256.823	1156.44
257.056	984.44
257.289	944.44
257.521	990.44
257.754	1172.44
257.987	1294.44
258.22	1106.44
258.452	1009.44
258.685	1159.44
258.918	1311.44
259.151	1269.44
259.383	1320.44
259.616	1509.44
259.849	1608.44
260.081	1752.44
260.314	1956.44
260.547	1492.44
260.779	1465.44
261.012	1720.44
261.244	1618.44
261.477	1684.44
261.71	1531.44
261.942	1292.44
262.175	1278.44
262.407	1250.44
262.64	1242.44
262.872	1544.44
263.105	1658.44
263.337	1722.44
263.57	1540.44
263.802	1044.44
264.035	888.44
264.267	885.44
264.499	783.44
264.732	720.44
264.964	702.44
265.197	709.44
265.429	786.44
265.661	828.44
265.894	835.44
266.126	912.44
266.358	1036.44
266.591	1266.44
266.823	1516.44
267.055	1436.44
267.287	1274.44
267.52	1251.44
267.752	1339.44
267.984	1454.44
268.216	1390.44
268.448	1099.44
268.681	1127.44
268.913	1212.44
269.145	1279.44
269.377	1278.44
269.609	1292.44
269.841	1217.44
270.073	1316.44
270.306	1370.44
270.538	1377.44
270.77	1378.44
271.002	1400.44
271.234	1466.44
271.466	1500.44
271.698	1456.44
271.93	1451.44
272.162	1463.44
272.394	1408.44
272.626	1407.44
272.858	1457.44
273.09	1499.44
273.322	1345.44
273.553	1304.44
273.785	1536.44
274.017	2042.44
274.249	2438.44
274.481	2532.44
274.713	2772.44
274.945	3227.44
275.176	3325.44
275.408	2949.44
275.64	2664.44
275.872	2636.44
276.104	2260.44
276.335	1952.44
276.567	1938.44
276.799	2022.44
277.031	2085.44
277.262	1631.44
277.494	1267.44
277.726	1172.44
277.957	1349.44
278.189	1499.44
278.421	1501.44
278.652	1452.44
278.884	1389.44
279.115	1260.44
279.347	1211.44
279.579	1205.44
279.81	1247.44
280.042	1213.44
280.273	1284.44
280.505	1111.44
280.736	1004.44
280.968	1023.44
281.199	1097.44
281.431	1229.44
281.662	1222.44
281.894	1175.44
282.125	1280.44
282.356	1365.44
282.588	1388.44
282.819	1250.44
283.051	1408.44
283.282	1695.44
283.513	1973.44
283.745	2188.44
283.976	2206.44
284.207	2003.44
284.439	2118.44
284.67	2046.44
284.901	1845.44
285.132	1926.44
285.364	2051.44
285.595	1876.44
285.826	2013.44
286.057	2064.44
286.288	1960.44
286.52	2083.44
286.751	2122.44
286.982	2098.44
287.213	1826.44
287.444	1808.44
287.675	1834.44
287.906	1817.44
288.138	1544.44
288.369	1343.44
288.6	1280.44
288.831	1356.44
289.062	1544.44
289.293	1698.44
289.524	1635.44
289.755	1605.44
289.986	1657.44
290.217	1422.44
290.448	1114.44
290.679	976.44
290.91	950.44
291.141	914.44
291.371	995.44
291.602	975.44
291.833	987.44
292.064	1111.44
292.295	1227.44
292.526	1431.44
292.757	1454.44
292.987	1584.44
293.218	1554.44
293.449	1593.44
293.68	1672.44
293.91	1634.44
294.141	1647.44
294.372	1528.44
294.603	1418.44
294.833	1603.44
295.064	1789.44
295.295	1749.44
295.525	1306.44
295.756	1138.44
295.987	978.44
296.217	1028.44
296.448	1031.44
296.679	1104.44
296.909	1251.44
297.14	1297.44
297.37	1428.44
297.601	1352.44
297.831	1130.44
298.062	1286.44
298.292	1452.44
298.523	1580.44
298.753	1814.44
298.984	1582.44
299.214	1278.44
299.445	1068.44
299.675	1048.44
299.905	1022.44
300.136	1106.44
300.366	1190.44
300.597	1147.44
300.827	1028.44
301.057	992.44
301.288	1008.44
301.518	1050.44
301.748	1203.44
301.979	1308.44
302.209	1421.44
302.439	1452.44
302.669	1267.44
302.9	1235.44
303.13	1141.44
303.36	1080.44
303.59	1075.44
303.82	1128.44
304.051	1262.44
304.281	1358.44
304.511	1324.44
304.741	1143.44
304.971	1200.44
305.201	1276.44
305.431	1209.44
305.661	1056.44
305.891	1086.44
306.121	1061.44
306.352	938.44
306.582	882.44
306.812	862.44
307.042	860.44
307.272	820.44
307.502	804.44
307.731	908.44
307.961	919.44
308.191	871.44
308.421	810.44
308.651	812.44
308.881	772.44
309.111	790.44
309.341	827.44
309.571	920.44
309.8	924.44
310.03	936.44
310.26	993.44
310.49	950.44
310.72	836.44
310.949	838.44
311.179	863.44
311.409	926.44
311.639	1089.44
311.868	1418.44
312.098	1814.44
312.328	1975.44
312.557	1829.44
312.787	1900.44
313.017	1683.44
313.246	1806.44
313.476	1963.44
313.706	1608.44
313.935	1310.44
314.165	1038.44
314.394	946.44
314.624	958.44
314.853	998.44
315.083	1058.44
315.312	988.44
315.542	1018.44
315.771	923.44
316.001	855.44
316.23	844.44
316.46	830.44
316.689	851.44
316.919	883.44
317.148	892.44
317.377	860.44
317.607	896.44
317.836	954.44
318.065	1107.44
318.295	1261.44
318.524	1126.44
318.753	948.44
318.983	963.44
319.212	939.44
319.441	1010.44
319.67	1130.44
319.9	1214.44
320.129	1144.44
320.358	984.44
320.587	950.44
320.816	1020.44
321.046	1158.44
321.275	1332.44
321.504	1331.44
321.733	1287.44
321.962	1210.44
322.191	1160.44
322.42	1104.44
322.649	1138.44
322.878	1202.44
323.108	1161.44
323.337	1112.44
323.566	1083.44
323.795	1070.44
324.024	1043.44
324.253	967.44
324.482	980.44
324.71	1085.44
324.939	1198.44
325.168	1132.44
325.397	963.44
325.626	906.44
325.855	905.44
326.084	948.44
326.313	897.44
326.542	839.44
326.77	873.44
326.999	902.44
327.228	940.44
327.457	1007.44
327.686	992.44
327.914	894.44
328.143	839.44
328.372	836.44
328.6	823.44
328.829	895.44
329.058	920.44
329.287	892.44
329.515	898.44
329.744	861.44
329.972	846.44
330.201	797.44
330.43	852.44
330.658	965.44
330.887	1071.44
331.115	1020.44
331.344	1048.44
331.572	968.44
331.801	865.44
332.03	822.44
332.258	847.44
332.486	946.44
332.715	990.44
332.943	924.44
333.172	915.44
333.4	903.44
333.629	1033.44
333.857	1140.44
334.085	1122.44
334.314	1130.44
334.542	1046.44
334.771	996.44
334.999	952.44
335.227	916.44
335.455	952.44
335.684	1041.44
335.912	1182.44
336.14	1298.44
336.369	1292.44
336.597	1224.44
336.825	1405.44
337.053	1536.44
337.281	1245.44
337.51	1006.44
337.738	972.44
337.966	1083.44
338.194	1202.44
338.422	1094.44
338.65	960.44
338.878	908.44
339.106	927.44
339.334	1024.44
339.562	1066.44
339.79	998.44
340.018	991.44
340.246	1025.44
340.474	1173.44
340.702	1286.44
340.93	1317.44
341.158	1315.44
341.386	1088.44
341.614	1126.44
341.842	1114.44
342.07	1119.44
342.298	1334.44
342.526	1382.44
342.754	1194.44
342.981	1098.44
343.209	1038.44
343.437	1135.44
343.665	1186.44
343.893	1210.44
344.12	1373.44
344.348	1620.44
344.576	1431.44
344.804	1173.44
345.031	1030.44
345.259	970.44
345.487	968.44
345.714	1037.44
345.942	1094.44
346.17	1189.44
346.397	1123.44
346.625	984.44
346.853	939.44
347.08	925.44
347.308	994.44
347.535	1118.44
347.763	1111.44
347.99	983.44
348.218	912.44
348.445	945.44
348.673	983.44
348.9	976.44
349.128	1041.44
349.355	1117.44
349.583	1058.44
349.81	978.44
350.037	913.44
350.265	838.44
350.492	782.44
350.72	795.44
350.947	840.44
351.174	857.44
351.402	952.44
351.629	980.44
351.856	951.44
352.083	907.44
352.311	977.44
352.538	1067.44
352.765	1186.44
352.992	1044.44
353.22	989.44
353.447	1006.44
353.674	953.44
353.901	948.44
354.128	971.44
354.355	1007.44
354.583	1007.44
354.81	981.44
355.037	1034.44
355.264	1004.44
355.491	1079.44
355.718	1187.44
355.945	1163.44
356.172	1109.44
356.399	1084.44
356.626	1322.44
356.853	1641.44
357.08	1722.44
357.307	1780.44
357.534	1382.44
357.761	1418.44
357.988	1772.44
358.215	2053.44
358.441	1929.44
358.668	1622.44
358.895	1504.44
359.122	1249.44
359.349	1229.44
359.576	1341.44
359.802	1082.44
360.029	967.44
360.256	1052.44
360.483	1276.44
360.709	1616.44
360.936	1669.44
361.163	1462.44
361.39	1123.44
361.616	1072.44
361.843	1255.44
362.07	1526.44
362.296	1340.44
362.523	1095.44
362.749	947.44
362.976	971.44
363.203	1220.44
363.429	1326.44
363.656	1053.44
363.882	968.44
364.109	978.44
364.335	1018.44
364.562	998.44
364.788	1118.44
365.015	1341.44
365.241	1163.44
365.468	949.44
365.694	847.44
365.92	825.44
366.147	830.44
366.373	766.44
366.599	780.44
366.826	814.44
367.052	844.44
367.278	832.44
367.505	850.44
367.731	904.44
367.957	1009.44
368.184	1055.44
368.41	1008.44
368.636	1026.44
368.862	1046.44
369.089	1003.44
369.315	922.44
369.541	908.44
369.767	879.44
369.993	856.44
370.219	844.44
370.445	916.44
370.672	1010.44
370.898	1117.44
371.124	1107.44
371.35	926.44
371.576	885.44
371.802	970.44
372.028	1164.44
372.254	1330.44
372.48	1170.44
372.706	1039.44
372.932	1111.44
373.158	1199.44
373.384	1352.44
373.61	1811.44
373.835	1862.44
374.061	1340.44
374.287	1189.44
374.513	1411.44
374.739	1710.44
374.965	1714.44
375.191	1680.44
375.416	1166.44
375.642	1046.44
375.868	1192.44
376.094	1354.44
376.319	1155.44
376.545	1274.44
376.771	1355.44
376.997	1179.44
377.222	856.44
377.448	758.44
377.674	729.44
377.899	746.44
378.125	751.44
378.35	742.44
378.576	803.44
378.802	854.44
379.027	913.44
379.253	881.44
379.478	927.44
379.704	1067.44
379.929	1093.44
380.155	1111.44
380.38	954.44
380.606	1032.44
380.831	1084.44
381.057	1031.44
381.282	968.44
381.507	1175.44
381.733	1459.44
381.958	1541.44
382.184	1654.44
382.409	1720.44
382.634	1657.44
382.86	1774.44
383.085	1454.44
383.31	1157.44
383.535	1222.44
383.761	1235.44
383.986	1157.44
384.211	1418.44
384.436	1360.44
384.662	1062.44
384.887	991.44
385.112	1013.44
385.337	1038.44
385.562	998.44
385.787	1123.44
386.013	1209.44
386.238	1223.44
386.463	1019.44
386.688	1015.44
386.913	980.44
387.138	906.44
387.363	976.44
387.588	973.44
387.813	1001.44
388.038	1082.44
388.263	974.44
388.488	972.44
388.713	1131.44
388.938	1199.44
389.163	1036.44
389.387	890.44
389.612	913.44
389.837	965.44
390.062	987.44
390.287	1002.44
390.512	1015.44
390.736	935.44
390.961	894.44
391.186	849.44
391.411	821.44
391.636	837.44
391.86	947.44
392.085	1020.44
392.31	1021.44
392.534	976.44
392.759	928.44
392.984	970.44
393.208	960.44
393.433	876.44
393.658	788.44
393.882	778.44
394.107	784.44
394.331	796.44
394.556	800.44
394.78	829.44
395.005	839.44
395.229	877.44
395.454	866.44
395.678	890.44
395.903	918.44
396.127	846.44
396.352	909.44
396.576	992.44
396.801	1048.44
397.025	1113.44
397.249	1148.44
397.474	954.44
397.698	930.44
397.922	997.44
398.147	914.44
398.371	900.44
398.595	959.44
398.82	958.44
399.044	931.44
399.268	988.44
399.492	1067.44
399.717	1068.44
399.941	1116.44
400.165	1050.44
400.389	1019.44
400.613	1048.44
400.837	1043.44
401.062	946.44
401.286	918.44
401.51	898.44
401.734	919.44
401.958	924.44
402.182	896.44
402.406	902.44
402.63	920.44
402.854	948.44
403.078	1058.44
403.302	1295.44
403.526	1351.44
403.75	1235.44
403.974	1038.44
404.198	1075.44
404.422	1232.44
404.645	1462.44
404.869	1564.44
405.093	1174.44
405.317	1007.44
405.541	982.44
405.765	1026.44
405.988	1013.44
406.212	1092.44
406.436	1326.44
406.66	1441.44
406.883	1121.44
407.107	1196.44
407.331	1352.44
407.555	1351.44
407.778	1114.44
408.002	1046.44
408.226	1061.44
408.449	1038.44
408.673	996.44
408.896	951.44
409.12	931.44
409.344	918.44
409.567	875.44
409.791	892.44
410.014	903.44
410.238	887.44
410.461	888.44
410.685	899.44
410.908	925.44
411.132	956.44
411.355	910.44
411.578	939.44
411.802	947.44
412.025	975.44
412.249	976.44
412.472	983.44
412.695	953.44
412.919	918.44
413.142	972.44
413.365	1050.44
413.589	1089.44
413.812	965.44
414.035	928.44
414.258	939.44
414.482	1047.44
414.705	1089.44
414.928	927.44
415.151	896.44
415.374	892.44
415.597	927.44
415.821	928.44
416.044	907.44
416.267	890.44
416.49	866.44
416.713	861.44
416.936	871.44
417.159	854.44
417.382	887.44
417.605	896.44
417.828	887.44
418.051	900.44
418.274	922.44
418.497	926.44
418.72	909.44
418.943	972.44
419.166	983.44
419.389	1003.44
419.611	986.44
419.834	1019.44
420.057	1154.44
420.28	1118.44
420.503	1055.44
420.726	879.44
420.948	860.44
421.171	887.44
421.394	882.44
421.617	858.44
421.839	911.44
422.062	923.44
422.285	923.44
422.507	961.44
422.73	936.44
422.953	985.44
423.175	922.44
423.398	957.44
423.621	1008.44
423.843	1052.44
424.066	986.44
424.288	932.44
424.511	916.44
424.733	918.44
424.956	974.44
425.178	1069.44
425.401	1224.44
425.623	1393.44
425.846	1136.44
426.068	993.44
426.291	1123.44
426.513	1033.44
426.735	941.44
426.958	977.44
427.18	1176.44
427.402	1520.44
427.625	1493.44
427.847	1213.44
428.069	900.44
428.292	892.44
428.514	909.44
428.736	841.44
428.958	948.44
429.181	1130.44
429.403	968.44
429.625	894.44
429.847	898.44
430.069	907.44
430.292	922.44
430.514	868.44
430.736	976.44
430.958	1215.44
431.18	1114.44
431.402	852.44
431.624	823.44
431.846	798.44
432.068	782.44
432.29	821.44
432.512	932.44
432.734	1239.44
432.956	1153.44
433.178	869.44
433.4	856.44
433.622	854.44
433.844	881.44
434.066	946.44
434.287	907.44
434.509	895.44
434.731	938.44
434.953	844.44
435.175	927.44
435.397	1055.44
435.618	904.44
435.84	824.44
436.062	829.44
436.284	819.44
436.505	813.44
436.727	783.44
436.949	776.44
437.17	821.44
437.392	853.44
437.614	825.44
437.835	820.44
438.057	837.44
438.278	983.44
438.5	1380.44
438.721	1382.44
438.943	961.44
439.165	811.44
439.386	786.44
439.608	798.44
439.829	812.44
440.05	832.44
440.272	855.44
440.493	979.44
440.715	1245.44
440.936	993.44
441.158	896.44
441.379	855.44
441.6	1012.44
441.822	1077.44
442.043	883.44
442.264	850.44
442.486	890.44
442.707	869.44
442.928	860.44
443.149	883.44
443.371	901.44
443.592	914.44
443.813	908.44
444.034	887.44
444.255	915.44
444.476	932.44
444.698	945.44
444.919	958.44
445.14	1055.44
445.361	1005.44
445.582	980.44
445.803	931.44
446.024	899.44
446.245	922.44
446.466	905.44
446.687	883.44
446.908	866.44
447.129	839.44
447.35	804.44
447.571	813.44
447.792	818.44
448.013	781.44
448.234	768.44
448.455	803.44
448.675	808.44
448.896	818.44
449.117	784.44
449.338	819.44
449.559	815.44
449.779	883.44
450	879.44
450.221	837.44
450.442	816.44
450.662	826.44
450.883	830.44
451.104	823.44
451.324	796.44
451.545	820.44
451.766	788.44
451.986	787.44
452.207	760.44
452.428	780.44
452.648	785.44
452.869	821.44
453.089	849.44
453.31	837.44
453.53	725.44
453.751	724.44
453.971	747.44
454.192	772.44
454.412	807.44
454.633	774.44
454.853	747.44
455.073	751.44
455.294	719.44
455.514	732.44
455.734	780.44
455.955	781.44
456.175	838.44
456.395	754.44
456.616	716.44
456.836	688.44
457.056	691.44
457.276	676.44
457.497	710.44
457.717	712.44
457.937	700.44
458.157	730.44
458.377	751.44
458.598	768.44
458.818	755.44
459.038	814.44
459.258	842.44
459.478	818.44
459.698	891.44
459.918	900.44
460.138	863.44
460.358	902.44
460.578	886.44
460.798	904.44
461.018	919.44
461.238	868.44
461.458	846.44
461.678	878.44
461.898	935.44
462.118	934.44
462.338	923.44
462.558	932.44
462.777	977.44
462.997	977.44
463.217	1017.44
463.437	1022.44
463.657	1021.44
463.876	974.44
464.096	966.44
464.316	989.44
464.536	977.44
464.755	1022.44
464.975	1016.44
465.195	947.44
465.414	1018.44
465.634	1013.44
465.854	950.44
466.073	885.44
466.293	883.44
466.512	945.44
466.732	1037.44
466.951	1057.44
467.171	945.44
467.391	894.44
467.61	876.44
467.829	942.44
468.049	924.44
468.268	874.44
468.488	896.44
468.707	930.44
468.927	1054.44
469.146	1164.44
469.365	1045.44
469.585	935.44
469.804	1014.44
470.023	1114.44
470.243	985.44
470.462	920.44
470.681	915.44
470.901	915.44
471.12	977.44
471.339	971.44
471.558	899.44
471.777	973.44
471.997	1018.44
472.216	1170.44
472.435	1084.44
472.654	986.44
472.873	966.44
473.092	969.44
473.311	1056.44
473.53	970.44
473.749	923.44
473.968	991.44
474.187	982.44
474.406	966.44
474.625	933.44
474.844	954.44
475.063	1042.44
475.282	1042.44
475.501	1107.44
475.72	1139.44
475.939	1071.44
476.158	1123.44
476.377	1282.44
476.596	1462.44
476.814	1511.44
477.033	1238.44
477.252	1067.44
477.471	984.44
477.69	1038.44
477.908	1104.44
478.127	1144.44
478.346	1090.44
478.564	1187.44
478.783	1108.44
479.002	1121.44
479.22	1295.44
479.439	1442.44
479.658	1220.44
479.876	1105.44
480.095	1203.44
480.313	1250.44
480.532	1137.44
480.751	1086.44
480.969	1130.44
481.188	1251.44
481.406	1308.44
481.624	1239.44
481.843	1137.44
482.061	1114.44
482.28	1196.44
482.498	1471.44
482.717	1371.44
482.935	1206.44
483.153	1138.44
483.372	1070.44
483.59	1079.44
483.808	1070.44
484.027	1054.44
484.245	1031.44
484.463	991.44
484.681	1007.44
484.9	1137.44
485.118	1189.44
485.336	1095.44
485.554	1075.44
485.772	1095.44
485.99	1180.44
486.209	1221.44
486.427	1255.44
486.645	1185.44
486.863	1223.44
487.081	1239.44
487.299	1365.44
487.517	1333.44
487.735	1237.44
487.953	1244.44
488.171	1270.44
488.389	1187.44
488.607	1110.44
488.825	1181.44
489.043	1278.44
489.261	1475.44
489.479	1582.44
489.696	1351.44
489.914	1191.44
490.132	1079.44
490.35	1108.44
490.568	1122.44
490.786	1124.44
491.003	1118.44
491.221	1178.44
491.439	1145.44
491.657	1140.44
491.874	1243.44
492.092	1498.44
492.31	1757.44
492.527	1790.44
492.745	1515.44
492.963	1338.44
493.18	1300.44
493.398	1294.44
493.615	1298.44
493.833	1261.44
494.05	1218.44
494.268	1212.44
494.485	1269.44
494.703	1198.44
494.92	1242.44
495.138	1206.44
495.355	1203.44
495.573	1233.44
495.79	1406.44
496.008	1829.44
496.225	1598.44
496.442	1351.44
496.66	1353.44
496.877	1438.44
497.094	1402.44
497.312	1293.44
497.529	1289.44
497.746	1327.44
497.963	1377.44
498.181	1508.44
498.398	1624.44
498.615	1651.44
498.832	1699.44
499.049	1735.44
499.267	1536.44
499.484	1573.44
499.701	1607.44
499.918	1766.44
500.135	1874.44
500.352	1927.44
500.569	1986.44
500.786	2059.44
501.003	2046.44
501.22	1843.44
501.437	1685.44
501.654	1680.44
501.871	1615.44
502.088	1656.44
502.305	1502.44
502.522	1490.44
502.739	1552.44
502.956	1386.44
503.172	1360.44
503.389	1319.44
503.606	1273.44
503.823	1302.44
504.04	1301.44
504.256	1325.44
504.473	1345.44
504.69	1367.44
504.907	1367.44
505.123	1365.44
505.34	1443.44
505.557	1435.44
505.773	1348.44
505.99	1301.44
506.207	1376.44
506.423	1248.44
506.64	1198.44
506.856	1245.44
507.073	1398.44
507.289	1351.44
507.506	1366.44
507.722	1424.44
507.939	1437.44
508.155	1474.44
508.372	1314.44
508.588	1283.44
508.805	1259.44
509.021	1210.44
509.238	1159.44
509.454	1202.44
509.67	1192.44
509.887	1228.44
510.103	1342.44
510.319	1298.44
510.536	1166.44
510.752	1104.44
510.968	1059.44
511.184	1044.44
511.401	1014.44
511.617	1029.44
511.833	1051.44
512.049	1071.44
512.265	1075.44
512.481	1110.44
512.698	1271.44
512.914	1377.44
513.13	1270.44
513.346	1147.44
513.562	1186.44
513.778	1168.44
513.994	1176.44
514.21	1255.44
514.426	1226.44
514.642	1148.44
514.858	1119.44
515.074	1192.44
515.29	1312.44
515.506	1440.44
515.721	1326.44
515.937	1255.44
516.153	1152.44
516.369	1164.44
516.585	1221.44
516.801	1377.44
517.016	1632.44
517.232	1521.44
517.448	1568.44
517.664	1383.44
517.879	1306.44
518.095	1276.44
518.311	1280.44
518.527	1323.44
518.742	1420.44
518.958	1484.44
519.173	1367.44
519.389	1402.44
519.605	1415.44
519.82	1506.44
520.036	1750.44
520.251	1715.44
520.467	1620.44
520.682	2420.44
520.898	2945.44
521.113	2747.44
521.329	1743.44
521.544	1506.44
521.76	1519.44
521.975	1356.44
522.19	1294.44
522.406	1316.44
522.621	1470.44
522.836	1509.44
523.052	1581.44
523.267	1312.44
523.482	1312.44
523.698	1382.44
523.913	1372.44
524.128	1238.44
524.343	1152.44
524.559	1186.44
524.774	1144.44
524.989	1169.44
525.204	1230.44
525.419	1371.44
525.634	1237.44
525.849	1287.44
526.064	1274.44
526.28	1283.44
526.495	1472.44
526.71	1550.44
526.925	1368.44
527.14	1409.44
527.355	1356.44
527.57	1122.44
527.785	1205.44
527.999	1118.44
528.214	1073.44
528.429	1079.44
528.644	1063.44
528.859	1033.44
529.074	989.44
529.289	1007.44
529.503	1005.44
529.718	1031.44
529.933	1179.44
530.148	1198.44
530.363	1055.44
530.577	996.44
530.792	992.44
531.007	1016.44
531.221	976.44
531.436	974.44
531.651	1008.44
531.865	1013.44
532.08	1030.44
532.295	984.44
532.509	1045.44
532.724	1168.44
532.938	1312.44
533.153	1530.44
533.367	1218.44
533.582	1177.44
533.796	1106.44
534.011	1069.44
534.225	1061.44
534.44	1069.44
534.654	1100.44
534.868	1257.44
535.083	1106.44
535.297	980.44
535.511	1051.44
535.726	1146.44
535.94	1074.44
536.154	1027.44
536.369	979.44
536.583	1003.44
536.797	1032.44
537.011	1032.44
537.225	1132.44
537.44	1176.44
537.654	1053.44
537.868	1017.44
538.082	1021.44
538.296	1009.44
538.51	1100.44
538.724	1105.44
538.938	1032.44
539.153	1003.44
539.367	981.44
539.581	994.44
539.795	1021.44
540.009	1142.44
540.222	1086.44
540.436	1070.44
540.65	1173.44
540.864	1177.44
541.078	1211.44
541.292	1343.44
541.506	1107.44
541.72	1098.44
541.934	1051.44
542.147	1035.44
542.361	1068.44
542.575	1088.44
542.789	1018.44
543.002	975.44
543.216	1087.44
543.43	965.44
543.644	940.44
543.857	924.44
544.071	956.44
544.285	945.44
544.498	914.44
544.712	933.44
544.925	1029.44
545.139	949.44
545.352	896.44
545.566	946.44
545.779	1068.44
545.993	984.44
546.206	883.44
546.42	898.44
546.633	887.44
546.847	872.44
547.06	859.44
547.274	862.44
547.487	901.44
547.7	978.44
547.914	1016.44
548.127	1132.44
548.34	1078.44
548.554	971.44
548.767	1010.44
548.98	1053.44
549.193	980.44
549.407	1007.44
549.62	1195.44
549.833	1110.44
550.046	1146.44
550.259	1180.44
550.473	1052.44
550.686	972.44
550.899	994.44
551.112	972.44
551.325	1026.44
551.538	1096.44
551.751	956.44
551.964	888.44
552.177	904.44
552.39	883.44
552.603	890.44
552.816	930.44
553.029	867.44
553.242	868.44
553.455	944.44
553.667	990.44
553.88	982.44
554.093	903.44
554.306	850.44
554.519	832.44
554.732	806.44
554.944	774.44
555.157	780.44
555.37	793.44
555.583	754.44
555.795	778.44
556.008	803.44
556.221	814.44
556.433	792.44
556.646	759.44
556.859	795.44
557.071	800.44
557.284	814.44
557.496	834.44
557.709	796.44
557.921	817.44
558.134	748.44
558.346	723.44
558.559	724.44
558.771	759.44
558.984	810.44
559.196	795.44
559.409	760.44
559.621	707.44
559.833	702.44
560.046	753.44
560.258	736.44
560.47	735.44
560.683	709.44
560.895	676.44
561.107	680.44
561.32	675.44
561.532	667.44
561.744	789.44
561.956	783.44
562.168	696.44
562.381	700.44
562.593	736.44
562.805	719.44
563.017	704.44
563.229	715.44
563.441	687.44
563.653	663.44
563.865	690.44
564.077	700.44
564.289	688.44
564.501	731.44
564.713	767.44
564.925	719.44
565.137	680.44
565.349	684.44
565.561	719.44
565.773	704.44
565.985	767.44
566.197	787.44
566.408	879.44
566.62	883.44
566.832	862.44
567.044	862.44
567.255	918.44
567.467	982.44
567.679	892.44
567.891	884.44
568.102	888.44
568.314	896.44
568.526	851.44
568.737	829.44
568.949	862.44
569.161	771.44
569.372	730.44
569.584	676.44
569.795	673.44
570.007	699.44
570.218	757.44
570.43	719.44
570.641	701.44
570.853	650.44
571.064	667.44
571.276	668.44
571.487	700.44
571.698	674.44
571.91	671.44
572.121	668.44
572.333	620.44
572.544	634.44
572.755	640.44
572.966	632.44
573.178	616.44
573.389	660.44
573.6	676.44
573.811	620.44
574.023	564.44
574.234	594.44
574.445	576.44
574.656	564.44
574.867	589.44
575.078	586.44
575.289	588.44
575.501	627.44
575.712	599.44
575.923	551.44
576.134	559.44
576.345	532.44
576.556	560.44
576.767	527.44
576.978	519.44
577.188	521.44
577.399	510.44
577.61	513.44
577.821	543.44
578.032	528.44
578.243	579.44
578.454	548.44
578.665	571.44
578.875	560.44
579.086	539.44
579.297	570.44
579.508	565.44
579.718	564.44
579.929	542.44
580.14	538.44
580.35	506.44
580.561	476.44
580.772	492.44
580.982	467.44
581.193	463.44
581.403	452.44
581.614	442.44
581.825	461.44
582.035	468.44
582.246	460.44
582.456	475.44
582.667	471.44
582.877	464.44
583.087	465.44
583.298	459.44
583.508	453.44
583.719	428.44
583.929	467.44
584.139	448.44
584.35	456.44
584.56	465.44
584.77	484.44
584.981	470.44
585.191	469.44
585.401	458.44
585.611	481.44
585.821	484.44
586.032	501.44
586.242	480.44
586.452	482.44
586.662	478.44
586.872	485.44
587.082	487.44
587.292	467.44
587.502	438.44
587.713	458.44
587.923	471.44
588.133	512.44
588.343	469.44
588.553	449.44
588.762	458.44
588.972	447.44
589.182	469.44
589.392	442.44
589.602	444.44
589.812	469.44
590.022	516.44
590.232	500.44
590.441	458.44
590.651	448.44
590.861	460.44
591.071	475.44
591.281	441.44
591.49	429.44
591.7	455.44
591.91	453.44
592.119	443.44
592.329	456.44
592.539	463.44
592.748	440.44
592.958	477.44
593.167	476.44
593.377	516.44
593.587	476.44
593.796	482.44
594.006	484.44
594.215	474.44
594.424	494.44
594.634	508.44
594.843	490.44
595.053	476.44
595.262	444.44
595.472	455.44
595.681	440.44
595.89	424.44
596.1	423.44
596.309	431.44
596.518	448.44
596.727	424.44
596.937	430.44
597.146	428.44
597.355	453.44
597.564	435.44
597.774	416.44
597.983	443.44
598.192	391.44
598.401	404.44
598.61	393.44
598.819	389.44
599.028	406.44
599.237	398.44
599.446	372.44
599.655	387.44
599.864	387.44
600.073	372.44
600.282	373.44
600.491	387.44
600.7	383.44
600.909	388.44
601.118	370.44
601.327	362.44
601.536	374.44
601.745	403.44
601.953	423.44
602.162	382.44
602.371	406.44
602.58	417.44
602.789	375.44
602.997	366.44
603.206	379.44
603.415	368.44
603.623	362.44
603.832	367.44
604.041	354.44
604.249	378.44
604.458	403.44
604.666	363.44
604.875	346.44
605.084	341.44
605.292	367.44
605.501	362.44
605.709	366.44
605.918	376.44
606.126	344.44
606.334	350.44
606.543	366.44
606.751	338.44
606.96	355.44
607.168	345.44
607.376	333.44
607.585	365.44
607.793	346.44
608.001	361.44
608.21	359.44
608.418	354.44
608.626	342.44
608.834	351.44
609.043	335.44
609.251	362.44
609.459	344.44
609.667	334.44
609.875	356.44
610.083	366.44
610.291	353.44
610.499	352.44
610.707	324.44
610.916	325.44
611.124	339.44
611.332	346.44
611.54	326.44
611.748	327.44
611.955	342.44
612.163	326.44
612.371	337.44
612.579	333.44
612.787	311.44
612.995	318.44
613.203	332.44
613.411	317.44
613.618	324.44
613.826	348.44
614.034	359.44
614.242	325.44
614.449	319.44
614.657	329.44
614.865	344.44
615.072	306.44
615.28	325.44
615.488	321.44
615.695	340.44
615.903	348.44
616.111	330.44
616.318	309.44
616.526	319.44
616.733	311.44
616.941	349.44
617.148	315.44
617.356	337.44
617.563	311.44
617.771	319.44
617.978	325.44
618.185	311.44
618.393	311.44
618.6	302.44
618.807	319.44
619.015	321.44
619.222	303.44
619.429	303.44
619.637	310.44
619.844	299.44
620.051	307.44
620.258	295.44
620.466	292.44
620.673	287.44
620.88	301.44
621.087	294.44
621.294	282.44
621.501	296.44
621.708	306.44
621.915	297.44
622.122	294.44
622.329	306.44
622.536	300.44
622.743	278.44
622.95	294.44
623.157	305.44
623.364	311.44
623.571	306.44
623.778	293.44
623.985	305.44
624.192	306.44
624.399	308.44
624.606	294.44
624.812	288.44
625.019	302.44
625.226	322.44
625.433	296.44
625.639	288.44
625.846	295.44
626.053	284.44
626.259	276.44
626.466	256.44
626.673	310.44
626.879	268.44
627.086	258.44
627.293	275.44
627.499	267.44
627.706	268.44
627.912	264.44
628.119	270.44
628.325	269.44
628.532	269.44
628.738	273.44
628.945	278.44
629.151	270.44
629.357	262.44
629.564	260.44
629.77	259.44
629.976	253.44
630.183	242.44
630.389	252.44
630.595	263.44
630.802	263.44
631.008	259.44
631.214	226.44
631.42	268.44
631.627	279.44
631.833	252.44
632.039	265.44
632.245	258.44
632.451	242.44
632.657	249.44
632.863	241.44
633.069	235.44
633.275	250.44
633.481	236.44
633.688	223.44
633.893	264.44
634.099	257.44
634.305	234.44
634.511	248.44
634.717	230.44
634.923	215.44
635.129	213.44
635.335	235.44
635.541	215.44
635.747	238.44
635.952	240.44
636.158	223.44
636.364	256.44
636.57	229.44
636.775	217.44
636.981	219.44
637.187	218.44
637.392	222.44
637.598	220.44
637.804	238.44
638.009	226.44
638.215	210.44
638.421	225.44
638.626	218.44
638.832	222.44
639.037	227.44
639.243	221.44
639.448	219.44
639.654	245.44
639.859	229.44
640.065	225.44
640.27	237.44
640.475	236.44
640.681	221.44
640.886	229.44
641.091	216.44
641.297	227.44
641.502	227.44
641.707	220.44
641.913	229.44
642.118	225.44
642.323	223.44
642.528	219.44
642.733	213.44
642.939	220.44
643.144	217.44
643.349	215.44
643.554	206.44
643.759	210.44
643.964	195.44
644.169	209.44
644.374	195.44
644.579	220.44
644.784	200.44
644.989	208.44
645.194	196.44
645.399	199.44
645.604	196.44
645.809	214.44
646.014	202.44
646.219	205.44
646.423	199.44
646.628	206.44
646.833	210.44
647.038	209.44
647.243	211.44
647.447	206.44
647.652	207.44
647.857	215.44
648.062	209.44
648.266	219.44
648.471	215.44
648.676	206.44
648.88	216.44
649.085	205.44
649.289	210.44
649.494	210.44
649.698	213.44
649.903	212.44
650.107	188.44
650.312	209.44
650.516	182.44
650.721	193.44
650.925	184.44
651.13	188.44
651.334	173.44
651.539	183.44
651.743	198.44
651.947	191.44
652.152	183.44
652.356	201.44
652.56	178.44
652.764	173.44
652.969	180.44
653.173	170.44
653.377	178.44
653.581	169.44
653.785	178.44
653.99	162.44
654.194	148.44
654.398	162.44
654.602	161.44
654.806	153.44
655.01	166.44
655.214	154.44
655.418	149.44
655.622	172.44
655.826	138.44
656.03	161.44
656.234	158.44
656.438	160.44
656.642	160.44
656.846	145.44
657.049	152.44
657.253	148.44
657.457	147.44
657.661	149.44
657.865	136.44
658.068	135.44
658.272	124.44
658.476	108.44
658.68	116.44
658.883	116.44
659.087	101.44
659.291	103.44
659.494	110.44
659.698	111.44
659.901	97.44
660.105	112.44
660.309	92.44
660.512	104.44
660.716	108.44
660.919	102.44
661.123	113.44
661.326	96.44
661.53	92.44
661.733	88.44
661.936	86.44
662.14	86.44
662.343	76.44
662.546	86.44
662.75	81.44
662.953	95.44
663.156	81.44
663.36	80.44
663.563	84.44
663.766	74.44
663.969	79.44
664.173	80.44
664.376	93.44
664.579	90.44
664.782	76.44
664.985	83.44
665.188	71.44
665.391	82.44
665.594	78.44
665.797	91.44
666	77.44
666.203	73.44
666.406	69.44
666.609	81.44
666.812	80.44
667.015	82.44
667.218	89.44
667.421	75.44
667.624	78.44
667.827	79.44
668.03	76.44
668.232	74.44
668.435	74.44
668.638	92.44
668.841	86.44
669.043	92.44
669.246	81.44
669.449	69.44
669.651	74.44
669.854	87.44
670.057	88.44
670.259	64.44
670.462	70.44
670.665	73.44
670.867	79.44
671.07	85.44
671.272	68.44
671.475	78.44
671.677	86.44
671.88	71.44
672.082	71.44
672.284	87.44
672.487	79.44
672.689	73.44
672.892	86.44
