Data from NickelSpatula.Lamp.E10.P2_HRD10591_11-58-58-527.txt Node
Date: Tue Jul 23 11:58:58 EDT 2019
User: cochatt
Spectrometer: HR+D1059
Trigger mode: 1
Integration Time (sec): 1.000000E-1
Scans to average: 1
Electric dark correction enabled: true
Nonlinearity correction enabled: false
Boxcar width: 0
XAxis mode: Wavelengths
Number of Pixels in Spectrum: 2048
>>>>>Begin Spectral Data<<<<<
223.165	-13.06
223.4	-13.06
223.635	-13.06
223.869	-17.06
224.104	-18.06
224.338	-11.06
224.573	-16.06
224.808	-1.06
225.042	-26.06
225.277	-5.06
225.511	-8.06
225.746	-0.06
225.98	6.94
226.215	20.94
226.449	5.94
226.683	21.94
226.918	34.94
227.152	24.94
227.387	34.94
227.621	42.94
227.856	39.94
228.09	53.94
228.324	60.94
228.559	54.94
228.793	90.94
229.027	130.94
229.262	159.94
229.496	170.94
229.73	169.94
229.964	179.94
230.199	205.94
230.433	214.94
230.667	215.94
230.901	215.94
231.136	205.94
231.37	217.94
231.604	225.94
231.838	251.94
232.072	237.94
232.306	249.94
232.541	257.94
232.775	245.94
233.009	247.94
233.243	299.94
233.477	313.94
233.711	360.94
233.945	350.94
234.179	326.94
234.413	355.94
234.647	388.94
234.881	476.94
235.115	441.94
235.349	407.94
235.583	356.94
235.817	362.94
236.051	390.94
236.285	408.94
236.519	462.94
236.753	443.94
236.987	437.94
237.221	407.94
237.455	424.94
237.689	415.94
237.922	454.94
238.156	500.94
238.39	566.94
238.624	671.94
238.858	605.94
239.091	499.94
239.325	498.94
239.559	477.94
239.793	559.94
240.027	649.94
240.26	617.94
240.494	619.94
240.728	610.94
240.961	713.94
241.195	690.94
241.429	665.94
241.662	637.94
241.896	539.94
242.13	498.94
242.363	472.94
242.597	481.94
242.83	561.94
243.064	553.94
243.298	613.94
243.531	632.94
243.765	649.94
243.998	651.94
244.232	616.94
244.465	598.94
244.699	614.94
244.932	665.94
245.166	625.94
245.399	563.94
245.633	533.94
245.866	598.94
246.099	626.94
246.333	710.94
246.566	780.94
246.8	797.94
247.033	780.94
247.266	706.94
247.5	718.94
247.733	704.94
247.966	673.94
248.2	716.94
248.433	798.94
248.666	845.94
248.899	862.94
249.133	897.94
249.366	1015.94
249.599	1084.94
249.832	987.94
250.066	821.94
250.299	860.94
250.532	846.94
250.765	832.94
250.998	752.94
251.231	734.94
251.465	785.94
251.698	844.94
251.931	806.94
252.164	843.94
252.397	961.94
252.63	1087.94
252.863	1211.94
253.096	1237.94
253.329	1201.94
253.562	1113.94
253.795	1242.94
254.028	1395.94
254.261	1405.94
254.494	1263.94
254.727	1178.94
254.96	1163.94
255.193	1191.94
255.426	1176.94
255.659	857.94
255.892	820.94
256.124	891.94
256.357	1025.94
256.59	1224.94
256.823	1182.94
257.056	995.94
257.289	952.94
257.521	1006.94
257.754	1178.94
257.987	1309.94
258.22	1105.94
258.452	1045.94
258.685	1216.94
258.918	1297.94
259.151	1271.94
259.383	1328.94
259.616	1510.94
259.849	1587.94
260.081	1721.94
260.314	1928.94
260.547	1488.94
260.779	1495.94
261.012	1727.94
261.244	1649.94
261.477	1647.94
261.71	1577.94
261.942	1329.94
262.175	1296.94
262.407	1253.94
262.64	1272.94
262.872	1548.94
263.105	1678.94
263.337	1787.94
263.57	1573.94
263.802	1056.94
264.035	910.94
264.267	904.94
264.499	767.94
264.732	707.94
264.964	699.94
265.197	730.94
265.429	769.94
265.661	851.94
265.894	863.94
266.126	917.94
266.358	1053.94
266.591	1297.94
266.823	1507.94
267.055	1481.94
267.287	1264.94
267.52	1272.94
267.752	1348.94
267.984	1455.94
268.216	1407.94
268.448	1133.94
268.681	1141.94
268.913	1213.94
269.145	1306.94
269.377	1319.94
269.609	1331.94
269.841	1242.94
270.073	1309.94
270.306	1368.94
270.538	1401.94
270.77	1441.94
271.002	1449.94
271.234	1482.94
271.466	1543.94
271.698	1484.94
271.93	1463.94
272.162	1470.94
272.394	1440.94
272.626	1426.94
272.858	1504.94
273.09	1518.94
273.322	1343.94
273.553	1317.94
273.785	1517.94
274.017	2001.94
274.249	2495.94
274.481	2619.94
274.713	2816.94
274.945	3215.94
275.176	3302.94
275.408	2947.94
275.64	2676.94
275.872	2718.94
276.104	2316.94
276.335	1985.94
276.567	1963.94
276.799	1992.94
277.031	2148.94
277.262	1659.94
277.494	1269.94
277.726	1248.94
277.957	1380.94
278.189	1540.94
278.421	1489.94
278.652	1467.94
278.884	1398.94
279.115	1302.94
279.347	1233.94
279.579	1245.94
279.81	1219.94
280.042	1248.94
280.273	1256.94
280.505	1187.94
280.736	1045.94
280.968	1055.94
281.199	1128.94
281.431	1263.94
281.662	1257.94
281.894	1162.94
282.125	1300.94
282.356	1361.94
282.588	1425.94
282.819	1297.94
283.051	1422.94
283.282	1706.94
283.513	1983.94
283.745	2206.94
283.976	2210.94
284.207	2059.94
284.439	2166.94
284.67	2048.94
284.901	1832.94
285.132	1988.94
285.364	2105.94
285.595	1956.94
285.826	2012.94
286.057	2102.94
286.288	2013.94
286.52	2055.94
286.751	2147.94
286.982	2148.94
287.213	1870.94
287.444	1782.94
287.675	1889.94
287.906	1874.94
288.138	1549.94
288.369	1405.94
288.6	1323.94
288.831	1401.94
289.062	1566.94
289.293	1706.94
289.524	1638.94
289.755	1650.94
289.986	1679.94
290.217	1476.94
290.448	1145.94
290.679	973.94
290.91	921.94
291.141	954.94
291.371	997.94
291.602	990.94
291.833	1012.94
292.064	1097.94
292.295	1261.94
292.526	1425.94
292.757	1509.94
292.987	1605.94
293.218	1629.94
293.449	1631.94
293.68	1711.94
293.91	1637.94
294.141	1662.94
294.372	1569.94
294.603	1429.94
294.833	1639.94
295.064	1897.94
295.295	1732.94
295.525	1333.94
295.756	1157.94
295.987	1015.94
296.217	1051.94
296.448	1064.94
296.679	1128.94
296.909	1256.94
297.14	1333.94
297.37	1465.94
297.601	1381.94
297.831	1162.94
298.062	1277.94
298.292	1496.94
298.523	1602.94
298.753	1808.94
298.984	1647.94
299.214	1327.94
299.445	1106.94
299.675	1063.94
299.905	1013.94
300.136	1124.94
300.366	1243.94
300.597	1197.94
300.827	1063.94
301.057	1019.94
301.288	1035.94
301.518	1102.94
301.748	1265.94
301.979	1355.94
302.209	1497.94
302.439	1505.94
302.669	1300.94
302.9	1283.94
303.13	1165.94
303.36	1134.94
303.59	1085.94
303.82	1117.94
304.051	1260.94
304.281	1376.94
304.511	1327.94
304.741	1185.94
304.971	1233.94
305.201	1301.94
305.431	1216.94
305.661	1073.94
305.891	1086.94
306.121	1086.94
306.352	977.94
306.582	898.94
306.812	889.94
307.042	883.94
307.272	823.94
307.502	849.94
307.731	898.94
307.961	943.94
308.191	872.94
308.421	839.94
308.651	831.94
308.881	760.94
309.111	802.94
309.341	851.94
309.571	910.94
309.8	952.94
310.03	946.94
310.26	1055.94
310.49	985.94
310.72	871.94
310.949	891.94
311.179	917.94
311.409	950.94
311.639	1105.94
311.868	1450.94
312.098	1829.94
312.328	2018.94
312.557	1903.94
312.787	1919.94
313.017	1717.94
313.246	1842.94
313.476	2006.94
313.706	1603.94
313.935	1314.94
314.165	1063.94
314.394	965.94
314.624	970.94
314.853	1055.94
315.083	1041.94
315.312	1062.94
315.542	1051.94
315.771	945.94
316.001	854.94
316.23	854.94
316.46	850.94
316.689	861.94
316.919	898.94
317.148	899.94
317.377	897.94
317.607	901.94
317.836	960.94
318.065	1121.94
318.295	1285.94
318.524	1163.94
318.753	1010.94
318.983	952.94
319.212	951.94
319.441	1029.94
319.67	1145.94
319.9	1249.94
320.129	1181.94
320.358	992.94
320.587	965.94
320.816	1046.94
321.046	1214.94
321.275	1357.94
321.504	1378.94
321.733	1343.94
321.962	1253.94
322.191	1208.94
322.42	1141.94
322.649	1177.94
322.878	1248.94
323.108	1267.94
323.337	1154.94
323.566	1124.94
323.795	1082.94
324.024	1041.94
324.253	1006.94
324.482	994.94
324.71	1117.94
324.939	1235.94
325.168	1129.94
325.397	986.94
325.626	945.94
325.855	934.94
326.084	955.94
326.313	897.94
326.542	850.94
326.77	881.94
326.999	906.94
327.228	991.94
327.457	1047.94
327.686	1019.94
327.914	934.94
328.143	846.94
328.372	830.94
328.6	855.94
328.829	878.94
329.058	889.94
329.287	905.94
329.515	943.94
329.744	882.94
329.972	841.94
330.201	813.94
330.43	851.94
330.658	959.94
330.887	1099.94
331.115	1060.94
331.344	1027.94
331.572	977.94
331.801	907.94
332.03	871.94
332.258	896.94
332.486	944.94
332.715	990.94
332.943	941.94
333.172	906.94
333.4	968.94
333.629	1002.94
333.857	1109.94
334.085	1109.94
334.314	1141.94
334.542	1066.94
334.771	995.94
334.999	982.94
335.227	969.94
335.455	956.94
335.684	1069.94
335.912	1205.94
336.14	1355.94
336.369	1305.94
336.597	1240.94
336.825	1406.94
337.053	1575.94
337.281	1283.94
337.51	1012.94
337.738	1008.94
337.966	1098.94
338.194	1241.94
338.422	1139.94
338.65	971.94
338.878	881.94
339.106	922.94
339.334	1049.94
339.562	1140.94
339.79	1021.94
340.018	982.94
340.246	1086.94
340.474	1195.94
340.702	1285.94
340.93	1343.94
341.158	1352.94
341.386	1145.94
341.614	1145.94
341.842	1141.94
342.07	1205.94
342.298	1379.94
342.526	1435.94
342.754	1252.94
342.981	1152.94
343.209	1110.94
343.437	1194.94
343.665	1229.94
343.893	1216.94
344.12	1407.94
344.348	1674.94
344.576	1477.94
344.804	1239.94
345.031	1087.94
345.259	1015.94
345.487	1049.94
345.714	1056.94
345.942	1131.94
346.17	1198.94
346.397	1172.94
346.625	1018.94
346.853	1022.94
347.08	959.94
347.308	1018.94
347.535	1138.94
347.763	1170.94
347.99	1010.94
348.218	919.94
348.445	988.94
348.673	985.94
348.9	1013.94
349.128	1072.94
349.355	1123.94
349.583	1064.94
349.81	1062.94
350.037	976.94
350.265	836.94
350.492	835.94
350.72	806.94
350.947	864.94
351.174	881.94
351.402	992.94
351.629	1023.94
351.856	963.94
352.083	919.94
352.311	1011.94
352.538	1147.94
352.765	1192.94
352.992	1057.94
353.22	997.94
353.447	1056.94
353.674	1003.94
353.901	989.94
354.128	1038.94
354.355	1033.94
354.583	1043.94
354.81	1020.94
355.037	1065.94
355.264	1035.94
355.491	1111.94
355.718	1224.94
355.945	1176.94
356.172	1110.94
356.399	1114.94
356.626	1378.94
356.853	1702.94
357.08	1777.94
357.307	1846.94
357.534	1435.94
357.761	1446.94
357.988	1855.94
358.215	2140.94
358.441	2045.94
358.668	1670.94
358.895	1541.94
359.122	1248.94
359.349	1257.94
359.576	1368.94
359.802	1113.94
360.029	995.94
360.256	1081.94
360.483	1329.94
360.709	1704.94
360.936	1717.94
361.163	1539.94
361.39	1188.94
361.616	1064.94
361.843	1291.94
362.07	1588.94
362.296	1415.94
362.523	1127.94
362.749	953.94
362.976	1013.94
363.203	1256.94
363.429	1385.94
363.656	1127.94
363.882	1050.94
364.109	1042.94
364.335	1001.94
364.562	1019.94
364.788	1145.94
365.015	1371.94
365.241	1224.94
365.468	990.94
365.694	843.94
365.92	839.94
366.147	811.94
366.373	793.94
366.599	800.94
366.826	811.94
367.052	834.94
367.278	894.94
367.505	844.94
367.731	943.94
367.957	1025.94
368.184	1071.94
368.41	1054.94
368.636	1074.94
368.862	1098.94
369.089	1040.94
369.315	941.94
369.541	903.94
369.767	898.94
369.993	843.94
370.219	891.94
370.445	922.94
370.672	1042.94
370.898	1142.94
371.124	1146.94
371.35	957.94
371.576	927.94
371.802	983.94
372.028	1192.94
372.254	1384.94
372.48	1175.94
372.706	1075.94
372.932	1130.94
373.158	1169.94
373.384	1421.94
373.61	1887.94
373.835	1923.94
374.061	1439.94
374.287	1211.94
374.513	1434.94
374.739	1767.94
374.965	1794.94
375.191	1766.94
375.416	1157.94
375.642	1041.94
375.868	1261.94
376.094	1418.94
376.319	1183.94
376.545	1345.94
376.771	1437.94
376.997	1201.94
377.222	864.94
377.448	779.94
377.674	749.94
377.899	749.94
378.125	763.94
378.35	774.94
378.576	802.94
378.802	895.94
379.027	971.94
379.253	903.94
379.478	950.94
379.704	1093.94
379.929	1145.94
380.155	1143.94
380.38	986.94
380.606	1034.94
380.831	1144.94
381.057	1065.94
381.282	1007.94
381.507	1207.94
381.733	1541.94
381.958	1598.94
382.184	1684.94
382.409	1797.94
382.634	1736.94
382.86	1829.94
383.085	1509.94
383.31	1147.94
383.535	1242.94
383.761	1249.94
383.986	1185.94
384.211	1497.94
384.436	1433.94
384.662	1117.94
384.887	997.94
385.112	1073.94
385.337	1095.94
385.562	1005.94
385.787	1137.94
386.013	1278.94
386.238	1298.94
386.463	1047.94
386.688	1024.94
386.913	999.94
387.138	913.94
387.363	988.94
387.588	1001.94
387.813	1024.94
388.038	1111.94
388.263	1041.94
388.488	980.94
388.713	1169.94
388.938	1266.94
389.163	1065.94
389.387	912.94
389.612	954.94
389.837	975.94
390.062	969.94
390.287	1049.94
390.512	1068.94
390.736	971.94
390.961	911.94
391.186	877.94
391.411	828.94
391.636	877.94
391.86	944.94
392.085	1034.94
392.31	1018.94
392.534	957.94
392.759	976.94
392.984	1000.94
393.208	1000.94
393.433	862.94
393.658	813.94
393.882	815.94
394.107	793.94
394.331	827.94
394.556	823.94
394.78	811.94
395.005	856.94
395.229	889.94
395.454	906.94
395.678	890.94
395.903	936.94
396.127	879.94
396.352	886.94
396.576	993.94
396.801	1034.94
397.025	1128.94
397.249	1195.94
397.474	962.94
397.698	963.94
397.922	1006.94
398.147	914.94
398.371	938.94
398.595	1001.94
398.82	964.94
399.044	946.94
399.268	1029.94
399.492	1087.94
399.717	1087.94
399.941	1109.94
400.165	1051.94
400.389	1070.94
400.613	1058.94
400.837	1061.94
401.062	969.94
401.286	908.94
401.51	923.94
401.734	913.94
401.958	920.94
402.182	913.94
402.406	941.94
402.63	935.94
402.854	971.94
403.078	1114.94
403.302	1339.94
403.526	1397.94
403.75	1235.94
403.974	1062.94
404.198	1102.94
404.422	1248.94
404.645	1459.94
404.869	1646.94
405.093	1189.94
405.317	999.94
405.541	999.94
405.765	1046.94
405.988	1032.94
406.212	1133.94
406.436	1335.94
406.66	1457.94
406.883	1141.94
407.107	1220.94
407.331	1398.94
407.555	1343.94
407.778	1105.94
408.002	1072.94
408.226	1060.94
408.449	1066.94
408.673	1064.94
408.896	953.94
409.12	916.94
409.344	894.94
409.567	881.94
409.791	914.94
410.014	905.94
410.238	896.94
410.461	918.94
410.685	886.94
410.908	917.94
411.132	918.94
411.355	935.94
411.578	934.94
411.802	973.94
412.025	1007.94
412.249	1025.94
412.472	931.94
412.695	975.94
412.919	959.94
413.142	992.94
413.365	1091.94
413.589	1085.94
413.812	981.94
414.035	935.94
414.258	946.94
414.482	1090.94
414.705	1080.94
414.928	914.94
415.151	886.94
415.374	893.94
415.597	934.94
415.821	953.94
416.044	917.94
416.267	904.94
416.49	880.94
416.713	872.94
416.936	877.94
417.159	863.94
417.382	910.94
417.605	931.94
417.828	923.94
418.051	946.94
418.274	947.94
418.497	946.94
418.72	940.94
418.943	967.94
419.166	1031.94
419.389	1063.94
419.611	1028.94
419.834	1056.94
420.057	1135.94
420.28	1122.94
420.503	1024.94
420.726	919.94
420.948	883.94
421.171	904.94
421.394	893.94
421.617	855.94
421.839	907.94
422.062	945.94
422.285	946.94
422.507	951.94
422.73	988.94
422.953	981.94
423.175	959.94
423.398	953.94
423.621	1032.94
423.843	1100.94
424.066	1027.94
424.288	952.94
424.511	901.94
424.733	905.94
424.956	1006.94
425.178	1090.94
425.401	1272.94
425.623	1425.94
425.846	1171.94
426.068	1038.94
426.291	1167.94
426.513	1072.94
426.735	937.94
426.958	1000.94
427.18	1176.94
427.402	1543.94
427.625	1553.94
427.847	1213.94
428.069	913.94
428.292	915.94
428.514	914.94
428.736	853.94
428.958	979.94
429.181	1141.94
429.403	986.94
429.625	914.94
429.847	887.94
430.069	936.94
430.292	930.94
430.514	861.94
430.736	978.94
430.958	1230.94
431.18	1113.94
431.402	867.94
431.624	824.94
431.846	799.94
432.068	810.94
432.29	838.94
432.512	954.94
432.734	1264.94
432.956	1177.94
433.178	856.94
433.4	845.94
433.622	860.94
433.844	904.94
434.066	979.94
434.287	966.94
434.509	887.94
434.731	962.94
434.953	882.94
435.175	934.94
435.397	1081.94
435.618	935.94
435.84	855.94
436.062	832.94
436.284	833.94
436.505	813.94
436.727	799.94
436.949	808.94
437.17	833.94
437.392	861.94
437.614	846.94
437.835	835.94
438.057	840.94
438.278	997.94
438.5	1469.94
438.721	1412.94
438.943	969.94
439.165	825.94
439.386	785.94
439.608	798.94
439.829	795.94
440.05	813.94
440.272	835.94
440.493	1031.94
440.715	1309.94
440.936	1003.94
441.158	881.94
441.379	863.94
441.6	990.94
441.822	1064.94
442.043	871.94
442.264	881.94
442.486	899.94
442.707	886.94
442.928	894.94
443.149	893.94
443.371	898.94
443.592	924.94
443.813	927.94
444.034	930.94
444.255	899.94
444.476	951.94
444.698	959.94
444.919	949.94
445.14	1079.94
445.361	1046.94
445.582	978.94
445.803	945.94
446.024	951.94
446.245	966.94
446.466	943.94
446.687	877.94
446.908	894.94
447.129	841.94
447.35	832.94
447.571	795.94
447.792	816.94
448.013	816.94
448.234	766.94
448.455	785.94
448.675	806.94
448.896	826.94
449.117	813.94
449.338	815.94
449.559	834.94
449.779	904.94
450	874.94
450.221	861.94
450.442	822.94
450.662	827.94
450.883	822.94
451.104	802.94
451.324	787.94
451.545	825.94
451.766	808.94
451.986	768.94
452.207	753.94
452.428	758.94
452.648	797.94
452.869	821.94
453.089	870.94
453.31	846.94
453.53	762.94
453.751	754.94
453.971	726.94
454.192	787.94
454.412	811.94
454.633	775.94
454.853	768.94
455.073	738.94
455.294	792.94
455.514	770.94
455.734	790.94
455.955	845.94
456.175	856.94
456.395	774.94
456.616	753.94
456.836	727.94
457.056	705.94
457.276	677.94
457.497	733.94
457.717	729.94
457.937	737.94
458.157	721.94
458.377	739.94
458.598	738.94
458.818	766.94
459.038	822.94
459.258	819.94
459.478	870.94
459.698	890.94
459.918	911.94
460.138	878.94
460.358	921.94
460.578	862.94
460.798	908.94
461.018	889.94
461.238	866.94
461.458	857.94
461.678	925.94
461.898	945.94
462.118	939.94
462.338	935.94
462.558	976.94
462.777	992.94
462.997	1007.94
463.217	1010.94
463.437	1035.94
463.657	1008.94
463.876	990.94
464.096	1002.94
464.316	989.94
464.536	1001.94
464.755	1041.94
464.975	1032.94
465.195	972.94
465.414	1007.94
465.634	975.94
465.854	983.94
466.073	896.94
466.293	897.94
466.512	941.94
466.732	1012.94
466.951	1071.94
467.171	958.94
467.391	896.94
467.61	893.94
467.829	940.94
468.049	924.94
468.268	887.94
468.488	876.94
468.707	912.94
468.927	1103.94
469.146	1187.94
469.365	1033.94
469.585	952.94
469.804	1020.94
470.023	1131.94
470.243	960.94
470.462	930.94
470.681	922.94
470.901	934.94
471.12	1002.94
471.339	989.94
471.558	928.94
471.777	965.94
471.997	1037.94
472.216	1146.94
472.435	1094.94
472.654	1001.94
472.873	982.94
473.092	1006.94
473.311	1070.94
473.53	981.94
473.749	965.94
473.968	1008.94
474.187	1005.94
474.406	949.94
474.625	917.94
474.844	966.94
475.063	1034.94
475.282	1057.94
475.501	1087.94
475.72	1162.94
475.939	1145.94
476.158	1105.94
476.377	1287.94
476.596	1439.94
476.814	1559.94
477.033	1291.94
477.252	1096.94
477.471	992.94
477.69	1021.94
477.908	1118.94
478.127	1157.94
478.346	1097.94
478.564	1151.94
478.783	1087.94
479.002	1155.94
479.22	1319.94
479.439	1450.94
479.658	1241.94
479.876	1142.94
480.095	1245.94
480.313	1248.94
480.532	1128.94
480.751	1105.94
480.969	1126.94
481.188	1269.94
481.406	1359.94
481.624	1248.94
481.843	1135.94
482.061	1073.94
482.28	1207.94
482.498	1506.94
482.717	1403.94
482.935	1177.94
483.153	1149.94
483.372	1082.94
483.59	1069.94
483.808	1073.94
484.027	1038.94
484.245	998.94
484.463	1014.94
484.681	1029.94
484.9	1134.94
485.118	1193.94
485.336	1122.94
485.554	1050.94
485.772	1093.94
485.99	1175.94
486.209	1282.94
486.427	1224.94
486.645	1204.94
486.863	1255.94
487.081	1233.94
487.299	1399.94
487.517	1357.94
487.735	1245.94
487.953	1250.94
488.171	1244.94
488.389	1194.94
488.607	1159.94
488.825	1190.94
489.043	1290.94
489.261	1478.94
489.479	1635.94
489.696	1338.94
489.914	1192.94
490.132	1122.94
490.35	1129.94
490.568	1169.94
490.786	1141.94
491.003	1150.94
491.221	1203.94
491.439	1173.94
491.657	1156.94
491.874	1275.94
492.092	1522.94
492.31	1887.94
492.527	1824.94
492.745	1609.94
492.963	1354.94
493.18	1306.94
493.398	1319.94
493.615	1314.94
493.833	1278.94
494.05	1243.94
494.268	1301.94
494.485	1241.94
494.703	1179.94
494.92	1247.94
495.138	1215.94
495.355	1217.94
495.573	1264.94
495.79	1418.94
496.008	1921.94
496.225	1632.94
496.442	1413.94
496.66	1394.94
496.877	1448.94
497.094	1415.94
497.312	1357.94
497.529	1303.94
497.746	1347.94
497.963	1377.94
498.181	1480.94
498.398	1630.94
498.615	1687.94
498.832	1747.94
499.049	1729.94
499.267	1537.94
499.484	1525.94
499.701	1613.94
499.918	1757.94
500.135	1902.94
500.352	1913.94
500.569	1992.94
500.786	2099.94
501.003	2093.94
501.22	1875.94
501.437	1770.94
501.654	1674.94
501.871	1640.94
502.088	1695.94
502.305	1539.94
502.522	1565.94
502.739	1496.94
502.956	1378.94
503.172	1429.94
503.389	1313.94
503.606	1285.94
503.823	1338.94
504.04	1335.94
504.256	1362.94
504.473	1361.94
504.69	1387.94
504.907	1406.94
505.123	1385.94
505.34	1491.94
505.557	1425.94
505.773	1351.94
505.99	1370.94
506.207	1375.94
506.423	1305.94
506.64	1210.94
506.856	1310.94
507.073	1394.94
507.289	1359.94
507.506	1375.94
507.722	1464.94
507.939	1437.94
508.155	1474.94
508.372	1361.94
508.588	1307.94
508.805	1212.94
509.021	1222.94
509.238	1221.94
509.454	1217.94
509.67	1154.94
509.887	1223.94
510.103	1361.94
510.319	1297.94
510.536	1187.94
510.752	1067.94
510.968	1064.94
511.184	1022.94
511.401	1071.94
511.617	1057.94
511.833	1050.94
512.049	1060.94
512.265	1103.94
512.481	1143.94
512.698	1248.94
512.914	1382.94
513.13	1251.94
513.346	1175.94
513.562	1233.94
513.778	1186.94
513.994	1189.94
514.21	1249.94
514.426	1228.94
514.642	1173.94
514.858	1138.94
515.074	1204.94
515.29	1272.94
515.506	1425.94
515.721	1357.94
515.937	1231.94
516.153	1155.94
516.369	1216.94
516.585	1233.94
516.801	1411.94
517.016	1669.94
517.232	1585.94
517.448	1567.94
517.664	1400.94
517.879	1297.94
518.095	1273.94
518.311	1283.94
518.527	1354.94
518.742	1389.94
518.958	1451.94
519.173	1425.94
519.389	1403.94
519.605	1452.94
519.82	1515.94
520.036	1778.94
520.251	1746.94
520.467	1625.94
520.682	2522.94
520.898	3119.94
521.113	2952.94
521.329	1775.94
521.544	1551.94
521.76	1537.94
521.975	1379.94
522.19	1286.94
522.406	1357.94
522.621	1476.94
522.836	1559.94
523.052	1607.94
523.267	1334.94
523.482	1337.94
523.698	1461.94
523.913	1375.94
524.128	1261.94
524.343	1207.94
524.559	1201.94
524.774	1149.94
524.989	1176.94
525.204	1223.94
525.419	1349.94
525.634	1245.94
525.849	1290.94
526.064	1265.94
526.28	1315.94
526.495	1518.94
526.71	1563.94
526.925	1405.94
527.14	1469.94
527.355	1402.94
527.57	1185.94
527.785	1251.94
527.999	1155.94
528.214	1128.94
528.429	1080.94
528.644	1093.94
528.859	1013.94
529.074	1019.94
529.289	993.94
529.503	1011.94
529.718	1025.94
529.933	1230.94
530.148	1236.94
530.363	1076.94
530.577	1009.94
530.792	1006.94
531.007	996.94
531.221	997.94
531.436	997.94
531.651	1026.94
531.865	1041.94
532.08	1051.94
532.295	992.94
532.509	1074.94
532.724	1193.94
532.938	1359.94
533.153	1613.94
533.367	1277.94
533.582	1183.94
533.796	1081.94
534.011	1079.94
534.225	1086.94
534.44	1079.94
534.654	1109.94
534.868	1305.94
535.083	1152.94
535.297	1033.94
535.511	1048.94
535.726	1158.94
535.94	1061.94
536.154	1026.94
536.369	999.94
536.583	1032.94
536.797	1040.94
537.011	1087.94
537.225	1135.94
537.44	1204.94
537.654	1054.94
537.868	992.94
538.082	1082.94
538.296	1046.94
538.51	1126.94
538.724	1143.94
538.938	1091.94
539.153	1000.94
539.367	1000.94
539.581	1010.94
539.795	1085.94
540.009	1166.94
540.222	1077.94
540.436	1096.94
540.65	1177.94
540.864	1230.94
541.078	1228.94
541.292	1406.94
541.506	1157.94
541.72	1097.94
541.934	1066.94
542.147	1067.94
542.361	1052.94
542.575	1105.94
542.789	1060.94
543.002	964.94
543.216	1098.94
543.43	969.94
543.644	974.94
543.857	958.94
544.071	953.94
544.285	954.94
544.498	932.94
544.712	949.94
544.925	1027.94
545.139	971.94
545.352	908.94
545.566	909.94
545.779	1058.94
545.993	991.94
546.206	900.94
546.42	873.94
546.633	876.94
546.847	877.94
547.06	866.94
547.274	876.94
547.487	897.94
547.7	975.94
547.914	1026.94
548.127	1116.94
548.34	1095.94
548.554	979.94
548.767	1035.94
548.98	1085.94
549.193	1012.94
549.407	1002.94
549.62	1197.94
549.833	1137.94
550.046	1192.94
550.259	1188.94
550.473	1034.94
550.686	984.94
550.899	1028.94
551.112	1012.94
551.325	1074.94
551.538	1092.94
551.751	949.94
551.964	900.94
552.177	894.94
552.39	882.94
552.603	915.94
552.816	938.94
553.029	890.94
553.242	862.94
553.455	939.94
553.667	1041.94
553.88	969.94
554.093	905.94
554.306	841.94
554.519	811.94
554.732	821.94
554.944	762.94
555.157	777.94
555.37	769.94
555.583	779.94
555.795	803.94
556.008	825.94
556.221	832.94
556.433	808.94
556.646	786.94
556.859	794.94
557.071	829.94
557.284	825.94
557.496	882.94
557.709	849.94
557.921	822.94
558.134	781.94
558.346	735.94
558.559	731.94
558.771	769.94
558.984	850.94
559.196	775.94
559.409	741.94
559.621	736.94
559.833	737.94
560.046	729.94
560.258	726.94
560.47	769.94
560.683	708.94
560.895	674.94
561.107	652.94
561.32	670.94
561.532	695.94
561.744	765.94
561.956	815.94
562.168	725.94
562.381	677.94
562.593	736.94
562.805	775.94
563.017	705.94
563.229	693.94
563.441	697.94
563.653	697.94
563.865	710.94
564.077	709.94
564.289	678.94
564.501	671.94
564.713	769.94
564.925	733.94
565.137	718.94
565.349	713.94
565.561	699.94
565.773	733.94
565.985	719.94
566.197	803.94
566.408	865.94
566.62	866.94
566.832	841.94
567.044	850.94
567.255	905.94
567.467	1001.94
567.679	900.94
567.891	889.94
568.102	917.94
568.314	912.94
568.526	862.94
568.737	823.94
568.949	898.94
569.161	806.94
569.372	710.94
569.584	703.94
569.795	704.94
570.007	705.94
570.218	729.94
570.43	736.94
570.641	712.94
570.853	667.94
571.064	668.94
571.276	707.94
571.487	713.94
571.698	679.94
571.91	695.94
572.121	667.94
572.333	639.94
572.544	618.94
572.755	652.94
572.966	621.94
573.178	611.94
573.389	661.94
573.6	675.94
573.811	680.94
574.023	609.94
574.234	582.94
574.445	609.94
574.656	587.94
574.867	606.94
575.078	597.94
575.289	593.94
575.501	664.94
575.712	603.94
575.923	554.94
576.134	562.94
576.345	567.94
576.556	561.94
576.767	549.94
576.978	554.94
577.188	489.94
577.399	517.94
577.61	535.94
577.821	518.94
578.032	555.94
578.243	583.94
578.454	601.94
578.665	563.94
578.875	570.94
579.086	571.94
579.297	594.94
579.508	579.94
579.718	563.94
579.929	582.94
580.14	553.94
580.35	509.94
580.561	501.94
580.772	496.94
580.982	469.94
581.193	465.94
581.403	478.94
581.614	466.94
581.825	475.94
582.035	458.94
582.246	478.94
582.456	462.94
582.667	483.94
582.877	472.94
583.087	451.94
583.298	451.94
583.508	458.94
583.719	463.94
583.929	475.94
584.139	458.94
584.35	478.94
584.56	497.94
584.77	480.94
584.981	485.94
585.191	452.94
585.401	459.94
585.611	484.94
585.821	503.94
586.032	494.94
586.242	486.94
586.452	476.94
586.662	467.94
586.872	504.94
587.082	520.94
587.292	470.94
587.502	457.94
587.713	466.94
587.923	486.94
588.133	499.94
588.343	488.94
588.553	471.94
588.762	450.94
588.972	431.94
589.182	459.94
589.392	467.94
589.602	463.94
589.812	483.94
590.022	518.94
590.232	512.94
590.441	469.94
590.651	464.94
590.861	479.94
591.071	472.94
591.281	471.94
591.49	457.94
591.7	458.94
591.91	458.94
592.119	442.94
592.329	450.94
592.539	461.94
592.748	468.94
592.958	485.94
593.167	475.94
593.377	485.94
593.587	504.94
593.796	485.94
594.006	470.94
594.215	490.94
594.424	484.94
594.634	512.94
594.843	498.94
595.053	465.94
595.262	451.94
595.472	453.94
595.681	445.94
595.89	437.94
596.1	465.94
596.309	468.94
596.518	443.94
596.727	435.94
596.937	432.94
597.146	446.94
597.355	475.94
597.564	451.94
597.774	432.94
597.983	405.94
598.192	415.94
598.401	402.94
598.61	407.94
598.819	387.94
599.028	401.94
599.237	373.94
599.446	382.94
599.655	402.94
599.864	390.94
600.073	377.94
600.282	386.94
600.491	391.94
600.7	390.94
600.909	401.94
601.118	401.94
601.327	402.94
601.536	379.94
601.745	403.94
601.953	443.94
602.162	398.94
602.371	402.94
602.58	418.94
602.789	385.94
602.997	368.94
603.206	378.94
603.415	380.94
603.623	355.94
603.832	371.94
604.041	361.94
604.249	370.94
604.458	415.94
604.666	372.94
604.875	357.94
605.084	346.94
605.292	363.94
605.501	381.94
605.709	358.94
605.918	361.94
606.126	381.94
606.334	342.94
606.543	365.94
606.751	386.94
606.96	368.94
607.168	365.94
607.376	337.94
607.585	353.94
607.793	354.94
608.001	362.94
608.21	361.94
608.418	363.94
608.626	356.94
608.834	352.94
609.043	346.94
609.251	355.94
609.459	333.94
609.667	334.94
609.875	349.94
610.083	366.94
610.291	352.94
610.499	340.94
610.707	347.94
610.916	325.94
611.124	340.94
611.332	338.94
611.54	345.94
611.748	337.94
611.955	359.94
612.163	347.94
612.371	338.94
612.579	355.94
612.787	332.94
612.995	351.94
613.203	329.94
613.411	339.94
613.618	348.94
613.826	338.94
614.034	357.94
614.242	327.94
614.449	335.94
614.657	321.94
614.865	314.94
615.072	324.94
615.28	330.94
615.488	344.94
615.695	331.94
615.903	317.94
616.111	327.94
616.318	332.94
616.526	322.94
616.733	327.94
616.941	320.94
617.148	315.94
617.356	342.94
617.563	330.94
617.771	315.94
617.978	303.94
618.185	338.94
618.393	322.94
618.6	318.94
618.807	304.94
619.015	320.94
619.222	321.94
619.429	329.94
619.637	335.94
619.844	305.94
620.051	306.94
620.258	294.94
620.466	281.94
620.673	294.94
620.88	303.94
621.087	292.94
621.294	314.94
621.501	296.94
621.708	302.94
621.915	285.94
622.122	303.94
622.329	290.94
622.536	301.94
622.743	310.94
622.95	301.94
623.157	301.94
623.364	327.94
623.571	296.94
623.778	315.94
623.985	301.94
624.192	305.94
624.399	318.94
624.606	308.94
624.812	307.94
625.019	292.94
625.226	309.94
625.433	313.94
625.639	297.94
625.846	282.94
626.053	291.94
626.259	283.94
626.466	277.94
626.673	302.94
626.879	280.94
627.086	296.94
627.293	279.94
627.499	284.94
627.706	261.94
627.912	282.94
628.119	273.94
628.325	259.94
628.532	255.94
628.738	251.94
628.945	268.94
629.151	271.94
629.357	245.94
629.564	269.94
629.77	254.94
629.976	244.94
630.183	253.94
630.389	271.94
630.595	263.94
630.802	252.94
631.008	250.94
631.214	242.94
631.42	241.94
631.627	269.94
631.833	242.94
632.039	262.94
632.245	265.94
632.451	247.94
632.657	266.94
632.863	231.94
633.069	253.94
633.275	261.94
633.481	245.94
633.688	250.94
633.893	255.94
634.099	256.94
634.305	234.94
634.511	241.94
634.717	239.94
634.923	240.94
635.129	230.94
635.335	239.94
635.541	250.94
635.747	237.94
635.952	250.94
636.158	246.94
636.364	230.94
636.57	221.94
636.775	239.94
636.981	234.94
637.187	237.94
637.392	229.94
637.598	222.94
637.804	217.94
638.009	228.94
638.215	222.94
638.421	225.94
638.626	244.94
638.832	234.94
639.037	249.94
639.243	229.94
639.448	220.94
639.654	257.94
639.859	233.94
640.065	221.94
640.27	231.94
640.475	231.94
640.681	228.94
640.886	215.94
641.091	239.94
641.297	227.94
641.502	222.94
641.707	230.94
641.913	218.94
642.118	216.94
642.323	232.94
642.528	238.94
642.733	221.94
642.939	219.94
643.144	207.94
643.349	209.94
643.554	211.94
643.759	217.94
643.964	202.94
644.169	200.94
644.374	206.94
644.579	207.94
644.784	206.94
644.989	215.94
645.194	203.94
645.399	218.94
645.604	202.94
645.809	209.94
646.014	205.94
646.219	209.94
646.423	190.94
646.628	205.94
646.833	203.94
647.038	218.94
647.243	205.94
647.447	216.94
647.652	205.94
647.857	225.94
648.062	217.94
648.266	210.94
648.471	219.94
648.676	210.94
648.88	222.94
649.085	213.94
649.289	215.94
649.494	208.94
649.698	223.94
649.903	213.94
650.107	186.94
650.312	200.94
650.516	209.94
650.721	207.94
650.925	189.94
651.13	182.94
651.334	189.94
651.539	190.94
651.743	189.94
651.947	190.94
652.152	181.94
652.356	183.94
652.56	177.94
652.764	167.94
652.969	176.94
653.173	179.94
653.377	197.94
653.581	165.94
653.785	164.94
653.99	156.94
654.194	186.94
654.398	171.94
654.602	183.94
654.806	179.94
655.01	167.94
655.214	146.94
655.418	176.94
655.622	167.94
655.826	151.94
656.03	161.94
656.234	163.94
656.438	164.94
656.642	168.94
656.846	151.94
657.049	161.94
657.253	154.94
657.457	145.94
657.661	136.94
657.865	133.94
658.068	131.94
658.272	138.94
658.476	120.94
658.68	131.94
658.883	130.94
659.087	112.94
659.291	110.94
659.494	121.94
659.698	119.94
659.901	111.94
660.105	107.94
660.309	110.94
660.512	102.94
660.716	103.94
660.919	109.94
661.123	106.94
661.326	100.94
661.53	92.94
661.733	94.94
661.936	96.94
662.14	81.94
662.343	96.94
662.546	86.94
662.75	83.94
662.953	99.94
663.156	90.94
663.36	87.94
663.563	84.94
663.766	91.94
663.969	78.94
664.173	76.94
664.376	82.94
664.579	74.94
664.782	80.94
664.985	75.94
665.188	80.94
665.391	93.94
665.594	87.94
665.797	84.94
666	94.94
666.203	96.94
666.406	91.94
666.609	79.94
666.812	81.94
667.015	88.94
667.218	86.94
667.421	78.94
667.624	83.94
667.827	79.94
668.03	80.94
668.232	87.94
668.435	79.94
668.638	81.94
668.841	80.94
669.043	88.94
669.246	74.94
669.449	93.94
669.651	81.94
669.854	86.94
670.057	80.94
670.259	71.94
670.462	86.94
670.665	90.94
670.867	83.94
671.07	76.94
671.272	96.94
671.475	91.94
671.677	94.94
671.88	87.94
672.082	85.94
672.284	80.94
672.487	77.94
672.689	81.94
672.892	79.94
