Data from NickelSpatula.Lamp.E10.P2_HRD10591_11-59-16-526.txt Node
Date: Tue Jul 23 11:59:16 EDT 2019
User: cochatt
Spectrometer: HR+D1059
Trigger mode: 1
Integration Time (sec): 1.000000E-1
Scans to average: 1
Electric dark correction enabled: true
Nonlinearity correction enabled: false
Boxcar width: 0
XAxis mode: Wavelengths
Number of Pixels in Spectrum: 2048
>>>>>Begin Spectral Data<<<<<
223.165	-12.81
223.4	-12.81
223.635	-12.81
223.869	-10.81
224.104	-13.81
224.338	-22.81
224.573	-9.81
224.808	-21.81
225.042	-26.81
225.277	-13.81
225.511	-0.81
225.746	0.19
225.98	20.19
226.215	11.19
226.449	5.19
226.683	22.19
226.918	41.19
227.152	33.19
227.387	42.19
227.621	30.19
227.856	26.19
228.09	37.19
228.324	50.19
228.559	57.19
228.793	86.19
229.027	143.19
229.262	140.19
229.496	142.19
229.73	161.19
229.964	183.19
230.199	211.19
230.433	205.19
230.667	212.19
230.901	218.19
231.136	194.19
231.37	219.19
231.604	227.19
231.838	237.19
232.072	239.19
232.306	245.19
232.541	233.19
232.775	257.19
233.009	286.19
233.243	298.19
233.477	306.19
233.711	367.19
233.945	323.19
234.179	335.19
234.413	352.19
234.647	415.19
234.881	463.19
235.115	418.19
235.349	392.19
235.583	369.19
235.817	351.19
236.051	379.19
236.285	416.19
236.519	447.19
236.753	423.19
236.987	435.19
237.221	422.19
237.455	417.19
237.689	435.19
237.922	473.19
238.156	477.19
238.39	535.19
238.624	653.19
238.858	606.19
239.091	489.19
239.325	497.19
239.559	481.19
239.793	533.19
240.027	646.19
240.26	590.19
240.494	576.19
240.728	596.19
240.961	664.19
241.195	629.19
241.429	614.19
241.662	614.19
241.896	527.19
242.13	461.19
242.363	459.19
242.597	477.19
242.83	525.19
243.064	557.19
243.298	597.19
243.531	626.19
243.765	641.19
243.998	620.19
244.232	586.19
244.465	598.19
244.699	569.19
244.932	646.19
245.166	621.19
245.399	554.19
245.633	551.19
245.866	587.19
246.099	595.19
246.333	720.19
246.566	749.19
246.8	766.19
247.033	721.19
247.266	676.19
247.5	680.19
247.733	639.19
247.966	668.19
248.2	689.19
248.433	755.19
248.666	845.19
248.899	821.19
249.133	831.19
249.366	985.19
249.599	1039.19
249.832	940.19
250.066	811.19
250.299	865.19
250.532	807.19
250.765	773.19
250.998	705.19
251.231	724.19
251.465	803.19
251.698	815.19
251.931	775.19
252.164	818.19
252.397	927.19
252.63	1060.19
252.863	1174.19
253.096	1175.19
253.329	1164.19
253.562	1098.19
253.795	1215.19
254.028	1353.19
254.261	1401.19
254.494	1241.19
254.727	1112.19
254.96	1104.19
255.193	1164.19
255.426	1117.19
255.659	848.19
255.892	781.19
256.124	856.19
256.357	1027.19
256.59	1181.19
256.823	1159.19
257.056	945.19
257.289	922.19
257.521	935.19
257.754	1145.19
257.987	1269.19
258.22	1103.19
258.452	992.19
258.685	1118.19
258.918	1266.19
259.151	1192.19
259.383	1267.19
259.616	1480.19
259.849	1529.19
260.081	1646.19
260.314	1856.19
260.547	1448.19
260.779	1463.19
261.012	1655.19
261.244	1586.19
261.477	1629.19
261.71	1519.19
261.942	1266.19
262.175	1261.19
262.407	1206.19
262.64	1236.19
262.872	1493.19
263.105	1623.19
263.337	1713.19
263.57	1533.19
263.802	1013.19
264.035	863.19
264.267	851.19
264.499	788.19
264.732	690.19
264.964	696.19
265.197	728.19
265.429	752.19
265.661	803.19
265.894	844.19
266.126	951.19
266.358	997.19
266.591	1211.19
266.823	1477.19
267.055	1354.19
267.287	1213.19
267.52	1250.19
267.752	1286.19
267.984	1409.19
268.216	1357.19
268.448	1086.19
268.681	1080.19
268.913	1176.19
269.145	1231.19
269.377	1274.19
269.609	1277.19
269.841	1192.19
270.073	1263.19
270.306	1330.19
270.538	1365.19
270.77	1349.19
271.002	1353.19
271.234	1470.19
271.466	1433.19
271.698	1407.19
271.93	1381.19
272.162	1411.19
272.394	1391.19
272.626	1386.19
272.858	1461.19
273.09	1446.19
273.322	1294.19
273.553	1269.19
273.785	1480.19
274.017	1907.19
274.249	2373.19
274.481	2480.19
274.713	2728.19
274.945	3105.19
275.176	3239.19
275.408	2832.19
275.64	2511.19
275.872	2563.19
276.104	2184.19
276.335	1854.19
276.567	1894.19
276.799	1968.19
277.031	2019.19
277.262	1576.19
277.494	1234.19
277.726	1172.19
277.957	1303.19
278.189	1471.19
278.421	1459.19
278.652	1398.19
278.884	1363.19
279.115	1242.19
279.347	1165.19
279.579	1152.19
279.81	1209.19
280.042	1169.19
280.273	1228.19
280.505	1096.19
280.736	1005.19
280.968	1041.19
281.199	1063.19
281.431	1213.19
281.662	1200.19
281.894	1161.19
282.125	1237.19
282.356	1337.19
282.588	1335.19
282.819	1192.19
283.051	1383.19
283.282	1677.19
283.513	1943.19
283.745	2135.19
283.976	2137.19
284.207	1945.19
284.439	2048.19
284.67	2003.19
284.901	1750.19
285.132	1874.19
285.364	1958.19
285.595	1829.19
285.826	1896.19
286.057	1977.19
286.288	1887.19
286.52	1967.19
286.751	2034.19
286.982	2035.19
287.213	1798.19
287.444	1726.19
287.675	1800.19
287.906	1770.19
288.138	1522.19
288.369	1318.19
288.6	1244.19
288.831	1299.19
289.062	1529.19
289.293	1656.19
289.524	1545.19
289.755	1559.19
289.986	1592.19
290.217	1386.19
290.448	1105.19
290.679	955.19
290.91	877.19
291.141	926.19
291.371	931.19
291.602	955.19
291.833	962.19
292.064	1055.19
292.295	1219.19
292.526	1369.19
292.757	1449.19
292.987	1521.19
293.218	1531.19
293.449	1550.19
293.68	1618.19
293.91	1531.19
294.141	1584.19
294.372	1462.19
294.603	1348.19
294.833	1521.19
295.064	1793.19
295.295	1676.19
295.525	1311.19
295.756	1142.19
295.987	1002.19
296.217	993.19
296.448	1001.19
296.679	1072.19
296.909	1168.19
297.14	1277.19
297.37	1387.19
297.601	1325.19
297.831	1141.19
298.062	1213.19
298.292	1410.19
298.523	1549.19
298.753	1749.19
298.984	1558.19
299.214	1234.19
299.445	1063.19
299.675	1012.19
299.905	1007.19
300.136	1029.19
300.366	1135.19
300.597	1132.19
300.827	980.19
301.057	970.19
301.288	1000.19
301.518	1057.19
301.748	1183.19
301.979	1299.19
302.209	1395.19
302.439	1409.19
302.669	1227.19
302.9	1241.19
303.13	1129.19
303.36	1036.19
303.59	1027.19
303.82	1065.19
304.051	1203.19
304.281	1305.19
304.511	1252.19
304.741	1126.19
304.971	1172.19
305.201	1254.19
305.431	1187.19
305.661	1014.19
305.891	1021.19
306.121	1078.19
306.352	973.19
306.582	877.19
306.812	837.19
307.042	824.19
307.272	779.19
307.502	806.19
307.731	859.19
307.961	903.19
308.191	843.19
308.421	793.19
308.651	805.19
308.881	757.19
309.111	741.19
309.341	780.19
309.571	847.19
309.8	895.19
310.03	891.19
310.26	955.19
310.49	961.19
310.72	866.19
310.949	836.19
311.179	839.19
311.409	897.19
311.639	1077.19
311.868	1346.19
312.098	1780.19
312.328	1908.19
312.557	1815.19
312.787	1856.19
313.017	1617.19
313.246	1748.19
313.476	1917.19
313.706	1585.19
313.935	1272.19
314.165	1011.19
314.394	966.19
314.624	952.19
314.853	1001.19
315.083	1038.19
315.312	976.19
315.542	1011.19
315.771	933.19
316.001	859.19
316.23	839.19
316.46	811.19
316.689	845.19
316.919	860.19
317.148	886.19
317.377	873.19
317.607	870.19
317.836	932.19
318.065	1096.19
318.295	1215.19
318.524	1104.19
318.753	965.19
318.983	917.19
319.212	902.19
319.441	966.19
319.67	1102.19
319.9	1170.19
320.129	1105.19
320.358	997.19
320.587	927.19
320.816	981.19
321.046	1158.19
321.275	1277.19
321.504	1293.19
321.733	1242.19
321.962	1201.19
322.191	1167.19
322.42	1065.19
322.649	1082.19
322.878	1165.19
323.108	1161.19
323.337	1069.19
323.566	1067.19
323.795	1030.19
324.024	971.19
324.253	937.19
324.482	965.19
324.71	1057.19
324.939	1174.19
325.168	1086.19
325.397	899.19
325.626	909.19
325.855	902.19
326.084	903.19
326.313	871.19
326.542	829.19
326.77	851.19
326.999	877.19
327.228	931.19
327.457	992.19
327.686	989.19
327.914	835.19
328.143	820.19
328.372	791.19
328.6	808.19
328.829	830.19
329.058	872.19
329.287	879.19
329.515	874.19
329.744	842.19
329.972	798.19
330.201	769.19
330.43	830.19
330.658	901.19
330.887	1077.19
331.115	1027.19
331.344	946.19
331.572	936.19
331.801	893.19
332.03	839.19
332.258	869.19
332.486	953.19
332.715	955.19
332.943	867.19
333.172	894.19
333.4	913.19
333.629	993.19
333.857	1092.19
334.085	1085.19
334.314	1075.19
334.542	1010.19
334.771	958.19
334.999	918.19
335.227	928.19
335.455	918.19
335.684	1031.19
335.912	1177.19
336.14	1281.19
336.369	1202.19
336.597	1195.19
336.825	1353.19
337.053	1489.19
337.281	1188.19
337.51	972.19
337.738	970.19
337.966	1025.19
338.194	1132.19
338.422	1079.19
338.65	922.19
338.878	888.19
339.106	885.19
339.334	1010.19
339.562	1059.19
339.79	984.19
340.018	918.19
340.246	1020.19
340.474	1177.19
340.702	1226.19
340.93	1285.19
341.158	1283.19
341.386	1081.19
341.614	1091.19
341.842	1096.19
342.07	1109.19
342.298	1299.19
342.526	1369.19
342.754	1179.19
342.981	1085.19
343.209	1025.19
343.437	1111.19
343.665	1164.19
343.893	1157.19
344.12	1329.19
344.348	1545.19
344.576	1389.19
344.804	1173.19
345.031	995.19
345.259	955.19
345.487	968.19
345.714	1006.19
345.942	1085.19
346.17	1163.19
346.397	1086.19
346.625	943.19
346.853	946.19
347.08	936.19
347.308	975.19
347.535	1080.19
347.763	1103.19
347.99	965.19
348.218	913.19
348.445	940.19
348.673	959.19
348.9	921.19
349.128	1020.19
349.355	1040.19
349.583	1048.19
349.81	968.19
350.037	915.19
350.265	819.19
350.492	778.19
350.72	767.19
350.947	827.19
351.174	837.19
351.402	913.19
351.629	954.19
351.856	913.19
352.083	866.19
352.311	952.19
352.538	1059.19
352.765	1102.19
352.992	985.19
353.22	953.19
353.447	917.19
353.674	936.19
353.901	923.19
354.128	942.19
354.355	972.19
354.583	976.19
354.81	968.19
355.037	980.19
355.264	979.19
355.491	1049.19
355.718	1145.19
355.945	1109.19
356.172	1099.19
356.399	1057.19
356.626	1312.19
356.853	1560.19
357.08	1675.19
357.307	1715.19
357.534	1331.19
357.761	1349.19
357.988	1673.19
358.215	1979.19
358.441	1864.19
358.668	1547.19
358.895	1474.19
359.122	1178.19
359.349	1192.19
359.576	1305.19
359.802	1044.19
360.029	925.19
360.256	988.19
360.483	1230.19
360.709	1538.19
360.936	1592.19
361.163	1396.19
361.39	1102.19
361.616	1061.19
361.843	1215.19
362.07	1482.19
362.296	1341.19
362.523	1018.19
362.749	932.19
362.976	982.19
363.203	1164.19
363.429	1310.19
363.656	1061.19
363.882	974.19
364.109	977.19
364.335	960.19
364.562	962.19
364.788	1087.19
365.015	1274.19
365.241	1151.19
365.468	964.19
365.694	816.19
365.92	800.19
366.147	781.19
366.373	795.19
366.599	772.19
366.826	778.19
367.052	816.19
367.278	845.19
367.505	816.19
367.731	887.19
367.957	979.19
368.184	1009.19
368.41	977.19
368.636	1000.19
368.862	1067.19
369.089	974.19
369.315	899.19
369.541	871.19
369.767	866.19
369.993	824.19
370.219	842.19
370.445	879.19
370.672	982.19
370.898	1045.19
371.124	1063.19
371.35	954.19
371.576	877.19
371.802	942.19
372.028	1164.19
372.254	1313.19
372.48	1127.19
372.706	979.19
372.932	1031.19
373.158	1113.19
373.384	1312.19
373.61	1767.19
373.835	1817.19
374.061	1315.19
374.287	1139.19
374.513	1334.19
374.739	1599.19
374.965	1683.19
375.191	1600.19
375.416	1133.19
375.642	1021.19
375.868	1179.19
376.094	1346.19
376.319	1136.19
376.545	1237.19
376.771	1289.19
376.997	1144.19
377.222	883.19
377.448	769.19
377.674	722.19
377.899	720.19
378.125	729.19
378.35	742.19
378.576	755.19
378.802	825.19
379.027	911.19
379.253	871.19
379.478	898.19
379.704	1004.19
379.929	1071.19
380.155	1044.19
380.38	943.19
380.606	954.19
380.831	1076.19
381.057	995.19
381.282	982.19
381.507	1144.19
381.733	1416.19
381.958	1499.19
382.184	1619.19
382.409	1665.19
382.634	1645.19
382.86	1715.19
383.085	1430.19
383.31	1089.19
383.535	1173.19
383.761	1189.19
383.986	1140.19
384.211	1367.19
384.436	1305.19
384.662	1026.19
384.887	954.19
385.112	1009.19
385.337	1034.19
385.562	953.19
385.787	1086.19
386.013	1167.19
386.238	1225.19
386.463	977.19
386.688	993.19
386.913	901.19
387.138	883.19
387.363	906.19
387.588	982.19
387.813	986.19
388.038	1104.19
388.263	980.19
388.488	935.19
388.713	1094.19
388.938	1161.19
389.163	1014.19
389.387	889.19
389.612	896.19
389.837	935.19
390.062	919.19
390.287	952.19
390.512	994.19
390.736	945.19
390.961	843.19
391.186	835.19
391.411	822.19
391.636	830.19
391.86	907.19
392.085	962.19
392.31	962.19
392.534	920.19
392.759	902.19
392.984	967.19
393.208	957.19
393.433	841.19
393.658	802.19
393.882	777.19
394.107	777.19
394.331	772.19
394.556	791.19
394.78	799.19
395.005	827.19
395.229	871.19
395.454	861.19
395.678	897.19
395.903	907.19
396.127	846.19
396.352	874.19
396.576	955.19
396.801	978.19
397.025	1082.19
397.249	1114.19
397.474	922.19
397.698	907.19
397.922	969.19
398.147	862.19
398.371	897.19
398.595	929.19
398.82	948.19
399.044	938.19
399.268	990.19
399.492	1013.19
399.717	1041.19
399.941	1095.19
400.165	1008.19
400.389	1025.19
400.613	1039.19
400.837	1009.19
401.062	899.19
401.286	881.19
401.51	875.19
401.734	878.19
401.958	861.19
402.182	862.19
402.406	856.19
402.63	924.19
402.854	943.19
403.078	1049.19
403.302	1261.19
403.526	1309.19
403.75	1152.19
403.974	1026.19
404.198	1079.19
404.422	1215.19
404.645	1407.19
404.869	1550.19
405.093	1142.19
405.317	992.19
405.541	971.19
405.765	996.19
405.988	985.19
406.212	1081.19
406.436	1246.19
406.66	1374.19
406.883	1122.19
407.107	1149.19
407.331	1323.19
407.555	1254.19
407.778	1065.19
408.002	1003.19
408.226	1011.19
408.449	994.19
408.673	1009.19
408.896	933.19
409.12	916.19
409.344	890.19
409.567	872.19
409.791	887.19
410.014	879.19
410.238	863.19
410.461	861.19
410.685	886.19
410.908	909.19
411.132	881.19
411.355	939.19
411.578	935.19
411.802	957.19
412.025	970.19
412.249	971.19
412.472	925.19
412.695	927.19
412.919	933.19
413.142	946.19
413.365	1005.19
413.589	1037.19
413.812	940.19
414.035	909.19
414.258	927.19
414.482	1041.19
414.705	1028.19
414.928	893.19
415.151	891.19
415.374	874.19
415.597	909.19
415.821	911.19
416.044	858.19
416.267	866.19
416.49	861.19
416.713	823.19
416.936	840.19
417.159	845.19
417.382	867.19
417.605	882.19
417.828	889.19
418.051	887.19
418.274	930.19
418.497	935.19
418.72	919.19
418.943	934.19
419.166	954.19
419.389	1041.19
419.611	967.19
419.834	1003.19
420.057	1095.19
420.28	1098.19
420.503	995.19
420.726	897.19
420.948	865.19
421.171	906.19
421.394	843.19
421.617	839.19
421.839	905.19
422.062	917.19
422.285	902.19
422.507	932.19
422.73	899.19
422.953	917.19
423.175	935.19
423.398	914.19
423.621	990.19
423.843	1001.19
424.066	961.19
424.288	933.19
424.511	890.19
424.733	913.19
424.956	925.19
425.178	1052.19
425.401	1181.19
425.623	1358.19
425.846	1117.19
426.068	995.19
426.291	1090.19
426.513	1008.19
426.735	942.19
426.958	979.19
427.18	1126.19
427.402	1490.19
427.625	1438.19
427.847	1173.19
428.069	878.19
428.292	871.19
428.514	859.19
428.736	829.19
428.958	934.19
429.181	1062.19
429.403	935.19
429.625	886.19
429.847	845.19
430.069	871.19
430.292	886.19
430.514	869.19
430.736	941.19
430.958	1176.19
431.18	1061.19
431.402	840.19
431.624	775.19
431.846	790.19
432.068	782.19
432.29	797.19
432.512	901.19
432.734	1215.19
432.956	1122.19
433.178	865.19
433.4	844.19
433.622	829.19
433.844	860.19
434.066	920.19
434.287	889.19
434.509	857.19
434.731	913.19
434.953	878.19
435.175	913.19
435.397	1019.19
435.618	865.19
435.84	823.19
436.062	819.19
436.284	833.19
436.505	784.19
436.727	771.19
436.949	783.19
437.17	831.19
437.392	850.19
437.614	821.19
437.835	789.19
438.057	810.19
438.278	953.19
438.5	1375.19
438.721	1313.19
438.943	920.19
439.165	796.19
439.386	774.19
439.608	736.19
439.829	757.19
440.05	784.19
440.272	864.19
440.493	979.19
440.715	1199.19
440.936	952.19
441.158	873.19
441.379	852.19
441.6	966.19
441.822	1002.19
442.043	889.19
442.264	843.19
442.486	875.19
442.707	865.19
442.928	867.19
443.149	857.19
443.371	880.19
443.592	918.19
443.813	915.19
444.034	921.19
444.255	911.19
444.476	931.19
444.698	909.19
444.919	962.19
445.14	1053.19
445.361	1029.19
445.582	950.19
445.803	926.19
446.024	921.19
446.245	931.19
446.466	888.19
446.687	854.19
446.908	867.19
447.129	795.19
447.35	821.19
447.571	785.19
447.792	792.19
448.013	792.19
448.234	772.19
448.455	762.19
448.675	807.19
448.896	788.19
449.117	769.19
449.338	819.19
449.559	831.19
449.779	865.19
450	832.19
450.221	830.19
450.442	779.19
450.662	773.19
450.883	797.19
451.104	787.19
451.324	772.19
451.545	801.19
451.766	778.19
451.986	772.19
452.207	759.19
452.428	736.19
452.648	773.19
452.869	799.19
453.089	829.19
453.31	823.19
453.53	738.19
453.751	738.19
453.971	726.19
454.192	740.19
454.412	771.19
454.633	753.19
454.853	764.19
455.073	699.19
455.294	722.19
455.514	715.19
455.734	749.19
455.955	825.19
456.175	822.19
456.395	747.19
456.616	701.19
456.836	699.19
457.056	697.19
457.276	700.19
457.497	693.19
457.717	720.19
457.937	713.19
458.157	693.19
458.377	728.19
458.598	752.19
458.818	740.19
459.038	793.19
459.258	815.19
459.478	841.19
459.698	903.19
459.918	879.19
460.138	865.19
460.358	882.19
460.578	846.19
460.798	882.19
461.018	874.19
461.238	854.19
461.458	837.19
461.678	864.19
461.898	931.19
462.118	905.19
462.338	914.19
462.558	921.19
462.777	983.19
462.997	986.19
463.217	1006.19
463.437	1023.19
463.657	993.19
463.876	975.19
464.096	936.19
464.316	925.19
464.536	998.19
464.755	992.19
464.975	987.19
465.195	928.19
465.414	1018.19
465.634	948.19
465.854	918.19
466.073	862.19
466.293	864.19
466.512	899.19
466.732	997.19
466.951	1010.19
467.171	920.19
467.391	825.19
467.61	862.19
467.829	919.19
468.049	917.19
468.268	872.19
468.488	866.19
468.707	915.19
468.927	1075.19
469.146	1132.19
469.365	1043.19
469.585	921.19
469.804	997.19
470.023	1096.19
470.243	936.19
470.462	897.19
470.681	938.19
470.901	902.19
471.12	956.19
471.339	972.19
471.558	922.19
471.777	925.19
471.997	986.19
472.216	1083.19
472.435	1067.19
472.654	963.19
472.873	945.19
473.092	1019.19
473.311	1019.19
473.53	935.19
473.749	927.19
473.968	953.19
474.187	944.19
474.406	930.19
474.625	907.19
474.844	955.19
475.063	1028.19
475.282	1025.19
475.501	1063.19
475.72	1056.19
475.939	1112.19
476.158	1075.19
476.377	1246.19
476.596	1397.19
476.814	1459.19
477.033	1229.19
477.252	1038.19
477.471	976.19
477.69	994.19
477.908	1104.19
478.127	1146.19
478.346	1023.19
478.564	1139.19
478.783	1079.19
479.002	1109.19
479.22	1316.19
479.439	1457.19
479.658	1208.19
479.876	1092.19
480.095	1175.19
480.313	1173.19
480.532	1109.19
480.751	1051.19
480.969	1145.19
481.188	1264.19
481.406	1305.19
481.624	1202.19
481.843	1129.19
482.061	1079.19
482.28	1181.19
482.498	1438.19
482.717	1367.19
482.935	1189.19
483.153	1137.19
483.372	1033.19
483.59	1050.19
483.808	1065.19
484.027	1030.19
484.245	951.19
484.463	992.19
484.681	1026.19
484.9	1081.19
485.118	1158.19
485.336	1086.19
485.554	1041.19
485.772	1058.19
485.99	1146.19
486.209	1207.19
486.427	1211.19
486.645	1157.19
486.863	1213.19
487.081	1220.19
487.299	1384.19
487.517	1315.19
487.735	1193.19
487.953	1219.19
488.171	1236.19
488.389	1192.19
488.607	1107.19
488.825	1165.19
489.043	1271.19
489.261	1473.19
489.479	1493.19
489.696	1264.19
489.914	1168.19
490.132	1090.19
490.35	1099.19
490.568	1112.19
490.786	1099.19
491.003	1102.19
491.221	1160.19
491.439	1101.19
491.657	1145.19
491.874	1209.19
492.092	1450.19
492.31	1763.19
492.527	1725.19
492.745	1496.19
492.963	1294.19
493.18	1289.19
493.398	1279.19
493.615	1283.19
493.833	1245.19
494.05	1220.19
494.268	1223.19
494.485	1222.19
494.703	1192.19
494.92	1199.19
495.138	1213.19
495.355	1199.19
495.573	1198.19
495.79	1320.19
496.008	1761.19
496.225	1547.19
496.442	1328.19
496.66	1305.19
496.877	1401.19
497.094	1371.19
497.312	1327.19
497.529	1316.19
497.746	1304.19
497.963	1373.19
498.181	1470.19
498.398	1542.19
498.615	1586.19
498.832	1663.19
499.049	1695.19
499.267	1554.19
499.484	1497.19
499.701	1582.19
499.918	1707.19
500.135	1866.19
500.352	1865.19
500.569	1967.19
500.786	2041.19
501.003	1969.19
501.22	1788.19
501.437	1671.19
501.654	1656.19
501.871	1583.19
502.088	1615.19
502.305	1477.19
502.522	1503.19
502.739	1501.19
502.956	1347.19
503.172	1291.19
503.389	1303.19
503.606	1236.19
503.823	1256.19
504.04	1272.19
504.256	1315.19
504.473	1326.19
504.69	1328.19
504.907	1345.19
505.123	1346.19
505.34	1431.19
505.557	1427.19
505.773	1332.19
505.99	1311.19
506.207	1315.19
506.423	1211.19
506.64	1179.19
506.856	1234.19
507.073	1377.19
507.289	1327.19
507.506	1339.19
507.722	1403.19
507.939	1421.19
508.155	1432.19
508.372	1280.19
508.588	1248.19
508.805	1226.19
509.021	1202.19
509.238	1151.19
509.454	1164.19
509.67	1160.19
509.887	1198.19
510.103	1307.19
510.319	1296.19
510.536	1157.19
510.752	1080.19
510.968	1051.19
511.184	1026.19
511.401	1039.19
511.617	1017.19
511.833	1017.19
512.049	1057.19
512.265	1093.19
512.481	1099.19
512.698	1222.19
512.914	1345.19
513.13	1217.19
513.346	1130.19
513.562	1173.19
513.778	1164.19
513.994	1113.19
514.21	1201.19
514.426	1172.19
514.642	1151.19
514.858	1131.19
515.074	1177.19
515.29	1276.19
515.506	1393.19
515.721	1289.19
515.937	1181.19
516.153	1128.19
516.369	1121.19
516.585	1197.19
516.801	1362.19
517.016	1530.19
517.232	1529.19
517.448	1533.19
517.664	1343.19
517.879	1246.19
518.095	1263.19
518.311	1255.19
518.527	1282.19
518.742	1367.19
518.958	1449.19
519.173	1399.19
519.389	1340.19
519.605	1369.19
519.82	1455.19
520.036	1729.19
520.251	1655.19
520.467	1591.19
520.682	2339.19
520.898	2803.19
521.113	2679.19
521.329	1681.19
521.544	1482.19
521.76	1461.19
521.975	1349.19
522.19	1254.19
522.406	1307.19
522.621	1449.19
522.836	1474.19
523.052	1515.19
523.267	1282.19
523.482	1261.19
523.698	1336.19
523.913	1329.19
524.128	1234.19
524.343	1141.19
524.559	1167.19
524.774	1115.19
524.989	1146.19
525.204	1165.19
525.419	1326.19
525.634	1239.19
525.849	1239.19
526.064	1266.19
526.28	1258.19
526.495	1465.19
526.71	1474.19
526.925	1331.19
527.14	1361.19
527.355	1299.19
527.57	1109.19
527.785	1165.19
527.999	1094.19
528.214	1060.19
528.429	1044.19
528.644	1030.19
528.859	1010.19
529.074	989.19
529.289	965.19
529.503	953.19
529.718	1010.19
529.933	1175.19
530.148	1167.19
530.363	1050.19
530.577	974.19
530.792	979.19
531.007	952.19
531.221	962.19
531.436	934.19
531.651	966.19
531.865	1003.19
532.08	994.19
532.295	984.19
532.509	1012.19
532.724	1158.19
532.938	1296.19
533.153	1492.19
533.367	1206.19
533.582	1163.19
533.796	1092.19
534.011	983.19
534.225	1047.19
534.44	1026.19
534.654	1083.19
534.868	1225.19
535.083	1079.19
535.297	986.19
535.511	1002.19
535.726	1122.19
535.94	1050.19
536.154	1007.19
536.369	977.19
536.583	967.19
536.797	1000.19
537.011	1036.19
537.225	1092.19
537.44	1167.19
537.654	1006.19
537.868	1002.19
538.082	1009.19
538.296	990.19
538.51	1045.19
538.724	1093.19
538.938	1031.19
539.153	958.19
539.367	965.19
539.581	973.19
539.795	1027.19
540.009	1127.19
540.222	1066.19
540.436	995.19
540.65	1114.19
540.864	1143.19
541.078	1172.19
541.292	1337.19
541.506	1075.19
541.72	1066.19
541.934	1011.19
542.147	1021.19
542.361	1041.19
542.575	1055.19
542.789	1008.19
543.002	946.19
543.216	1038.19
543.43	926.19
543.644	922.19
543.857	907.19
544.071	928.19
544.285	932.19
544.498	904.19
544.712	910.19
544.925	1001.19
545.139	919.19
545.352	901.19
545.566	921.19
545.779	1035.19
545.993	951.19
546.206	859.19
546.42	895.19
546.633	858.19
546.847	825.19
547.06	849.19
547.274	869.19
547.487	863.19
547.7	929.19
547.914	985.19
548.127	1098.19
548.34	1097.19
548.554	919.19
548.767	989.19
548.98	1062.19
549.193	954.19
549.407	996.19
549.62	1146.19
549.833	1107.19
550.046	1156.19
550.259	1143.19
550.473	1001.19
550.686	952.19
550.899	975.19
551.112	930.19
551.325	1018.19
551.538	1071.19
551.751	958.19
551.964	876.19
552.177	878.19
552.39	870.19
552.603	865.19
552.816	934.19
553.029	867.19
553.242	850.19
553.455	934.19
553.667	993.19
553.88	939.19
554.093	899.19
554.306	814.19
554.519	767.19
554.732	781.19
554.944	787.19
555.157	745.19
555.37	761.19
555.583	750.19
555.795	754.19
556.008	817.19
556.221	768.19
556.433	783.19
556.646	775.19
556.859	763.19
557.071	811.19
557.284	799.19
557.496	807.19
557.709	792.19
557.921	774.19
558.134	764.19
558.346	737.19
558.559	724.19
558.771	771.19
558.984	819.19
559.196	736.19
559.409	720.19
559.621	693.19
559.833	729.19
560.046	735.19
560.258	729.19
560.47	736.19
560.683	709.19
560.895	664.19
561.107	671.19
561.32	674.19
561.532	682.19
561.744	741.19
561.956	765.19
562.168	703.19
562.381	693.19
562.593	691.19
562.805	744.19
563.017	702.19
563.229	696.19
563.441	657.19
563.653	675.19
563.865	680.19
564.077	687.19
564.289	680.19
564.501	695.19
564.713	736.19
564.925	711.19
565.137	698.19
565.349	672.19
565.561	689.19
565.773	721.19
565.985	731.19
566.197	758.19
566.408	816.19
566.62	832.19
566.832	824.19
567.044	866.19
567.255	892.19
567.467	959.19
567.679	866.19
567.891	842.19
568.102	886.19
568.314	877.19
568.526	833.19
568.737	800.19
568.949	848.19
569.161	767.19
569.372	721.19
569.584	697.19
569.795	663.19
570.007	697.19
570.218	735.19
570.43	720.19
570.641	671.19
570.853	664.19
571.064	669.19
571.276	690.19
571.487	705.19
571.698	658.19
571.91	653.19
572.121	650.19
572.333	627.19
572.544	624.19
572.755	633.19
572.966	617.19
573.178	591.19
573.389	634.19
573.6	615.19
573.811	622.19
574.023	591.19
574.234	558.19
574.445	575.19
574.656	568.19
574.867	551.19
575.078	592.19
575.289	567.19
575.501	619.19
575.712	573.19
575.923	552.19
576.134	523.19
576.345	515.19
576.556	554.19
576.767	533.19
576.978	537.19
577.188	522.19
577.399	507.19
577.61	515.19
577.821	505.19
578.032	517.19
578.243	560.19
578.454	570.19
578.665	560.19
578.875	561.19
579.086	544.19
579.297	560.19
579.508	549.19
579.718	576.19
579.929	555.19
580.14	529.19
580.35	513.19
580.561	476.19
580.772	457.19
580.982	483.19
581.193	485.19
581.403	452.19
581.614	463.19
581.825	471.19
582.035	456.19
582.246	452.19
582.456	456.19
582.667	456.19
582.877	455.19
583.087	472.19
583.298	461.19
583.508	455.19
583.719	451.19
583.929	417.19
584.139	454.19
584.35	450.19
584.56	464.19
584.77	488.19
584.981	485.19
585.191	457.19
585.401	475.19
585.611	491.19
585.821	467.19
586.032	515.19
586.242	467.19
586.452	464.19
586.662	469.19
586.872	475.19
587.082	513.19
587.292	463.19
587.502	440.19
587.713	449.19
587.923	467.19
588.133	498.19
588.343	454.19
588.553	453.19
588.762	441.19
588.972	440.19
589.182	459.19
589.392	438.19
589.602	448.19
589.812	467.19
590.022	489.19
590.232	494.19
590.441	462.19
590.651	439.19
590.861	445.19
591.071	457.19
591.281	456.19
591.49	440.19
591.7	436.19
591.91	446.19
592.119	428.19
592.329	461.19
592.539	466.19
592.748	456.19
592.958	456.19
593.167	462.19
593.377	484.19
593.587	494.19
593.796	488.19
594.006	479.19
594.215	487.19
594.424	475.19
594.634	484.19
594.843	491.19
595.053	466.19
595.262	445.19
595.472	425.19
595.681	434.19
595.89	431.19
596.1	443.19
596.309	448.19
596.518	423.19
596.727	406.19
596.937	406.19
597.146	411.19
597.355	469.19
597.564	431.19
597.774	399.19
597.983	402.19
598.192	437.19
598.401	412.19
598.61	403.19
598.819	393.19
599.028	390.19
599.237	393.19
599.446	369.19
599.655	357.19
599.864	374.19
600.073	371.19
600.282	370.19
600.491	379.19
600.7	375.19
600.909	387.19
601.118	383.19
601.327	392.19
601.536	367.19
601.745	397.19
601.953	396.19
602.162	392.19
602.371	399.19
602.58	427.19
602.789	396.19
602.997	399.19
603.206	395.19
603.415	375.19
603.623	350.19
603.832	373.19
604.041	362.19
604.249	366.19
604.458	375.19
604.666	359.19
604.875	321.19
605.084	338.19
605.292	351.19
605.501	375.19
605.709	349.19
605.918	354.19
606.126	346.19
606.334	359.19
606.543	363.19
606.751	356.19
606.96	369.19
607.168	349.19
607.376	338.19
607.585	354.19
607.793	349.19
608.001	335.19
608.21	343.19
608.418	346.19
608.626	346.19
608.834	340.19
609.043	343.19
609.251	343.19
609.459	352.19
609.667	350.19
609.875	349.19
610.083	342.19
610.291	355.19
610.499	341.19
610.707	361.19
610.916	341.19
611.124	325.19
611.332	321.19
611.54	309.19
611.748	341.19
611.955	327.19
612.163	345.19
612.371	337.19
612.579	323.19
612.787	327.19
612.995	331.19
613.203	338.19
613.411	333.19
613.618	321.19
613.826	347.19
614.034	352.19
614.242	329.19
614.449	308.19
614.657	319.19
614.865	323.19
615.072	327.19
615.28	320.19
615.488	325.19
615.695	341.19
615.903	331.19
616.111	326.19
616.318	329.19
616.526	321.19
616.733	307.19
616.941	319.19
617.148	320.19
617.356	336.19
617.563	306.19
617.771	329.19
617.978	311.19
618.185	301.19
618.393	305.19
618.6	319.19
618.807	323.19
619.015	309.19
619.222	314.19
619.429	326.19
619.637	305.19
619.844	296.19
620.051	297.19
620.258	306.19
620.466	282.19
620.673	307.19
620.88	295.19
621.087	311.19
621.294	299.19
621.501	281.19
621.708	305.19
621.915	288.19
622.122	286.19
622.329	295.19
622.536	290.19
622.743	304.19
622.95	283.19
623.157	277.19
623.364	314.19
623.571	287.19
623.778	287.19
623.985	308.19
624.192	306.19
624.399	286.19
624.606	294.19
624.812	292.19
625.019	299.19
625.226	310.19
625.433	319.19
625.639	279.19
625.846	274.19
626.053	285.19
626.259	283.19
626.466	271.19
626.673	284.19
626.879	281.19
627.086	265.19
627.293	272.19
627.499	279.19
627.706	268.19
627.912	262.19
628.119	276.19
628.325	278.19
628.532	260.19
628.738	259.19
628.945	283.19
629.151	255.19
629.357	266.19
629.564	261.19
629.77	247.19
629.976	278.19
630.183	261.19
630.389	269.19
630.595	267.19
630.802	245.19
631.008	258.19
631.214	262.19
631.42	250.19
631.627	253.19
631.833	248.19
632.039	245.19
632.245	241.19
632.451	236.19
632.657	252.19
632.863	233.19
633.069	241.19
633.275	244.19
633.481	233.19
633.688	233.19
633.893	239.19
634.099	233.19
634.305	222.19
634.511	253.19
634.717	239.19
634.923	242.19
635.129	253.19
635.335	218.19
635.541	210.19
635.747	238.19
635.952	238.19
636.158	237.19
636.364	248.19
636.57	239.19
636.775	237.19
636.981	237.19
637.187	232.19
637.392	222.19
637.598	236.19
637.804	238.19
638.009	224.19
638.215	231.19
638.421	231.19
638.626	222.19
638.832	226.19
639.037	224.19
639.243	216.19
639.448	214.19
639.654	229.19
639.859	247.19
640.065	233.19
640.27	248.19
640.475	221.19
640.681	219.19
640.886	213.19
641.091	231.19
641.297	227.19
641.502	231.19
641.707	230.19
641.913	225.19
642.118	240.19
642.323	241.19
642.528	231.19
642.733	209.19
642.939	217.19
643.144	208.19
643.349	199.19
643.554	213.19
643.759	222.19
643.964	212.19
644.169	185.19
644.374	214.19
644.579	239.19
644.784	212.19
644.989	221.19
645.194	213.19
645.399	209.19
645.604	219.19
645.809	208.19
646.014	205.19
646.219	222.19
646.423	215.19
646.628	217.19
646.833	206.19
647.038	209.19
647.243	215.19
647.447	226.19
647.652	223.19
647.857	206.19
648.062	216.19
648.266	217.19
648.471	203.19
648.676	218.19
648.88	225.19
649.085	197.19
649.289	216.19
649.494	210.19
649.698	214.19
649.903	203.19
650.107	215.19
650.312	201.19
650.516	189.19
650.721	195.19
650.925	194.19
651.13	179.19
651.334	187.19
651.539	170.19
651.743	182.19
651.947	183.19
652.152	167.19
652.356	169.19
652.56	180.19
652.764	158.19
652.969	163.19
653.173	170.19
653.377	159.19
653.581	170.19
653.785	155.19
653.99	163.19
654.194	154.19
654.398	172.19
654.602	166.19
654.806	163.19
655.01	163.19
655.214	169.19
655.418	167.19
655.622	158.19
655.826	152.19
656.03	158.19
656.234	160.19
656.438	166.19
656.642	175.19
656.846	155.19
657.049	142.19
657.253	143.19
657.457	140.19
657.661	139.19
657.865	138.19
658.068	142.19
658.272	133.19
658.476	123.19
658.68	129.19
658.883	120.19
659.087	111.19
659.291	116.19
659.494	109.19
659.698	105.19
659.901	93.19
660.105	115.19
660.309	106.19
660.512	101.19
660.716	97.19
660.919	95.19
661.123	87.19
661.326	108.19
661.53	89.19
661.733	99.19
661.936	106.19
662.14	89.19
662.343	92.19
662.546	99.19
662.75	91.19
662.953	92.19
663.156	86.19
663.36	98.19
663.563	74.19
663.766	67.19
663.969	91.19
664.173	86.19
664.376	79.19
664.579	95.19
664.782	82.19
664.985	92.19
665.188	84.19
665.391	83.19
665.594	86.19
665.797	77.19
666	95.19
666.203	95.19
666.406	66.19
666.609	85.19
666.812	90.19
667.015	90.19
667.218	82.19
667.421	89.19
667.624	90.19
667.827	83.19
668.03	85.19
668.232	93.19
668.435	91.19
668.638	93.19
668.841	79.19
669.043	88.19
669.246	98.19
669.449	82.19
669.651	77.19
669.854	83.19
670.057	74.19
670.259	83.19
670.462	90.19
670.665	95.19
670.867	96.19
671.07	95.19
671.272	89.19
671.475	102.19
671.677	88.19
671.88	81.19
672.082	83.19
672.284	87.19
672.487	85.19
672.689	81.19
672.892	91.19
