Data from NickelSpatula.Lamp.E10.P2_HRD10591_11-56-56-534.txt Node
Date: Tue Jul 23 11:56:56 EDT 2019
User: cochatt
Spectrometer: HR+D1059
Trigger mode: 1
Integration Time (sec): 1.000000E-1
Scans to average: 1
Electric dark correction enabled: true
Nonlinearity correction enabled: false
Boxcar width: 0
XAxis mode: Wavelengths
Number of Pixels in Spectrum: 2048
>>>>>Begin Spectral Data<<<<<
223.165	-15.06
223.4	-15.06
223.635	-15.06
223.869	-12.06
224.104	-8.06
224.338	-10.06
224.573	-6.06
224.808	-24.06
225.042	-8.06
225.277	-2.06
225.511	-1.06
225.746	-3.06
225.98	8.94
226.215	2.94
226.449	16.94
226.683	16.94
226.918	14.94
227.152	28.94
227.387	30.94
227.621	32.94
227.856	32.94
228.09	49.94
228.324	50.94
228.559	65.94
228.793	95.94
229.027	131.94
229.262	165.94
229.496	151.94
229.73	157.94
229.964	187.94
230.199	213.94
230.433	217.94
230.667	200.94
230.901	186.94
231.136	174.94
231.37	211.94
231.604	204.94
231.838	237.94
232.072	237.94
232.306	227.94
232.541	255.94
232.775	232.94
233.009	255.94
233.243	289.94
233.477	306.94
233.711	335.94
233.945	315.94
234.179	302.94
234.413	323.94
234.647	370.94
234.881	430.94
235.115	393.94
235.349	374.94
235.583	340.94
235.817	307.94
236.051	380.94
236.285	401.94
236.519	437.94
236.753	402.94
236.987	387.94
237.221	384.94
237.455	396.94
237.689	417.94
237.922	439.94
238.156	441.94
238.39	500.94
238.624	616.94
238.858	550.94
239.091	473.94
239.325	472.94
239.559	467.94
239.793	499.94
240.027	608.94
240.26	583.94
240.494	557.94
240.728	552.94
240.961	657.94
241.195	584.94
241.429	598.94
241.662	567.94
241.896	484.94
242.13	457.94
242.363	434.94
242.597	449.94
242.83	518.94
243.064	503.94
243.298	570.94
243.531	623.94
243.765	628.94
243.998	588.94
244.232	569.94
244.465	578.94
244.699	559.94
244.932	627.94
245.166	599.94
245.399	527.94
245.633	530.94
245.866	560.94
246.099	580.94
246.333	673.94
246.566	720.94
246.8	729.94
247.033	686.94
247.266	660.94
247.5	630.94
247.733	623.94
247.966	630.94
248.2	633.94
248.433	722.94
248.666	781.94
248.899	775.94
249.133	801.94
249.366	936.94
249.599	995.94
249.832	887.94
250.066	760.94
250.299	795.94
250.532	776.94
250.765	762.94
250.998	697.94
251.231	665.94
251.465	740.94
251.698	790.94
251.931	764.94
252.164	780.94
252.397	865.94
252.63	987.94
252.863	1086.94
253.096	1111.94
253.329	1084.94
253.562	1039.94
253.795	1158.94
254.028	1271.94
254.261	1280.94
254.494	1162.94
254.727	1053.94
254.96	1069.94
255.193	1088.94
255.426	1074.94
255.659	818.94
255.892	761.94
256.124	839.94
256.357	976.94
256.59	1140.94
256.823	1075.94
257.056	917.94
257.289	861.94
257.521	922.94
257.754	1115.94
257.987	1244.94
258.22	1087.94
258.452	979.94
258.685	1108.94
258.918	1201.94
259.151	1211.94
259.383	1235.94
259.616	1452.94
259.849	1527.94
260.081	1621.94
260.314	1795.94
260.547	1432.94
260.779	1451.94
261.012	1661.94
261.244	1550.94
261.477	1571.94
261.71	1473.94
261.942	1239.94
262.175	1205.94
262.407	1181.94
262.64	1203.94
262.872	1408.94
263.105	1541.94
263.337	1625.94
263.57	1430.94
263.802	995.94
264.035	860.94
264.267	855.94
264.499	741.94
264.732	705.94
264.964	677.94
265.197	679.94
265.429	718.94
265.661	782.94
265.894	817.94
266.126	869.94
266.358	994.94
266.591	1156.94
266.823	1407.94
267.055	1357.94
267.287	1179.94
267.52	1220.94
267.752	1298.94
267.984	1438.94
268.216	1331.94
268.448	1086.94
268.681	1083.94
268.913	1167.94
269.145	1186.94
269.377	1269.94
269.609	1245.94
269.841	1230.94
270.073	1245.94
270.306	1332.94
270.538	1356.94
270.77	1383.94
271.002	1359.94
271.234	1425.94
271.466	1440.94
271.698	1368.94
271.93	1323.94
272.162	1343.94
272.394	1338.94
272.626	1292.94
272.858	1340.94
273.09	1422.94
273.322	1219.94
273.553	1167.94
273.785	1342.94
274.017	1821.94
274.249	2197.94
274.481	2331.94
274.713	2503.94
274.945	2893.94
275.176	3015.94
275.408	2668.94
275.64	2467.94
275.872	2442.94
276.104	2093.94
276.335	1797.94
276.567	1825.94
276.799	1883.94
277.031	1965.94
277.262	1556.94
277.494	1179.94
277.726	1149.94
277.957	1246.94
278.189	1409.94
278.421	1384.94
278.652	1364.94
278.884	1321.94
279.115	1142.94
279.347	1126.94
279.579	1148.94
279.81	1131.94
280.042	1163.94
280.273	1155.94
280.505	1095.94
280.736	984.94
280.968	984.94
281.199	1086.94
281.431	1210.94
281.662	1199.94
281.894	1151.94
282.125	1223.94
282.356	1269.94
282.588	1315.94
282.819	1199.94
283.051	1348.94
283.282	1617.94
283.513	1863.94
283.745	2083.94
283.976	2091.94
284.207	1931.94
284.439	1987.94
284.67	1886.94
284.901	1695.94
285.132	1825.94
285.364	1942.94
285.595	1789.94
285.826	1871.94
286.057	1923.94
286.288	1849.94
286.52	1874.94
286.751	2014.94
286.982	1937.94
287.213	1731.94
287.444	1679.94
287.675	1793.94
287.906	1758.94
288.138	1484.94
288.369	1338.94
288.6	1239.94
288.831	1325.94
289.062	1531.94
289.293	1659.94
289.524	1561.94
289.755	1549.94
289.986	1607.94
290.217	1435.94
290.448	1091.94
290.679	906.94
290.91	870.94
291.141	917.94
291.371	903.94
291.602	945.94
291.833	945.94
292.064	1000.94
292.295	1141.94
292.526	1308.94
292.757	1384.94
292.987	1489.94
293.218	1489.94
293.449	1559.94
293.68	1643.94
293.91	1578.94
294.141	1597.94
294.372	1453.94
294.603	1369.94
294.833	1499.94
295.064	1799.94
295.295	1689.94
295.525	1287.94
295.756	1092.94
295.987	930.94
296.217	957.94
296.448	963.94
296.679	987.94
296.909	1098.94
297.14	1172.94
297.37	1316.94
297.601	1246.94
297.831	1094.94
298.062	1154.94
298.292	1315.94
298.523	1421.94
298.753	1604.94
298.984	1451.94
299.214	1162.94
299.445	1006.94
299.675	931.94
299.905	918.94
300.136	964.94
300.366	1036.94
300.597	1017.94
300.827	946.94
301.057	890.94
301.288	894.94
301.518	934.94
301.748	1073.94
301.979	1140.94
302.209	1205.94
302.439	1224.94
302.669	1081.94
302.9	1160.94
303.13	1071.94
303.36	1008.94
303.59	998.94
303.82	996.94
304.051	1143.94
304.281	1235.94
304.511	1179.94
304.741	1063.94
304.971	1092.94
305.201	1193.94
305.431	1111.94
305.661	955.94
305.891	949.94
306.121	929.94
306.352	869.94
306.582	817.94
306.812	788.94
307.042	785.94
307.272	754.94
307.502	754.94
307.731	808.94
307.961	840.94
308.191	784.94
308.421	759.94
308.651	753.94
308.881	734.94
309.111	716.94
309.341	748.94
309.571	823.94
309.8	860.94
310.03	832.94
310.26	860.94
310.49	865.94
310.72	816.94
310.949	815.94
311.179	834.94
311.409	879.94
311.639	1037.94
311.868	1299.94
312.098	1683.94
312.328	1824.94
312.557	1753.94
312.787	1742.94
313.017	1556.94
313.246	1713.94
313.476	1861.94
313.706	1490.94
313.935	1223.94
314.165	980.94
314.394	911.94
314.624	933.94
314.853	969.94
315.083	971.94
315.312	940.94
315.542	927.94
315.771	845.94
316.001	791.94
316.23	783.94
316.46	784.94
316.689	782.94
316.919	831.94
317.148	849.94
317.377	830.94
317.607	805.94
317.836	886.94
318.065	999.94
318.295	1111.94
318.524	1090.94
318.753	906.94
318.983	884.94
319.212	830.94
319.441	909.94
319.67	1031.94
319.9	1099.94
320.129	1033.94
320.358	910.94
320.587	891.94
320.816	934.94
321.046	1069.94
321.275	1178.94
321.504	1129.94
321.733	1132.94
321.962	1059.94
322.191	1005.94
322.42	968.94
322.649	969.94
322.878	1046.94
323.108	1046.94
323.337	997.94
323.566	981.94
323.795	977.94
324.024	878.94
324.253	896.94
324.482	878.94
324.71	947.94
324.939	1060.94
325.168	982.94
325.397	862.94
325.626	857.94
325.855	827.94
326.084	848.94
326.313	801.94
326.542	771.94
326.77	785.94
326.999	814.94
327.228	887.94
327.457	922.94
327.686	894.94
327.914	801.94
328.143	744.94
328.372	771.94
328.6	788.94
328.829	801.94
329.058	822.94
329.287	837.94
329.515	831.94
329.744	839.94
329.972	796.94
330.201	771.94
330.43	800.94
330.658	871.94
330.887	976.94
331.115	981.94
331.344	931.94
331.572	897.94
331.801	840.94
332.03	820.94
332.258	860.94
332.486	912.94
332.715	950.94
332.943	851.94
333.172	847.94
333.4	895.94
333.629	993.94
333.857	1065.94
334.085	1026.94
334.314	1037.94
334.542	994.94
334.771	942.94
334.999	921.94
335.227	879.94
335.455	887.94
335.684	978.94
335.912	1111.94
336.14	1229.94
336.369	1227.94
336.597	1153.94
336.825	1280.94
337.053	1398.94
337.281	1143.94
337.51	894.94
337.738	896.94
337.966	972.94
338.194	1052.94
338.422	1000.94
338.65	881.94
338.878	829.94
339.106	863.94
339.334	941.94
339.562	971.94
339.79	933.94
340.018	891.94
340.246	980.94
340.474	1097.94
340.702	1133.94
340.93	1171.94
341.158	1189.94
341.386	989.94
341.614	960.94
341.842	980.94
342.07	1029.94
342.298	1199.94
342.526	1249.94
342.754	1069.94
342.981	982.94
343.209	934.94
343.437	1029.94
343.665	1081.94
343.893	1065.94
344.12	1203.94
344.348	1414.94
344.576	1255.94
344.804	1067.94
345.031	952.94
345.259	884.94
345.487	894.94
345.714	913.94
345.942	980.94
346.17	1074.94
346.397	1025.94
346.625	913.94
346.853	868.94
347.08	853.94
347.308	899.94
347.535	1012.94
347.763	1032.94
347.99	896.94
348.218	837.94
348.445	909.94
348.673	899.94
348.9	899.94
349.128	955.94
349.355	968.94
349.583	956.94
349.81	896.94
350.037	863.94
350.265	787.94
350.492	751.94
350.72	710.94
350.947	771.94
351.174	808.94
351.402	859.94
351.629	847.94
351.856	829.94
352.083	811.94
352.311	840.94
352.538	912.94
352.765	941.94
352.992	904.94
353.22	901.94
353.447	900.94
353.674	855.94
353.901	849.94
354.128	836.94
354.355	841.94
354.583	856.94
354.81	873.94
355.037	879.94
355.264	875.94
355.491	930.94
355.718	936.94
355.945	944.94
356.172	939.94
356.399	961.94
356.626	1103.94
356.853	1286.94
357.08	1375.94
357.307	1415.94
357.534	1138.94
357.761	1127.94
357.988	1415.94
358.215	1598.94
358.441	1520.94
358.668	1307.94
358.895	1232.94
359.122	1010.94
359.349	1040.94
359.576	1124.94
359.802	934.94
360.029	825.94
360.256	865.94
360.483	1056.94
360.709	1309.94
360.936	1277.94
361.163	1168.94
361.39	943.94
361.616	917.94
361.843	1002.94
362.07	1205.94
362.296	1137.94
362.523	913.94
362.749	845.94
362.976	867.94
363.203	1009.94
363.429	1113.94
363.656	950.94
363.882	872.94
364.109	895.94
364.335	860.94
364.562	861.94
364.788	943.94
365.015	1058.94
365.241	987.94
365.468	827.94
365.694	766.94
365.92	744.94
366.147	725.94
366.373	730.94
366.599	732.94
366.826	734.94
367.052	755.94
367.278	747.94
367.505	732.94
367.731	783.94
367.957	871.94
368.184	902.94
368.41	896.94
368.636	890.94
368.862	888.94
369.089	875.94
369.315	819.94
369.541	777.94
369.767	783.94
369.993	745.94
370.219	793.94
370.445	789.94
370.672	867.94
370.898	926.94
371.124	941.94
371.35	830.94
371.576	828.94
371.802	871.94
372.028	980.94
372.254	1071.94
372.48	946.94
372.706	903.94
372.932	949.94
373.158	985.94
373.384	1109.94
373.61	1402.94
373.835	1457.94
374.061	1145.94
374.287	1003.94
374.513	1119.94
374.739	1309.94
374.965	1353.94
375.191	1319.94
375.416	1003.94
375.642	875.94
375.868	1005.94
376.094	1112.94
376.319	976.94
376.545	1060.94
376.771	1128.94
376.997	975.94
377.222	781.94
377.448	720.94
377.674	716.94
377.899	703.94
378.125	692.94
378.35	671.94
378.576	719.94
378.802	789.94
379.027	792.94
379.253	782.94
379.478	824.94
379.704	888.94
379.929	920.94
380.155	933.94
380.38	841.94
380.606	883.94
380.831	956.94
381.057	887.94
381.282	864.94
381.507	980.94
381.733	1187.94
381.958	1229.94
382.184	1306.94
382.409	1352.94
382.634	1337.94
382.86	1379.94
383.085	1192.94
383.31	960.94
383.535	1040.94
383.761	1053.94
383.986	1019.94
384.211	1163.94
384.436	1144.94
384.662	911.94
384.887	909.94
385.112	931.94
385.337	924.94
385.562	913.94
385.787	973.94
386.013	1049.94
386.238	1054.94
386.463	923.94
386.688	894.94
386.913	856.94
387.138	827.94
387.363	850.94
387.588	883.94
387.813	900.94
388.038	953.94
388.263	888.94
388.488	865.94
388.713	955.94
388.938	1051.94
389.163	921.94
389.387	844.94
389.612	819.94
389.837	851.94
390.062	846.94
390.287	883.94
390.512	893.94
390.736	829.94
390.961	792.94
391.186	807.94
391.411	818.94
391.636	822.94
391.86	840.94
392.085	896.94
392.31	900.94
392.534	876.94
392.759	841.94
392.984	899.94
393.208	859.94
393.433	813.94
393.658	780.94
393.882	760.94
394.107	725.94
394.331	734.94
394.556	768.94
394.78	781.94
395.005	804.94
395.229	818.94
395.454	817.94
395.678	816.94
395.903	847.94
396.127	815.94
396.352	843.94
396.576	875.94
396.801	878.94
397.025	963.94
397.249	1020.94
397.474	883.94
397.698	840.94
397.922	906.94
398.147	845.94
398.371	872.94
398.595	899.94
398.82	897.94
399.044	916.94
399.268	990.94
399.492	1011.94
399.717	1028.94
399.941	1027.94
400.165	1026.94
400.389	998.94
400.613	966.94
400.837	979.94
401.062	909.94
401.286	891.94
401.51	875.94
401.734	856.94
401.958	877.94
402.182	858.94
402.406	887.94
402.63	887.94
402.854	904.94
403.078	1009.94
403.302	1223.94
403.526	1220.94
403.75	1087.94
403.974	979.94
404.198	1030.94
404.422	1111.94
404.645	1244.94
404.869	1345.94
405.093	1089.94
405.317	951.94
405.541	948.94
405.765	979.94
405.988	972.94
406.212	1025.94
406.436	1149.94
406.66	1238.94
406.883	1047.94
407.107	1077.94
407.331	1225.94
407.555	1183.94
407.778	1035.94
408.002	1005.94
408.226	983.94
408.449	1018.94
408.673	965.94
408.896	939.94
409.12	901.94
409.344	907.94
409.567	863.94
409.791	913.94
410.014	881.94
410.238	861.94
410.461	863.94
410.685	884.94
410.908	885.94
411.132	873.94
411.355	887.94
411.578	923.94
411.802	889.94
412.025	945.94
412.249	919.94
412.472	896.94
412.695	921.94
412.919	895.94
413.142	888.94
413.365	971.94
413.589	979.94
413.812	950.94
414.035	872.94
414.258	867.94
414.482	952.94
414.705	951.94
414.928	846.94
415.151	845.94
415.374	867.94
415.597	877.94
415.821	856.94
416.044	839.94
416.267	849.94
416.49	819.94
416.713	846.94
416.936	831.94
417.159	831.94
417.382	865.94
417.605	859.94
417.828	871.94
418.051	882.94
418.274	867.94
418.497	880.94
418.72	884.94
418.943	888.94
419.166	892.94
419.389	965.94
419.611	948.94
419.834	966.94
420.057	1023.94
420.28	1005.94
420.503	923.94
420.726	881.94
420.948	830.94
421.171	851.94
421.394	861.94
421.617	856.94
421.839	875.94
422.062	906.94
422.285	892.94
422.507	877.94
422.73	889.94
422.953	931.94
423.175	867.94
423.398	937.94
423.621	933.94
423.843	976.94
424.066	937.94
424.288	871.94
424.511	880.94
424.733	856.94
424.956	896.94
425.178	959.94
425.401	1089.94
425.623	1204.94
425.846	1021.94
426.068	951.94
426.291	968.94
426.513	948.94
426.735	878.94
426.958	945.94
427.18	1062.94
427.402	1236.94
427.625	1271.94
427.847	1068.94
428.069	862.94
428.292	841.94
428.514	851.94
428.736	807.94
428.958	892.94
429.181	1003.94
429.403	909.94
429.625	841.94
429.847	799.94
430.069	835.94
430.292	857.94
430.514	836.94
430.736	865.94
430.958	1019.94
431.18	947.94
431.402	815.94
431.624	780.94
431.846	784.94
432.068	770.94
432.29	809.94
432.512	861.94
432.734	1090.94
432.956	1006.94
433.178	841.94
433.4	816.94
433.622	830.94
433.844	830.94
434.066	905.94
434.287	863.94
434.509	870.94
434.731	875.94
434.953	834.94
435.175	897.94
435.397	952.94
435.618	848.94
435.84	797.94
436.062	796.94
436.284	815.94
436.505	779.94
436.727	797.94
436.949	769.94
437.17	803.94
437.392	820.94
437.614	799.94
437.835	778.94
438.057	815.94
438.278	880.94
438.5	1174.94
438.721	1197.94
438.943	880.94
439.165	764.94
439.386	741.94
439.608	763.94
439.829	773.94
440.05	766.94
440.272	809.94
440.493	925.94
440.715	1091.94
440.936	887.94
441.158	820.94
441.379	811.94
441.6	905.94
441.822	956.94
442.043	865.94
442.264	845.94
442.486	850.94
442.707	836.94
442.928	823.94
443.149	835.94
443.371	866.94
443.592	908.94
443.813	887.94
444.034	868.94
444.255	889.94
444.476	916.94
444.698	923.94
444.919	948.94
445.14	1009.94
445.361	1006.94
445.582	922.94
445.803	916.94
446.024	928.94
446.245	888.94
446.466	900.94
446.687	855.94
446.908	814.94
447.129	772.94
447.35	779.94
447.571	786.94
447.792	792.94
448.013	761.94
448.234	763.94
448.455	764.94
448.675	777.94
448.896	783.94
449.117	776.94
449.338	789.94
449.559	795.94
449.779	827.94
450	838.94
450.221	802.94
450.442	800.94
450.662	782.94
450.883	776.94
451.104	805.94
451.324	755.94
451.545	783.94
451.766	805.94
451.986	760.94
452.207	747.94
452.428	765.94
452.648	764.94
452.869	785.94
453.089	767.94
453.31	802.94
453.53	715.94
453.751	699.94
453.971	694.94
454.192	744.94
454.412	751.94
454.633	701.94
454.853	729.94
455.073	708.94
455.294	716.94
455.514	722.94
455.734	739.94
455.955	765.94
456.175	813.94
456.395	738.94
456.616	720.94
456.836	689.94
457.056	678.94
457.276	673.94
457.497	696.94
457.717	687.94
457.937	691.94
458.157	718.94
458.377	716.94
458.598	709.94
458.818	747.94
459.038	775.94
459.258	795.94
459.478	840.94
459.698	877.94
459.918	872.94
460.138	880.94
460.358	870.94
460.578	861.94
460.798	896.94
461.018	854.94
461.238	815.94
461.458	855.94
461.678	851.94
461.898	897.94
462.118	911.94
462.338	914.94
462.558	917.94
462.777	935.94
462.997	961.94
463.217	967.94
463.437	1021.94
463.657	1000.94
463.876	917.94
464.096	927.94
464.316	935.94
464.536	965.94
464.755	983.94
464.975	975.94
465.195	928.94
465.414	960.94
465.634	924.94
465.854	922.94
466.073	831.94
466.293	852.94
466.512	909.94
466.732	976.94
466.951	982.94
467.171	883.94
467.391	856.94
467.61	821.94
467.829	879.94
468.049	905.94
468.268	836.94
468.488	839.94
468.707	875.94
468.927	1026.94
469.146	1092.94
469.365	1005.94
469.585	907.94
469.804	985.94
470.023	1026.94
470.243	925.94
470.462	906.94
470.681	888.94
470.901	910.94
471.12	920.94
471.339	917.94
471.558	879.94
471.777	907.94
471.997	985.94
472.216	1069.94
472.435	1019.94
472.654	935.94
472.873	910.94
473.092	961.94
473.311	1013.94
473.53	909.94
473.749	899.94
473.968	941.94
474.187	920.94
474.406	894.94
474.625	906.94
474.844	954.94
475.063	971.94
475.282	974.94
475.501	1042.94
475.72	1075.94
475.939	1041.94
476.158	1080.94
476.377	1176.94
476.596	1363.94
476.814	1430.94
477.033	1186.94
477.252	1045.94
477.471	952.94
477.69	980.94
477.908	1080.94
478.127	1114.94
478.346	1067.94
478.564	1112.94
478.783	1039.94
479.002	1052.94
479.22	1228.94
479.439	1343.94
479.658	1197.94
479.876	1087.94
480.095	1180.94
480.313	1206.94
480.532	1104.94
480.751	1070.94
480.969	1080.94
481.188	1227.94
481.406	1220.94
481.624	1167.94
481.843	1069.94
482.061	1043.94
482.28	1157.94
482.498	1359.94
482.717	1334.94
482.935	1141.94
483.153	1078.94
483.372	1006.94
483.59	1016.94
483.808	1028.94
484.027	1004.94
484.245	945.94
484.463	955.94
484.681	1040.94
484.9	1053.94
485.118	1136.94
485.336	1099.94
485.554	1005.94
485.772	1023.94
485.99	1119.94
486.209	1208.94
486.427	1182.94
486.645	1117.94
486.863	1167.94
487.081	1169.94
487.299	1256.94
487.517	1179.94
487.735	1168.94
487.953	1179.94
488.171	1216.94
488.389	1135.94
488.607	1067.94
488.825	1078.94
489.043	1177.94
489.261	1325.94
489.479	1359.94
489.696	1241.94
489.914	1127.94
490.132	1071.94
490.35	1067.94
490.568	1084.94
490.786	1065.94
491.003	1103.94
491.221	1128.94
491.439	1102.94
491.657	1125.94
491.874	1169.94
492.092	1335.94
492.31	1499.94
492.527	1539.94
492.745	1378.94
492.963	1240.94
493.18	1244.94
493.398	1254.94
493.615	1253.94
493.833	1213.94
494.05	1148.94
494.268	1190.94
494.485	1204.94
494.703	1162.94
494.92	1180.94
495.138	1150.94
495.355	1156.94
495.573	1175.94
495.79	1265.94
496.008	1518.94
496.225	1386.94
496.442	1265.94
496.66	1259.94
496.877	1356.94
497.094	1320.94
497.312	1232.94
497.529	1270.94
497.746	1273.94
497.963	1303.94
498.181	1411.94
498.398	1521.94
498.615	1488.94
498.832	1642.94
499.049	1642.94
499.267	1487.94
499.484	1511.94
499.701	1583.94
499.918	1711.94
500.135	1825.94
500.352	1833.94
500.569	1901.94
500.786	1951.94
501.003	1914.94
501.22	1777.94
501.437	1653.94
501.654	1575.94
501.871	1521.94
502.088	1552.94
502.305	1421.94
502.522	1458.94
502.739	1440.94
502.956	1353.94
503.172	1343.94
503.389	1272.94
503.606	1254.94
503.823	1245.94
504.04	1247.94
504.256	1293.94
504.473	1295.94
504.69	1328.94
504.907	1328.94
505.123	1310.94
505.34	1380.94
505.557	1378.94
505.773	1255.94
505.99	1254.94
506.207	1292.94
506.423	1191.94
506.64	1145.94
506.856	1182.94
507.073	1293.94
507.289	1243.94
507.506	1287.94
507.722	1325.94
507.939	1326.94
508.155	1372.94
508.372	1226.94
508.588	1205.94
508.805	1148.94
509.021	1173.94
509.238	1131.94
509.454	1104.94
509.67	1101.94
509.887	1146.94
510.103	1274.94
510.319	1277.94
510.536	1102.94
510.752	1043.94
510.968	1045.94
511.184	984.94
511.401	1011.94
511.617	1011.94
511.833	1021.94
512.049	1055.94
512.265	1065.94
512.481	1063.94
512.698	1199.94
512.914	1294.94
513.13	1203.94
513.346	1069.94
513.562	1112.94
513.778	1102.94
513.994	1087.94
514.21	1098.94
514.426	1155.94
514.642	1086.94
514.858	1085.94
515.074	1142.94
515.29	1237.94
515.506	1368.94
515.721	1269.94
515.937	1205.94
516.153	1135.94
516.369	1141.94
516.585	1174.94
516.801	1273.94
517.016	1429.94
517.232	1429.94
517.448	1459.94
517.664	1326.94
517.879	1248.94
518.095	1212.94
518.311	1230.94
518.527	1304.94
518.742	1335.94
518.958	1388.94
519.173	1347.94
519.389	1274.94
519.605	1295.94
519.82	1405.94
520.036	1641.94
520.251	1618.94
520.467	1457.94
520.682	2065.94
520.898	2486.94
521.113	2323.94
521.329	1569.94
521.544	1413.94
521.76	1382.94
521.975	1251.94
522.19	1243.94
522.406	1265.94
522.621	1381.94
522.836	1392.94
523.052	1415.94
523.267	1175.94
523.482	1176.94
523.698	1253.94
523.913	1283.94
524.128	1188.94
524.343	1144.94
524.559	1141.94
524.774	1098.94
524.989	1117.94
525.204	1124.94
525.419	1248.94
525.634	1133.94
525.849	1200.94
526.064	1211.94
526.28	1199.94
526.495	1396.94
526.71	1385.94
526.925	1222.94
527.14	1244.94
527.355	1193.94
527.57	1051.94
527.785	1104.94
527.999	1077.94
528.214	1040.94
528.429	1010.94
528.644	1007.94
528.859	981.94
529.074	955.94
529.289	955.94
529.503	957.94
529.718	981.94
529.933	1114.94
530.148	1134.94
530.363	1019.94
530.577	964.94
530.792	966.94
531.007	983.94
531.221	923.94
531.436	959.94
531.651	961.94
531.865	975.94
532.08	982.94
532.295	957.94
532.509	977.94
532.724	1061.94
532.938	1188.94
533.153	1336.94
533.367	1151.94
533.582	1123.94
533.796	1070.94
534.011	999.94
534.225	993.94
534.44	1027.94
534.654	1067.94
534.868	1173.94
535.083	1032.94
535.297	979.94
535.511	991.94
535.726	1132.94
535.94	1005.94
536.154	960.94
536.369	937.94
536.583	928.94
536.797	939.94
537.011	957.94
537.225	1008.94
537.44	1062.94
537.654	971.94
537.868	967.94
538.082	986.94
538.296	937.94
538.51	1014.94
538.724	999.94
538.938	1017.94
539.153	946.94
539.367	928.94
539.581	941.94
539.795	974.94
540.009	1041.94
540.222	996.94
540.436	987.94
540.65	1043.94
540.864	1090.94
541.078	1119.94
541.292	1240.94
541.506	1017.94
541.72	981.94
541.934	1012.94
542.147	1014.94
542.361	976.94
542.575	988.94
542.789	998.94
543.002	929.94
543.216	990.94
543.43	931.94
543.644	885.94
543.857	906.94
544.071	912.94
544.285	894.94
544.498	877.94
544.712	870.94
544.925	950.94
545.139	893.94
545.352	861.94
545.566	881.94
545.779	971.94
545.993	936.94
546.206	880.94
546.42	842.94
546.633	851.94
546.847	853.94
547.06	799.94
547.274	835.94
547.487	841.94
547.7	898.94
547.914	941.94
548.127	1041.94
548.34	1025.94
548.554	950.94
548.767	974.94
548.98	1005.94
549.193	945.94
549.407	973.94
549.62	1112.94
549.833	1044.94
550.046	1114.94
550.259	1128.94
550.473	982.94
550.686	948.94
550.899	943.94
551.112	941.94
551.325	1025.94
551.538	1048.94
551.751	937.94
551.964	888.94
552.177	877.94
552.39	879.94
552.603	881.94
552.816	945.94
553.029	878.94
553.242	858.94
553.455	943.94
553.667	977.94
553.88	946.94
554.093	867.94
554.306	816.94
554.519	787.94
554.732	747.94
554.944	764.94
555.157	765.94
555.37	760.94
555.583	766.94
555.795	777.94
556.008	785.94
556.221	787.94
556.433	791.94
556.646	774.94
556.859	766.94
557.071	822.94
557.284	791.94
557.496	772.94
557.709	771.94
557.921	738.94
558.134	737.94
558.346	715.94
558.559	713.94
558.771	758.94
558.984	755.94
559.196	729.94
559.409	724.94
559.621	687.94
559.833	689.94
560.046	712.94
560.258	696.94
560.47	742.94
560.683	705.94
560.895	669.94
561.107	658.94
561.32	670.94
561.532	676.94
561.744	741.94
561.956	701.94
562.168	692.94
562.381	675.94
562.593	708.94
562.805	702.94
563.017	673.94
563.229	663.94
563.441	666.94
563.653	656.94
563.865	695.94
564.077	674.94
564.289	670.94
564.501	681.94
564.713	731.94
564.925	700.94
565.137	679.94
565.349	672.94
565.561	698.94
565.773	710.94
565.985	726.94
566.197	760.94
566.408	833.94
566.62	811.94
566.832	845.94
567.044	839.94
567.255	881.94
567.467	949.94
567.679	858.94
567.891	870.94
568.102	872.94
568.314	851.94
568.526	856.94
568.737	823.94
568.949	845.94
569.161	721.94
569.372	709.94
569.584	683.94
569.795	680.94
570.007	685.94
570.218	740.94
570.43	720.94
570.641	691.94
570.853	678.94
571.064	653.94
571.276	678.94
571.487	716.94
571.698	649.94
571.91	640.94
572.121	659.94
572.333	635.94
572.544	598.94
572.755	619.94
572.966	609.94
573.178	597.94
573.389	625.94
573.6	637.94
573.811	646.94
574.023	567.94
574.234	564.94
574.445	560.94
574.656	552.94
574.867	582.94
575.078	573.94
575.289	579.94
575.501	620.94
575.712	584.94
575.923	544.94
576.134	554.94
576.345	565.94
576.556	541.94
576.767	525.94
576.978	512.94
577.188	518.94
577.399	525.94
577.61	529.94
577.821	523.94
578.032	535.94
578.243	546.94
578.454	559.94
578.665	546.94
578.875	525.94
579.086	524.94
579.297	544.94
579.508	563.94
579.718	541.94
579.929	544.94
580.14	527.94
580.35	519.94
580.561	472.94
580.772	476.94
580.982	488.94
581.193	455.94
581.403	473.94
581.614	469.94
581.825	458.94
582.035	479.94
582.246	458.94
582.456	471.94
582.667	456.94
582.877	453.94
583.087	469.94
583.298	441.94
583.508	463.94
583.719	460.94
583.929	468.94
584.139	437.94
584.35	454.94
584.56	458.94
584.77	462.94
584.981	467.94
585.191	483.94
585.401	462.94
585.611	469.94
585.821	480.94
586.032	477.94
586.242	468.94
586.452	439.94
586.662	479.94
586.872	501.94
587.082	487.94
587.292	464.94
587.502	452.94
587.713	468.94
587.923	448.94
588.133	488.94
588.343	475.94
588.553	452.94
588.762	440.94
588.972	453.94
589.182	441.94
589.392	439.94
589.602	441.94
589.812	488.94
590.022	497.94
590.232	507.94
590.441	435.94
590.651	459.94
590.861	454.94
591.071	456.94
591.281	446.94
591.49	439.94
591.7	448.94
591.91	462.94
592.119	431.94
592.329	458.94
592.539	472.94
592.748	464.94
592.958	445.94
593.167	483.94
593.377	479.94
593.587	474.94
593.796	463.94
594.006	463.94
594.215	459.94
594.424	476.94
594.634	491.94
594.843	470.94
595.053	443.94
595.262	459.94
595.472	443.94
595.681	431.94
595.89	428.94
596.1	447.94
596.309	435.94
596.518	435.94
596.727	391.94
596.937	419.94
597.146	413.94
597.355	440.94
597.564	429.94
597.774	413.94
597.983	403.94
598.192	406.94
598.401	391.94
598.61	376.94
598.819	372.94
599.028	399.94
599.237	371.94
599.446	384.94
599.655	366.94
599.864	381.94
600.073	371.94
600.282	387.94
600.491	377.94
600.7	369.94
600.909	385.94
601.118	361.94
601.327	364.94
601.536	375.94
601.745	383.94
601.953	407.94
602.162	379.94
602.371	385.94
602.58	397.94
602.789	376.94
602.997	358.94
603.206	370.94
603.415	385.94
603.623	361.94
603.832	370.94
604.041	332.94
604.249	371.94
604.458	379.94
604.666	342.94
604.875	342.94
605.084	353.94
605.292	356.94
605.501	353.94
605.709	345.94
605.918	352.94
606.126	351.94
606.334	352.94
606.543	349.94
606.751	346.94
606.96	342.94
607.168	335.94
607.376	343.94
607.585	323.94
607.793	318.94
608.001	331.94
608.21	356.94
608.418	358.94
608.626	348.94
608.834	357.94
609.043	330.94
609.251	346.94
609.459	331.94
609.667	346.94
609.875	350.94
610.083	352.94
610.291	364.94
610.499	351.94
610.707	339.94
610.916	339.94
611.124	327.94
611.332	315.94
611.54	336.94
611.748	348.94
611.955	339.94
612.163	329.94
612.371	349.94
612.579	336.94
612.787	342.94
612.995	349.94
613.203	332.94
613.411	319.94
613.618	324.94
613.826	355.94
614.034	331.94
614.242	315.94
614.449	333.94
614.657	319.94
614.865	311.94
615.072	329.94
615.28	323.94
615.488	314.94
615.695	313.94
615.903	330.94
616.111	322.94
616.318	327.94
616.526	296.94
616.733	329.94
616.941	327.94
617.148	330.94
617.356	308.94
617.563	309.94
617.771	329.94
617.978	314.94
618.185	316.94
618.393	328.94
618.6	315.94
618.807	309.94
619.015	296.94
619.222	309.94
619.429	304.94
619.637	304.94
619.844	326.94
620.051	292.94
620.258	295.94
620.466	318.94
620.673	296.94
620.88	303.94
621.087	291.94
621.294	294.94
621.501	283.94
621.708	308.94
621.915	286.94
622.122	284.94
622.329	287.94
622.536	308.94
622.743	291.94
622.95	275.94
623.157	289.94
623.364	310.94
623.571	299.94
623.778	309.94
623.985	294.94
624.192	329.94
624.399	297.94
624.606	292.94
624.812	300.94
625.019	287.94
625.226	317.94
625.433	288.94
625.639	279.94
625.846	282.94
626.053	262.94
626.259	278.94
626.466	273.94
626.673	313.94
626.879	279.94
627.086	280.94
627.293	270.94
627.499	280.94
627.706	285.94
627.912	274.94
628.119	262.94
628.325	267.94
628.532	285.94
628.738	265.94
628.945	256.94
629.151	249.94
629.357	255.94
629.564	268.94
629.77	253.94
629.976	255.94
630.183	271.94
630.389	254.94
630.595	245.94
630.802	242.94
631.008	255.94
631.214	258.94
631.42	245.94
631.627	241.94
631.833	240.94
632.039	246.94
632.245	255.94
632.451	242.94
632.657	256.94
632.863	248.94
633.069	236.94
633.275	227.94
633.481	226.94
633.688	256.94
633.893	247.94
634.099	226.94
634.305	233.94
634.511	211.94
634.717	212.94
634.923	210.94
635.129	233.94
635.335	235.94
635.541	228.94
635.747	229.94
635.952	224.94
636.158	231.94
636.364	225.94
636.57	221.94
636.775	241.94
636.981	216.94
637.187	235.94
637.392	223.94
637.598	249.94
637.804	225.94
638.009	232.94
638.215	226.94
638.421	205.94
638.626	220.94
638.832	251.94
639.037	225.94
639.243	223.94
639.448	213.94
639.654	231.94
639.859	233.94
640.065	227.94
640.27	227.94
640.475	231.94
640.681	239.94
640.886	206.94
641.091	205.94
641.297	228.94
641.502	230.94
641.707	199.94
641.913	216.94
642.118	213.94
642.323	210.94
642.528	203.94
642.733	224.94
642.939	218.94
643.144	206.94
643.349	219.94
643.554	210.94
643.759	213.94
643.964	206.94
644.169	213.94
644.374	197.94
644.579	209.94
644.784	207.94
644.989	202.94
645.194	202.94
645.399	208.94
645.604	215.94
645.809	209.94
646.014	214.94
646.219	204.94
646.423	193.94
646.628	214.94
646.833	210.94
647.038	212.94
647.243	212.94
647.447	204.94
647.652	200.94
647.857	215.94
648.062	200.94
648.266	217.94
648.471	201.94
648.676	207.94
648.88	195.94
649.085	204.94
649.289	195.94
649.494	215.94
649.698	229.94
649.903	205.94
650.107	191.94
650.312	183.94
650.516	196.94
650.721	191.94
650.925	183.94
651.13	174.94
651.334	188.94
651.539	183.94
651.743	181.94
651.947	171.94
652.152	196.94
652.356	157.94
652.56	166.94
652.764	164.94
652.969	168.94
653.173	164.94
653.377	176.94
653.581	159.94
653.785	159.94
653.99	163.94
654.194	151.94
654.398	158.94
654.602	162.94
654.806	167.94
655.01	146.94
655.214	150.94
655.418	161.94
655.622	163.94
655.826	169.94
656.03	140.94
656.234	167.94
656.438	151.94
656.642	153.94
656.846	127.94
657.049	145.94
657.253	137.94
657.457	135.94
657.661	135.94
657.865	117.94
658.068	106.94
658.272	125.94
658.476	119.94
658.68	115.94
658.883	101.94
659.087	112.94
659.291	115.94
659.494	98.94
659.698	113.94
659.901	107.94
660.105	103.94
660.309	106.94
660.512	85.94
660.716	91.94
660.919	96.94
661.123	109.94
661.326	96.94
661.53	97.94
661.733	99.94
661.936	97.94
662.14	93.94
662.343	95.94
662.546	85.94
662.75	95.94
662.953	88.94
663.156	79.94
663.36	86.94
663.563	79.94
663.766	77.94
663.969	82.94
664.173	61.94
664.376	79.94
664.579	86.94
664.782	75.94
664.985	79.94
665.188	89.94
665.391	92.94
665.594	81.94
665.797	73.94
666	79.94
666.203	75.94
666.406	80.94
666.609	79.94
666.812	79.94
667.015	74.94
667.218	89.94
667.421	95.94
667.624	86.94
667.827	69.94
668.03	74.94
668.232	79.94
668.435	89.94
668.638	68.94
668.841	74.94
669.043	79.94
669.246	79.94
669.449	82.94
669.651	90.94
669.854	81.94
670.057	92.94
670.259	88.94
670.462	73.94
670.665	70.94
670.867	74.94
671.07	77.94
671.272	85.94
671.475	88.94
671.677	78.94
671.88	77.94
672.082	88.94
672.284	94.94
672.487	86.94
672.689	66.94
672.892	69.94
