Data from NickelSpatula.Lamp.E10.P2_HRD10591_11-59-28-525.txt Node
Date: Tue Jul 23 11:59:28 EDT 2019
User: cochatt
Spectrometer: HR+D1059
Trigger mode: 1
Integration Time (sec): 1.000000E-1
Scans to average: 1
Electric dark correction enabled: true
Nonlinearity correction enabled: false
Boxcar width: 0
XAxis mode: Wavelengths
Number of Pixels in Spectrum: 2048
>>>>>Begin Spectral Data<<<<<
223.165	-15.25
223.4	-15.25
223.635	-15.25
223.869	-9.25
224.104	-23.25
224.338	-19.25
224.573	-15.25
224.808	-20.25
225.042	-15.25
225.277	-7.25
225.511	4.75
225.746	15.75
225.98	4.75
226.215	2.75
226.449	21.75
226.683	20.75
226.918	21.75
227.152	32.75
227.387	37.75
227.621	35.75
227.856	36.75
228.09	54.75
228.324	46.75
228.559	55.75
228.793	83.75
229.027	146.75
229.262	163.75
229.496	167.75
229.73	177.75
229.964	190.75
230.199	220.75
230.433	206.75
230.667	209.75
230.901	226.75
231.136	202.75
231.37	213.75
231.604	222.75
231.838	261.75
232.072	251.75
232.306	270.75
232.541	264.75
232.775	259.75
233.009	264.75
233.243	287.75
233.477	292.75
233.711	362.75
233.945	351.75
234.179	330.75
234.413	350.75
234.647	388.75
234.881	447.75
235.115	441.75
235.349	430.75
235.583	370.75
235.817	352.75
236.051	384.75
236.285	434.75
236.519	472.75
236.753	451.75
236.987	448.75
237.221	425.75
237.455	406.75
237.689	442.75
237.922	456.75
238.156	470.75
238.39	571.75
238.624	671.75
238.858	608.75
239.091	512.75
239.325	522.75
239.559	479.75
239.793	547.75
240.027	656.75
240.26	614.75
240.494	584.75
240.728	601.75
240.961	689.75
241.195	656.75
241.429	646.75
241.662	605.75
241.896	510.75
242.13	471.75
242.363	447.75
242.597	474.75
242.83	554.75
243.064	544.75
243.298	581.75
243.531	644.75
243.765	665.75
243.998	628.75
244.232	631.75
244.465	612.75
244.699	583.75
244.932	660.75
245.166	628.75
245.399	554.75
245.633	554.75
245.866	587.75
246.099	643.75
246.333	755.75
246.566	783.75
246.8	771.75
247.033	748.75
247.266	694.75
247.5	718.75
247.733	713.75
247.966	705.75
248.2	708.75
248.433	796.75
248.666	863.75
248.899	862.75
249.133	882.75
249.366	1026.75
249.599	1063.75
249.832	949.75
250.066	817.75
250.299	867.75
250.532	814.75
250.765	826.75
250.998	751.75
251.231	717.75
251.465	798.75
251.698	832.75
251.931	800.75
252.164	848.75
252.397	926.75
252.63	1082.75
252.863	1198.75
253.096	1216.75
253.329	1194.75
253.562	1113.75
253.795	1254.75
254.028	1374.75
254.261	1454.75
254.494	1272.75
254.727	1160.75
254.96	1128.75
255.193	1194.75
255.426	1156.75
255.659	861.75
255.892	824.75
256.124	912.75
256.357	1029.75
256.59	1229.75
256.823	1150.75
257.056	971.75
257.289	917.75
257.521	992.75
257.754	1187.75
257.987	1299.75
258.22	1125.75
258.452	1011.75
258.685	1157.75
258.918	1288.75
259.151	1255.75
259.383	1322.75
259.616	1522.75
259.849	1590.75
260.081	1732.75
260.314	1922.75
260.547	1532.75
260.779	1505.75
261.012	1731.75
261.244	1599.75
261.477	1663.75
261.71	1564.75
261.942	1311.75
262.175	1312.75
262.407	1278.75
262.64	1299.75
262.872	1499.75
263.105	1676.75
263.337	1744.75
263.57	1555.75
263.802	1053.75
264.035	918.75
264.267	902.75
264.499	768.75
264.732	735.75
264.964	683.75
265.197	726.75
265.429	790.75
265.661	830.75
265.894	860.75
266.126	927.75
266.358	1053.75
266.591	1289.75
266.823	1499.75
267.055	1428.75
267.287	1245.75
267.52	1269.75
267.752	1324.75
267.984	1479.75
268.216	1368.75
268.448	1162.75
268.681	1149.75
268.913	1250.75
269.145	1287.75
269.377	1310.75
269.609	1314.75
269.841	1234.75
270.073	1320.75
270.306	1386.75
270.538	1387.75
270.77	1433.75
271.002	1412.75
271.234	1459.75
271.466	1489.75
271.698	1482.75
271.93	1430.75
272.162	1458.75
272.394	1426.75
272.626	1428.75
272.858	1474.75
273.09	1504.75
273.322	1353.75
273.553	1372.75
273.785	1542.75
274.017	1995.75
274.249	2499.75
274.481	2574.75
274.713	2740.75
274.945	3180.75
275.176	3264.75
275.408	2894.75
275.64	2644.75
275.872	2653.75
276.104	2265.75
276.335	1981.75
276.567	1921.75
276.799	1981.75
277.031	2096.75
277.262	1625.75
277.494	1287.75
277.726	1221.75
277.957	1347.75
278.189	1538.75
278.421	1500.75
278.652	1469.75
278.884	1398.75
279.115	1283.75
279.347	1212.75
279.579	1219.75
279.81	1228.75
280.042	1223.75
280.273	1302.75
280.505	1157.75
280.736	1023.75
280.968	1056.75
281.199	1105.75
281.431	1262.75
281.662	1243.75
281.894	1210.75
282.125	1273.75
282.356	1354.75
282.588	1395.75
282.819	1278.75
283.051	1396.75
283.282	1722.75
283.513	1971.75
283.745	2183.75
283.976	2215.75
284.207	2035.75
284.439	2122.75
284.67	2038.75
284.901	1820.75
285.132	1978.75
285.364	2036.75
285.595	1932.75
285.826	1994.75
286.057	2034.75
286.288	1992.75
286.52	2026.75
286.751	2144.75
286.982	2114.75
287.213	1822.75
287.444	1774.75
287.675	1888.75
287.906	1859.75
288.138	1554.75
288.369	1395.75
288.6	1306.75
288.831	1354.75
289.062	1556.75
289.293	1764.75
289.524	1585.75
289.755	1602.75
289.986	1630.75
290.217	1471.75
290.448	1138.75
290.679	968.75
290.91	939.75
291.141	936.75
291.371	977.75
291.602	997.75
291.833	1012.75
292.064	1067.75
292.295	1238.75
292.526	1422.75
292.757	1461.75
292.987	1601.75
293.218	1554.75
293.449	1631.75
293.68	1686.75
293.91	1630.75
294.141	1650.75
294.372	1526.75
294.603	1458.75
294.833	1608.75
295.064	1831.75
295.295	1788.75
295.525	1334.75
295.756	1186.75
295.987	1037.75
296.217	1096.75
296.448	1046.75
296.679	1128.75
296.909	1256.75
297.14	1347.75
297.37	1462.75
297.601	1383.75
297.831	1184.75
298.062	1270.75
298.292	1444.75
298.523	1621.75
298.753	1842.75
298.984	1622.75
299.214	1280.75
299.445	1109.75
299.675	1074.75
299.905	1096.75
300.136	1086.75
300.366	1224.75
300.597	1163.75
300.827	1038.75
301.057	1014.75
301.288	1052.75
301.518	1097.75
301.748	1301.75
301.979	1394.75
302.209	1520.75
302.439	1508.75
302.669	1293.75
302.9	1268.75
303.13	1173.75
303.36	1102.75
303.59	1060.75
303.82	1147.75
304.051	1265.75
304.281	1374.75
304.511	1314.75
304.741	1171.75
304.971	1220.75
305.201	1305.75
305.431	1235.75
305.661	1108.75
305.891	1095.75
306.121	1104.75
306.352	1007.75
306.582	902.75
306.812	873.75
307.042	860.75
307.272	819.75
307.502	836.75
307.731	928.75
307.961	945.75
308.191	891.75
308.421	821.75
308.651	830.75
308.881	782.75
309.111	809.75
309.341	844.75
309.571	922.75
309.8	929.75
310.03	933.75
310.26	1038.75
310.49	977.75
310.72	865.75
310.949	861.75
311.179	912.75
311.409	934.75
311.639	1089.75
311.868	1390.75
312.098	1810.75
312.328	1968.75
312.557	1860.75
312.787	1911.75
313.017	1714.75
313.246	1837.75
313.476	1973.75
313.706	1641.75
313.935	1312.75
314.165	1086.75
314.394	994.75
314.624	937.75
314.853	1058.75
315.083	1070.75
315.312	1035.75
315.542	1055.75
315.771	985.75
316.001	883.75
316.23	859.75
316.46	850.75
316.689	864.75
316.919	881.75
317.148	932.75
317.377	916.75
317.607	915.75
317.836	1003.75
318.065	1109.75
318.295	1290.75
318.524	1187.75
318.753	985.75
318.983	965.75
319.212	932.75
319.441	1027.75
319.67	1156.75
319.9	1253.75
320.129	1136.75
320.358	1016.75
320.587	968.75
320.816	1068.75
321.046	1200.75
321.275	1363.75
321.504	1383.75
321.733	1302.75
321.962	1242.75
322.191	1216.75
322.42	1149.75
322.649	1150.75
322.878	1231.75
323.108	1259.75
323.337	1128.75
323.566	1127.75
323.795	1087.75
324.024	1057.75
324.253	989.75
324.482	989.75
324.71	1112.75
324.939	1253.75
325.168	1170.75
325.397	969.75
325.626	940.75
325.855	949.75
326.084	961.75
326.313	911.75
326.542	860.75
326.77	868.75
326.999	910.75
327.228	978.75
327.457	1053.75
327.686	1081.75
327.914	883.75
328.143	857.75
328.372	836.75
328.6	851.75
328.829	906.75
329.058	884.75
329.287	886.75
329.515	948.75
329.744	882.75
329.972	868.75
330.201	804.75
330.43	869.75
330.658	979.75
330.887	1100.75
331.115	1050.75
331.344	1009.75
331.572	939.75
331.801	920.75
332.03	871.75
332.258	910.75
332.486	993.75
332.715	998.75
332.943	931.75
333.172	928.75
333.4	969.75
333.629	1031.75
333.857	1169.75
334.085	1108.75
334.314	1108.75
334.542	1046.75
334.771	1003.75
334.999	957.75
335.227	938.75
335.455	969.75
335.684	1079.75
335.912	1217.75
336.14	1363.75
336.369	1266.75
336.597	1242.75
336.825	1370.75
337.053	1538.75
337.281	1244.75
337.51	1013.75
337.738	985.75
337.966	1084.75
338.194	1221.75
338.422	1134.75
338.65	964.75
338.878	934.75
339.106	954.75
339.334	1059.75
339.562	1110.75
339.79	1058.75
340.018	978.75
340.246	1051.75
340.474	1213.75
340.702	1313.75
340.93	1362.75
341.158	1369.75
341.386	1128.75
341.614	1137.75
341.842	1148.75
342.07	1162.75
342.298	1340.75
342.526	1391.75
342.754	1193.75
342.981	1169.75
343.209	1100.75
343.437	1182.75
343.665	1238.75
343.893	1182.75
344.12	1391.75
344.348	1651.75
344.576	1466.75
344.804	1224.75
345.031	1076.75
345.259	997.75
345.487	995.75
345.714	1048.75
345.942	1174.75
346.17	1269.75
346.397	1192.75
346.625	1052.75
346.853	1018.75
347.08	967.75
347.308	1020.75
347.535	1142.75
347.763	1174.75
347.99	1030.75
348.218	967.75
348.445	1003.75
348.673	1010.75
348.9	995.75
349.128	1084.75
349.355	1123.75
349.583	1100.75
349.81	1040.75
350.037	997.75
350.265	869.75
350.492	798.75
350.72	808.75
350.947	830.75
351.174	909.75
351.402	974.75
351.629	1015.75
351.856	970.75
352.083	939.75
352.311	1022.75
352.538	1123.75
352.765	1191.75
352.992	1058.75
353.22	1022.75
353.447	1041.75
353.674	1011.75
353.901	1001.75
354.128	1001.75
354.355	1050.75
354.583	1007.75
354.81	1019.75
355.037	1040.75
355.264	1034.75
355.491	1145.75
355.718	1219.75
355.945	1184.75
356.172	1120.75
356.399	1126.75
356.626	1389.75
356.853	1694.75
357.08	1785.75
357.307	1838.75
357.534	1406.75
357.761	1487.75
357.988	1855.75
358.215	2137.75
358.441	2066.75
358.668	1676.75
358.895	1557.75
359.122	1270.75
359.349	1257.75
359.576	1384.75
359.802	1124.75
360.029	992.75
360.256	1071.75
360.483	1359.75
360.709	1696.75
360.936	1740.75
361.163	1491.75
361.39	1193.75
361.616	1082.75
361.843	1282.75
362.07	1598.75
362.296	1435.75
362.523	1122.75
362.749	956.75
362.976	1022.75
363.203	1270.75
363.429	1406.75
363.656	1134.75
363.882	1043.75
364.109	1052.75
364.335	1027.75
364.562	998.75
364.788	1144.75
365.015	1356.75
365.241	1207.75
365.468	978.75
365.694	862.75
365.92	841.75
366.147	825.75
366.373	823.75
366.599	798.75
366.826	820.75
367.052	845.75
367.278	865.75
367.505	836.75
367.731	917.75
367.957	1031.75
368.184	1059.75
368.41	1048.75
368.636	1069.75
368.862	1120.75
369.089	1078.75
369.315	969.75
369.541	930.75
369.767	888.75
369.993	865.75
370.219	894.75
370.445	986.75
370.672	1026.75
370.898	1144.75
371.124	1145.75
371.35	978.75
371.576	936.75
371.802	992.75
372.028	1188.75
372.254	1416.75
372.48	1180.75
372.706	1071.75
372.932	1144.75
373.158	1192.75
373.384	1423.75
373.61	1924.75
373.835	1922.75
374.061	1440.75
374.287	1237.75
374.513	1452.75
374.739	1754.75
374.965	1808.75
375.191	1734.75
375.416	1213.75
375.642	1071.75
375.868	1257.75
376.094	1412.75
376.319	1195.75
376.545	1342.75
376.771	1412.75
376.997	1184.75
377.222	894.75
377.448	750.75
377.674	782.75
377.899	753.75
378.125	777.75
378.35	792.75
378.576	814.75
378.802	871.75
379.027	1002.75
379.253	934.75
379.478	925.75
379.704	1061.75
379.929	1126.75
380.155	1123.75
380.38	973.75
380.606	1007.75
380.831	1130.75
381.057	1034.75
381.282	1033.75
381.507	1219.75
381.733	1538.75
381.958	1595.75
382.184	1716.75
382.409	1782.75
382.634	1721.75
382.86	1860.75
383.085	1469.75
383.31	1157.75
383.535	1270.75
383.761	1286.75
383.986	1203.75
384.211	1473.75
384.436	1450.75
384.662	1092.75
384.887	1028.75
385.112	1061.75
385.337	1111.75
385.562	1037.75
385.787	1134.75
386.013	1284.75
386.238	1333.75
386.463	1040.75
386.688	1008.75
386.913	1002.75
387.138	944.75
387.363	1000.75
387.588	1023.75
387.813	1036.75
388.038	1128.75
388.263	1010.75
388.488	1006.75
388.713	1153.75
388.938	1244.75
389.163	1026.75
389.387	948.75
389.612	944.75
389.837	990.75
390.062	980.75
390.287	1037.75
390.512	1042.75
390.736	972.75
390.961	907.75
391.186	864.75
391.411	852.75
391.636	872.75
391.86	926.75
392.085	1050.75
392.31	1032.75
392.534	1019.75
392.759	975.75
392.984	1012.75
393.208	991.75
393.433	875.75
393.658	834.75
393.882	811.75
394.107	807.75
394.331	818.75
394.556	798.75
394.78	838.75
395.005	866.75
395.229	895.75
395.454	892.75
395.678	929.75
395.903	937.75
396.127	904.75
396.352	938.75
396.576	1010.75
396.801	1074.75
397.025	1144.75
397.249	1175.75
397.474	964.75
397.698	958.75
397.922	1018.75
398.147	944.75
398.371	969.75
398.595	974.75
398.82	942.75
399.044	962.75
399.268	1029.75
399.492	1053.75
399.717	1091.75
399.941	1121.75
400.165	1056.75
400.389	1058.75
400.613	1075.75
400.837	1048.75
401.062	919.75
401.286	935.75
401.51	936.75
401.734	926.75
401.958	922.75
402.182	909.75
402.406	934.75
402.63	960.75
402.854	940.75
403.078	1120.75
403.302	1330.75
403.526	1387.75
403.75	1242.75
403.974	1073.75
404.198	1137.75
404.422	1281.75
404.645	1501.75
404.869	1650.75
405.093	1208.75
405.317	1038.75
405.541	994.75
405.765	1042.75
405.988	1046.75
406.212	1128.75
406.436	1353.75
406.66	1489.75
406.883	1147.75
407.107	1191.75
407.331	1402.75
407.555	1361.75
407.778	1137.75
408.002	1092.75
408.226	1106.75
408.449	1085.75
408.673	1050.75
408.896	968.75
409.12	942.75
409.344	923.75
409.567	909.75
409.791	882.75
410.014	894.75
410.238	934.75
410.461	914.75
410.685	923.75
410.908	927.75
411.132	967.75
411.355	968.75
411.578	972.75
411.802	995.75
412.025	1010.75
412.249	1015.75
412.472	995.75
412.695	958.75
412.919	970.75
413.142	993.75
413.365	1072.75
413.589	1053.75
413.812	991.75
414.035	966.75
414.258	970.75
414.482	1075.75
414.705	1102.75
414.928	918.75
415.151	930.75
415.374	874.75
415.597	964.75
415.821	958.75
416.044	899.75
416.267	901.75
416.49	888.75
416.713	892.75
416.936	873.75
417.159	868.75
417.382	896.75
417.605	908.75
417.828	940.75
418.051	906.75
418.274	968.75
418.497	949.75
418.72	955.75
418.943	969.75
419.166	1022.75
419.389	1057.75
419.611	1033.75
419.834	1048.75
420.057	1121.75
420.28	1122.75
420.503	1051.75
420.726	895.75
420.948	892.75
421.171	914.75
421.394	901.75
421.617	880.75
421.839	904.75
422.062	971.75
422.285	955.75
422.507	966.75
422.73	987.75
422.953	988.75
423.175	946.75
423.398	961.75
423.621	1032.75
423.843	1096.75
424.066	1006.75
424.288	921.75
424.511	928.75
424.733	932.75
424.956	974.75
425.178	1126.75
425.401	1266.75
425.623	1479.75
425.846	1225.75
426.068	1048.75
426.291	1160.75
426.513	1075.75
426.735	934.75
426.958	1042.75
427.18	1196.75
427.402	1553.75
427.625	1518.75
427.847	1258.75
428.069	930.75
428.292	915.75
428.514	912.75
428.736	889.75
428.958	965.75
429.181	1169.75
429.403	1012.75
429.625	917.75
429.847	870.75
430.069	923.75
430.292	927.75
430.514	906.75
430.736	944.75
430.958	1236.75
431.18	1129.75
431.402	856.75
431.624	827.75
431.846	832.75
432.068	818.75
432.29	860.75
432.512	927.75
432.734	1280.75
432.956	1164.75
433.178	875.75
433.4	863.75
433.622	869.75
433.844	908.75
434.066	959.75
434.287	948.75
434.509	877.75
434.731	944.75
434.953	873.75
435.175	925.75
435.397	1039.75
435.618	923.75
435.84	845.75
436.062	846.75
436.284	844.75
436.505	823.75
436.727	786.75
436.949	809.75
437.17	849.75
437.392	884.75
437.614	836.75
437.835	839.75
438.057	845.75
438.278	1016.75
438.5	1456.75
438.721	1449.75
438.943	970.75
439.165	855.75
439.386	770.75
439.608	807.75
439.829	795.75
440.05	825.75
440.272	884.75
440.493	1050.75
440.715	1292.75
440.936	1015.75
441.158	868.75
441.379	912.75
441.6	1034.75
441.822	1103.75
442.043	904.75
442.264	901.75
442.486	908.75
442.707	859.75
442.928	894.75
443.149	902.75
443.371	910.75
443.592	938.75
443.813	925.75
444.034	916.75
444.255	925.75
444.476	999.75
444.698	971.75
444.919	944.75
445.14	1097.75
445.361	1056.75
445.582	966.75
445.803	936.75
446.024	967.75
446.245	943.75
446.466	920.75
446.687	880.75
446.908	891.75
447.129	840.75
447.35	830.75
447.571	826.75
447.792	803.75
448.013	808.75
448.234	793.75
448.455	799.75
448.675	800.75
448.896	797.75
449.117	809.75
449.338	826.75
449.559	821.75
449.779	882.75
450	895.75
450.221	850.75
450.442	834.75
450.662	817.75
450.883	815.75
451.104	820.75
451.324	793.75
451.545	805.75
451.766	816.75
451.986	788.75
452.207	797.75
452.428	795.75
452.648	795.75
452.869	841.75
453.089	885.75
453.31	857.75
453.53	760.75
453.751	773.75
453.971	795.75
454.192	772.75
454.412	818.75
454.633	764.75
454.853	798.75
455.073	762.75
455.294	760.75
455.514	726.75
455.734	804.75
455.955	792.75
456.175	838.75
456.395	771.75
456.616	717.75
456.836	708.75
457.056	737.75
457.276	710.75
457.497	696.75
457.717	760.75
457.937	768.75
458.157	737.75
458.377	755.75
458.598	776.75
458.818	785.75
459.038	830.75
459.258	841.75
459.478	865.75
459.698	906.75
459.918	932.75
460.138	880.75
460.358	894.75
460.578	876.75
460.798	906.75
461.018	894.75
461.238	869.75
461.458	868.75
461.678	925.75
461.898	970.75
462.118	972.75
462.338	959.75
462.558	990.75
462.777	1029.75
462.997	1012.75
463.217	1008.75
463.437	1078.75
463.657	1022.75
463.876	972.75
464.096	989.75
464.316	984.75
464.536	1003.75
464.755	1059.75
464.975	1057.75
465.195	982.75
465.414	1024.75
465.634	956.75
465.854	965.75
466.073	894.75
466.293	880.75
466.512	944.75
466.732	1035.75
466.951	1080.75
467.171	968.75
467.391	895.75
467.61	858.75
467.829	936.75
468.049	965.75
468.268	887.75
468.488	872.75
468.707	932.75
468.927	1085.75
469.146	1158.75
469.365	1053.75
469.585	942.75
469.804	1034.75
470.023	1126.75
470.243	985.75
470.462	961.75
470.681	945.75
470.901	917.75
471.12	1036.75
471.339	965.75
471.558	934.75
471.777	960.75
471.997	1030.75
472.216	1156.75
472.435	1097.75
472.654	996.75
472.873	974.75
473.092	1006.75
473.311	1096.75
473.53	984.75
473.749	953.75
473.968	989.75
474.187	987.75
474.406	971.75
474.625	949.75
474.844	978.75
475.063	1023.75
475.282	1042.75
475.501	1111.75
475.72	1152.75
475.939	1118.75
476.158	1122.75
476.377	1304.75
476.596	1460.75
476.814	1510.75
477.033	1280.75
477.252	1070.75
477.471	1025.75
477.69	997.75
477.908	1093.75
478.127	1197.75
478.346	1064.75
478.564	1155.75
478.783	1078.75
479.002	1117.75
479.22	1300.75
479.439	1408.75
479.658	1242.75
479.876	1130.75
480.095	1222.75
480.313	1278.75
480.532	1179.75
480.751	1105.75
480.969	1122.75
481.188	1267.75
481.406	1316.75
481.624	1262.75
481.843	1132.75
482.061	1078.75
482.28	1210.75
482.498	1492.75
482.717	1416.75
482.935	1213.75
483.153	1147.75
483.372	1082.75
483.59	1080.75
483.808	1097.75
484.027	1012.75
484.245	1001.75
484.463	986.75
484.681	1023.75
484.9	1150.75
485.118	1206.75
485.336	1134.75
485.554	1085.75
485.772	1079.75
485.99	1186.75
486.209	1278.75
486.427	1251.75
486.645	1217.75
486.863	1266.75
487.081	1265.75
487.299	1394.75
487.517	1372.75
487.735	1268.75
487.953	1274.75
488.171	1276.75
488.389	1182.75
488.607	1130.75
488.825	1206.75
489.043	1302.75
489.261	1473.75
489.479	1607.75
489.696	1312.75
489.914	1216.75
490.132	1128.75
490.35	1122.75
490.568	1134.75
490.786	1148.75
491.003	1157.75
491.221	1180.75
491.439	1185.75
491.657	1176.75
491.874	1230.75
492.092	1530.75
492.31	1833.75
492.527	1833.75
492.745	1559.75
492.963	1367.75
493.18	1316.75
493.398	1304.75
493.615	1321.75
493.833	1300.75
494.05	1262.75
494.268	1266.75
494.485	1242.75
494.703	1184.75
494.92	1261.75
495.138	1233.75
495.355	1229.75
495.573	1259.75
495.79	1450.75
496.008	1888.75
496.225	1603.75
496.442	1385.75
496.66	1413.75
496.877	1512.75
497.094	1436.75
497.312	1329.75
497.529	1358.75
497.746	1390.75
497.963	1411.75
498.181	1566.75
498.398	1614.75
498.615	1720.75
498.832	1736.75
499.049	1675.75
499.267	1590.75
499.484	1565.75
499.701	1652.75
499.918	1775.75
500.135	1895.75
500.352	1930.75
500.569	2055.75
500.786	2088.75
501.003	2087.75
501.22	1892.75
501.437	1733.75
501.654	1705.75
501.871	1674.75
502.088	1683.75
502.305	1525.75
502.522	1518.75
502.739	1510.75
502.956	1379.75
503.172	1412.75
503.389	1348.75
503.606	1286.75
503.823	1347.75
504.04	1339.75
504.256	1341.75
504.473	1375.75
504.69	1405.75
504.907	1387.75
505.123	1410.75
505.34	1464.75
505.557	1430.75
505.773	1353.75
505.99	1314.75
506.207	1340.75
506.423	1266.75
506.64	1204.75
506.856	1301.75
507.073	1386.75
507.289	1368.75
507.506	1354.75
507.722	1442.75
507.939	1462.75
508.155	1479.75
508.372	1332.75
508.588	1309.75
508.805	1269.75
509.021	1255.75
509.238	1225.75
509.454	1168.75
509.67	1220.75
509.887	1217.75
510.103	1371.75
510.319	1324.75
510.536	1175.75
510.752	1119.75
510.968	1080.75
511.184	1066.75
511.401	1042.75
511.617	1051.75
511.833	1059.75
512.049	1046.75
512.265	1098.75
512.481	1136.75
512.698	1252.75
512.914	1395.75
513.13	1260.75
513.346	1146.75
513.562	1211.75
513.778	1190.75
513.994	1192.75
514.21	1276.75
514.426	1236.75
514.642	1164.75
514.858	1170.75
515.074	1206.75
515.29	1278.75
515.506	1458.75
515.721	1365.75
515.937	1268.75
516.153	1219.75
516.369	1185.75
516.585	1225.75
516.801	1398.75
517.016	1648.75
517.232	1592.75
517.448	1570.75
517.664	1394.75
517.879	1330.75
518.095	1306.75
518.311	1281.75
518.527	1342.75
518.742	1421.75
518.958	1510.75
519.173	1440.75
519.389	1396.75
519.605	1463.75
519.82	1511.75
520.036	1757.75
520.251	1716.75
520.467	1621.75
520.682	2501.75
520.898	3031.75
521.113	2867.75
521.329	1770.75
521.544	1558.75
521.76	1523.75
521.975	1376.75
522.19	1303.75
522.406	1331.75
522.621	1536.75
522.836	1574.75
523.052	1605.75
523.267	1313.75
523.482	1342.75
523.698	1422.75
523.913	1367.75
524.128	1274.75
524.343	1199.75
524.559	1202.75
524.774	1144.75
524.989	1174.75
525.204	1225.75
525.419	1379.75
525.634	1240.75
525.849	1306.75
526.064	1305.75
526.28	1294.75
526.495	1507.75
526.71	1548.75
526.925	1394.75
527.14	1432.75
527.355	1413.75
527.57	1181.75
527.785	1231.75
527.999	1122.75
528.214	1086.75
528.429	1112.75
528.644	1112.75
528.859	1045.75
529.074	1045.75
529.289	1037.75
529.503	1044.75
529.718	1051.75
529.933	1225.75
530.148	1243.75
530.363	1059.75
530.577	1054.75
530.792	1042.75
531.007	1024.75
531.221	979.75
531.436	997.75
531.651	986.75
531.865	1020.75
532.08	1057.75
532.295	1004.75
532.509	1027.75
532.724	1236.75
532.938	1372.75
533.153	1573.75
533.367	1237.75
533.582	1187.75
533.796	1104.75
534.011	1054.75
534.225	1100.75
534.44	1124.75
534.654	1110.75
534.868	1288.75
535.083	1151.75
535.297	1029.75
535.511	1031.75
535.726	1179.75
535.94	1093.75
536.154	1036.75
536.369	994.75
536.583	1037.75
536.797	1043.75
537.011	1058.75
537.225	1149.75
537.44	1235.75
537.654	1046.75
537.868	1049.75
538.082	1051.75
538.296	1055.75
538.51	1091.75
538.724	1124.75
538.938	1065.75
539.153	1006.75
539.367	964.75
539.581	1035.75
539.795	1072.75
540.009	1193.75
540.222	1060.75
540.436	1072.75
540.65	1162.75
540.864	1216.75
541.078	1200.75
541.292	1357.75
541.506	1128.75
541.72	1088.75
541.934	1070.75
542.147	1067.75
542.361	1028.75
542.575	1111.75
542.789	1041.75
543.002	996.75
543.216	1111.75
543.43	962.75
543.644	974.75
543.857	924.75
544.071	936.75
544.285	951.75
544.498	928.75
544.712	937.75
544.925	1028.75
545.139	976.75
545.352	923.75
545.566	951.75
545.779	1074.75
545.993	986.75
546.206	888.75
546.42	888.75
546.633	899.75
546.847	882.75
547.06	870.75
547.274	878.75
547.487	910.75
547.7	982.75
547.914	1034.75
548.127	1131.75
548.34	1086.75
548.554	964.75
548.767	1024.75
548.98	1067.75
549.193	990.75
549.407	989.75
549.62	1200.75
549.833	1119.75
550.046	1173.75
550.259	1166.75
550.473	1041.75
550.686	997.75
550.899	1014.75
551.112	986.75
551.325	1077.75
551.538	1124.75
551.751	970.75
551.964	881.75
552.177	892.75
552.39	893.75
552.603	906.75
552.816	953.75
553.029	908.75
553.242	883.75
553.455	955.75
553.667	1047.75
553.88	984.75
554.093	910.75
554.306	839.75
554.519	796.75
554.732	788.75
554.944	814.75
555.157	818.75
555.37	781.75
555.583	771.75
555.795	792.75
556.008	818.75
556.221	831.75
556.433	811.75
556.646	802.75
556.859	800.75
557.071	834.75
557.284	832.75
557.496	833.75
557.709	818.75
557.921	828.75
558.134	767.75
558.346	738.75
558.559	766.75
558.771	774.75
558.984	875.75
559.196	780.75
559.409	736.75
559.621	694.75
559.833	718.75
560.046	724.75
560.258	737.75
560.47	792.75
560.683	729.75
560.895	688.75
561.107	707.75
561.32	693.75
561.532	691.75
561.744	784.75
561.956	808.75
562.168	731.75
562.381	724.75
562.593	764.75
562.805	759.75
563.017	707.75
563.229	692.75
563.441	678.75
563.653	678.75
563.865	690.75
564.077	711.75
564.289	674.75
564.501	693.75
564.713	747.75
564.925	747.75
565.137	721.75
565.349	711.75
565.561	740.75
565.773	737.75
565.985	773.75
566.197	800.75
566.408	859.75
566.62	888.75
566.832	848.75
567.044	851.75
567.255	925.75
567.467	998.75
567.679	899.75
567.891	900.75
568.102	881.75
568.314	911.75
568.526	847.75
568.737	851.75
568.949	871.75
569.161	785.75
569.372	718.75
569.584	716.75
569.795	683.75
570.007	721.75
570.218	768.75
570.43	736.75
570.641	704.75
570.853	693.75
571.064	667.75
571.276	700.75
571.487	745.75
571.698	674.75
571.91	664.75
572.121	688.75
572.333	650.75
572.544	624.75
572.755	649.75
572.966	638.75
573.178	609.75
573.389	685.75
573.6	635.75
573.811	635.75
574.023	597.75
574.234	597.75
574.445	595.75
574.656	574.75
574.867	590.75
575.078	578.75
575.289	593.75
575.501	623.75
575.712	586.75
575.923	578.75
576.134	554.75
576.345	559.75
576.556	584.75
576.767	547.75
576.978	543.75
577.188	514.75
577.399	516.75
577.61	519.75
577.821	544.75
578.032	570.75
578.243	600.75
578.454	584.75
578.665	576.75
578.875	571.75
579.086	556.75
579.297	587.75
579.508	580.75
579.718	560.75
579.929	559.75
580.14	550.75
580.35	510.75
580.561	481.75
580.772	474.75
580.982	495.75
581.193	491.75
581.403	475.75
581.614	483.75
581.825	468.75
582.035	473.75
582.246	486.75
582.456	505.75
582.667	484.75
582.877	498.75
583.087	484.75
583.298	466.75
583.508	472.75
583.719	467.75
583.929	464.75
584.139	472.75
584.35	483.75
584.56	512.75
584.77	480.75
584.981	507.75
585.191	473.75
585.401	487.75
585.611	473.75
585.821	492.75
586.032	506.75
586.242	470.75
586.452	483.75
586.662	479.75
586.872	513.75
587.082	522.75
587.292	496.75
587.502	479.75
587.713	453.75
587.923	464.75
588.133	503.75
588.343	485.75
588.553	462.75
588.762	467.75
588.972	440.75
589.182	478.75
589.392	448.75
589.602	479.75
589.812	503.75
590.022	520.75
590.232	503.75
590.441	478.75
590.651	465.75
590.861	465.75
591.071	476.75
591.281	460.75
591.49	427.75
591.7	473.75
591.91	460.75
592.119	473.75
592.329	471.75
592.539	470.75
592.748	464.75
592.958	478.75
593.167	464.75
593.377	513.75
593.587	483.75
593.796	488.75
594.006	481.75
594.215	496.75
594.424	480.75
594.634	512.75
594.843	480.75
595.053	494.75
595.262	453.75
595.472	453.75
595.681	448.75
595.89	418.75
596.1	443.75
596.309	464.75
596.518	426.75
596.727	420.75
596.937	427.75
597.146	453.75
597.355	477.75
597.564	447.75
597.774	433.75
597.983	420.75
598.192	419.75
598.401	420.75
598.61	408.75
598.819	409.75
599.028	405.75
599.237	406.75
599.446	392.75
599.655	393.75
599.864	378.75
600.073	379.75
600.282	382.75
600.491	389.75
600.7	395.75
600.909	384.75
601.118	394.75
601.327	379.75
601.536	384.75
601.745	402.75
601.953	412.75
602.162	388.75
602.371	394.75
602.58	419.75
602.789	402.75
602.997	393.75
603.206	380.75
603.415	405.75
603.623	375.75
603.832	369.75
604.041	376.75
604.249	381.75
604.458	386.75
604.666	369.75
604.875	366.75
605.084	354.75
605.292	359.75
605.501	374.75
605.709	373.75
605.918	383.75
606.126	345.75
606.334	378.75
606.543	370.75
606.751	351.75
606.96	342.75
607.168	337.75
607.376	346.75
607.585	326.75
607.793	357.75
608.001	354.75
608.21	356.75
608.418	369.75
608.626	368.75
608.834	350.75
609.043	334.75
609.251	339.75
609.459	355.75
609.667	361.75
609.875	352.75
610.083	355.75
610.291	366.75
610.499	348.75
610.707	332.75
610.916	340.75
611.124	347.75
611.332	332.75
611.54	353.75
611.748	338.75
611.955	340.75
612.163	349.75
612.371	331.75
612.579	325.75
612.787	335.75
612.995	344.75
613.203	342.75
613.411	329.75
613.618	335.75
613.826	344.75
614.034	357.75
614.242	338.75
614.449	332.75
614.657	335.75
614.865	320.75
615.072	321.75
615.28	331.75
615.488	329.75
615.695	334.75
615.903	335.75
616.111	343.75
616.318	328.75
616.526	335.75
616.733	331.75
616.941	315.75
617.148	324.75
617.356	325.75
617.563	309.75
617.771	326.75
617.978	323.75
618.185	311.75
618.393	319.75
618.6	339.75
618.807	316.75
619.015	318.75
619.222	314.75
619.429	306.75
619.637	315.75
619.844	309.75
620.051	315.75
620.258	316.75
620.466	313.75
620.673	295.75
620.88	296.75
621.087	283.75
621.294	320.75
621.501	298.75
621.708	292.75
621.915	312.75
622.122	311.75
622.329	293.75
622.536	286.75
622.743	302.75
622.95	295.75
623.157	293.75
623.364	319.75
623.571	308.75
623.778	318.75
623.985	305.75
624.192	319.75
624.399	332.75
624.606	292.75
624.812	278.75
625.019	296.75
625.226	320.75
625.433	305.75
625.639	298.75
625.846	289.75
626.053	259.75
626.259	276.75
626.466	295.75
626.673	295.75
626.879	299.75
627.086	281.75
627.293	275.75
627.499	281.75
627.706	286.75
627.912	288.75
628.119	266.75
628.325	278.75
628.532	267.75
628.738	288.75
628.945	283.75
629.151	281.75
629.357	263.75
629.564	277.75
629.77	266.75
629.976	253.75
630.183	257.75
630.389	258.75
630.595	259.75
630.802	260.75
631.008	255.75
631.214	257.75
631.42	258.75
631.627	248.75
631.833	268.75
632.039	258.75
632.245	240.75
632.451	248.75
632.657	269.75
632.863	256.75
633.069	238.75
633.275	247.75
633.481	250.75
633.688	233.75
633.893	278.75
634.099	245.75
634.305	245.75
634.511	246.75
634.717	246.75
634.923	235.75
635.129	243.75
635.335	224.75
635.541	244.75
635.747	233.75
635.952	224.75
636.158	240.75
636.364	238.75
636.57	256.75
636.775	245.75
636.981	227.75
637.187	243.75
637.392	233.75
637.598	214.75
637.804	234.75
638.009	206.75
638.215	231.75
638.421	243.75
638.626	227.75
638.832	220.75
639.037	233.75
639.243	217.75
639.448	230.75
639.654	236.75
639.859	232.75
640.065	242.75
640.27	254.75
640.475	240.75
640.681	220.75
640.886	226.75
641.091	211.75
641.297	245.75
641.502	226.75
641.707	216.75
641.913	236.75
642.118	239.75
642.323	230.75
642.528	212.75
642.733	228.75
642.939	211.75
643.144	214.75
643.349	215.75
643.554	219.75
643.759	201.75
643.964	218.75
644.169	214.75
644.374	214.75
644.579	228.75
644.784	214.75
644.989	202.75
645.194	210.75
645.399	220.75
645.604	215.75
645.809	220.75
646.014	218.75
646.219	236.75
646.423	222.75
646.628	214.75
646.833	206.75
647.038	210.75
647.243	208.75
647.447	209.75
647.652	221.75
647.857	219.75
648.062	213.75
648.266	214.75
648.471	212.75
648.676	203.75
648.88	226.75
649.085	203.75
649.289	211.75
649.494	206.75
649.698	241.75
649.903	225.75
650.107	189.75
650.312	200.75
650.516	194.75
650.721	198.75
650.925	184.75
651.13	186.75
651.334	200.75
651.539	178.75
651.743	185.75
651.947	193.75
652.152	196.75
652.356	174.75
652.56	186.75
652.764	175.75
652.969	176.75
653.173	180.75
653.377	174.75
653.581	162.75
653.785	169.75
653.99	167.75
654.194	168.75
654.398	167.75
654.602	171.75
654.806	168.75
655.01	171.75
655.214	159.75
655.418	148.75
655.622	147.75
655.826	181.75
656.03	174.75
656.234	174.75
656.438	162.75
656.642	164.75
656.846	175.75
657.049	160.75
657.253	134.75
657.457	150.75
657.661	151.75
657.865	128.75
658.068	140.75
658.272	126.75
658.476	106.75
658.68	130.75
658.883	121.75
659.087	108.75
659.291	111.75
659.494	121.75
659.698	116.75
659.901	117.75
660.105	91.75
660.309	108.75
660.512	114.75
660.716	120.75
660.919	96.75
661.123	107.75
661.326	102.75
661.53	93.75
661.733	117.75
661.936	88.75
662.14	103.75
662.343	99.75
662.546	83.75
662.75	102.75
662.953	99.75
663.156	83.75
663.36	81.75
663.563	106.75
663.766	91.75
663.969	99.75
664.173	91.75
664.376	81.75
664.579	80.75
664.782	75.75
664.985	85.75
665.188	74.75
665.391	94.75
665.594	93.75
665.797	82.75
666	85.75
666.203	90.75
666.406	81.75
666.609	80.75
666.812	76.75
667.015	82.75
667.218	88.75
667.421	95.75
667.624	75.75
667.827	78.75
668.03	96.75
668.232	81.75
668.435	79.75
668.638	104.75
668.841	92.75
669.043	84.75
669.246	91.75
669.449	81.75
669.651	92.75
669.854	75.75
670.057	88.75
670.259	83.75
670.462	93.75
670.665	91.75
670.867	86.75
671.07	85.75
671.272	99.75
671.475	102.75
671.677	80.75
671.88	79.75
672.082	87.75
672.284	81.75
672.487	84.75
672.689	82.75
672.892	84.75
