Data from NickelSpatula.Lamp.E10.P2_HRD10591_11-56-55-534.txt Node
Date: Tue Jul 23 11:56:55 EDT 2019
User: cochatt
Spectrometer: HR+D1059
Trigger mode: 1
Integration Time (sec): 1.000000E-1
Scans to average: 1
Electric dark correction enabled: true
Nonlinearity correction enabled: false
Boxcar width: 0
XAxis mode: Wavelengths
Number of Pixels in Spectrum: 2048
>>>>>Begin Spectral Data<<<<<
223.165	-8.31
223.4	-8.31
223.635	-8.31
223.869	-25.31
224.104	-14.31
224.338	-13.31
224.573	-12.31
224.808	-16.31
225.042	2.69
225.277	-1.31
225.511	-20.31
225.746	13.69
225.98	2.69
226.215	-0.31
226.449	10.69
226.683	25.69
226.918	36.69
227.152	19.69
227.387	51.69
227.621	43.69
227.856	38.69
228.09	41.69
228.324	53.69
228.559	53.69
228.793	89.69
229.027	136.69
229.262	154.69
229.496	162.69
229.73	160.69
229.964	178.69
230.199	207.69
230.433	206.69
230.667	191.69
230.901	182.69
231.136	189.69
231.37	184.69
231.604	212.69
231.838	225.69
232.072	241.69
232.306	236.69
232.541	229.69
232.775	242.69
233.009	244.69
233.243	284.69
233.477	290.69
233.711	315.69
233.945	306.69
234.179	298.69
234.413	340.69
234.647	366.69
234.881	435.69
235.115	401.69
235.349	374.69
235.583	336.69
235.817	342.69
236.051	348.69
236.285	392.69
236.519	431.69
236.753	418.69
236.987	415.69
237.221	383.69
237.455	414.69
237.689	397.69
237.922	446.69
238.156	451.69
238.39	524.69
238.624	620.69
238.858	553.69
239.091	468.69
239.325	482.69
239.559	452.69
239.793	503.69
240.027	617.69
240.26	572.69
240.494	535.69
240.728	566.69
240.961	650.69
241.195	595.69
241.429	591.69
241.662	569.69
241.896	509.69
242.13	444.69
242.363	442.69
242.597	457.69
242.83	532.69
243.064	529.69
243.298	546.69
243.531	587.69
243.765	601.69
243.998	603.69
244.232	559.69
244.465	566.69
244.699	530.69
244.932	631.69
245.166	603.69
245.399	531.69
245.633	507.69
245.866	553.69
246.099	603.69
246.333	686.69
246.566	706.69
246.8	733.69
247.033	706.69
247.266	635.69
247.5	640.69
247.733	632.69
247.966	648.69
248.2	633.69
248.433	698.69
248.666	760.69
248.899	755.69
249.133	792.69
249.366	906.69
249.599	960.69
249.832	905.69
250.066	777.69
250.299	791.69
250.532	768.69
250.765	762.69
250.998	716.69
251.231	683.69
251.465	735.69
251.698	774.69
251.931	762.69
252.164	773.69
252.397	864.69
252.63	967.69
252.863	1064.69
253.096	1101.69
253.329	1047.69
253.562	1010.69
253.795	1154.69
254.028	1260.69
254.261	1307.69
254.494	1168.69
254.727	1058.69
254.96	1039.69
255.193	1099.69
255.426	1108.69
255.659	816.69
255.892	772.69
256.124	842.69
256.357	980.69
256.59	1121.69
256.823	1075.69
257.056	917.69
257.289	876.69
257.521	931.69
257.754	1060.69
257.987	1241.69
258.22	1062.69
258.452	937.69
258.685	1084.69
258.918	1247.69
259.151	1170.69
259.383	1267.69
259.616	1456.69
259.849	1494.69
260.081	1605.69
260.314	1790.69
260.547	1370.69
260.779	1408.69
261.012	1621.69
261.244	1510.69
261.477	1543.69
261.71	1410.69
261.942	1193.69
262.175	1249.69
262.407	1170.69
262.64	1190.69
262.872	1376.69
263.105	1531.69
263.337	1666.69
263.57	1472.69
263.802	1003.69
264.035	886.69
264.267	868.69
264.499	732.69
264.732	686.69
264.964	637.69
265.197	677.69
265.429	728.69
265.661	785.69
265.894	836.69
266.126	891.69
266.358	987.69
266.591	1214.69
266.823	1422.69
267.055	1370.69
267.287	1234.69
267.52	1205.69
267.752	1265.69
267.984	1364.69
268.216	1359.69
268.448	1091.69
268.681	1046.69
268.913	1159.69
269.145	1246.69
269.377	1271.69
269.609	1254.69
269.841	1190.69
270.073	1265.69
270.306	1337.69
270.538	1339.69
270.77	1363.69
271.002	1374.69
271.234	1441.69
271.466	1401.69
271.698	1355.69
271.93	1290.69
272.162	1312.69
272.394	1268.69
272.626	1305.69
272.858	1363.69
273.09	1382.69
273.322	1208.69
273.553	1172.69
273.785	1342.69
274.017	1783.69
274.249	2237.69
274.481	2316.69
274.713	2538.69
274.945	2893.69
275.176	3010.69
275.408	2637.69
275.64	2464.69
275.872	2414.69
276.104	2075.69
276.335	1812.69
276.567	1807.69
276.799	1885.69
277.031	1918.69
277.262	1507.69
277.494	1198.69
277.726	1160.69
277.957	1233.69
278.189	1414.69
278.421	1380.69
278.652	1361.69
278.884	1309.69
279.115	1213.69
279.347	1149.69
279.579	1115.69
279.81	1154.69
280.042	1148.69
280.273	1191.69
280.505	1072.69
280.736	979.69
280.968	995.69
281.199	1052.69
281.431	1214.69
281.662	1202.69
281.894	1146.69
282.125	1226.69
282.356	1319.69
282.588	1327.69
282.819	1180.69
283.051	1320.69
283.282	1622.69
283.513	1863.69
283.745	2097.69
283.976	2096.69
284.207	1898.69
284.439	1975.69
284.67	1904.69
284.901	1682.69
285.132	1841.69
285.364	1940.69
285.595	1756.69
285.826	1892.69
286.057	1898.69
286.288	1846.69
286.52	1891.69
286.751	2007.69
286.982	1998.69
287.213	1726.69
287.444	1657.69
287.675	1776.69
287.906	1753.69
288.138	1502.69
288.369	1329.69
288.6	1242.69
288.831	1330.69
289.062	1534.69
289.293	1663.69
289.524	1584.69
289.755	1529.69
289.986	1606.69
290.217	1387.69
290.448	1068.69
290.679	923.69
290.91	894.69
291.141	888.69
291.371	906.69
291.602	927.69
291.833	936.69
292.064	987.69
292.295	1170.69
292.526	1323.69
292.757	1366.69
292.987	1496.69
293.218	1526.69
293.449	1562.69
293.68	1640.69
293.91	1548.69
294.141	1591.69
294.372	1477.69
294.603	1370.69
294.833	1534.69
295.064	1827.69
295.295	1664.69
295.525	1246.69
295.756	1062.69
295.987	921.69
296.217	963.69
296.448	951.69
296.679	979.69
296.909	1097.69
297.14	1195.69
297.37	1294.69
297.601	1255.69
297.831	1078.69
298.062	1169.69
298.292	1315.69
298.523	1402.69
298.753	1562.69
298.984	1424.69
299.214	1150.69
299.445	992.69
299.675	937.69
299.905	922.69
300.136	930.69
300.366	1013.69
300.597	1019.69
300.827	909.69
301.057	892.69
301.288	902.69
301.518	953.69
301.748	1072.69
301.979	1156.69
302.209	1216.69
302.439	1219.69
302.669	1062.69
302.9	1119.69
303.13	1051.69
303.36	1017.69
303.59	1000.69
303.82	1049.69
304.051	1152.69
304.281	1239.69
304.511	1218.69
304.741	1076.69
304.971	1092.69
305.201	1182.69
305.431	1116.69
305.661	935.69
305.891	949.69
306.121	919.69
306.352	874.69
306.582	794.69
306.812	782.69
307.042	791.69
307.272	748.69
307.502	739.69
307.731	789.69
307.961	852.69
308.191	781.69
308.421	740.69
308.651	755.69
308.881	726.69
309.111	764.69
309.341	778.69
309.571	822.69
309.8	890.69
310.03	860.69
310.26	869.69
310.49	839.69
310.72	823.69
310.949	849.69
311.179	833.69
311.409	898.69
311.639	1030.69
311.868	1296.69
312.098	1689.69
312.328	1842.69
312.557	1734.69
312.787	1763.69
313.017	1560.69
313.246	1678.69
313.476	1855.69
313.706	1540.69
313.935	1228.69
314.165	1029.69
314.394	908.69
314.624	878.69
314.853	970.69
315.083	975.69
315.312	930.69
315.542	942.69
315.771	852.69
316.001	803.69
316.23	779.69
316.46	762.69
316.689	808.69
316.919	822.69
317.148	821.69
317.377	827.69
317.607	830.69
317.836	875.69
318.065	1031.69
318.295	1167.69
318.524	1074.69
318.753	913.69
318.983	868.69
319.212	840.69
319.441	916.69
319.67	991.69
319.9	1079.69
320.129	1074.69
320.358	898.69
320.587	872.69
320.816	923.69
321.046	1050.69
321.275	1161.69
321.504	1108.69
321.733	1106.69
321.962	1061.69
322.191	1008.69
322.42	927.69
322.649	969.69
322.878	1042.69
323.108	1048.69
323.337	987.69
323.566	984.69
323.795	946.69
324.024	903.69
324.253	900.69
324.482	878.69
324.71	932.69
324.939	1021.69
325.168	971.69
325.397	873.69
325.626	826.69
325.855	820.69
326.084	873.69
326.313	815.69
326.542	780.69
326.77	825.69
326.999	821.69
327.228	894.69
327.457	907.69
327.686	891.69
327.914	836.69
328.143	758.69
328.372	756.69
328.6	780.69
328.829	793.69
329.058	823.69
329.287	843.69
329.515	844.69
329.744	815.69
329.972	768.69
330.201	778.69
330.43	786.69
330.658	880.69
330.887	969.69
331.115	935.69
331.344	932.69
331.572	891.69
331.801	854.69
332.03	805.69
332.258	822.69
332.486	910.69
332.715	906.69
332.943	854.69
333.172	874.69
333.4	923.69
333.629	994.69
333.857	1054.69
334.085	1042.69
334.314	1050.69
334.542	985.69
334.771	926.69
334.999	883.69
335.227	872.69
335.455	883.69
335.684	962.69
335.912	1142.69
336.14	1215.69
336.369	1186.69
336.597	1147.69
336.825	1281.69
337.053	1404.69
337.281	1159.69
337.51	912.69
337.738	886.69
337.966	984.69
338.194	1063.69
338.422	1016.69
338.65	903.69
338.878	822.69
339.106	842.69
339.334	939.69
339.562	961.69
339.79	966.69
340.018	872.69
340.246	954.69
340.474	1063.69
340.702	1150.69
340.93	1183.69
341.158	1154.69
341.386	976.69
341.614	968.69
341.842	959.69
342.07	1057.69
342.298	1225.69
342.526	1250.69
342.754	1060.69
342.981	946.69
343.209	926.69
343.437	998.69
343.665	1057.69
343.893	1081.69
344.12	1203.69
344.348	1379.69
344.576	1282.69
344.804	1066.69
345.031	903.69
345.259	904.69
345.487	899.69
345.714	929.69
345.942	1002.69
346.17	1104.69
346.397	1043.69
346.625	903.69
346.853	847.69
347.08	857.69
347.308	919.69
347.535	1015.69
347.763	1020.69
347.99	914.69
348.218	859.69
348.445	895.69
348.673	898.69
348.9	885.69
349.128	926.69
349.355	938.69
349.583	927.69
349.81	891.69
350.037	854.69
350.265	779.69
350.492	748.69
350.72	727.69
350.947	743.69
351.174	787.69
351.402	835.69
351.629	881.69
351.856	842.69
352.083	782.69
352.311	854.69
352.538	924.69
352.765	939.69
352.992	883.69
353.22	847.69
353.447	869.69
353.674	841.69
353.901	807.69
354.128	855.69
354.355	864.69
354.583	885.69
354.81	870.69
355.037	912.69
355.264	884.69
355.491	899.69
355.718	949.69
355.945	966.69
356.172	934.69
356.399	920.69
356.626	1100.69
356.853	1298.69
357.08	1372.69
357.307	1410.69
357.534	1106.69
357.761	1162.69
357.988	1420.69
358.215	1593.69
358.441	1523.69
358.668	1283.69
358.895	1230.69
359.122	992.69
359.349	1006.69
359.576	1092.69
359.802	933.69
360.029	828.69
360.256	898.69
360.483	1065.69
360.709	1265.69
360.936	1330.69
361.163	1165.69
361.39	960.69
361.616	878.69
361.843	1016.69
362.07	1214.69
362.296	1116.69
362.523	912.69
362.749	807.69
362.976	888.69
363.203	987.69
363.429	1079.69
363.656	915.69
363.882	864.69
364.109	842.69
364.335	858.69
364.562	863.69
364.788	951.69
365.015	1060.69
365.241	1000.69
365.468	832.69
365.694	786.69
365.92	747.69
366.147	734.69
366.373	726.69
366.599	738.69
366.826	720.69
367.052	742.69
367.278	743.69
367.505	724.69
367.731	799.69
367.957	885.69
368.184	880.69
368.41	880.69
368.636	886.69
368.862	910.69
369.089	875.69
369.315	781.69
369.541	798.69
369.767	769.69
369.993	757.69
370.219	781.69
370.445	820.69
370.672	865.69
370.898	908.69
371.124	924.69
371.35	842.69
371.576	824.69
371.802	856.69
372.028	994.69
372.254	1078.69
372.48	986.69
372.706	855.69
372.932	936.69
373.158	962.69
373.384	1112.69
373.61	1436.69
373.835	1422.69
374.061	1106.69
374.287	978.69
374.513	1137.69
374.739	1303.69
374.965	1360.69
375.191	1336.69
375.416	997.69
375.642	878.69
375.868	986.69
376.094	1090.69
376.319	1000.69
376.545	1055.69
376.771	1119.69
376.997	982.69
377.222	790.69
377.448	694.69
377.674	719.69
377.899	715.69
378.125	727.69
378.35	704.69
378.576	726.69
378.802	734.69
379.027	827.69
379.253	796.69
379.478	835.69
379.704	872.69
379.929	930.69
380.155	942.69
380.38	823.69
380.606	898.69
380.831	938.69
381.057	902.69
381.282	850.69
381.507	989.69
381.733	1150.69
381.958	1229.69
382.184	1337.69
382.409	1334.69
382.634	1332.69
382.86	1369.69
383.085	1160.69
383.31	955.69
383.535	1030.69
383.761	1053.69
383.986	968.69
384.211	1136.69
384.436	1121.69
384.662	899.69
384.887	867.69
385.112	884.69
385.337	926.69
385.562	879.69
385.787	947.69
386.013	1032.69
386.238	1036.69
386.463	919.69
386.688	879.69
386.913	864.69
387.138	830.69
387.363	856.69
387.588	882.69
387.813	869.69
388.038	938.69
388.263	882.69
388.488	892.69
388.713	972.69
388.938	1027.69
389.163	905.69
389.387	851.69
389.612	822.69
389.837	843.69
390.062	886.69
390.287	916.69
390.512	918.69
390.736	843.69
390.961	835.69
391.186	806.69
391.411	806.69
391.636	814.69
391.86	856.69
392.085	893.69
392.31	890.69
392.534	879.69
392.759	883.69
392.984	863.69
393.208	890.69
393.433	790.69
393.658	766.69
393.882	750.69
394.107	760.69
394.331	764.69
394.556	753.69
394.78	777.69
395.005	784.69
395.229	817.69
395.454	807.69
395.678	798.69
395.903	862.69
396.127	803.69
396.352	823.69
396.576	892.69
396.801	897.69
397.025	955.69
397.249	977.69
397.474	875.69
397.698	872.69
397.922	896.69
398.147	867.69
398.371	879.69
398.595	898.69
398.82	895.69
399.044	923.69
399.268	928.69
399.492	999.69
399.717	1006.69
399.941	1066.69
400.165	1034.69
400.389	986.69
400.613	976.69
400.837	946.69
401.062	889.69
401.286	851.69
401.51	874.69
401.734	888.69
401.958	872.69
402.182	868.69
402.406	864.69
402.63	872.69
402.854	899.69
403.078	992.69
403.302	1204.69
403.526	1216.69
403.75	1136.69
403.974	986.69
404.198	999.69
404.422	1129.69
404.645	1232.69
404.869	1323.69
405.093	1059.69
405.317	968.69
405.541	908.69
405.765	963.69
405.988	947.69
406.212	1009.69
406.436	1157.69
406.66	1228.69
406.883	1034.69
407.107	1084.69
407.331	1213.69
407.555	1164.69
407.778	1018.69
408.002	1008.69
408.226	1032.69
408.449	1018.69
408.673	962.69
408.896	911.69
409.12	886.69
409.344	875.69
409.567	870.69
409.791	887.69
410.014	884.69
410.238	850.69
410.461	866.69
410.685	891.69
410.908	885.69
411.132	883.69
411.355	892.69
411.578	933.69
411.802	900.69
412.025	913.69
412.249	943.69
412.472	902.69
412.695	916.69
412.919	901.69
413.142	902.69
413.365	955.69
413.589	996.69
413.812	935.69
414.035	896.69
414.258	888.69
414.482	964.69
414.705	982.69
414.928	884.69
415.151	849.69
415.374	842.69
415.597	851.69
415.821	886.69
416.044	858.69
416.267	835.69
416.49	859.69
416.713	835.69
416.936	823.69
417.159	821.69
417.382	840.69
417.605	866.69
417.828	874.69
418.051	863.69
418.274	870.69
418.497	888.69
418.72	880.69
418.943	879.69
419.166	917.69
419.389	957.69
419.611	943.69
419.834	937.69
420.057	1008.69
420.28	1003.69
420.503	920.69
420.726	862.69
420.948	876.69
421.171	856.69
421.394	871.69
421.617	821.69
421.839	870.69
422.062	855.69
422.285	875.69
422.507	881.69
422.73	895.69
422.953	907.69
423.175	880.69
423.398	878.69
423.621	940.69
423.843	963.69
424.066	893.69
424.288	929.69
424.511	855.69
424.733	842.69
424.956	895.69
425.178	956.69
425.401	1066.69
425.623	1216.69
425.846	1022.69
426.068	936.69
426.291	977.69
426.513	959.69
426.735	907.69
426.958	913.69
427.18	1060.69
427.402	1289.69
427.625	1269.69
427.847	1079.69
428.069	873.69
428.292	865.69
428.514	860.69
428.736	846.69
428.958	895.69
429.181	1000.69
429.403	855.69
429.625	842.69
429.847	807.69
430.069	854.69
430.292	857.69
430.514	833.69
430.736	871.69
430.958	1034.69
431.18	986.69
431.402	809.69
431.624	782.69
431.846	810.69
432.068	744.69
432.29	790.69
432.512	837.69
432.734	1064.69
432.956	1026.69
433.178	845.69
433.4	824.69
433.622	822.69
433.844	822.69
434.066	897.69
434.287	881.69
434.509	836.69
434.731	830.69
434.953	815.69
435.175	850.69
435.397	979.69
435.618	869.69
435.84	826.69
436.062	801.69
436.284	816.69
436.505	766.69
436.727	770.69
436.949	791.69
437.17	834.69
437.392	849.69
437.614	820.69
437.835	801.69
438.057	804.69
438.278	884.69
438.5	1176.69
438.721	1174.69
438.943	875.69
439.165	806.69
439.386	779.69
439.608	781.69
439.829	766.69
440.05	778.69
440.272	807.69
440.493	915.69
440.715	1058.69
440.936	921.69
441.158	857.69
441.379	822.69
441.6	908.69
441.822	965.69
442.043	849.69
442.264	839.69
442.486	851.69
442.707	841.69
442.928	852.69
443.149	842.69
443.371	889.69
443.592	893.69
443.813	907.69
444.034	868.69
444.255	866.69
444.476	911.69
444.698	891.69
444.919	944.69
445.14	1018.69
445.361	1004.69
445.582	937.69
445.803	931.69
446.024	893.69
446.245	888.69
446.466	883.69
446.687	832.69
446.908	851.69
447.129	807.69
447.35	796.69
447.571	778.69
447.792	758.69
448.013	755.69
448.234	748.69
448.455	768.69
448.675	769.69
448.896	796.69
449.117	786.69
449.338	773.69
449.559	810.69
449.779	834.69
450	833.69
450.221	807.69
450.442	788.69
450.662	787.69
450.883	770.69
451.104	801.69
451.324	785.69
451.545	771.69
451.766	779.69
451.986	760.69
452.207	747.69
452.428	740.69
452.648	737.69
452.869	771.69
453.089	780.69
453.31	788.69
453.53	701.69
453.751	728.69
453.971	723.69
454.192	740.69
454.412	751.69
454.633	739.69
454.853	735.69
455.073	710.69
455.294	728.69
455.514	732.69
455.734	739.69
455.955	775.69
456.175	804.69
456.395	717.69
456.616	686.69
456.836	682.69
457.056	688.69
457.276	712.69
457.497	692.69
457.717	704.69
457.937	683.69
458.157	722.69
458.377	728.69
458.598	726.69
458.818	760.69
459.038	769.69
459.258	787.69
459.478	826.69
459.698	882.69
459.918	849.69
460.138	820.69
460.358	860.69
460.578	831.69
460.798	883.69
461.018	871.69
461.238	842.69
461.458	824.69
461.678	867.69
461.898	916.69
462.118	890.69
462.338	908.69
462.558	907.69
462.777	963.69
462.997	996.69
463.217	994.69
463.437	995.69
463.657	983.69
463.876	903.69
464.096	915.69
464.316	931.69
464.536	959.69
464.755	982.69
464.975	952.69
465.195	914.69
465.414	944.69
465.634	932.69
465.854	902.69
466.073	839.69
466.293	822.69
466.512	902.69
466.732	978.69
466.951	960.69
467.171	908.69
467.391	842.69
467.61	815.69
467.829	884.69
468.049	879.69
468.268	838.69
468.488	840.69
468.707	895.69
468.927	1028.69
469.146	1084.69
469.365	955.69
469.585	873.69
469.804	964.69
470.023	1064.69
470.243	918.69
470.462	898.69
470.681	896.69
470.901	858.69
471.12	917.69
471.339	918.69
471.558	880.69
471.777	916.69
471.997	931.69
472.216	1056.69
472.435	998.69
472.654	942.69
472.873	908.69
473.092	954.69
473.311	981.69
473.53	918.69
473.749	905.69
473.968	915.69
474.187	941.69
474.406	908.69
474.625	898.69
474.844	928.69
475.063	982.69
475.282	988.69
475.501	1045.69
475.72	1057.69
475.939	1014.69
476.158	1034.69
476.377	1200.69
476.596	1355.69
476.814	1422.69
477.033	1165.69
477.252	1024.69
477.471	954.69
477.69	966.69
477.908	1090.69
478.127	1147.69
478.346	1050.69
478.564	1102.69
478.783	1059.69
479.002	1055.69
479.22	1211.69
479.439	1353.69
479.658	1177.69
479.876	1082.69
480.095	1152.69
480.313	1191.69
480.532	1050.69
480.751	1050.69
480.969	1057.69
481.188	1234.69
481.406	1267.69
481.624	1194.69
481.843	1046.69
482.061	1047.69
482.28	1139.69
482.498	1409.69
482.717	1304.69
482.935	1123.69
483.153	1055.69
483.372	1022.69
483.59	1020.69
483.808	1024.69
484.027	979.69
484.245	962.69
484.463	961.69
484.681	993.69
484.9	1107.69
485.118	1137.69
485.336	1060.69
485.554	1009.69
485.772	1026.69
485.99	1132.69
486.209	1186.69
486.427	1170.69
486.645	1141.69
486.863	1191.69
487.081	1179.69
487.299	1238.69
487.517	1221.69
487.735	1144.69
487.953	1179.69
488.171	1193.69
488.389	1148.69
488.607	1070.69
488.825	1104.69
489.043	1138.69
489.261	1308.69
489.479	1328.69
489.696	1226.69
489.914	1120.69
490.132	1060.69
490.35	1111.69
490.568	1076.69
490.786	1103.69
491.003	1091.69
491.221	1108.69
491.439	1106.69
491.657	1093.69
491.874	1138.69
492.092	1354.69
492.31	1521.69
492.527	1525.69
492.745	1394.69
492.963	1218.69
493.18	1206.69
493.398	1248.69
493.615	1228.69
493.833	1171.69
494.05	1167.69
494.268	1180.69
494.485	1189.69
494.703	1153.69
494.92	1157.69
495.138	1161.69
495.355	1151.69
495.573	1164.69
495.79	1199.69
496.008	1488.69
496.225	1380.69
496.442	1294.69
496.66	1259.69
496.877	1332.69
497.094	1329.69
497.312	1253.69
497.529	1256.69
497.746	1264.69
497.963	1298.69
498.181	1408.69
498.398	1454.69
498.615	1535.69
498.832	1599.69
499.049	1647.69
499.267	1523.69
499.484	1482.69
499.701	1545.69
499.918	1721.69
500.135	1825.69
500.352	1864.69
500.569	1923.69
500.786	1963.69
501.003	1895.69
501.22	1746.69
501.437	1647.69
501.654	1590.69
501.871	1584.69
502.088	1520.69
502.305	1419.69
502.522	1457.69
502.739	1425.69
502.956	1331.69
503.172	1311.69
503.389	1269.69
503.606	1241.69
503.823	1256.69
504.04	1287.69
504.256	1267.69
504.473	1268.69
504.69	1320.69
504.907	1321.69
505.123	1287.69
505.34	1376.69
505.557	1364.69
505.773	1276.69
505.99	1224.69
506.207	1278.69
506.423	1173.69
506.64	1132.69
506.856	1188.69
507.073	1284.69
507.289	1287.69
507.506	1271.69
507.722	1337.69
507.939	1371.69
508.155	1362.69
508.372	1211.69
508.588	1194.69
508.805	1166.69
509.021	1147.69
509.238	1113.69
509.454	1133.69
509.67	1125.69
509.887	1136.69
510.103	1262.69
510.319	1256.69
510.536	1129.69
510.752	1009.69
510.968	1000.69
511.184	994.69
511.401	974.69
511.617	1000.69
511.833	1007.69
512.049	1033.69
512.265	1072.69
512.481	1065.69
512.698	1146.69
512.914	1296.69
513.13	1192.69
513.346	1088.69
513.562	1098.69
513.778	1109.69
513.994	1054.69
514.21	1126.69
514.426	1101.69
514.642	1100.69
514.858	1089.69
515.074	1137.69
515.29	1221.69
515.506	1364.69
515.721	1282.69
515.937	1151.69
516.153	1103.69
516.369	1103.69
516.585	1159.69
516.801	1281.69
517.016	1429.69
517.232	1460.69
517.448	1458.69
517.664	1294.69
517.879	1226.69
518.095	1207.69
518.311	1220.69
518.527	1282.69
518.742	1343.69
518.958	1435.69
519.173	1358.69
519.389	1253.69
519.605	1271.69
519.82	1397.69
520.036	1637.69
520.251	1591.69
520.467	1458.69
520.682	2064.69
520.898	2382.69
521.113	2287.69
521.329	1582.69
521.544	1431.69
521.76	1408.69
521.975	1232.69
522.19	1215.69
522.406	1268.69
522.621	1363.69
522.836	1401.69
523.052	1383.69
523.267	1198.69
523.482	1191.69
523.698	1253.69
523.913	1271.69
524.128	1176.69
524.343	1115.69
524.559	1109.69
524.774	1079.69
524.989	1104.69
525.204	1152.69
525.419	1259.69
525.634	1176.69
525.849	1207.69
526.064	1200.69
526.28	1195.69
526.495	1395.69
526.71	1432.69
526.925	1227.69
527.14	1190.69
527.355	1176.69
527.57	1044.69
527.785	1145.69
527.999	1086.69
528.214	1042.69
528.429	1020.69
528.644	971.69
528.859	970.69
529.074	954.69
529.289	945.69
529.503	933.69
529.718	955.69
529.933	1092.69
530.148	1096.69
530.363	986.69
530.577	1000.69
530.792	953.69
531.007	962.69
531.221	946.69
531.436	976.69
531.651	950.69
531.865	950.69
532.08	986.69
532.295	966.69
532.509	986.69
532.724	1027.69
532.938	1165.69
533.153	1358.69
533.367	1147.69
533.582	1111.69
533.796	1022.69
534.011	975.69
534.225	973.69
534.44	1000.69
534.654	1057.69
534.868	1150.69
535.083	1047.69
535.297	1010.69
535.511	994.69
535.726	1104.69
535.94	1051.69
536.154	975.69
536.369	912.69
536.583	938.69
536.797	958.69
537.011	977.69
537.225	1029.69
537.44	1045.69
537.654	972.69
537.868	948.69
538.082	969.69
538.296	950.69
538.51	985.69
538.724	1000.69
538.938	983.69
539.153	951.69
539.367	925.69
539.581	931.69
539.795	980.69
540.009	1057.69
540.222	988.69
540.436	985.69
540.65	1038.69
540.864	1060.69
541.078	1089.69
541.292	1212.69
541.506	1027.69
541.72	1001.69
541.934	953.69
542.147	1027.69
542.361	994.69
542.575	976.69
542.789	956.69
543.002	912.69
543.216	993.69
543.43	890.69
543.644	867.69
543.857	880.69
544.071	925.69
544.285	906.69
544.498	892.69
544.712	906.69
544.925	914.69
545.139	900.69
545.352	874.69
545.566	883.69
545.779	964.69
545.993	920.69
546.206	866.69
546.42	842.69
546.633	830.69
546.847	848.69
547.06	838.69
547.274	835.69
547.487	844.69
547.7	919.69
547.914	926.69
548.127	1055.69
548.34	1027.69
548.554	914.69
548.767	962.69
548.98	982.69
549.193	933.69
549.407	987.69
549.62	1147.69
549.833	1079.69
550.046	1118.69
550.259	1109.69
550.473	960.69
550.686	939.69
550.899	959.69
551.112	947.69
551.325	989.69
551.538	1047.69
551.751	915.69
551.964	900.69
552.177	873.69
552.39	852.69
552.603	890.69
552.816	917.69
553.029	879.69
553.242	855.69
553.455	906.69
553.667	982.69
553.88	948.69
554.093	893.69
554.306	819.69
554.519	781.69
554.732	750.69
554.944	769.69
555.157	761.69
555.37	755.69
555.583	764.69
555.795	766.69
556.008	763.69
556.221	758.69
556.433	780.69
556.646	750.69
556.859	776.69
557.071	759.69
557.284	766.69
557.496	796.69
557.709	762.69
557.921	759.69
558.134	713.69
558.346	717.69
558.559	710.69
558.771	731.69
558.984	750.69
559.196	722.69
559.409	723.69
559.621	710.69
559.833	692.69
560.046	681.69
560.258	706.69
560.47	745.69
560.683	681.69
560.895	665.69
561.107	663.69
561.32	689.69
561.532	656.69
561.744	721.69
561.956	720.69
562.168	676.69
562.381	676.69
562.593	693.69
562.805	712.69
563.017	697.69
563.229	662.69
563.441	656.69
563.653	687.69
563.865	670.69
564.077	679.69
564.289	683.69
564.501	674.69
564.713	736.69
564.925	715.69
565.137	692.69
565.349	711.69
565.561	692.69
565.773	690.69
565.985	716.69
566.197	767.69
566.408	862.69
566.62	846.69
566.832	833.69
567.044	851.69
567.255	886.69
567.467	964.69
567.679	881.69
567.891	855.69
568.102	885.69
568.314	890.69
568.526	825.69
568.737	797.69
568.949	867.69
569.161	761.69
569.372	704.69
569.584	682.69
569.795	658.69
570.007	692.69
570.218	723.69
570.43	712.69
570.641	682.69
570.853	652.69
571.064	645.69
571.276	672.69
571.487	686.69
571.698	633.69
571.91	634.69
572.121	634.69
572.333	609.69
572.544	606.69
572.755	626.69
572.966	601.69
573.178	599.69
573.389	630.69
573.6	618.69
573.811	624.69
574.023	574.69
574.234	557.69
574.445	575.69
574.656	591.69
574.867	561.69
575.078	576.69
575.289	562.69
575.501	589.69
575.712	561.69
575.923	535.69
576.134	544.69
576.345	543.69
576.556	548.69
576.767	514.69
576.978	523.69
577.188	540.69
577.399	497.69
577.61	535.69
577.821	543.69
578.032	561.69
578.243	568.69
578.454	557.69
578.665	558.69
578.875	532.69
579.086	541.69
579.297	534.69
579.508	545.69
579.718	534.69
579.929	518.69
580.14	512.69
580.35	504.69
580.561	471.69
580.772	462.69
580.982	481.69
581.193	460.69
581.403	467.69
581.614	487.69
581.825	480.69
582.035	459.69
582.246	450.69
582.456	450.69
582.667	494.69
582.877	472.69
583.087	467.69
583.298	421.69
583.508	451.69
583.719	456.69
583.929	475.69
584.139	443.69
584.35	438.69
584.56	459.69
584.77	452.69
584.981	472.69
585.191	458.69
585.401	461.69
585.611	467.69
585.821	468.69
586.032	487.69
586.242	468.69
586.452	481.69
586.662	464.69
586.872	500.69
587.082	488.69
587.292	480.69
587.502	477.69
587.713	456.69
587.923	456.69
588.133	486.69
588.343	476.69
588.553	432.69
588.762	442.69
588.972	451.69
589.182	480.69
589.392	450.69
589.602	451.69
589.812	468.69
590.022	532.69
590.232	508.69
590.441	447.69
590.651	463.69
590.861	474.69
591.071	444.69
591.281	419.69
591.49	441.69
591.7	433.69
591.91	449.69
592.119	439.69
592.329	464.69
592.539	444.69
592.748	454.69
592.958	454.69
593.167	446.69
593.377	481.69
593.587	488.69
593.796	463.69
594.006	468.69
594.215	488.69
594.424	497.69
594.634	496.69
594.843	460.69
595.053	459.69
595.262	446.69
595.472	452.69
595.681	445.69
595.89	432.69
596.1	446.69
596.309	441.69
596.518	432.69
596.727	418.69
596.937	411.69
597.146	425.69
597.355	442.69
597.564	431.69
597.774	434.69
597.983	412.69
598.192	405.69
598.401	411.69
598.61	386.69
598.819	392.69
599.028	381.69
599.237	398.69
599.446	384.69
599.655	371.69
599.864	377.69
600.073	381.69
600.282	375.69
600.491	385.69
600.7	359.69
600.909	382.69
601.118	362.69
601.327	366.69
601.536	362.69
601.745	396.69
601.953	392.69
602.162	391.69
602.371	393.69
602.58	391.69
602.789	359.69
602.997	370.69
603.206	376.69
603.415	370.69
603.623	363.69
603.832	366.69
604.041	359.69
604.249	358.69
604.458	383.69
604.666	335.69
604.875	345.69
605.084	338.69
605.292	342.69
605.501	345.69
605.709	363.69
605.918	342.69
606.126	362.69
606.334	364.69
606.543	351.69
606.751	341.69
606.96	348.69
607.168	339.69
607.376	327.69
607.585	338.69
607.793	353.69
608.001	354.69
608.21	364.69
608.418	366.69
608.626	339.69
608.834	341.69
609.043	360.69
609.251	329.69
609.459	347.69
609.667	351.69
609.875	350.69
610.083	336.69
610.291	375.69
610.499	369.69
610.707	339.69
610.916	329.69
611.124	324.69
611.332	321.69
611.54	346.69
611.748	337.69
611.955	337.69
612.163	329.69
612.371	325.69
612.579	324.69
612.787	336.69
612.995	314.69
613.203	339.69
613.411	322.69
613.618	310.69
613.826	330.69
614.034	359.69
614.242	307.69
614.449	323.69
614.657	312.69
614.865	317.69
615.072	344.69
615.28	322.69
615.488	331.69
615.695	326.69
615.903	331.69
616.111	308.69
616.318	324.69
616.526	312.69
616.733	324.69
616.941	326.69
617.148	313.69
617.356	312.69
617.563	336.69
617.771	308.69
617.978	320.69
618.185	322.69
618.393	309.69
618.6	319.69
618.807	330.69
619.015	321.69
619.222	305.69
619.429	332.69
619.637	336.69
619.844	284.69
620.051	303.69
620.258	308.69
620.466	297.69
620.673	292.69
620.88	289.69
621.087	292.69
621.294	294.69
621.501	297.69
621.708	291.69
621.915	304.69
622.122	282.69
622.329	292.69
622.536	293.69
622.743	298.69
622.95	300.69
623.157	284.69
623.364	316.69
623.571	282.69
623.778	310.69
623.985	305.69
624.192	318.69
624.399	311.69
624.606	307.69
624.812	288.69
625.019	294.69
625.226	311.69
625.433	322.69
625.639	299.69
625.846	289.69
626.053	286.69
626.259	288.69
626.466	299.69
626.673	297.69
626.879	277.69
627.086	268.69
627.293	281.69
627.499	262.69
627.706	280.69
627.912	270.69
628.119	266.69
628.325	269.69
628.532	264.69
628.738	264.69
628.945	259.69
629.151	270.69
629.357	260.69
629.564	253.69
629.77	273.69
629.976	258.69
630.183	243.69
630.389	245.69
630.595	250.69
630.802	266.69
631.008	271.69
631.214	259.69
631.42	256.69
631.627	250.69
631.833	252.69
632.039	264.69
632.245	238.69
632.451	251.69
632.657	257.69
632.863	246.69
633.069	258.69
633.275	241.69
633.481	244.69
633.688	248.69
633.893	248.69
634.099	239.69
634.305	244.69
634.511	243.69
634.717	225.69
634.923	250.69
635.129	238.69
635.335	221.69
635.541	223.69
635.747	239.69
635.952	235.69
636.158	242.69
636.364	240.69
636.57	223.69
636.775	247.69
636.981	238.69
637.187	243.69
637.392	226.69
637.598	233.69
637.804	212.69
638.009	245.69
638.215	233.69
638.421	224.69
638.626	234.69
638.832	228.69
639.037	207.69
639.243	224.69
639.448	223.69
639.654	250.69
639.859	231.69
640.065	226.69
640.27	233.69
640.475	215.69
640.681	217.69
640.886	213.69
641.091	233.69
641.297	241.69
641.502	228.69
641.707	229.69
641.913	221.69
642.118	233.69
642.323	215.69
642.528	218.69
642.733	202.69
642.939	219.69
643.144	208.69
643.349	220.69
643.554	224.69
643.759	228.69
643.964	214.69
644.169	214.69
644.374	212.69
644.579	231.69
644.784	211.69
644.989	209.69
645.194	211.69
645.399	200.69
645.604	187.69
645.809	212.69
646.014	208.69
646.219	208.69
646.423	205.69
646.628	208.69
646.833	206.69
647.038	216.69
647.243	206.69
647.447	226.69
647.652	208.69
647.857	202.69
648.062	211.69
648.266	224.69
648.471	207.69
648.676	204.69
648.88	210.69
649.085	203.69
649.289	195.69
649.494	193.69
649.698	196.69
649.903	186.69
650.107	228.69
650.312	180.69
650.516	199.69
650.721	190.69
650.925	191.69
651.13	201.69
651.334	189.69
651.539	200.69
651.743	186.69
651.947	193.69
652.152	179.69
652.356	169.69
652.56	186.69
652.764	170.69
652.969	177.69
653.173	162.69
653.377	165.69
653.581	178.69
653.785	159.69
653.99	140.69
654.194	167.69
654.398	152.69
654.602	158.69
654.806	156.69
655.01	160.69
655.214	181.69
655.418	162.69
655.622	159.69
655.826	151.69
656.03	143.69
656.234	170.69
656.438	158.69
656.642	157.69
656.846	156.69
657.049	156.69
657.253	145.69
657.457	143.69
657.661	146.69
657.865	123.69
658.068	122.69
658.272	122.69
658.476	124.69
658.68	113.69
658.883	115.69
659.087	120.69
659.291	121.69
659.494	105.69
659.698	116.69
659.901	116.69
660.105	110.69
660.309	100.69
660.512	103.69
660.716	102.69
660.919	98.69
661.123	104.69
661.326	93.69
661.53	97.69
661.733	91.69
661.936	91.69
662.14	96.69
662.343	94.69
662.546	100.69
662.75	93.69
662.953	84.69
663.156	92.69
663.36	86.69
663.563	89.69
663.766	79.69
663.969	83.69
664.173	82.69
664.376	91.69
664.579	82.69
664.782	90.69
664.985	89.69
665.188	87.69
665.391	88.69
665.594	76.69
665.797	80.69
666	90.69
666.203	77.69
666.406	81.69
666.609	79.69
666.812	92.69
667.015	94.69
667.218	88.69
667.421	102.69
667.624	85.69
667.827	79.69
668.03	87.69
668.232	83.69
668.435	82.69
668.638	95.69
668.841	86.69
669.043	90.69
669.246	81.69
669.449	76.69
669.651	86.69
669.854	80.69
670.057	88.69
670.259	85.69
670.462	81.69
670.665	79.69
670.867	92.69
671.07	79.69
671.272	83.69
671.475	78.69
671.677	87.69
671.88	85.69
672.082	67.69
672.284	78.69
672.487	98.69
672.689	93.69
672.892	103.69
