Data from NickelSpatula.Lamp.E10.P2_HRD10591_11-57-17-532.txt Node
Date: Tue Jul 23 11:57:17 EDT 2019
User: cochatt
Spectrometer: HR+D1059
Trigger mode: 1
Integration Time (sec): 1.000000E-1
Scans to average: 1
Electric dark correction enabled: true
Nonlinearity correction enabled: false
Boxcar width: 0
XAxis mode: Wavelengths
Number of Pixels in Spectrum: 2048
>>>>>Begin Spectral Data<<<<<
223.165	-6.62
223.4	-6.62
223.635	-6.62
223.869	-22.62
224.104	-5.62
224.338	-35.62
224.573	-10.62
224.808	-12.62
225.042	-8.62
225.277	-6.62
225.511	-6.62
225.746	2.38
225.98	8.38
226.215	7.38
226.449	12.38
226.683	17.38
226.918	36.38
227.152	31.38
227.387	39.38
227.621	35.38
227.856	41.38
228.09	43.38
228.324	46.38
228.559	48.38
228.793	77.38
229.027	134.38
229.262	142.38
229.496	144.38
229.73	165.38
229.964	168.38
230.199	196.38
230.433	208.38
230.667	209.38
230.901	208.38
231.136	200.38
231.37	203.38
231.604	231.38
231.838	227.38
232.072	264.38
232.306	236.38
232.541	258.38
232.775	237.38
233.009	252.38
233.243	280.38
233.477	293.38
233.711	329.38
233.945	345.38
234.179	310.38
234.413	344.38
234.647	389.38
234.881	422.38
235.115	411.38
235.349	408.38
235.583	327.38
235.817	355.38
236.051	368.38
236.285	399.38
236.519	435.38
236.753	436.38
236.987	415.38
237.221	376.38
237.455	408.38
237.689	417.38
237.922	446.38
238.156	468.38
238.39	539.38
238.624	624.38
238.858	591.38
239.091	488.38
239.325	487.38
239.559	480.38
239.793	537.38
240.027	618.38
240.26	598.38
240.494	567.38
240.728	604.38
240.961	659.38
241.195	602.38
241.429	606.38
241.662	577.38
241.896	505.38
242.13	462.38
242.363	455.38
242.597	468.38
242.83	513.38
243.064	517.38
243.298	577.38
243.531	595.38
243.765	643.38
243.998	600.38
244.232	583.38
244.465	598.38
244.699	582.38
244.932	630.38
245.166	603.38
245.399	535.38
245.633	545.38
245.866	544.38
246.099	596.38
246.333	689.38
246.566	749.38
246.8	740.38
247.033	717.38
247.266	655.38
247.5	670.38
247.733	665.38
247.966	663.38
248.2	684.38
248.433	757.38
248.666	817.38
248.899	838.38
249.133	836.38
249.366	949.38
249.599	1030.38
249.832	891.38
250.066	802.38
250.299	817.38
250.532	793.38
250.765	793.38
250.998	709.38
251.231	671.38
251.465	778.38
251.698	815.38
251.931	764.38
252.164	839.38
252.397	905.38
252.63	1000.38
252.863	1108.38
253.096	1156.38
253.329	1111.38
253.562	1067.38
253.795	1173.38
254.028	1271.38
254.261	1341.38
254.494	1229.38
254.727	1122.38
254.96	1083.38
255.193	1131.38
255.426	1077.38
255.659	838.38
255.892	783.38
256.124	856.38
256.357	1001.38
256.59	1172.38
256.823	1071.38
257.056	939.38
257.289	903.38
257.521	954.38
257.754	1095.38
257.987	1290.38
258.22	1046.38
258.452	981.38
258.685	1134.38
258.918	1221.38
259.151	1185.38
259.383	1240.38
259.616	1456.38
259.849	1542.38
260.081	1667.38
260.314	1852.38
260.547	1403.38
260.779	1447.38
261.012	1661.38
261.244	1559.38
261.477	1573.38
261.71	1461.38
261.942	1236.38
262.175	1252.38
262.407	1187.38
262.64	1248.38
262.872	1428.38
263.105	1563.38
263.337	1662.38
263.57	1474.38
263.802	1035.38
264.035	878.38
264.267	849.38
264.499	767.38
264.732	713.38
264.964	673.38
265.197	710.38
265.429	754.38
265.661	800.38
265.894	838.38
266.126	893.38
266.358	994.38
266.591	1213.38
266.823	1427.38
267.055	1389.38
267.287	1228.38
267.52	1215.38
267.752	1304.38
267.984	1421.38
268.216	1344.38
268.448	1102.38
268.681	1069.38
268.913	1173.38
269.145	1261.38
269.377	1283.38
269.609	1280.38
269.841	1186.38
270.073	1277.38
270.306	1329.38
270.538	1326.38
270.77	1341.38
271.002	1391.38
271.234	1455.38
271.466	1498.38
271.698	1410.38
271.93	1371.38
272.162	1403.38
272.394	1363.38
272.626	1362.38
272.858	1377.38
273.09	1421.38
273.322	1243.38
273.553	1256.38
273.785	1446.38
274.017	1918.38
274.249	2334.38
274.481	2431.38
274.713	2655.38
274.945	3052.38
275.176	3087.38
275.408	2750.38
275.64	2519.38
275.872	2514.38
276.104	2142.38
276.335	1843.38
276.567	1884.38
276.799	1890.38
277.031	1993.38
277.262	1551.38
277.494	1191.38
277.726	1174.38
277.957	1276.38
278.189	1471.38
278.421	1423.38
278.652	1396.38
278.884	1329.38
279.115	1190.38
279.347	1147.38
279.579	1161.38
279.81	1173.38
280.042	1195.38
280.273	1208.38
280.505	1108.38
280.736	989.38
280.968	1016.38
281.199	1067.38
281.431	1215.38
281.662	1205.38
281.894	1125.38
282.125	1218.38
282.356	1337.38
282.588	1319.38
282.819	1211.38
283.051	1336.38
283.282	1655.38
283.513	1863.38
283.745	2105.38
283.976	2091.38
284.207	1989.38
284.439	2054.38
284.67	1939.38
284.901	1720.38
285.132	1895.38
285.364	1987.38
285.595	1781.38
285.826	1919.38
286.057	1935.38
286.288	1907.38
286.52	1942.38
286.751	2004.38
286.982	2005.38
287.213	1768.38
287.444	1699.38
287.675	1785.38
287.906	1783.38
288.138	1526.38
288.369	1328.38
288.6	1263.38
288.831	1322.38
289.062	1523.38
289.293	1659.38
289.524	1571.38
289.755	1586.38
289.986	1601.38
290.217	1395.38
290.448	1079.38
290.679	954.38
290.91	895.38
291.141	894.38
291.371	955.38
291.602	947.38
291.833	966.38
292.064	1045.38
292.295	1166.38
292.526	1340.38
292.757	1425.38
292.987	1483.38
293.218	1529.38
293.449	1547.38
293.68	1629.38
293.91	1564.38
294.141	1567.38
294.372	1511.38
294.603	1396.38
294.833	1517.38
295.064	1804.38
295.295	1691.38
295.525	1291.38
295.756	1103.38
295.987	994.38
296.217	984.38
296.448	1024.38
296.679	1079.38
296.909	1188.38
297.14	1265.38
297.37	1396.38
297.601	1323.38
297.831	1135.38
298.062	1235.38
298.292	1356.38
298.523	1501.38
298.753	1718.38
298.984	1533.38
299.214	1219.38
299.445	1037.38
299.675	1009.38
299.905	993.38
300.136	1017.38
300.366	1130.38
300.597	1093.38
300.827	1005.38
301.057	983.38
301.288	967.38
301.518	1032.38
301.748	1177.38
301.979	1272.38
302.209	1353.38
302.439	1385.38
302.669	1195.38
302.9	1197.38
303.13	1091.38
303.36	1062.38
303.59	997.38
303.82	1077.38
304.051	1204.38
304.281	1284.38
304.511	1272.38
304.741	1109.38
304.971	1183.38
305.201	1229.38
305.431	1159.38
305.661	1045.38
305.891	1023.38
306.121	1041.38
306.352	926.38
306.582	841.38
306.812	832.38
307.042	819.38
307.272	793.38
307.502	784.38
307.731	813.38
307.961	895.38
308.191	847.38
308.421	784.38
308.651	776.38
308.881	760.38
309.111	747.38
309.341	786.38
309.571	853.38
309.8	911.38
310.03	922.38
310.26	955.38
310.49	944.38
310.72	816.38
310.949	845.38
311.179	847.38
311.409	919.38
311.639	1049.38
311.868	1340.38
312.098	1768.38
312.328	1895.38
312.557	1821.38
312.787	1793.38
313.017	1600.38
313.246	1759.38
313.476	1891.38
313.706	1593.38
313.935	1278.38
314.165	996.38
314.394	924.38
314.624	926.38
314.853	977.38
315.083	1015.38
315.312	963.38
315.542	984.38
315.771	892.38
316.001	843.38
316.23	801.38
316.46	795.38
316.689	821.38
316.919	871.38
317.148	880.38
317.377	875.38
317.607	888.38
317.836	933.38
318.065	1065.38
318.295	1207.38
318.524	1083.38
318.753	949.38
318.983	900.38
319.212	875.38
319.441	946.38
319.67	1070.38
319.9	1172.38
320.129	1099.38
320.358	932.38
320.587	892.38
320.816	967.38
321.046	1120.38
321.275	1259.38
321.504	1271.38
321.733	1224.38
321.962	1177.38
322.191	1115.38
322.42	1075.38
322.649	1085.38
322.878	1158.38
323.108	1137.38
323.337	1070.38
323.566	1052.38
323.795	1035.38
324.024	979.38
324.253	950.38
324.482	931.38
324.71	1045.38
324.939	1171.38
325.168	1073.38
325.397	941.38
325.626	860.38
325.855	872.38
326.084	913.38
326.313	846.38
326.542	802.38
326.77	836.38
326.999	869.38
327.228	951.38
327.457	971.38
327.686	972.38
327.914	877.38
328.143	783.38
328.372	823.38
328.6	816.38
328.829	840.38
329.058	866.38
329.287	852.38
329.515	876.38
329.744	834.38
329.972	817.38
330.201	774.38
330.43	821.38
330.658	945.38
330.887	1040.38
331.115	956.38
331.344	970.38
331.572	951.38
331.801	856.38
332.03	823.38
332.258	869.38
332.486	944.38
332.715	963.38
332.943	893.38
333.172	879.38
333.4	889.38
333.629	1013.38
333.857	1093.38
334.085	1079.38
334.314	1082.38
334.542	1014.38
334.771	904.38
334.999	921.38
335.227	896.38
335.455	909.38
335.684	1004.38
335.912	1188.38
336.14	1298.38
336.369	1225.38
336.597	1184.38
336.825	1317.38
337.053	1439.38
337.281	1203.38
337.51	945.38
337.738	941.38
337.966	1020.38
338.194	1144.38
338.422	1079.38
338.65	931.38
338.878	871.38
339.106	915.38
339.334	988.38
339.562	1051.38
339.79	960.38
340.018	913.38
340.246	1011.38
340.474	1166.38
340.702	1225.38
340.93	1297.38
341.158	1259.38
341.386	1098.38
341.614	1060.38
341.842	1066.38
342.07	1138.38
342.298	1268.38
342.526	1323.38
342.754	1135.38
342.981	1077.38
343.209	1051.38
343.437	1094.38
343.665	1157.38
343.893	1154.38
344.12	1328.38
344.348	1559.38
344.576	1367.38
344.804	1165.38
345.031	1017.38
345.259	960.38
345.487	969.38
345.714	960.38
345.942	1066.38
346.17	1141.38
346.397	1085.38
346.625	988.38
346.853	933.38
347.08	896.38
347.308	959.38
347.535	1080.38
347.763	1116.38
347.99	989.38
348.218	900.38
348.445	921.38
348.673	947.38
348.9	933.38
349.128	1056.38
349.355	1057.38
349.583	1034.38
349.81	991.38
350.037	925.38
350.265	792.38
350.492	781.38
350.72	761.38
350.947	807.38
351.174	855.38
351.402	924.38
351.629	933.38
351.856	928.38
352.083	862.38
352.311	947.38
352.538	1036.38
352.765	1091.38
352.992	999.38
353.22	941.38
353.447	957.38
353.674	936.38
353.901	909.38
354.128	928.38
354.355	955.38
354.583	951.38
354.81	921.38
355.037	974.38
355.264	968.38
355.491	1037.38
355.718	1133.38
355.945	1092.38
356.172	1053.38
356.399	1056.38
356.626	1244.38
356.853	1541.38
357.08	1643.38
357.307	1654.38
357.534	1283.38
357.761	1343.38
357.988	1648.38
358.215	1915.38
358.441	1835.38
358.668	1579.38
358.895	1417.38
359.122	1164.38
359.349	1141.38
359.576	1253.38
359.802	1063.38
360.029	924.38
360.256	961.38
360.483	1203.38
360.709	1498.38
360.936	1597.38
361.163	1381.38
361.39	1096.38
361.616	1028.38
361.843	1158.38
362.07	1436.38
362.296	1305.38
362.523	1009.38
362.749	908.38
362.976	971.38
363.203	1159.38
363.429	1267.38
363.656	1028.38
363.882	944.38
364.109	950.38
364.335	959.38
364.562	941.38
364.788	1078.38
365.015	1220.38
365.241	1119.38
365.468	927.38
365.694	797.38
365.92	785.38
366.147	774.38
366.373	767.38
366.599	791.38
366.826	792.38
367.052	819.38
367.278	806.38
367.505	798.38
367.731	882.38
367.957	972.38
368.184	1015.38
368.41	971.38
368.636	997.38
368.862	1022.38
369.089	979.38
369.315	845.38
369.541	867.38
369.767	823.38
369.993	832.38
370.219	837.38
370.445	883.38
370.672	961.38
370.898	1073.38
371.124	1033.38
371.35	913.38
371.576	870.38
371.802	977.38
372.028	1100.38
372.254	1286.38
372.48	1071.38
372.706	995.38
372.932	1061.38
373.158	1073.38
373.384	1291.38
373.61	1695.38
373.835	1810.38
374.061	1316.38
374.287	1093.38
374.513	1285.38
374.739	1544.38
374.965	1608.38
375.191	1571.38
375.416	1129.38
375.642	973.38
375.868	1124.38
376.094	1305.38
376.319	1107.38
376.545	1234.38
376.771	1283.38
376.997	1097.38
377.222	830.38
377.448	729.38
377.674	757.38
377.899	737.38
378.125	737.38
378.35	713.38
378.576	761.38
378.802	831.38
379.027	881.38
379.253	878.38
379.478	887.38
379.704	1009.38
379.929	1037.38
380.155	1029.38
380.38	929.38
380.606	972.38
380.831	1054.38
381.057	978.38
381.282	945.38
381.507	1096.38
381.733	1390.38
381.958	1429.38
382.184	1559.38
382.409	1643.38
382.634	1583.38
382.86	1657.38
383.085	1380.38
383.31	1099.38
383.535	1160.38
383.761	1190.38
383.986	1105.38
384.211	1343.38
384.436	1325.38
384.662	995.38
384.887	959.38
385.112	1001.38
385.337	1007.38
385.562	949.38
385.787	1050.38
386.013	1207.38
386.238	1180.38
386.463	991.38
386.688	949.38
386.913	932.38
387.138	876.38
387.363	931.38
387.588	947.38
387.813	965.38
388.038	1060.38
388.263	956.38
388.488	936.38
388.713	1102.38
388.938	1178.38
389.163	967.38
389.387	901.38
389.612	864.38
389.837	899.38
390.062	943.38
390.287	979.38
390.512	958.38
390.736	941.38
390.961	880.38
391.186	841.38
391.411	841.38
391.636	853.38
391.86	913.38
392.085	970.38
392.31	956.38
392.534	902.38
392.759	901.38
392.984	944.38
393.208	965.38
393.433	849.38
393.658	807.38
393.882	787.38
394.107	780.38
394.331	802.38
394.556	784.38
394.78	810.38
395.005	813.38
395.229	842.38
395.454	885.38
395.678	855.38
395.903	891.38
396.127	859.38
396.352	843.38
396.576	934.38
396.801	956.38
397.025	1082.38
397.249	1085.38
397.474	915.38
397.698	891.38
397.922	965.38
398.147	897.38
398.371	919.38
398.595	953.38
398.82	926.38
399.044	908.38
399.268	981.38
399.492	1048.38
399.717	1060.38
399.941	1069.38
400.165	1065.38
400.389	998.38
400.613	1012.38
400.837	998.38
401.062	902.38
401.286	897.38
401.51	901.38
401.734	883.38
401.958	884.38
402.182	881.38
402.406	891.38
402.63	889.38
402.854	931.38
403.078	1062.38
403.302	1264.38
403.526	1295.38
403.75	1187.38
403.974	1039.38
404.198	1049.38
404.422	1172.38
404.645	1365.38
404.869	1506.38
405.093	1163.38
405.317	973.38
405.541	984.38
405.765	1004.38
405.988	989.38
406.212	1097.38
406.436	1238.38
406.66	1373.38
406.883	1124.38
407.107	1123.38
407.331	1325.38
407.555	1256.38
407.778	1083.38
408.002	1029.38
408.226	1034.38
408.449	1015.38
408.673	995.38
408.896	917.38
409.12	898.38
409.344	928.38
409.567	862.38
409.791	897.38
410.014	887.38
410.238	883.38
410.461	882.38
410.685	874.38
410.908	902.38
411.132	925.38
411.355	929.38
411.578	943.38
411.802	936.38
412.025	952.38
412.249	947.38
412.472	935.38
412.695	925.38
412.919	932.38
413.142	949.38
413.365	998.38
413.589	1054.38
413.812	931.38
414.035	904.38
414.258	909.38
414.482	1008.38
414.705	1026.38
414.928	904.38
415.151	861.38
415.374	869.38
415.597	898.38
415.821	926.38
416.044	878.38
416.267	838.38
416.49	866.38
416.713	877.38
416.936	839.38
417.159	848.38
417.382	878.38
417.605	905.38
417.828	884.38
418.051	911.38
418.274	943.38
418.497	896.38
418.72	915.38
418.943	927.38
419.166	981.38
419.389	1012.38
419.611	996.38
419.834	980.38
420.057	1089.38
420.28	1075.38
420.503	992.38
420.726	887.38
420.948	881.38
421.171	868.38
421.394	863.38
421.617	823.38
421.839	848.38
422.062	903.38
422.285	929.38
422.507	929.38
422.73	951.38
422.953	956.38
423.175	911.38
423.398	955.38
423.621	1015.38
423.843	1032.38
424.066	956.38
424.288	941.38
424.511	896.38
424.733	891.38
424.956	936.38
425.178	1054.38
425.401	1183.38
425.623	1326.38
425.846	1114.38
426.068	984.38
426.291	1053.38
426.513	1015.38
426.735	936.38
426.958	968.38
427.18	1110.38
427.402	1427.38
427.625	1437.38
427.847	1161.38
428.069	869.38
428.292	887.38
428.514	870.38
428.736	859.38
428.958	955.38
429.181	1098.38
429.403	955.38
429.625	889.38
429.847	867.38
430.069	874.38
430.292	889.38
430.514	888.38
430.736	932.38
430.958	1150.38
431.18	1059.38
431.402	812.38
431.624	803.38
431.846	806.38
432.068	764.38
432.29	791.38
432.512	906.38
432.734	1181.38
432.956	1112.38
433.178	880.38
433.4	829.38
433.622	856.38
433.844	862.38
434.066	925.38
434.287	885.38
434.509	851.38
434.731	901.38
434.953	856.38
435.175	897.38
435.397	999.38
435.618	907.38
435.84	799.38
436.062	837.38
436.284	818.38
436.505	769.38
436.727	775.38
436.949	786.38
437.17	819.38
437.392	848.38
437.614	816.38
437.835	807.38
438.057	813.38
438.278	961.38
438.5	1315.38
438.721	1329.38
438.943	917.38
439.165	811.38
439.386	777.38
439.608	754.38
439.829	781.38
440.05	763.38
440.272	840.38
440.493	970.38
440.715	1209.38
440.936	947.38
441.158	830.38
441.379	870.38
441.6	990.38
441.822	991.38
442.043	872.38
442.264	872.38
442.486	853.38
442.707	838.38
442.928	839.38
443.149	847.38
443.371	871.38
443.592	918.38
443.813	935.38
444.034	892.38
444.255	917.38
444.476	914.38
444.698	939.38
444.919	941.38
445.14	1023.38
445.361	996.38
445.582	961.38
445.803	899.38
446.024	912.38
446.245	950.38
446.466	893.38
446.687	861.38
446.908	886.38
447.129	821.38
447.35	787.38
447.571	803.38
447.792	789.38
448.013	793.38
448.234	792.38
448.455	775.38
448.675	791.38
448.896	775.38
449.117	768.38
449.338	760.38
449.559	823.38
449.779	838.38
450	848.38
450.221	835.38
450.442	793.38
450.662	790.38
450.883	807.38
451.104	803.38
451.324	798.38
451.545	766.38
451.766	794.38
451.986	793.38
452.207	760.38
452.428	789.38
452.648	752.38
452.869	804.38
453.089	791.38
453.31	802.38
453.53	727.38
453.751	731.38
453.971	737.38
454.192	766.38
454.412	791.38
454.633	737.38
454.853	747.38
455.073	744.38
455.294	740.38
455.514	726.38
455.734	772.38
455.955	811.38
456.175	824.38
456.395	740.38
456.616	693.38
456.836	730.38
457.056	696.38
457.276	712.38
457.497	713.38
457.717	708.38
457.937	729.38
458.157	704.38
458.377	714.38
458.598	730.38
458.818	772.38
459.038	795.38
459.258	795.38
459.478	859.38
459.698	868.38
459.918	870.38
460.138	853.38
460.358	905.38
460.578	870.38
460.798	869.38
461.018	879.38
461.238	859.38
461.458	851.38
461.678	872.38
461.898	903.38
462.118	901.38
462.338	947.38
462.558	945.38
462.777	985.38
462.997	979.38
463.217	998.38
463.437	1009.38
463.657	1027.38
463.876	942.38
464.096	961.38
464.316	953.38
464.536	965.38
464.755	988.38
464.975	1007.38
465.195	968.38
465.414	943.38
465.634	918.38
465.854	913.38
466.073	846.38
466.293	838.38
466.512	915.38
466.732	977.38
466.951	1021.38
467.171	889.38
467.391	876.38
467.61	873.38
467.829	925.38
468.049	911.38
468.268	887.38
468.488	897.38
468.707	912.38
468.927	1077.38
469.146	1147.38
469.365	1020.38
469.585	970.38
469.804	994.38
470.023	1085.38
470.243	967.38
470.462	914.38
470.681	903.38
470.901	919.38
471.12	958.38
471.339	949.38
471.558	908.38
471.777	925.38
471.997	992.38
472.216	1087.38
472.435	1050.38
472.654	924.38
472.873	925.38
473.092	969.38
473.311	997.38
473.53	949.38
473.749	918.38
473.968	984.38
474.187	983.38
474.406	940.38
474.625	919.38
474.844	943.38
475.063	995.38
475.282	1025.38
475.501	1076.38
475.72	1112.38
475.939	1097.38
476.158	1069.38
476.377	1269.38
476.596	1427.38
476.814	1461.38
477.033	1205.38
477.252	1039.38
477.471	947.38
477.69	995.38
477.908	1093.38
478.127	1165.38
478.346	1020.38
478.564	1118.38
478.783	1075.38
479.002	1103.38
479.22	1256.38
479.439	1412.38
479.658	1231.38
479.876	1126.38
480.095	1177.38
480.313	1207.38
480.532	1124.38
480.751	1096.38
480.969	1127.38
481.188	1226.38
481.406	1249.38
481.624	1233.38
481.843	1115.38
482.061	1050.38
482.28	1186.38
482.498	1424.38
482.717	1361.38
482.935	1182.38
483.153	1100.38
483.372	1049.38
483.59	1049.38
483.808	1050.38
484.027	995.38
484.245	990.38
484.463	1000.38
484.681	987.38
484.9	1082.38
485.118	1165.38
485.336	1097.38
485.554	1030.38
485.772	1048.38
485.99	1136.38
486.209	1219.38
486.427	1209.38
486.645	1182.38
486.863	1224.38
487.081	1205.38
487.299	1320.38
487.517	1302.38
487.735	1158.38
487.953	1215.38
488.171	1264.38
488.389	1173.38
488.607	1117.38
488.825	1173.38
489.043	1224.38
489.261	1406.38
489.479	1491.38
489.696	1252.38
489.914	1150.38
490.132	1101.38
490.35	1103.38
490.568	1118.38
490.786	1116.38
491.003	1135.38
491.221	1121.38
491.439	1134.38
491.657	1113.38
491.874	1201.38
492.092	1410.38
492.31	1719.38
492.527	1679.38
492.745	1480.38
492.963	1308.38
493.18	1281.38
493.398	1305.38
493.615	1261.38
493.833	1229.38
494.05	1218.38
494.268	1238.38
494.485	1206.38
494.703	1186.38
494.92	1228.38
495.138	1200.38
495.355	1181.38
495.573	1213.38
495.79	1369.38
496.008	1746.38
496.225	1518.38
496.442	1324.38
496.66	1339.38
496.877	1387.38
497.094	1384.38
497.312	1323.38
497.529	1270.38
497.746	1312.38
497.963	1380.38
498.181	1460.38
498.398	1561.38
498.615	1621.38
498.832	1659.38
499.049	1672.38
499.267	1533.38
499.484	1573.38
499.701	1592.38
499.918	1735.38
500.135	1862.38
500.352	1908.38
500.569	1952.38
500.786	1999.38
501.003	2006.38
501.22	1801.38
501.437	1708.38
501.654	1627.38
501.871	1609.38
502.088	1644.38
502.305	1497.38
502.522	1499.38
502.739	1467.38
502.956	1332.38
503.172	1326.38
503.389	1288.38
503.606	1250.38
503.823	1290.38
504.04	1283.38
504.256	1322.38
504.473	1343.38
504.69	1344.38
504.907	1382.38
505.123	1360.38
505.34	1406.38
505.557	1381.38
505.773	1313.38
505.99	1255.38
506.207	1336.38
506.423	1272.38
506.64	1199.38
506.856	1229.38
507.073	1347.38
507.289	1350.38
507.506	1311.38
507.722	1365.38
507.939	1412.38
508.155	1427.38
508.372	1312.38
508.588	1251.38
508.805	1233.38
509.021	1182.38
509.238	1139.38
509.454	1155.38
509.67	1150.38
509.887	1159.38
510.103	1275.38
510.319	1297.38
510.536	1159.38
510.752	1080.38
510.968	1017.38
511.184	1017.38
511.401	1020.38
511.617	1015.38
511.833	1041.38
512.049	1046.38
512.265	1087.38
512.481	1095.38
512.698	1249.38
512.914	1363.38
513.13	1205.38
513.346	1096.38
513.562	1151.38
513.778	1147.38
513.994	1138.38
514.21	1184.38
514.426	1162.38
514.642	1141.38
514.858	1128.38
515.074	1171.38
515.29	1264.38
515.506	1375.38
515.721	1326.38
515.937	1245.38
516.153	1139.38
516.369	1156.38
516.585	1207.38
516.801	1365.38
517.016	1520.38
517.232	1497.38
517.448	1461.38
517.664	1347.38
517.879	1232.38
518.095	1259.38
518.311	1231.38
518.527	1297.38
518.742	1348.38
518.958	1457.38
519.173	1405.38
519.389	1348.38
519.605	1350.38
519.82	1479.38
520.036	1693.38
520.251	1687.38
520.467	1574.38
520.682	2305.38
520.898	2792.38
521.113	2647.38
521.329	1661.38
521.544	1502.38
521.76	1455.38
521.975	1316.38
522.19	1248.38
522.406	1300.38
522.621	1445.38
522.836	1488.38
523.052	1506.38
523.267	1238.38
523.482	1257.38
523.698	1346.38
523.913	1328.38
524.128	1183.38
524.343	1160.38
524.559	1181.38
524.774	1091.38
524.989	1133.38
525.204	1177.38
525.419	1265.38
525.634	1204.38
525.849	1237.38
526.064	1217.38
526.28	1236.38
526.495	1442.38
526.71	1448.38
526.925	1300.38
527.14	1356.38
527.355	1299.38
527.57	1109.38
527.785	1186.38
527.999	1132.38
528.214	1081.38
528.429	1034.38
528.644	1042.38
528.859	997.38
529.074	993.38
529.289	1003.38
529.503	981.38
529.718	1020.38
529.933	1118.38
530.148	1182.38
530.363	1023.38
530.577	1040.38
530.792	989.38
531.007	963.38
531.221	956.38
531.436	978.38
531.651	957.38
531.865	964.38
532.08	1021.38
532.295	969.38
532.509	1026.38
532.724	1116.38
532.938	1293.38
533.153	1451.38
533.367	1197.38
533.582	1149.38
533.796	1046.38
534.011	1023.38
534.225	1051.38
534.44	1027.38
534.654	1069.38
534.868	1246.38
535.083	1098.38
535.297	1017.38
535.511	997.38
535.726	1107.38
535.94	1022.38
536.154	998.38
536.369	977.38
536.583	983.38
536.797	978.38
537.011	1019.38
537.225	1097.38
537.44	1160.38
537.654	1028.38
537.868	1023.38
538.082	1013.38
538.296	998.38
538.51	1058.38
538.724	1070.38
538.938	1035.38
539.153	967.38
539.367	992.38
539.581	967.38
539.795	1038.38
540.009	1144.38
540.222	1046.38
540.436	1013.38
540.65	1117.38
540.864	1133.38
541.078	1200.38
541.292	1298.38
541.506	1055.38
541.72	1039.38
541.934	1007.38
542.147	1027.38
542.361	994.38
542.575	1073.38
542.789	997.38
543.002	929.38
543.216	1044.38
543.43	929.38
543.644	911.38
543.857	934.38
544.071	955.38
544.285	921.38
544.498	901.38
544.712	918.38
544.925	979.38
545.139	934.38
545.352	909.38
545.566	920.38
545.779	1042.38
545.993	965.38
546.206	875.38
546.42	871.38
546.633	894.38
546.847	867.38
547.06	875.38
547.274	853.38
547.487	872.38
547.7	953.38
547.914	984.38
548.127	1088.38
548.34	1076.38
548.554	952.38
548.767	978.38
548.98	1046.38
549.193	953.38
549.407	1008.38
549.62	1163.38
549.833	1077.38
550.046	1137.38
550.259	1136.38
550.473	990.38
550.686	974.38
550.899	961.38
551.112	956.38
551.325	1026.38
551.538	1071.38
551.751	921.38
551.964	867.38
552.177	883.38
552.39	882.38
552.603	871.38
552.816	949.38
553.029	891.38
553.242	849.38
553.455	913.38
553.667	984.38
553.88	941.38
554.093	883.38
554.306	840.38
554.519	807.38
554.732	776.38
554.944	725.38
555.157	771.38
555.37	781.38
555.583	759.38
555.795	785.38
556.008	810.38
556.221	803.38
556.433	797.38
556.646	781.38
556.859	766.38
557.071	823.38
557.284	801.38
557.496	824.38
557.709	801.38
557.921	765.38
558.134	745.38
558.346	696.38
558.559	741.38
558.771	748.38
558.984	831.38
559.196	749.38
559.409	711.38
559.621	717.38
559.833	725.38
560.046	715.38
560.258	695.38
560.47	721.38
560.683	726.38
560.895	676.38
561.107	685.38
561.32	678.38
561.532	688.38
561.744	744.38
561.956	773.38
562.168	699.38
562.381	699.38
562.593	710.38
562.805	721.38
563.017	695.38
563.229	673.38
563.441	683.38
563.653	677.38
563.865	683.38
564.077	671.38
564.289	644.38
564.501	687.38
564.713	763.38
564.925	701.38
565.137	678.38
565.349	683.38
565.561	690.38
565.773	741.38
565.985	756.38
566.197	797.38
566.408	846.38
566.62	881.38
566.832	845.38
567.044	861.38
567.255	906.38
567.467	966.38
567.679	875.38
567.891	854.38
568.102	859.38
568.314	896.38
568.526	822.38
568.737	831.38
568.949	847.38
569.161	746.38
569.372	712.38
569.584	696.38
569.795	693.38
570.007	710.38
570.218	746.38
570.43	717.38
570.641	699.38
570.853	660.38
571.064	660.38
571.276	684.38
571.487	706.38
571.698	673.38
571.91	672.38
572.121	662.38
572.333	613.38
572.544	605.38
572.755	627.38
572.966	600.38
573.178	609.38
573.389	671.38
573.6	634.38
573.811	617.38
574.023	569.38
574.234	568.38
574.445	566.38
574.656	565.38
574.867	567.38
575.078	565.38
575.289	566.38
575.501	622.38
575.712	566.38
575.923	541.38
576.134	550.38
576.345	538.38
576.556	547.38
576.767	529.38
576.978	517.38
577.188	517.38
577.399	510.38
577.61	525.38
577.821	531.38
578.032	532.38
578.243	583.38
578.454	590.38
578.665	553.38
578.875	556.38
579.086	550.38
579.297	571.38
579.508	556.38
579.718	569.38
579.929	548.38
580.14	524.38
580.35	491.38
580.561	489.38
580.772	485.38
580.982	489.38
581.193	485.38
581.403	476.38
581.614	459.38
581.825	467.38
582.035	477.38
582.246	480.38
582.456	449.38
582.667	470.38
582.877	451.38
583.087	453.38
583.298	464.38
583.508	451.38
583.719	431.38
583.929	427.38
584.139	451.38
584.35	441.38
584.56	476.38
584.77	468.38
584.981	469.38
585.191	469.38
585.401	455.38
585.611	476.38
585.821	498.38
586.032	493.38
586.242	489.38
586.452	457.38
586.662	452.38
586.872	486.38
587.082	482.38
587.292	475.38
587.502	447.38
587.713	464.38
587.923	461.38
588.133	513.38
588.343	487.38
588.553	443.38
588.762	444.38
588.972	471.38
589.182	441.38
589.392	442.38
589.602	462.38
589.812	492.38
590.022	496.38
590.232	515.38
590.441	468.38
590.651	455.38
590.861	451.38
591.071	463.38
591.281	447.38
591.49	449.38
591.7	464.38
591.91	469.38
592.119	441.38
592.329	434.38
592.539	423.38
592.748	456.38
592.958	447.38
593.167	472.38
593.377	495.38
593.587	482.38
593.796	479.38
594.006	451.38
594.215	466.38
594.424	470.38
594.634	487.38
594.843	464.38
595.053	465.38
595.262	457.38
595.472	449.38
595.681	427.38
595.89	444.38
596.1	429.38
596.309	441.38
596.518	427.38
596.727	411.38
596.937	419.38
597.146	415.38
597.355	458.38
597.564	435.38
597.774	419.38
597.983	420.38
598.192	413.38
598.401	399.38
598.61	383.38
598.819	397.38
599.028	371.38
599.237	368.38
599.446	387.38
599.655	364.38
599.864	365.38
600.073	369.38
600.282	360.38
600.491	391.38
600.7	389.38
600.909	375.38
601.118	384.38
601.327	356.38
601.536	388.38
601.745	392.38
601.953	398.38
602.162	377.38
602.371	405.38
602.58	391.38
602.789	384.38
602.997	375.38
603.206	374.38
603.415	349.38
603.623	360.38
603.832	353.38
604.041	352.38
604.249	361.38
604.458	361.38
604.666	359.38
604.875	316.38
605.084	351.38
605.292	335.38
605.501	370.38
605.709	371.38
605.918	355.38
606.126	336.38
606.334	353.38
606.543	351.38
606.751	351.38
606.96	339.38
607.168	339.38
607.376	337.38
607.585	363.38
607.793	357.38
608.001	332.38
608.21	339.38
608.418	337.38
608.626	351.38
608.834	324.38
609.043	351.38
609.251	325.38
609.459	335.38
609.667	335.38
609.875	349.38
610.083	326.38
610.291	363.38
610.499	364.38
610.707	352.38
610.916	347.38
611.124	323.38
611.332	324.38
611.54	320.38
611.748	339.38
611.955	336.38
612.163	338.38
612.371	323.38
612.579	326.38
612.787	307.38
612.995	326.38
613.203	332.38
613.411	324.38
613.618	329.38
613.826	332.38
614.034	331.38
614.242	327.38
614.449	310.38
614.657	319.38
614.865	325.38
615.072	312.38
615.28	333.38
615.488	327.38
615.695	321.38
615.903	311.38
616.111	325.38
616.318	304.38
616.526	312.38
616.733	307.38
616.941	323.38
617.148	317.38
617.356	313.38
617.563	299.38
617.771	324.38
617.978	317.38
618.185	324.38
618.393	311.38
618.6	311.38
618.807	316.38
619.015	322.38
619.222	322.38
619.429	323.38
619.637	319.38
619.844	287.38
620.051	282.38
620.258	310.38
620.466	290.38
620.673	295.38
620.88	286.38
621.087	299.38
621.294	293.38
621.501	305.38
621.708	290.38
621.915	288.38
622.122	304.38
622.329	296.38
622.536	273.38
622.743	302.38
622.95	295.38
623.157	294.38
623.364	287.38
623.571	312.38
623.778	301.38
623.985	305.38
624.192	311.38
624.399	308.38
624.606	291.38
624.812	306.38
625.019	278.38
625.226	300.38
625.433	315.38
625.639	277.38
625.846	287.38
626.053	290.38
626.259	279.38
626.466	292.38
626.673	319.38
626.879	273.38
627.086	271.38
627.293	269.38
627.499	277.38
627.706	276.38
627.912	264.38
628.119	264.38
628.325	283.38
628.532	241.38
628.738	271.38
628.945	269.38
629.151	258.38
629.357	264.38
629.564	262.38
629.77	264.38
629.976	253.38
630.183	260.38
630.389	261.38
630.595	264.38
630.802	254.38
631.008	261.38
631.214	263.38
631.42	256.38
631.627	272.38
631.833	257.38
632.039	238.38
632.245	232.38
632.451	253.38
632.657	247.38
632.863	249.38
633.069	242.38
633.275	238.38
633.481	230.38
633.688	243.38
633.893	247.38
634.099	245.38
634.305	239.38
634.511	245.38
634.717	229.38
634.923	217.38
635.129	232.38
635.335	221.38
635.541	227.38
635.747	227.38
635.952	249.38
636.158	241.38
636.364	225.38
636.57	237.38
636.775	225.38
636.981	215.38
637.187	229.38
637.392	228.38
637.598	223.38
637.804	224.38
638.009	224.38
638.215	231.38
638.421	230.38
638.626	239.38
638.832	233.38
639.037	237.38
639.243	218.38
639.448	228.38
639.654	226.38
639.859	216.38
640.065	212.38
640.27	245.38
640.475	226.38
640.681	217.38
640.886	204.38
641.091	214.38
641.297	242.38
641.502	223.38
641.707	214.38
641.913	221.38
642.118	226.38
642.323	212.38
642.528	212.38
642.733	205.38
642.939	202.38
643.144	216.38
643.349	217.38
643.554	220.38
643.759	212.38
643.964	224.38
644.169	224.38
644.374	200.38
644.579	209.38
644.784	201.38
644.989	199.38
645.194	211.38
645.399	202.38
645.604	194.38
645.809	205.38
646.014	195.38
646.219	187.38
646.423	209.38
646.628	208.38
646.833	222.38
647.038	210.38
647.243	212.38
647.447	199.38
647.652	212.38
647.857	226.38
648.062	205.38
648.266	208.38
648.471	217.38
648.676	219.38
648.88	208.38
649.085	197.38
649.289	204.38
649.494	199.38
649.698	221.38
649.903	220.38
650.107	201.38
650.312	200.38
650.516	202.38
650.721	193.38
650.925	183.38
651.13	200.38
651.334	187.38
651.539	189.38
651.743	201.38
651.947	181.38
652.152	175.38
652.356	183.38
652.56	160.38
652.764	175.38
652.969	165.38
653.173	169.38
653.377	168.38
653.581	170.38
653.785	182.38
653.99	175.38
654.194	165.38
654.398	166.38
654.602	158.38
654.806	159.38
655.01	148.38
655.214	165.38
655.418	155.38
655.622	149.38
655.826	135.38
656.03	148.38
656.234	149.38
656.438	167.38
656.642	168.38
656.846	159.38
657.049	135.38
657.253	144.38
657.457	137.38
657.661	143.38
657.865	145.38
658.068	131.38
658.272	136.38
658.476	119.38
658.68	112.38
658.883	119.38
659.087	100.38
659.291	111.38
659.494	115.38
659.698	107.38
659.901	99.38
660.105	117.38
660.309	108.38
660.512	100.38
660.716	102.38
660.919	107.38
661.123	107.38
661.326	101.38
661.53	75.38
661.733	83.38
661.936	101.38
662.14	89.38
662.343	72.38
662.546	95.38
662.75	84.38
662.953	90.38
663.156	81.38
663.36	85.38
663.563	97.38
663.766	91.38
663.969	93.38
664.173	83.38
664.376	69.38
664.579	79.38
664.782	77.38
664.985	84.38
665.188	94.38
665.391	85.38
665.594	91.38
665.797	82.38
666	71.38
666.203	91.38
666.406	82.38
666.609	73.38
666.812	78.38
667.015	72.38
667.218	70.38
667.421	85.38
667.624	69.38
667.827	85.38
668.03	93.38
668.232	88.38
668.435	86.38
668.638	92.38
668.841	88.38
669.043	93.38
669.246	84.38
669.449	83.38
669.651	72.38
669.854	78.38
670.057	79.38
670.259	72.38
670.462	69.38
670.665	91.38
670.867	88.38
671.07	86.38
671.272	76.38
671.475	88.38
671.677	66.38
671.88	77.38
672.082	81.38
672.284	86.38
672.487	79.38
672.689	87.38
672.892	79.38
