Data from NickelSpatula.Lamp.E10.P2_HRD10591_11-57-14-533.txt Node
Date: Tue Jul 23 11:57:14 EDT 2019
User: cochatt
Spectrometer: HR+D1059
Trigger mode: 1
Integration Time (sec): 1.000000E-1
Scans to average: 1
Electric dark correction enabled: true
Nonlinearity correction enabled: false
Boxcar width: 0
XAxis mode: Wavelengths
Number of Pixels in Spectrum: 2048
>>>>>Begin Spectral Data<<<<<
223.165	-28.88
223.4	-28.88
223.635	-28.88
223.869	-19.88
224.104	-10.88
224.338	-22.88
224.573	-17.88
224.808	-10.88
225.042	1.12
225.277	-0.88
225.511	3.12
225.746	0.12
225.98	7.12
226.215	5.12
226.449	13.12
226.683	25.12
226.918	23.12
227.152	34.12
227.387	33.12
227.621	35.12
227.856	31.12
228.09	42.12
228.324	45.12
228.559	47.12
228.793	90.12
229.027	135.12
229.262	173.12
229.496	156.12
229.73	140.12
229.964	184.12
230.199	222.12
230.433	217.12
230.667	217.12
230.901	212.12
231.136	185.12
231.37	212.12
231.604	208.12
231.838	233.12
232.072	260.12
232.306	228.12
232.541	236.12
232.775	249.12
233.009	269.12
233.243	275.12
233.477	297.12
233.711	336.12
233.945	318.12
234.179	314.12
234.413	347.12
234.647	373.12
234.881	451.12
235.115	422.12
235.349	405.12
235.583	358.12
235.817	351.12
236.051	361.12
236.285	406.12
236.519	444.12
236.753	404.12
236.987	427.12
237.221	391.12
237.455	393.12
237.689	425.12
237.922	448.12
238.156	479.12
238.39	549.12
238.624	658.12
238.858	603.12
239.091	479.12
239.325	494.12
239.559	457.12
239.793	527.12
240.027	635.12
240.26	597.12
240.494	577.12
240.728	581.12
240.961	682.12
241.195	631.12
241.429	592.12
241.662	593.12
241.896	520.12
242.13	463.12
242.363	462.12
242.597	465.12
242.83	526.12
243.064	534.12
243.298	593.12
243.531	620.12
243.765	637.12
243.998	640.12
244.232	592.12
244.465	593.12
244.699	571.12
244.932	647.12
245.166	633.12
245.399	545.12
245.633	520.12
245.866	562.12
246.099	614.12
246.333	693.12
246.566	750.12
246.8	752.12
247.033	701.12
247.266	662.12
247.5	685.12
247.733	654.12
247.966	652.12
248.2	663.12
248.433	757.12
248.666	829.12
248.899	823.12
249.133	844.12
249.366	937.12
249.599	1010.12
249.832	906.12
250.066	807.12
250.299	832.12
250.532	793.12
250.765	793.12
250.998	731.12
251.231	706.12
251.465	765.12
251.698	795.12
251.931	787.12
252.164	826.12
252.397	945.12
252.63	1017.12
252.863	1175.12
253.096	1179.12
253.329	1092.12
253.562	1081.12
253.795	1220.12
254.028	1331.12
254.261	1326.12
254.494	1249.12
254.727	1118.12
254.96	1081.12
255.193	1155.12
255.426	1106.12
255.659	836.12
255.892	774.12
256.124	848.12
256.357	1013.12
256.59	1163.12
256.823	1121.12
257.056	943.12
257.289	878.12
257.521	966.12
257.754	1135.12
257.987	1267.12
258.22	1099.12
258.452	984.12
258.685	1123.12
258.918	1272.12
259.151	1233.12
259.383	1272.12
259.616	1478.12
259.849	1537.12
260.081	1641.12
260.314	1879.12
260.547	1460.12
260.779	1465.12
261.012	1675.12
261.244	1612.12
261.477	1615.12
261.71	1487.12
261.942	1291.12
262.175	1266.12
262.407	1224.12
262.64	1242.12
262.872	1469.12
263.105	1622.12
263.337	1672.12
263.57	1490.12
263.802	1026.12
264.035	875.12
264.267	850.12
264.499	756.12
264.732	710.12
264.964	667.12
265.197	693.12
265.429	779.12
265.661	814.12
265.894	829.12
266.126	881.12
266.358	1007.12
266.591	1244.12
266.823	1443.12
267.055	1405.12
267.287	1237.12
267.52	1237.12
267.752	1309.12
267.984	1417.12
268.216	1362.12
268.448	1132.12
268.681	1090.12
268.913	1173.12
269.145	1259.12
269.377	1276.12
269.609	1297.12
269.841	1169.12
270.073	1283.12
270.306	1338.12
270.538	1376.12
270.77	1407.12
271.002	1379.12
271.234	1443.12
271.466	1471.12
271.698	1460.12
271.93	1376.12
272.162	1379.12
272.394	1392.12
272.626	1342.12
272.858	1428.12
273.09	1446.12
273.322	1254.12
273.553	1238.12
273.785	1479.12
274.017	1897.12
274.249	2377.12
274.481	2417.12
274.713	2687.12
274.945	3042.12
275.176	3193.12
275.408	2780.12
275.64	2581.12
275.872	2527.12
276.104	2165.12
276.335	1876.12
276.567	1873.12
276.799	1917.12
277.031	2004.12
277.262	1586.12
277.494	1247.12
277.726	1163.12
277.957	1318.12
278.189	1446.12
278.421	1441.12
278.652	1428.12
278.884	1315.12
279.115	1238.12
279.347	1168.12
279.579	1157.12
279.81	1170.12
280.042	1197.12
280.273	1245.12
280.505	1127.12
280.736	1010.12
280.968	1003.12
281.199	1095.12
281.431	1201.12
281.662	1200.12
281.894	1160.12
282.125	1237.12
282.356	1346.12
282.588	1379.12
282.819	1249.12
283.051	1350.12
283.282	1625.12
283.513	1937.12
283.745	2108.12
283.976	2113.12
284.207	1965.12
284.439	2040.12
284.67	1995.12
284.901	1745.12
285.132	1910.12
285.364	1952.12
285.595	1845.12
285.826	1936.12
286.057	1995.12
286.288	1943.12
286.52	1953.12
286.751	2029.12
286.982	2042.12
287.213	1773.12
287.444	1703.12
287.675	1838.12
287.906	1821.12
288.138	1547.12
288.369	1335.12
288.6	1302.12
288.831	1370.12
289.062	1538.12
289.293	1684.12
289.524	1598.12
289.755	1571.12
289.986	1617.12
290.217	1443.12
290.448	1103.12
290.679	962.12
290.91	899.12
291.141	913.12
291.371	952.12
291.602	939.12
291.833	950.12
292.064	1035.12
292.295	1215.12
292.526	1390.12
292.757	1444.12
292.987	1520.12
293.218	1557.12
293.449	1580.12
293.68	1663.12
293.91	1583.12
294.141	1610.12
294.372	1501.12
294.603	1412.12
294.833	1586.12
295.064	1799.12
295.295	1692.12
295.525	1323.12
295.756	1088.12
295.987	987.12
296.217	993.12
296.448	1028.12
296.679	1065.12
296.909	1195.12
297.14	1275.12
297.37	1386.12
297.601	1315.12
297.831	1142.12
298.062	1237.12
298.292	1397.12
298.523	1504.12
298.753	1689.12
298.984	1569.12
299.214	1239.12
299.445	1025.12
299.675	998.12
299.905	984.12
300.136	1012.12
300.366	1167.12
300.597	1105.12
300.827	969.12
301.057	946.12
301.288	999.12
301.518	1071.12
301.748	1191.12
301.979	1273.12
302.209	1353.12
302.439	1359.12
302.669	1229.12
302.9	1191.12
303.13	1125.12
303.36	1038.12
303.59	1055.12
303.82	1062.12
304.051	1210.12
304.281	1288.12
304.511	1266.12
304.741	1131.12
304.971	1150.12
305.201	1271.12
305.431	1189.12
305.661	1062.12
305.891	1037.12
306.121	1013.12
306.352	956.12
306.582	878.12
306.812	843.12
307.042	847.12
307.272	755.12
307.502	805.12
307.731	864.12
307.961	909.12
308.191	823.12
308.421	785.12
308.651	791.12
308.881	742.12
309.111	748.12
309.341	803.12
309.571	858.12
309.8	893.12
310.03	935.12
310.26	975.12
310.49	947.12
310.72	862.12
310.949	850.12
311.179	870.12
311.409	904.12
311.639	1071.12
311.868	1382.12
312.098	1750.12
312.328	1886.12
312.557	1838.12
312.787	1860.12
313.017	1649.12
313.246	1801.12
313.476	1879.12
313.706	1584.12
313.935	1260.12
314.165	1035.12
314.394	925.12
314.624	947.12
314.853	982.12
315.083	1016.12
315.312	998.12
315.542	977.12
315.771	927.12
316.001	861.12
316.23	818.12
316.46	835.12
316.689	804.12
316.919	853.12
317.148	880.12
317.377	843.12
317.607	862.12
317.836	929.12
318.065	1071.12
318.295	1201.12
318.524	1117.12
318.753	988.12
318.983	910.12
319.212	918.12
319.441	970.12
319.67	1083.12
319.9	1193.12
320.129	1121.12
320.358	923.12
320.587	937.12
320.816	984.12
321.046	1135.12
321.275	1281.12
321.504	1305.12
321.733	1247.12
321.962	1180.12
322.191	1114.12
322.42	1086.12
322.649	1087.12
322.878	1154.12
323.108	1148.12
323.337	1061.12
323.566	1086.12
323.795	1035.12
324.024	991.12
324.253	935.12
324.482	934.12
324.71	1045.12
324.939	1166.12
325.168	1060.12
325.397	877.12
325.626	905.12
325.855	910.12
326.084	919.12
326.313	857.12
326.542	825.12
326.77	876.12
326.999	903.12
327.228	940.12
327.457	951.12
327.686	995.12
327.914	857.12
328.143	804.12
328.372	822.12
328.6	810.12
328.829	838.12
329.058	860.12
329.287	853.12
329.515	851.12
329.744	848.12
329.972	809.12
330.201	799.12
330.43	833.12
330.658	928.12
330.887	1054.12
331.115	995.12
331.344	989.12
331.572	974.12
331.801	899.12
332.03	855.12
332.258	873.12
332.486	916.12
332.715	988.12
332.943	896.12
333.172	899.12
333.4	929.12
333.629	1019.12
333.857	1102.12
334.085	1076.12
334.314	1106.12
334.542	1008.12
334.771	941.12
334.999	935.12
335.227	917.12
335.455	928.12
335.684	1005.12
335.912	1189.12
336.14	1305.12
336.369	1241.12
336.597	1184.12
336.825	1344.12
337.053	1503.12
337.281	1189.12
337.51	966.12
337.738	958.12
337.966	1033.12
338.194	1163.12
338.422	1085.12
338.65	955.12
338.878	881.12
339.106	899.12
339.334	980.12
339.562	1058.12
339.79	978.12
340.018	933.12
340.246	1016.12
340.474	1164.12
340.702	1251.12
340.93	1279.12
341.158	1259.12
341.386	1069.12
341.614	1074.12
341.842	1093.12
342.07	1135.12
342.298	1294.12
342.526	1315.12
342.754	1153.12
342.981	1068.12
343.209	1059.12
343.437	1118.12
343.665	1168.12
343.893	1151.12
344.12	1337.12
344.348	1537.12
344.576	1392.12
344.804	1187.12
345.031	1022.12
345.259	941.12
345.487	975.12
345.714	993.12
345.942	1044.12
346.17	1165.12
346.397	1110.12
346.625	989.12
346.853	943.12
347.08	886.12
347.308	988.12
347.535	1104.12
347.763	1118.12
347.99	931.12
348.218	882.12
348.445	938.12
348.673	969.12
348.9	972.12
349.128	1022.12
349.355	1040.12
349.583	1037.12
349.81	984.12
350.037	909.12
350.265	805.12
350.492	805.12
350.72	784.12
350.947	807.12
351.174	858.12
351.402	901.12
351.629	966.12
351.856	917.12
352.083	889.12
352.311	954.12
352.538	1022.12
352.765	1108.12
352.992	998.12
353.22	963.12
353.447	953.12
353.674	932.12
353.901	899.12
354.128	952.12
354.355	973.12
354.583	933.12
354.81	951.12
355.037	992.12
355.264	969.12
355.491	1029.12
355.718	1114.12
355.945	1054.12
356.172	1022.12
356.399	1044.12
356.626	1277.12
356.853	1505.12
357.08	1623.12
357.307	1655.12
357.534	1293.12
357.761	1315.12
357.988	1622.12
358.215	1951.12
358.441	1835.12
358.668	1545.12
358.895	1446.12
359.122	1151.12
359.349	1158.12
359.576	1259.12
359.802	1056.12
360.029	914.12
360.256	956.12
360.483	1240.12
360.709	1515.12
360.936	1557.12
361.163	1358.12
361.39	1084.12
361.616	989.12
361.843	1142.12
362.07	1403.12
362.296	1305.12
362.523	1046.12
362.749	929.12
362.976	953.12
363.203	1188.12
363.429	1245.12
363.656	1040.12
363.882	945.12
364.109	971.12
364.335	966.12
364.562	946.12
364.788	1056.12
365.015	1238.12
365.241	1138.12
365.468	897.12
365.694	830.12
365.92	817.12
366.147	787.12
366.373	782.12
366.599	783.12
366.826	770.12
367.052	813.12
367.278	824.12
367.505	811.12
367.731	865.12
367.957	954.12
368.184	976.12
368.41	973.12
368.636	982.12
368.862	1015.12
369.089	934.12
369.315	890.12
369.541	870.12
369.767	848.12
369.993	836.12
370.219	851.12
370.445	874.12
370.672	957.12
370.898	1051.12
371.124	1038.12
371.35	921.12
371.576	873.12
371.802	958.12
372.028	1089.12
372.254	1265.12
372.48	1099.12
372.706	1007.12
372.932	1049.12
373.158	1096.12
373.384	1282.12
373.61	1683.12
373.835	1738.12
374.061	1306.12
374.287	1110.12
374.513	1324.12
374.739	1523.12
374.965	1627.12
375.191	1577.12
375.416	1138.12
375.642	967.12
375.868	1119.12
376.094	1246.12
376.319	1142.12
376.545	1233.12
376.771	1298.12
376.997	1094.12
377.222	883.12
377.448	718.12
377.674	761.12
377.899	731.12
378.125	769.12
378.35	761.12
378.576	776.12
378.802	838.12
379.027	921.12
379.253	895.12
379.478	886.12
379.704	973.12
379.929	1083.12
380.155	1025.12
380.38	897.12
380.606	963.12
380.831	1087.12
381.057	1008.12
381.282	954.12
381.507	1116.12
381.733	1378.12
381.958	1468.12
382.184	1539.12
382.409	1629.12
382.634	1547.12
382.86	1650.12
383.085	1338.12
383.31	1097.12
383.535	1166.12
383.761	1172.12
383.986	1095.12
384.211	1348.12
384.436	1299.12
384.662	1015.12
384.887	977.12
385.112	1007.12
385.337	1047.12
385.562	958.12
385.787	1057.12
386.013	1133.12
386.238	1189.12
386.463	975.12
386.688	981.12
386.913	900.12
387.138	856.12
387.363	917.12
387.588	941.12
387.813	953.12
388.038	1062.12
388.263	959.12
388.488	949.12
388.713	1090.12
388.938	1157.12
389.163	985.12
389.387	875.12
389.612	916.12
389.837	924.12
390.062	922.12
390.287	985.12
390.512	973.12
390.736	903.12
390.961	870.12
391.186	825.12
391.411	803.12
391.636	835.12
391.86	928.12
392.085	988.12
392.31	983.12
392.534	926.12
392.759	901.12
392.984	959.12
393.208	925.12
393.433	885.12
393.658	789.12
393.882	779.12
394.107	799.12
394.331	802.12
394.556	789.12
394.78	779.12
395.005	830.12
395.229	846.12
395.454	868.12
395.678	878.12
395.903	897.12
396.127	830.12
396.352	869.12
396.576	959.12
396.801	959.12
397.025	1092.12
397.249	1125.12
397.474	885.12
397.698	898.12
397.922	948.12
398.147	884.12
398.371	910.12
398.595	961.12
398.82	938.12
399.044	940.12
399.268	1008.12
399.492	1050.12
399.717	1029.12
399.941	1093.12
400.165	1065.12
400.389	1018.12
400.613	1052.12
400.837	989.12
401.062	914.12
401.286	902.12
401.51	878.12
401.734	891.12
401.958	913.12
402.182	902.12
402.406	891.12
402.63	913.12
402.854	942.12
403.078	1076.12
403.302	1290.12
403.526	1319.12
403.75	1134.12
403.974	1031.12
404.198	1081.12
404.422	1214.12
404.645	1396.12
404.869	1502.12
405.093	1141.12
405.317	982.12
405.541	969.12
405.765	1053.12
405.988	969.12
406.212	1059.12
406.436	1242.12
406.66	1371.12
406.883	1113.12
407.107	1137.12
407.331	1337.12
407.555	1285.12
407.778	1092.12
408.002	1011.12
408.226	1077.12
408.449	1029.12
408.673	1010.12
408.896	959.12
409.12	934.12
409.344	924.12
409.567	913.12
409.791	900.12
410.014	903.12
410.238	902.12
410.461	868.12
410.685	879.12
410.908	885.12
411.132	906.12
411.355	920.12
411.578	953.12
411.802	943.12
412.025	982.12
412.249	969.12
412.472	932.12
412.695	926.12
412.919	945.12
413.142	988.12
413.365	1035.12
413.589	1030.12
413.812	957.12
414.035	912.12
414.258	915.12
414.482	1049.12
414.705	1044.12
414.928	932.12
415.151	873.12
415.374	878.12
415.597	906.12
415.821	923.12
416.044	910.12
416.267	869.12
416.49	881.12
416.713	863.12
416.936	874.12
417.159	853.12
417.382	863.12
417.605	883.12
417.828	921.12
418.051	905.12
418.274	893.12
418.497	941.12
418.72	913.12
418.943	971.12
419.166	993.12
419.389	1034.12
419.611	1002.12
419.834	1074.12
420.057	1094.12
420.28	1083.12
420.503	1014.12
420.726	909.12
420.948	862.12
421.171	874.12
421.394	891.12
421.617	857.12
421.839	886.12
422.062	931.12
422.285	915.12
422.507	911.12
422.73	953.12
422.953	981.12
423.175	915.12
423.398	950.12
423.621	987.12
423.843	1032.12
424.066	987.12
424.288	923.12
424.511	926.12
424.733	923.12
424.956	961.12
425.178	1028.12
425.401	1190.12
425.623	1327.12
425.846	1114.12
426.068	971.12
426.291	1106.12
426.513	1011.12
426.735	930.12
426.958	990.12
427.18	1138.12
427.402	1453.12
427.625	1396.12
427.847	1132.12
428.069	913.12
428.292	934.12
428.514	897.12
428.736	836.12
428.958	957.12
429.181	1081.12
429.403	957.12
429.625	868.12
429.847	866.12
430.069	891.12
430.292	891.12
430.514	882.12
430.736	926.12
430.958	1149.12
431.18	1018.12
431.402	830.12
431.624	812.12
431.846	823.12
432.068	782.12
432.29	804.12
432.512	904.12
432.734	1181.12
432.956	1070.12
433.178	876.12
433.4	857.12
433.622	851.12
433.844	849.12
434.066	949.12
434.287	925.12
434.509	875.12
434.731	916.12
434.953	851.12
435.175	881.12
435.397	1019.12
435.618	899.12
435.84	843.12
436.062	824.12
436.284	851.12
436.505	833.12
436.727	798.12
436.949	826.12
437.17	838.12
437.392	833.12
437.614	809.12
437.835	794.12
438.057	842.12
438.278	980.12
438.5	1323.12
438.721	1322.12
438.943	931.12
439.165	837.12
439.386	797.12
439.608	751.12
439.829	805.12
440.05	777.12
440.272	855.12
440.493	980.12
440.715	1175.12
440.936	1003.12
441.158	860.12
441.379	879.12
441.6	955.12
441.822	1027.12
442.043	893.12
442.264	862.12
442.486	869.12
442.707	859.12
442.928	878.12
443.149	904.12
443.371	910.12
443.592	916.12
443.813	928.12
444.034	887.12
444.255	921.12
444.476	962.12
444.698	939.12
444.919	952.12
445.14	1039.12
445.361	997.12
445.582	943.12
445.803	933.12
446.024	928.12
446.245	935.12
446.466	917.12
446.687	875.12
446.908	885.12
447.129	859.12
447.35	840.12
447.571	819.12
447.792	806.12
448.013	787.12
448.234	794.12
448.455	779.12
448.675	787.12
448.896	809.12
449.117	793.12
449.338	825.12
449.559	815.12
449.779	878.12
450	873.12
450.221	853.12
450.442	804.12
450.662	791.12
450.883	817.12
451.104	807.12
451.324	789.12
451.545	820.12
451.766	825.12
451.986	797.12
452.207	759.12
452.428	783.12
452.648	767.12
452.869	819.12
453.089	829.12
453.31	830.12
453.53	752.12
453.751	754.12
453.971	728.12
454.192	789.12
454.412	801.12
454.633	727.12
454.853	752.12
455.073	720.12
455.294	721.12
455.514	745.12
455.734	769.12
455.955	788.12
456.175	845.12
456.395	761.12
456.616	695.12
456.836	677.12
457.056	700.12
457.276	703.12
457.497	707.12
457.717	720.12
457.937	727.12
458.157	718.12
458.377	730.12
458.598	742.12
458.818	767.12
459.038	821.12
459.258	832.12
459.478	853.12
459.698	891.12
459.918	903.12
460.138	894.12
460.358	891.12
460.578	855.12
460.798	877.12
461.018	875.12
461.238	853.12
461.458	871.12
461.678	890.12
461.898	908.12
462.118	928.12
462.338	958.12
462.558	942.12
462.777	1020.12
462.997	989.12
463.217	989.12
463.437	1031.12
463.657	1009.12
463.876	975.12
464.096	950.12
464.316	986.12
464.536	979.12
464.755	987.12
464.975	1021.12
465.195	972.12
465.414	1001.12
465.634	937.12
465.854	945.12
466.073	874.12
466.293	859.12
466.512	899.12
466.732	986.12
466.951	1044.12
467.171	921.12
467.391	867.12
467.61	836.12
467.829	919.12
468.049	939.12
468.268	854.12
468.488	889.12
468.707	895.12
468.927	1043.12
469.146	1163.12
469.365	1048.12
469.585	943.12
469.804	1011.12
470.023	1098.12
470.243	953.12
470.462	903.12
470.681	895.12
470.901	907.12
471.12	973.12
471.339	965.12
471.558	902.12
471.777	927.12
471.997	998.12
472.216	1090.12
472.435	1076.12
472.654	969.12
472.873	962.12
473.092	1001.12
473.311	1047.12
473.53	967.12
473.749	896.12
473.968	963.12
474.187	948.12
474.406	927.12
474.625	952.12
474.844	915.12
475.063	1005.12
475.282	1013.12
475.501	1087.12
475.72	1089.12
475.939	1093.12
476.158	1064.12
476.377	1234.12
476.596	1419.12
476.814	1493.12
477.033	1225.12
477.252	1056.12
477.471	998.12
477.69	1037.12
477.908	1118.12
478.127	1142.12
478.346	1065.12
478.564	1145.12
478.783	1099.12
479.002	1110.12
479.22	1259.12
479.439	1382.12
479.658	1244.12
479.876	1116.12
480.095	1194.12
480.313	1218.12
480.532	1105.12
480.751	1081.12
480.969	1107.12
481.188	1254.12
481.406	1323.12
481.624	1233.12
481.843	1108.12
482.061	1073.12
482.28	1174.12
482.498	1440.12
482.717	1379.12
482.935	1191.12
483.153	1108.12
483.372	1054.12
483.59	1041.12
483.808	1015.12
484.027	1042.12
484.245	1001.12
484.463	966.12
484.681	1039.12
484.9	1092.12
485.118	1188.12
485.336	1089.12
485.554	1031.12
485.772	1067.12
485.99	1137.12
486.209	1195.12
486.427	1214.12
486.645	1191.12
486.863	1229.12
487.081	1206.12
487.299	1351.12
487.517	1302.12
487.735	1205.12
487.953	1236.12
488.171	1251.12
488.389	1186.12
488.607	1123.12
488.825	1156.12
489.043	1250.12
489.261	1415.12
489.479	1474.12
489.696	1277.12
489.914	1155.12
490.132	1095.12
490.35	1140.12
490.568	1125.12
490.786	1121.12
491.003	1116.12
491.221	1154.12
491.439	1114.12
491.657	1173.12
491.874	1220.12
492.092	1479.12
492.31	1714.12
492.527	1700.12
492.745	1500.12
492.963	1298.12
493.18	1293.12
493.398	1298.12
493.615	1268.12
493.833	1242.12
494.05	1255.12
494.268	1257.12
494.485	1229.12
494.703	1197.12
494.92	1242.12
495.138	1211.12
495.355	1210.12
495.573	1223.12
495.79	1373.12
496.008	1706.12
496.225	1524.12
496.442	1358.12
496.66	1333.12
496.877	1419.12
497.094	1394.12
497.312	1291.12
497.529	1302.12
497.746	1352.12
497.963	1372.12
498.181	1479.12
498.398	1585.12
498.615	1654.12
498.832	1693.12
499.049	1717.12
499.267	1558.12
499.484	1558.12
499.701	1570.12
499.918	1762.12
500.135	1862.12
500.352	1919.12
500.569	2019.12
500.786	2048.12
501.003	2012.12
501.22	1835.12
501.437	1722.12
501.654	1641.12
501.871	1604.12
502.088	1657.12
502.305	1508.12
502.522	1522.12
502.739	1496.12
502.956	1358.12
503.172	1362.12
503.389	1299.12
503.606	1295.12
503.823	1306.12
504.04	1297.12
504.256	1334.12
504.473	1350.12
504.69	1369.12
504.907	1410.12
505.123	1325.12
505.34	1431.12
505.557	1430.12
505.773	1349.12
505.99	1301.12
506.207	1358.12
506.423	1252.12
506.64	1191.12
506.856	1207.12
507.073	1316.12
507.289	1353.12
507.506	1332.12
507.722	1378.12
507.939	1425.12
508.155	1463.12
508.372	1270.12
508.588	1258.12
508.805	1231.12
509.021	1202.12
509.238	1129.12
509.454	1157.12
509.67	1172.12
509.887	1178.12
510.103	1308.12
510.319	1318.12
510.536	1210.12
510.752	1073.12
510.968	1056.12
511.184	1010.12
511.401	1036.12
511.617	1030.12
511.833	1060.12
512.049	1087.12
512.265	1108.12
512.481	1115.12
512.698	1242.12
512.914	1364.12
513.13	1217.12
513.346	1104.12
513.562	1169.12
513.778	1171.12
513.994	1142.12
514.21	1219.12
514.426	1174.12
514.642	1142.12
514.858	1134.12
515.074	1149.12
515.29	1265.12
515.506	1390.12
515.721	1355.12
515.937	1213.12
516.153	1177.12
516.369	1165.12
516.585	1181.12
516.801	1388.12
517.016	1590.12
517.232	1524.12
517.448	1493.12
517.664	1355.12
517.879	1281.12
518.095	1260.12
518.311	1315.12
518.527	1307.12
518.742	1376.12
518.958	1489.12
519.173	1385.12
519.389	1328.12
519.605	1350.12
519.82	1475.12
520.036	1714.12
520.251	1689.12
520.467	1572.12
520.682	2329.12
520.898	2773.12
521.113	2631.12
521.329	1725.12
521.544	1521.12
521.76	1489.12
521.975	1349.12
522.19	1276.12
522.406	1320.12
522.621	1451.12
522.836	1475.12
523.052	1513.12
523.267	1300.12
523.482	1291.12
523.698	1342.12
523.913	1341.12
524.128	1198.12
524.343	1172.12
524.559	1166.12
524.774	1108.12
524.989	1106.12
525.204	1204.12
525.419	1313.12
525.634	1210.12
525.849	1244.12
526.064	1243.12
526.28	1262.12
526.495	1480.12
526.71	1507.12
526.925	1326.12
527.14	1347.12
527.355	1337.12
527.57	1145.12
527.785	1175.12
527.999	1139.12
528.214	1081.12
528.429	1049.12
528.644	1054.12
528.859	1015.12
529.074	1002.12
529.289	1023.12
529.503	995.12
529.718	1026.12
529.933	1149.12
530.148	1195.12
530.363	1030.12
530.577	1014.12
530.792	1014.12
531.007	964.12
531.221	991.12
531.436	958.12
531.651	985.12
531.865	982.12
532.08	1017.12
532.295	981.12
532.509	1021.12
532.724	1124.12
532.938	1264.12
533.153	1473.12
533.367	1204.12
533.582	1159.12
533.796	1103.12
534.011	1010.12
534.225	1035.12
534.44	1062.12
534.654	1072.12
534.868	1263.12
535.083	1124.12
535.297	1017.12
535.511	1033.12
535.726	1143.12
535.94	1074.12
536.154	1019.12
536.369	986.12
536.583	993.12
536.797	1007.12
537.011	1022.12
537.225	1120.12
537.44	1155.12
537.654	1033.12
537.868	1031.12
538.082	1013.12
538.296	1037.12
538.51	1078.12
538.724	1065.12
538.938	1045.12
539.153	979.12
539.367	958.12
539.581	996.12
539.795	1025.12
540.009	1135.12
540.222	1025.12
540.436	1053.12
540.65	1131.12
540.864	1142.12
541.078	1124.12
541.292	1291.12
541.506	1121.12
541.72	1090.12
541.934	1007.12
542.147	1007.12
542.361	1027.12
542.575	1046.12
542.789	992.12
543.002	941.12
543.216	1044.12
543.43	949.12
543.644	919.12
543.857	924.12
544.071	913.12
544.285	943.12
544.498	895.12
544.712	933.12
544.925	1008.12
545.139	925.12
545.352	923.12
545.566	908.12
545.779	1025.12
545.993	970.12
546.206	852.12
546.42	882.12
546.633	926.12
546.847	863.12
547.06	822.12
547.274	853.12
547.487	865.12
547.7	931.12
547.914	997.12
548.127	1089.12
548.34	1061.12
548.554	981.12
548.767	999.12
548.98	1051.12
549.193	985.12
549.407	988.12
549.62	1173.12
549.833	1075.12
550.046	1128.12
550.259	1154.12
550.473	1005.12
550.686	960.12
550.899	981.12
551.112	971.12
551.325	1045.12
551.538	1062.12
551.751	941.12
551.964	873.12
552.177	907.12
552.39	853.12
552.603	887.12
552.816	927.12
553.029	911.12
553.242	868.12
553.455	933.12
553.667	1021.12
553.88	965.12
554.093	888.12
554.306	859.12
554.519	775.12
554.732	789.12
554.944	765.12
555.157	787.12
555.37	773.12
555.583	775.12
555.795	813.12
556.008	792.12
556.221	797.12
556.433	802.12
556.646	781.12
556.859	779.12
557.071	801.12
557.284	820.12
557.496	819.12
557.709	803.12
557.921	771.12
558.134	735.12
558.346	717.12
558.559	752.12
558.771	785.12
558.984	803.12
559.196	779.12
559.409	748.12
559.621	694.12
559.833	701.12
560.046	725.12
560.258	735.12
560.47	773.12
560.683	698.12
560.895	690.12
561.107	654.12
561.32	681.12
561.532	687.12
561.744	738.12
561.956	759.12
562.168	697.12
562.381	699.12
562.593	708.12
562.805	721.12
563.017	706.12
563.229	672.12
563.441	682.12
563.653	667.12
563.865	709.12
564.077	689.12
564.289	691.12
564.501	668.12
564.713	733.12
564.925	725.12
565.137	691.12
565.349	728.12
565.561	707.12
565.773	714.12
565.985	737.12
566.197	790.12
566.408	836.12
566.62	861.12
566.832	841.12
567.044	820.12
567.255	887.12
567.467	988.12
567.679	860.12
567.891	880.12
568.102	898.12
568.314	906.12
568.526	839.12
568.737	837.12
568.949	843.12
569.161	723.12
569.372	690.12
569.584	722.12
569.795	700.12
570.007	709.12
570.218	728.12
570.43	685.12
570.641	687.12
570.853	688.12
571.064	663.12
571.276	681.12
571.487	683.12
571.698	649.12
571.91	691.12
572.121	662.12
572.333	594.12
572.544	632.12
572.755	633.12
572.966	610.12
573.178	609.12
573.389	662.12
573.6	618.12
573.811	621.12
574.023	566.12
574.234	565.12
574.445	582.12
574.656	573.12
574.867	583.12
575.078	595.12
575.289	577.12
575.501	612.12
575.712	572.12
575.923	548.12
576.134	535.12
576.345	532.12
576.556	538.12
576.767	534.12
576.978	533.12
577.188	522.12
577.399	500.12
577.61	505.12
577.821	503.12
578.032	540.12
578.243	558.12
578.454	556.12
578.665	569.12
578.875	574.12
579.086	550.12
579.297	563.12
579.508	580.12
579.718	588.12
579.929	578.12
580.14	555.12
580.35	501.12
580.561	516.12
580.772	479.12
580.982	492.12
581.193	474.12
581.403	473.12
581.614	463.12
581.825	463.12
582.035	460.12
582.246	480.12
582.456	472.12
582.667	471.12
582.877	471.12
583.087	462.12
583.298	438.12
583.508	465.12
583.719	442.12
583.929	466.12
584.139	469.12
584.35	444.12
584.56	461.12
584.77	486.12
584.981	501.12
585.191	457.12
585.401	459.12
585.611	483.12
585.821	473.12
586.032	498.12
586.242	461.12
586.452	468.12
586.662	455.12
586.872	484.12
587.082	485.12
587.292	460.12
587.502	454.12
587.713	449.12
587.923	458.12
588.133	483.12
588.343	476.12
588.553	470.12
588.762	474.12
588.972	461.12
589.182	443.12
589.392	449.12
589.602	465.12
589.812	469.12
590.022	515.12
590.232	507.12
590.441	472.12
590.651	440.12
590.861	457.12
591.071	474.12
591.281	458.12
591.49	451.12
591.7	457.12
591.91	445.12
592.119	438.12
592.329	440.12
592.539	447.12
592.748	479.12
592.958	463.12
593.167	463.12
593.377	475.12
593.587	503.12
593.796	449.12
594.006	477.12
594.215	473.12
594.424	489.12
594.634	517.12
594.843	464.12
595.053	454.12
595.262	441.12
595.472	444.12
595.681	452.12
595.89	438.12
596.1	433.12
596.309	437.12
596.518	432.12
596.727	403.12
596.937	415.12
597.146	437.12
597.355	448.12
597.564	452.12
597.774	417.12
597.983	405.12
598.192	420.12
598.401	417.12
598.61	380.12
598.819	401.12
599.028	395.12
599.237	413.12
599.446	373.12
599.655	392.12
599.864	369.12
600.073	396.12
600.282	401.12
600.491	398.12
600.7	369.12
600.909	351.12
601.118	389.12
601.327	372.12
601.536	389.12
601.745	387.12
601.953	410.12
602.162	374.12
602.371	378.12
602.58	386.12
602.789	381.12
602.997	379.12
603.206	379.12
603.415	356.12
603.623	371.12
603.832	371.12
604.041	374.12
604.249	367.12
604.458	386.12
604.666	370.12
604.875	350.12
605.084	348.12
605.292	375.12
605.501	345.12
605.709	373.12
605.918	362.12
606.126	345.12
606.334	342.12
606.543	371.12
606.751	356.12
606.96	350.12
607.168	352.12
607.376	356.12
607.585	331.12
607.793	353.12
608.001	346.12
608.21	346.12
608.418	343.12
608.626	351.12
608.834	348.12
609.043	348.12
609.251	351.12
609.459	327.12
609.667	337.12
609.875	346.12
610.083	341.12
610.291	350.12
610.499	363.12
610.707	334.12
610.916	345.12
611.124	342.12
611.332	340.12
611.54	334.12
611.748	332.12
611.955	335.12
612.163	342.12
612.371	331.12
612.579	328.12
612.787	337.12
612.995	347.12
613.203	341.12
613.411	330.12
613.618	337.12
613.826	341.12
614.034	361.12
614.242	345.12
614.449	331.12
614.657	323.12
614.865	303.12
615.072	331.12
615.28	337.12
615.488	319.12
615.695	308.12
615.903	328.12
616.111	334.12
616.318	336.12
616.526	325.12
616.733	333.12
616.941	315.12
617.148	329.12
617.356	320.12
617.563	324.12
617.771	303.12
617.978	306.12
618.185	312.12
618.393	317.12
618.6	311.12
618.807	327.12
619.015	313.12
619.222	324.12
619.429	326.12
619.637	319.12
619.844	315.12
620.051	303.12
620.258	294.12
620.466	301.12
620.673	289.12
620.88	297.12
621.087	298.12
621.294	297.12
621.501	280.12
621.708	281.12
621.915	297.12
622.122	297.12
622.329	311.12
622.536	276.12
622.743	276.12
622.95	294.12
623.157	287.12
623.364	304.12
623.571	297.12
623.778	287.12
623.985	313.12
624.192	304.12
624.399	299.12
624.606	295.12
624.812	287.12
625.019	310.12
625.226	309.12
625.433	293.12
625.639	297.12
625.846	271.12
626.053	271.12
626.259	276.12
626.466	291.12
626.673	278.12
626.879	281.12
627.086	264.12
627.293	280.12
627.499	263.12
627.706	269.12
627.912	270.12
628.119	272.12
628.325	275.12
628.532	267.12
628.738	271.12
628.945	252.12
629.151	257.12
629.357	269.12
629.564	269.12
629.77	276.12
629.976	260.12
630.183	259.12
630.389	274.12
630.595	255.12
630.802	228.12
631.008	247.12
631.214	237.12
631.42	251.12
631.627	245.12
631.833	234.12
632.039	242.12
632.245	256.12
632.451	239.12
632.657	234.12
632.863	242.12
633.069	248.12
633.275	261.12
633.481	241.12
633.688	236.12
633.893	242.12
634.099	238.12
634.305	241.12
634.511	228.12
634.717	239.12
634.923	230.12
635.129	229.12
635.335	217.12
635.541	237.12
635.747	241.12
635.952	225.12
636.158	233.12
636.364	249.12
636.57	241.12
636.775	237.12
636.981	250.12
637.187	211.12
637.392	226.12
637.598	223.12
637.804	221.12
638.009	226.12
638.215	235.12
638.421	220.12
638.626	222.12
638.832	234.12
639.037	212.12
639.243	230.12
639.448	223.12
639.654	246.12
639.859	223.12
640.065	215.12
640.27	236.12
640.475	227.12
640.681	205.12
640.886	235.12
641.091	230.12
641.297	205.12
641.502	234.12
641.707	221.12
641.913	211.12
642.118	237.12
642.323	226.12
642.528	226.12
642.733	226.12
642.939	217.12
643.144	215.12
643.349	218.12
643.554	214.12
643.759	212.12
643.964	195.12
644.169	210.12
644.374	217.12
644.579	207.12
644.784	210.12
644.989	199.12
645.194	213.12
645.399	193.12
645.604	202.12
645.809	193.12
646.014	221.12
646.219	210.12
646.423	212.12
646.628	209.12
646.833	208.12
647.038	199.12
647.243	206.12
647.447	210.12
647.652	219.12
647.857	220.12
648.062	209.12
648.266	203.12
648.471	206.12
648.676	228.12
648.88	222.12
649.085	223.12
649.289	211.12
649.494	213.12
649.698	221.12
649.903	209.12
650.107	202.12
650.312	196.12
650.516	196.12
650.721	177.12
650.925	191.12
651.13	191.12
651.334	183.12
651.539	198.12
651.743	181.12
651.947	171.12
652.152	165.12
652.356	164.12
652.56	186.12
652.764	171.12
652.969	173.12
653.173	157.12
653.377	161.12
653.581	158.12
653.785	159.12
653.99	169.12
654.194	155.12
654.398	160.12
654.602	147.12
654.806	137.12
655.01	158.12
655.214	169.12
655.418	161.12
655.622	143.12
655.826	148.12
656.03	145.12
656.234	150.12
656.438	154.12
656.642	159.12
656.846	159.12
657.049	146.12
657.253	145.12
657.457	142.12
657.661	124.12
657.865	116.12
658.068	107.12
658.272	125.12
658.476	121.12
658.68	110.12
658.883	98.12
659.087	118.12
659.291	103.12
659.494	102.12
659.698	105.12
659.901	107.12
660.105	106.12
660.309	99.12
660.512	98.12
660.716	108.12
660.919	93.12
661.123	90.12
661.326	88.12
661.53	85.12
661.733	104.12
661.936	82.12
662.14	86.12
662.343	89.12
662.546	89.12
662.75	92.12
662.953	84.12
663.156	72.12
663.36	87.12
663.563	91.12
663.766	94.12
663.969	77.12
664.173	80.12
664.376	83.12
664.579	84.12
664.782	82.12
664.985	86.12
665.188	80.12
665.391	87.12
665.594	83.12
665.797	87.12
666	89.12
666.203	66.12
666.406	78.12
666.609	65.12
666.812	93.12
667.015	72.12
667.218	81.12
667.421	83.12
667.624	78.12
667.827	76.12
668.03	60.12
668.232	83.12
668.435	91.12
668.638	89.12
668.841	74.12
669.043	86.12
669.246	80.12
669.449	70.12
669.651	68.12
669.854	68.12
670.057	74.12
670.259	90.12
670.462	87.12
670.665	73.12
670.867	77.12
671.07	72.12
671.272	88.12
671.475	81.12
671.677	70.12
671.88	76.12
672.082	92.12
672.284	77.12
672.487	71.12
672.689	72.12
672.892	83.12
