Data from NickelSpatula.Lamp.E10.P2_HRD10591_11-58-22-529.txt Node
Date: Tue Jul 23 11:58:22 EDT 2019
User: cochatt
Spectrometer: HR+D1059
Trigger mode: 1
Integration Time (sec): 1.000000E-1
Scans to average: 1
Electric dark correction enabled: true
Nonlinearity correction enabled: false
Boxcar width: 0
XAxis mode: Wavelengths
Number of Pixels in Spectrum: 2048
>>>>>Begin Spectral Data<<<<<
223.165	-16.62
223.4	-16.62
223.635	-16.62
223.869	-24.62
224.104	-23.62
224.338	-17.62
224.573	-10.62
224.808	-18.62
225.042	-6.62
225.277	-4.62
225.511	-16.62
225.746	8.38
225.98	5.38
226.215	12.38
226.449	23.38
226.683	23.38
226.918	34.38
227.152	32.38
227.387	35.38
227.621	35.38
227.856	52.38
228.09	50.38
228.324	58.38
228.559	54.38
228.793	79.38
229.027	126.38
229.262	149.38
229.496	153.38
229.73	162.38
229.964	180.38
230.199	193.38
230.433	203.38
230.667	209.38
230.901	207.38
231.136	187.38
231.37	203.38
231.604	224.38
231.838	242.38
232.072	249.38
232.306	270.38
232.541	241.38
232.775	234.38
233.009	260.38
233.243	290.38
233.477	302.38
233.711	347.38
233.945	341.38
234.179	353.38
234.413	350.38
234.647	380.38
234.881	451.38
235.115	400.38
235.349	394.38
235.583	347.38
235.817	352.38
236.051	370.38
236.285	405.38
236.519	465.38
236.753	424.38
236.987	432.38
237.221	412.38
237.455	432.38
237.689	433.38
237.922	440.38
238.156	465.38
238.39	534.38
238.624	638.38
238.858	543.38
239.091	494.38
239.325	494.38
239.559	482.38
239.793	540.38
240.027	648.38
240.26	587.38
240.494	593.38
240.728	596.38
240.961	703.38
241.195	627.38
241.429	636.38
241.662	624.38
241.896	516.38
242.13	473.38
242.363	469.38
242.597	461.38
242.83	529.38
243.064	500.38
243.298	579.38
243.531	639.38
243.765	629.38
243.998	602.38
244.232	588.38
244.465	598.38
244.699	574.38
244.932	673.38
245.166	649.38
245.399	549.38
245.633	545.38
245.866	549.38
246.099	600.38
246.333	722.38
246.566	779.38
246.8	765.38
247.033	737.38
247.266	666.38
247.5	666.38
247.733	674.38
247.966	655.38
248.2	669.38
248.433	754.38
248.666	804.38
248.899	856.38
249.133	864.38
249.366	1025.38
249.599	1026.38
249.832	943.38
250.066	795.38
250.299	842.38
250.532	806.38
250.765	786.38
250.998	743.38
251.231	699.38
251.465	754.38
251.698	831.38
251.931	804.38
252.164	835.38
252.397	920.38
252.63	1039.38
252.863	1151.38
253.096	1197.38
253.329	1166.38
253.562	1111.38
253.795	1244.38
254.028	1333.38
254.261	1365.38
254.494	1237.38
254.727	1170.38
254.96	1129.38
255.193	1187.38
255.426	1128.38
255.659	849.38
255.892	786.38
256.124	847.38
256.357	999.38
256.59	1169.38
256.823	1141.38
257.056	959.38
257.289	933.38
257.521	961.38
257.754	1119.38
257.987	1275.38
258.22	1097.38
258.452	982.38
258.685	1147.38
258.918	1268.38
259.151	1213.38
259.383	1270.38
259.616	1492.38
259.849	1521.38
260.081	1726.38
260.314	1902.38
260.547	1457.38
260.779	1433.38
261.012	1701.38
261.244	1592.38
261.477	1617.38
261.71	1558.38
261.942	1240.38
262.175	1278.38
262.407	1231.38
262.64	1258.38
262.872	1458.38
263.105	1602.38
263.337	1744.38
263.57	1505.38
263.802	1037.38
264.035	899.38
264.267	862.38
264.499	749.38
264.732	687.38
264.964	682.38
265.197	730.38
265.429	768.38
265.661	819.38
265.894	849.38
266.126	921.38
266.358	1008.38
266.591	1265.38
266.823	1468.38
267.055	1405.38
267.287	1223.38
267.52	1219.38
267.752	1327.38
267.984	1407.38
268.216	1355.38
268.448	1094.38
268.681	1100.38
268.913	1229.38
269.145	1270.38
269.377	1276.38
269.609	1270.38
269.841	1207.38
270.073	1305.38
270.306	1347.38
270.538	1335.38
270.77	1393.38
271.002	1397.38
271.234	1437.38
271.466	1487.38
271.698	1454.38
271.93	1383.38
272.162	1424.38
272.394	1396.38
272.626	1365.38
272.858	1431.38
273.09	1487.38
273.322	1286.38
273.553	1256.38
273.785	1513.38
274.017	1953.38
274.249	2388.38
274.481	2481.38
274.713	2701.38
274.945	3107.38
275.176	3213.38
275.408	2798.38
275.64	2571.38
275.872	2607.38
276.104	2203.38
276.335	1855.38
276.567	1892.38
276.799	1951.38
277.031	2041.38
277.262	1579.38
277.494	1224.38
277.726	1174.38
277.957	1312.38
278.189	1457.38
278.421	1471.38
278.652	1412.38
278.884	1351.38
279.115	1249.38
279.347	1183.38
279.579	1209.38
279.81	1222.38
280.042	1197.38
280.273	1231.38
280.505	1126.38
280.736	1037.38
280.968	1016.38
281.199	1089.38
281.431	1194.38
281.662	1189.38
281.894	1168.38
282.125	1220.38
282.356	1362.38
282.588	1369.38
282.819	1247.38
283.051	1370.38
283.282	1642.38
283.513	1924.38
283.745	2177.38
283.976	2124.38
284.207	1993.38
284.439	2041.38
284.67	1987.38
284.901	1756.38
285.132	1894.38
285.364	1971.38
285.595	1832.38
285.826	1937.38
286.057	1993.38
286.288	1944.38
286.52	1970.38
286.751	2092.38
286.982	2079.38
287.213	1793.38
287.444	1712.38
287.675	1847.38
287.906	1815.38
288.138	1495.38
288.369	1334.38
288.6	1277.38
288.831	1313.38
289.062	1514.38
289.293	1665.38
289.524	1594.38
289.755	1597.38
289.986	1603.38
290.217	1416.38
290.448	1125.38
290.679	963.38
290.91	902.38
291.141	920.38
291.371	948.38
291.602	962.38
291.833	953.38
292.064	1042.38
292.295	1200.38
292.526	1398.38
292.757	1446.38
292.987	1512.38
293.218	1533.38
293.449	1532.38
293.68	1652.38
293.91	1577.38
294.141	1620.38
294.372	1491.38
294.603	1389.38
294.833	1573.38
295.064	1803.38
295.295	1673.38
295.525	1297.38
295.756	1111.38
295.987	982.38
296.217	1005.38
296.448	1036.38
296.679	1075.38
296.909	1192.38
297.14	1315.38
297.37	1425.38
297.601	1331.38
297.831	1124.38
298.062	1279.38
298.292	1447.38
298.523	1547.38
298.753	1762.38
298.984	1570.38
299.214	1237.38
299.445	1069.38
299.675	1014.38
299.905	1024.38
300.136	1056.38
300.366	1159.38
300.597	1142.38
300.827	1019.38
301.057	996.38
301.288	1015.38
301.518	1090.38
301.748	1231.38
301.979	1359.38
302.209	1441.38
302.439	1426.38
302.669	1209.38
302.9	1236.38
303.13	1148.38
303.36	1091.38
303.59	1042.38
303.82	1075.38
304.051	1219.38
304.281	1329.38
304.511	1276.38
304.741	1137.38
304.971	1174.38
305.201	1239.38
305.431	1183.38
305.661	1047.38
305.891	1065.38
306.121	1072.38
306.352	958.38
306.582	879.38
306.812	836.38
307.042	857.38
307.272	834.38
307.502	793.38
307.731	855.38
307.961	900.38
308.191	831.38
308.421	805.38
308.651	795.38
308.881	777.38
309.111	758.38
309.341	797.38
309.571	873.38
309.8	908.38
310.03	952.38
310.26	998.38
310.49	987.38
310.72	862.38
310.949	849.38
311.179	873.38
311.409	918.38
311.639	1091.38
311.868	1347.38
312.098	1758.38
312.328	1935.38
312.557	1837.38
312.787	1914.38
313.017	1647.38
313.246	1785.38
313.476	1966.38
313.706	1560.38
313.935	1266.38
314.165	1030.38
314.394	930.38
314.624	964.38
314.853	1007.38
315.083	1011.38
315.312	1019.38
315.542	1007.38
315.771	930.38
316.001	873.38
316.23	841.38
316.46	826.38
316.689	865.38
316.919	870.38
317.148	891.38
317.377	855.38
317.607	872.38
317.836	945.38
318.065	1124.38
318.295	1221.38
318.524	1147.38
318.753	966.38
318.983	951.38
319.212	885.38
319.441	992.38
319.67	1106.38
319.9	1218.38
320.129	1135.38
320.358	990.38
320.587	932.38
320.816	998.38
321.046	1165.38
321.275	1284.38
321.504	1311.38
321.733	1291.38
321.962	1212.38
322.191	1149.38
322.42	1124.38
322.649	1125.38
322.878	1164.38
323.108	1165.38
323.337	1119.38
323.566	1099.38
323.795	1036.38
324.024	993.38
324.253	968.38
324.482	961.38
324.71	1057.38
324.939	1225.38
325.168	1083.38
325.397	930.38
325.626	915.38
325.855	910.38
326.084	923.38
326.313	849.38
326.542	852.38
326.77	882.38
326.999	893.38
327.228	960.38
327.457	1012.38
327.686	996.38
327.914	888.38
328.143	837.38
328.372	818.38
328.6	838.38
328.829	890.38
329.058	881.38
329.287	861.38
329.515	878.38
329.744	881.38
329.972	847.38
330.201	806.38
330.43	822.38
330.658	925.38
330.887	1071.38
331.115	1011.38
331.344	980.38
331.572	961.38
331.801	864.38
332.03	883.38
332.258	885.38
332.486	946.38
332.715	966.38
332.943	904.38
333.172	898.38
333.4	925.38
333.629	1002.38
333.857	1098.38
334.085	1111.38
334.314	1120.38
334.542	1037.38
334.771	950.38
334.999	897.38
335.227	891.38
335.455	920.38
335.684	970.38
335.912	1191.38
336.14	1323.38
336.369	1249.38
336.597	1225.38
336.825	1361.38
337.053	1526.38
337.281	1199.38
337.51	1011.38
337.738	985.38
337.966	1051.38
338.194	1167.38
338.422	1121.38
338.65	925.38
338.878	874.38
339.106	888.38
339.334	1009.38
339.562	1059.38
339.79	968.38
340.018	950.38
340.246	1008.38
340.474	1194.38
340.702	1256.38
340.93	1326.38
341.158	1283.38
341.386	1097.38
341.614	1105.38
341.842	1083.38
342.07	1142.38
342.298	1310.38
342.526	1395.38
342.754	1160.38
342.981	1098.38
343.209	1053.38
343.437	1125.38
343.665	1187.38
343.893	1181.38
344.12	1380.38
344.348	1566.38
344.576	1429.38
344.804	1179.38
345.031	1008.38
345.259	972.38
345.487	1013.38
345.714	1021.38
345.942	1071.38
346.17	1175.38
346.397	1118.38
346.625	997.38
346.853	959.38
347.08	943.38
347.308	997.38
347.535	1120.38
347.763	1133.38
347.99	994.38
348.218	905.38
348.445	957.38
348.673	993.38
348.9	987.38
349.128	1074.38
349.355	1088.38
349.583	1041.38
349.81	997.38
350.037	937.38
350.265	798.38
350.492	796.38
350.72	789.38
350.947	833.38
351.174	868.38
351.402	962.38
351.629	989.38
351.856	923.38
352.083	891.38
352.311	949.38
352.538	1078.38
352.765	1156.38
352.992	1040.38
353.22	980.38
353.447	989.38
353.674	930.38
353.901	954.38
354.128	965.38
354.355	1019.38
354.583	986.38
354.81	982.38
355.037	1000.38
355.264	995.38
355.491	1066.38
355.718	1170.38
355.945	1136.38
356.172	1098.38
356.399	1063.38
356.626	1322.38
356.853	1641.38
357.08	1727.38
357.307	1757.38
357.534	1330.38
357.761	1378.38
357.988	1711.38
358.215	2047.38
358.441	1933.38
358.668	1608.38
358.895	1515.38
359.122	1183.38
359.349	1144.38
359.576	1313.38
359.802	1083.38
360.029	939.38
360.256	1014.38
360.483	1245.38
360.709	1629.38
360.936	1659.38
361.163	1474.38
361.39	1133.38
361.616	1044.38
361.843	1232.38
362.07	1520.38
362.296	1380.38
362.523	1092.38
362.749	935.38
362.976	990.38
363.203	1183.38
363.429	1354.38
363.656	1081.38
363.882	986.38
364.109	1005.38
364.335	992.38
364.562	961.38
364.788	1113.38
365.015	1314.38
365.241	1176.38
365.468	928.38
365.694	829.38
365.92	824.38
366.147	763.38
366.373	767.38
366.599	793.38
366.826	795.38
367.052	815.38
367.278	824.38
367.505	823.38
367.731	888.38
367.957	1024.38
368.184	1030.38
368.41	1009.38
368.636	1000.38
368.862	1057.38
369.089	999.38
369.315	915.38
369.541	883.38
369.767	847.38
369.993	823.38
370.219	875.38
370.445	921.38
370.672	1016.38
370.898	1093.38
371.124	1086.38
371.35	943.38
371.576	893.38
371.802	968.38
372.028	1155.38
372.254	1309.38
372.48	1104.38
372.706	994.38
372.932	1084.38
373.158	1145.38
373.384	1371.38
373.61	1827.38
373.835	1882.38
374.061	1385.38
374.287	1151.38
374.513	1400.38
374.739	1638.38
374.965	1674.38
375.191	1675.38
375.416	1185.38
375.642	1006.38
375.868	1175.38
376.094	1336.38
376.319	1182.38
376.545	1266.38
376.771	1333.38
376.997	1152.38
377.222	831.38
377.448	735.38
377.674	751.38
377.899	738.38
378.125	732.38
378.35	743.38
378.576	762.38
378.802	873.38
379.027	924.38
379.253	903.38
379.478	908.38
379.704	1057.38
379.929	1060.38
380.155	1077.38
380.38	952.38
380.606	989.38
380.831	1111.38
381.057	1007.38
381.282	982.38
381.507	1151.38
381.733	1482.38
381.958	1535.38
382.184	1623.38
382.409	1673.38
382.634	1674.38
382.86	1741.38
383.085	1432.38
383.31	1122.38
383.535	1227.38
383.761	1209.38
383.986	1164.38
384.211	1381.38
384.436	1376.38
384.662	1030.38
384.887	995.38
385.112	1042.38
385.337	1035.38
385.562	982.38
385.787	1099.38
386.013	1219.38
386.238	1247.38
386.463	1013.38
386.688	990.38
386.913	947.38
387.138	897.38
387.363	965.38
387.588	968.38
387.813	968.38
388.038	1107.38
388.263	973.38
388.488	967.38
388.713	1119.38
388.938	1173.38
389.163	1050.38
389.387	929.38
389.612	918.38
389.837	933.38
390.062	933.38
390.287	998.38
390.512	1011.38
390.736	935.38
390.961	855.38
391.186	829.38
391.411	826.38
391.636	863.38
391.86	927.38
392.085	1001.38
392.31	1001.38
392.534	974.38
392.759	943.38
392.984	1011.38
393.208	964.38
393.433	855.38
393.658	808.38
393.882	758.38
394.107	760.38
394.331	781.38
394.556	812.38
394.78	783.38
395.005	861.38
395.229	877.38
395.454	857.38
395.678	895.38
395.903	921.38
396.127	845.38
396.352	869.38
396.576	981.38
396.801	990.38
397.025	1114.38
397.249	1148.38
397.474	934.38
397.698	913.38
397.922	975.38
398.147	883.38
398.371	915.38
398.595	986.38
398.82	946.38
399.044	943.38
399.268	1015.38
399.492	1019.38
399.717	1044.38
399.941	1071.38
400.165	1058.38
400.389	1035.38
400.613	1053.38
400.837	998.38
401.062	919.38
401.286	931.38
401.51	886.38
401.734	885.38
401.958	886.38
402.182	879.38
402.406	891.38
402.63	886.38
402.854	981.38
403.078	1067.38
403.302	1282.38
403.526	1335.38
403.75	1177.38
403.974	1031.38
404.198	1105.38
404.422	1213.38
404.645	1433.38
404.869	1557.38
405.093	1174.38
405.317	977.38
405.541	962.38
405.765	1031.38
405.988	1011.38
406.212	1107.38
406.436	1295.38
406.66	1387.38
406.883	1132.38
407.107	1179.38
407.331	1357.38
407.555	1319.38
407.778	1081.38
408.002	1082.38
408.226	1068.38
408.449	1023.38
408.673	1003.38
408.896	942.38
409.12	911.38
409.344	909.38
409.567	874.38
409.791	895.38
410.014	901.38
410.238	869.38
410.461	907.38
410.685	913.38
410.908	905.38
411.132	953.38
411.355	921.38
411.578	932.38
411.802	928.38
412.025	978.38
412.249	993.38
412.472	931.38
412.695	968.38
412.919	932.38
413.142	961.38
413.365	1052.38
413.589	1039.38
413.812	945.38
414.035	907.38
414.258	947.38
414.482	1043.38
414.705	1053.38
414.928	905.38
415.151	877.38
415.374	871.38
415.597	923.38
415.821	915.38
416.044	878.38
416.267	854.38
416.49	861.38
416.713	889.38
416.936	851.38
417.159	851.38
417.382	856.38
417.605	906.38
417.828	894.38
418.051	903.38
418.274	911.38
418.497	907.38
418.72	911.38
418.943	963.38
419.166	992.38
419.389	1037.38
419.611	980.38
419.834	988.38
420.057	1143.38
420.28	1127.38
420.503	1044.38
420.726	892.38
420.948	870.38
421.171	871.38
421.394	866.38
421.617	822.38
421.839	883.38
422.062	911.38
422.285	925.38
422.507	926.38
422.73	913.38
422.953	975.38
423.175	921.38
423.398	938.38
423.621	1028.38
423.843	1043.38
424.066	987.38
424.288	907.38
424.511	910.38
424.733	906.38
424.956	961.38
425.178	1077.38
425.401	1204.38
425.623	1386.38
425.846	1149.38
426.068	1011.38
426.291	1147.38
426.513	1041.38
426.735	933.38
426.958	981.38
427.18	1133.38
427.402	1493.38
427.625	1461.38
427.847	1199.38
428.069	895.38
428.292	882.38
428.514	891.38
428.736	878.38
428.958	950.38
429.181	1117.38
429.403	962.38
429.625	891.38
429.847	873.38
430.069	893.38
430.292	902.38
430.514	869.38
430.736	931.38
430.958	1205.38
431.18	1085.38
431.402	856.38
431.624	799.38
431.846	815.38
432.068	785.38
432.29	826.38
432.512	930.38
432.734	1209.38
432.956	1134.38
433.178	865.38
433.4	847.38
433.622	817.38
433.844	867.38
434.066	933.38
434.287	910.38
434.509	868.38
434.731	909.38
434.953	870.38
435.175	925.38
435.397	1013.38
435.618	889.38
435.84	814.38
436.062	829.38
436.284	824.38
436.505	772.38
436.727	793.38
436.949	800.38
437.17	807.38
437.392	843.38
437.614	853.38
437.835	809.38
438.057	838.38
438.278	953.38
438.5	1372.38
438.721	1373.38
438.943	912.38
439.165	794.38
439.386	787.38
439.608	757.38
439.829	781.38
440.05	791.38
440.272	837.38
440.493	985.38
440.715	1222.38
440.936	1002.38
441.158	844.38
441.379	868.38
441.6	967.38
441.822	1033.38
442.043	874.38
442.264	851.38
442.486	869.38
442.707	873.38
442.928	867.38
443.149	885.38
443.371	879.38
443.592	935.38
443.813	894.38
444.034	887.38
444.255	916.38
444.476	946.38
444.698	921.38
444.919	936.38
445.14	1049.38
445.361	1005.38
445.582	971.38
445.803	943.38
446.024	939.38
446.245	921.38
446.466	887.38
446.687	858.38
446.908	889.38
447.129	838.38
447.35	807.38
447.571	785.38
447.792	798.38
448.013	781.38
448.234	769.38
448.455	803.38
448.675	784.38
448.896	820.38
449.117	804.38
449.338	795.38
449.559	815.38
449.779	878.38
450	863.38
450.221	835.38
450.442	821.38
450.662	790.38
450.883	815.38
451.104	807.38
451.324	791.38
451.545	797.38
451.766	794.38
451.986	771.38
452.207	753.38
452.428	782.38
452.648	772.38
452.869	820.38
453.089	826.38
453.31	841.38
453.53	753.38
453.751	763.38
453.971	711.38
454.192	748.38
454.412	771.38
454.633	701.38
454.853	747.38
455.073	710.38
455.294	731.38
455.514	739.38
455.734	754.38
455.955	802.38
456.175	794.38
456.395	731.38
456.616	693.38
456.836	681.38
457.056	719.38
457.276	697.38
457.497	707.38
457.717	752.38
457.937	696.38
458.157	704.38
458.377	742.38
458.598	743.38
458.818	766.38
459.038	814.38
459.258	833.38
459.478	849.38
459.698	893.38
459.918	903.38
460.138	894.38
460.358	903.38
460.578	865.38
460.798	876.38
461.018	885.38
461.238	839.38
461.458	870.38
461.678	879.38
461.898	925.38
462.118	925.38
462.338	933.38
462.558	963.38
462.777	983.38
462.997	1007.38
463.217	1000.38
463.437	1025.38
463.657	1029.38
463.876	983.38
464.096	951.38
464.316	937.38
464.536	992.38
464.755	1007.38
464.975	1029.38
465.195	957.38
465.414	980.38
465.634	957.38
465.854	931.38
466.073	872.38
466.293	842.38
466.512	919.38
466.732	1011.38
466.951	996.38
467.171	919.38
467.391	865.38
467.61	869.38
467.829	937.38
468.049	924.38
468.268	884.38
468.488	874.38
468.707	901.38
468.927	1056.38
469.146	1131.38
469.365	1034.38
469.585	951.38
469.804	1025.38
470.023	1107.38
470.243	986.38
470.462	929.38
470.681	897.38
470.901	931.38
471.12	961.38
471.339	981.38
471.558	901.38
471.777	965.38
471.997	982.38
472.216	1107.38
472.435	1086.38
472.654	977.38
472.873	933.38
473.092	1001.38
473.311	1053.38
473.53	953.38
473.749	921.38
473.968	988.38
474.187	960.38
474.406	949.38
474.625	922.38
474.844	947.38
475.063	1025.38
475.282	1021.38
475.501	1091.38
475.72	1147.38
475.939	1114.38
476.158	1082.38
476.377	1221.38
476.596	1432.38
476.814	1469.38
477.033	1233.38
477.252	1057.38
477.471	981.38
477.69	985.38
477.908	1110.38
478.127	1101.38
478.346	1036.38
478.564	1125.38
478.783	1073.38
479.002	1077.38
479.22	1268.38
479.439	1409.38
479.658	1221.38
479.876	1099.38
480.095	1177.38
480.313	1210.38
480.532	1118.38
480.751	1075.38
480.969	1133.38
481.188	1245.38
481.406	1326.38
481.624	1241.38
481.843	1113.38
482.061	1072.38
482.28	1203.38
482.498	1466.38
482.717	1364.38
482.935	1188.38
483.153	1129.38
483.372	1049.38
483.59	1050.38
483.808	1074.38
484.027	1039.38
484.245	1007.38
484.463	963.38
484.681	1036.38
484.9	1098.38
485.118	1176.38
485.336	1079.38
485.554	1038.38
485.772	1065.38
485.99	1154.38
486.209	1219.38
486.427	1193.38
486.645	1177.38
486.863	1233.38
487.081	1217.38
487.299	1360.38
487.517	1348.38
487.735	1199.38
487.953	1231.38
488.171	1255.38
488.389	1181.38
488.607	1085.38
488.825	1152.38
489.043	1267.38
489.261	1419.38
489.479	1561.38
489.696	1294.38
489.914	1173.38
490.132	1119.38
490.35	1139.38
490.568	1109.38
490.786	1112.38
491.003	1140.38
491.221	1167.38
491.439	1109.38
491.657	1130.38
491.874	1216.38
492.092	1485.38
492.31	1775.38
492.527	1731.38
492.745	1517.38
492.963	1332.38
493.18	1314.38
493.398	1315.38
493.615	1289.38
493.833	1234.38
494.05	1231.38
494.268	1254.38
494.485	1234.38
494.703	1194.38
494.92	1183.38
495.138	1181.38
495.355	1216.38
495.573	1239.38
495.79	1383.38
496.008	1762.38
496.225	1573.38
496.442	1364.38
496.66	1359.38
496.877	1404.38
497.094	1383.38
497.312	1337.38
497.529	1276.38
497.746	1320.38
497.963	1391.38
498.181	1525.38
498.398	1590.38
498.615	1649.38
498.832	1738.38
499.049	1681.38
499.267	1536.38
499.484	1517.38
499.701	1643.38
499.918	1738.38
500.135	1839.38
500.352	1892.38
500.569	1957.38
500.786	2010.38
501.003	2037.38
501.22	1826.38
501.437	1737.38
501.654	1643.38
501.871	1634.38
502.088	1637.38
502.305	1501.38
502.522	1481.38
502.739	1497.38
502.956	1338.38
503.172	1369.38
503.389	1292.38
503.606	1253.38
503.823	1265.38
504.04	1295.38
504.256	1317.38
504.473	1326.38
504.69	1343.38
504.907	1410.38
505.123	1368.38
505.34	1465.38
505.557	1441.38
505.773	1333.38
505.99	1281.38
506.207	1373.38
506.423	1242.38
506.64	1167.38
506.856	1249.38
507.073	1351.38
507.289	1353.38
507.506	1320.38
507.722	1402.38
507.939	1411.38
508.155	1426.38
508.372	1309.38
508.588	1241.38
508.805	1219.38
509.021	1203.38
509.238	1162.38
509.454	1181.38
509.67	1171.38
509.887	1176.38
510.103	1333.38
510.319	1287.38
510.536	1177.38
510.752	1103.38
510.968	1071.38
511.184	1038.38
511.401	1045.38
511.617	1019.38
511.833	1054.38
512.049	1074.38
512.265	1089.38
512.481	1145.38
512.698	1237.38
512.914	1363.38
513.13	1223.38
513.346	1109.38
513.562	1182.38
513.778	1165.38
513.994	1139.38
514.21	1252.38
514.426	1238.38
514.642	1143.38
514.858	1143.38
515.074	1181.38
515.29	1245.38
515.506	1425.38
515.721	1299.38
515.937	1205.38
516.153	1132.38
516.369	1127.38
516.585	1208.38
516.801	1354.38
517.016	1607.38
517.232	1549.38
517.448	1568.38
517.664	1363.38
517.879	1293.38
518.095	1222.38
518.311	1223.38
518.527	1325.38
518.742	1394.38
518.958	1459.38
519.173	1395.38
519.389	1367.38
519.605	1409.38
519.82	1504.38
520.036	1677.38
520.251	1691.38
520.467	1594.38
520.682	2400.38
520.898	2938.38
521.113	2720.38
521.329	1711.38
521.544	1487.38
521.76	1489.38
521.975	1346.38
522.19	1297.38
522.406	1299.38
522.621	1435.38
522.836	1528.38
523.052	1571.38
523.267	1285.38
523.482	1281.38
523.698	1400.38
523.913	1367.38
524.128	1219.38
524.343	1153.38
524.559	1177.38
524.774	1133.38
524.989	1137.38
525.204	1166.38
525.419	1293.38
525.634	1244.38
525.849	1246.38
526.064	1259.38
526.28	1261.38
526.495	1469.38
526.71	1505.38
526.925	1354.38
527.14	1403.38
527.355	1384.38
527.57	1126.38
527.785	1201.38
527.999	1134.38
528.214	1062.38
528.429	1060.38
528.644	1057.38
528.859	995.38
529.074	983.38
529.289	992.38
529.503	1001.38
529.718	1029.38
529.933	1210.38
530.148	1213.38
530.363	1025.38
530.577	1002.38
530.792	951.38
531.007	991.38
531.221	990.38
531.436	966.38
531.651	977.38
531.865	1000.38
532.08	987.38
532.295	957.38
532.509	1022.38
532.724	1180.38
532.938	1325.38
533.153	1516.38
533.367	1219.38
533.582	1203.38
533.796	1040.38
534.011	1031.38
534.225	1045.38
534.44	1064.38
534.654	1080.38
534.868	1227.38
535.083	1098.38
535.297	993.38
535.511	1008.38
535.726	1135.38
535.94	1010.38
536.154	1027.38
536.369	975.38
536.583	991.38
536.797	999.38
537.011	1050.38
537.225	1124.38
537.44	1158.38
537.654	1018.38
537.868	1018.38
538.082	997.38
538.296	1019.38
538.51	1074.38
538.724	1071.38
538.938	1049.38
539.153	1005.38
539.367	977.38
539.581	1006.38
539.795	1035.38
540.009	1134.38
540.222	1043.38
540.436	1055.38
540.65	1165.38
540.864	1158.38
541.078	1209.38
541.292	1379.38
541.506	1071.38
541.72	1058.38
541.934	1021.38
542.147	1015.38
542.361	1038.38
542.575	1073.38
542.789	1002.38
543.002	949.38
543.216	1050.38
543.43	949.38
543.644	951.38
543.857	937.38
544.071	951.38
544.285	922.38
544.498	915.38
544.712	916.38
544.925	1009.38
545.139	949.38
545.352	899.38
545.566	897.38
545.779	1063.38
545.993	949.38
546.206	856.38
546.42	913.38
546.633	908.38
546.847	873.38
547.06	855.38
547.274	855.38
547.487	880.38
547.7	933.38
547.914	1011.38
548.127	1101.38
548.34	1053.38
548.554	942.38
548.767	984.38
548.98	1026.38
549.193	986.38
549.407	1014.38
549.62	1173.38
549.833	1069.38
550.046	1123.38
550.259	1163.38
550.473	1006.38
550.686	996.38
550.899	973.38
551.112	979.38
551.325	1029.38
551.538	1069.38
551.751	942.38
551.964	874.38
552.177	897.38
552.39	869.38
552.603	872.38
552.816	923.38
553.029	888.38
553.242	862.38
553.455	952.38
553.667	1029.38
553.88	989.38
554.093	915.38
554.306	834.38
554.519	804.38
554.732	799.38
554.944	757.38
555.157	767.38
555.37	761.38
555.583	777.38
555.795	789.38
556.008	830.38
556.221	801.38
556.433	794.38
556.646	769.38
556.859	772.38
557.071	784.38
557.284	797.38
557.496	807.38
557.709	831.38
557.921	797.38
558.134	749.38
558.346	724.38
558.559	749.38
558.771	759.38
558.984	847.38
559.196	759.38
559.409	746.38
559.621	725.38
559.833	732.38
560.046	714.38
560.258	691.38
560.47	751.38
560.683	705.38
560.895	683.38
561.107	682.38
561.32	688.38
561.532	681.38
561.744	773.38
561.956	796.38
562.168	703.38
562.381	685.38
562.593	682.38
562.805	739.38
563.017	701.38
563.229	673.38
563.441	661.38
563.653	675.38
563.865	687.38
564.077	702.38
564.289	667.38
564.501	707.38
564.713	742.38
564.925	740.38
565.137	676.38
565.349	693.38
565.561	692.38
565.773	720.38
565.985	722.38
566.197	774.38
566.408	837.38
566.62	836.38
566.832	834.38
567.044	832.38
567.255	880.38
567.467	957.38
567.679	881.38
567.891	879.38
568.102	886.38
568.314	900.38
568.526	840.38
568.737	796.38
568.949	876.38
569.161	762.38
569.372	709.38
569.584	682.38
569.795	687.38
570.007	689.38
570.218	745.38
570.43	725.38
570.641	702.38
570.853	657.38
571.064	659.38
571.276	700.38
571.487	712.38
571.698	654.38
571.91	657.38
572.121	667.38
572.333	620.38
572.544	629.38
572.755	622.38
572.966	622.38
573.178	603.38
573.389	623.38
573.6	649.38
573.811	629.38
574.023	581.38
574.234	568.38
574.445	584.38
574.656	541.38
574.867	590.38
575.078	574.38
575.289	601.38
575.501	621.38
575.712	568.38
575.923	539.38
576.134	535.38
576.345	537.38
576.556	545.38
576.767	531.38
576.978	533.38
577.188	531.38
577.399	536.38
577.61	533.38
577.821	533.38
578.032	538.38
578.243	585.38
578.454	582.38
578.665	576.38
578.875	572.38
579.086	546.38
579.297	565.38
579.508	584.38
579.718	553.38
579.929	557.38
580.14	538.38
580.35	505.38
580.561	493.38
580.772	495.38
580.982	513.38
581.193	480.38
581.403	469.38
581.614	466.38
581.825	464.38
582.035	464.38
582.246	462.38
582.456	463.38
582.667	465.38
582.877	463.38
583.087	461.38
583.298	466.38
583.508	463.38
583.719	447.38
583.929	442.38
584.139	463.38
584.35	448.38
584.56	498.38
584.77	489.38
584.981	491.38
585.191	485.38
585.401	462.38
585.611	467.38
585.821	514.38
586.032	478.38
586.242	478.38
586.452	468.38
586.662	485.38
586.872	477.38
587.082	481.38
587.292	467.38
587.502	453.38
587.713	445.38
587.923	462.38
588.133	502.38
588.343	496.38
588.553	444.38
588.762	467.38
588.972	464.38
589.182	455.38
589.392	461.38
589.602	464.38
589.812	489.38
590.022	509.38
590.232	519.38
590.441	463.38
590.651	449.38
590.861	458.38
591.071	469.38
591.281	440.38
591.49	444.38
591.7	444.38
591.91	440.38
592.119	453.38
592.329	435.38
592.539	458.38
592.748	458.38
592.958	464.38
593.167	470.38
593.377	471.38
593.587	489.38
593.796	490.38
594.006	475.38
594.215	461.38
594.424	489.38
594.634	496.38
594.843	494.38
595.053	453.38
595.262	455.38
595.472	443.38
595.681	442.38
595.89	443.38
596.1	457.38
596.309	442.38
596.518	417.38
596.727	409.38
596.937	386.38
597.146	462.38
597.355	451.38
597.564	438.38
597.774	437.38
597.983	418.38
598.192	422.38
598.401	393.38
598.61	379.38
598.819	395.38
599.028	400.38
599.237	399.38
599.446	387.38
599.655	389.38
599.864	374.38
600.073	383.38
600.282	390.38
600.491	395.38
600.7	383.38
600.909	379.38
601.118	381.38
601.327	371.38
601.536	360.38
601.745	391.38
601.953	391.38
602.162	385.38
602.371	403.38
602.58	413.38
602.789	405.38
602.997	380.38
603.206	375.38
603.415	377.38
603.623	356.38
603.832	354.38
604.041	361.38
604.249	378.38
604.458	407.38
604.666	351.38
604.875	339.38
605.084	358.38
605.292	348.38
605.501	374.38
605.709	371.38
605.918	365.38
606.126	358.38
606.334	345.38
606.543	358.38
606.751	338.38
606.96	338.38
607.168	322.38
607.376	337.38
607.585	345.38
607.793	357.38
608.001	366.38
608.21	367.38
608.418	357.38
608.626	353.38
608.834	358.38
609.043	343.38
609.251	339.38
609.459	342.38
609.667	341.38
609.875	350.38
610.083	346.38
610.291	366.38
610.499	355.38
610.707	347.38
610.916	323.38
611.124	347.38
611.332	321.38
611.54	317.38
611.748	353.38
611.955	329.38
612.163	325.38
612.371	321.38
612.579	340.38
612.787	334.38
612.995	323.38
613.203	305.38
613.411	319.38
613.618	315.38
613.826	346.38
614.034	366.38
614.242	318.38
614.449	301.38
614.657	301.38
614.865	315.38
615.072	321.38
615.28	314.38
615.488	293.38
615.695	313.38
615.903	309.38
616.111	304.38
616.318	328.38
616.526	336.38
616.733	318.38
616.941	329.38
617.148	338.38
617.356	331.38
617.563	317.38
617.771	325.38
617.978	320.38
618.185	314.38
618.393	327.38
618.6	308.38
618.807	314.38
619.015	322.38
619.222	324.38
619.429	315.38
619.637	300.38
619.844	295.38
620.051	297.38
620.258	293.38
620.466	293.38
620.673	294.38
620.88	294.38
621.087	303.38
621.294	294.38
621.501	293.38
621.708	300.38
621.915	298.38
622.122	294.38
622.329	275.38
622.536	302.38
622.743	294.38
622.95	279.38
623.157	303.38
623.364	301.38
623.571	305.38
623.778	303.38
623.985	295.38
624.192	292.38
624.399	312.38
624.606	307.38
624.812	313.38
625.019	306.38
625.226	323.38
625.433	309.38
625.639	291.38
625.846	269.38
626.053	263.38
626.259	273.38
626.466	288.38
626.673	306.38
626.879	284.38
627.086	273.38
627.293	281.38
627.499	278.38
627.706	275.38
627.912	270.38
628.119	278.38
628.325	257.38
628.532	261.38
628.738	281.38
628.945	265.38
629.151	265.38
629.357	247.38
629.564	265.38
629.77	273.38
629.976	265.38
630.183	258.38
630.389	256.38
630.595	263.38
630.802	262.38
631.008	257.38
631.214	255.38
631.42	250.38
631.627	258.38
631.833	241.38
632.039	261.38
632.245	253.38
632.451	243.38
632.657	247.38
632.863	250.38
633.069	227.38
633.275	237.38
633.481	243.38
633.688	251.38
633.893	244.38
634.099	243.38
634.305	241.38
634.511	229.38
634.717	250.38
634.923	233.38
635.129	228.38
635.335	233.38
635.541	234.38
635.747	232.38
635.952	227.38
636.158	241.38
636.364	238.38
636.57	238.38
636.775	232.38
636.981	230.38
637.187	239.38
637.392	238.38
637.598	228.38
637.804	237.38
638.009	222.38
638.215	232.38
638.421	205.38
638.626	220.38
638.832	221.38
639.037	231.38
639.243	224.38
639.448	242.38
639.654	255.38
639.859	231.38
640.065	239.38
640.27	258.38
640.475	232.38
640.681	217.38
640.886	217.38
641.091	224.38
641.297	215.38
641.502	241.38
641.707	209.38
641.913	218.38
642.118	227.38
642.323	221.38
642.528	211.38
642.733	224.38
642.939	223.38
643.144	210.38
643.349	216.38
643.554	211.38
643.759	201.38
643.964	214.38
644.169	210.38
644.374	216.38
644.579	215.38
644.784	203.38
644.989	198.38
645.194	186.38
645.399	187.38
645.604	208.38
645.809	217.38
646.014	220.38
646.219	210.38
646.423	194.38
646.628	215.38
646.833	213.38
647.038	212.38
647.243	206.38
647.447	203.38
647.652	201.38
647.857	191.38
648.062	213.38
648.266	206.38
648.471	209.38
648.676	200.38
648.88	212.38
649.085	211.38
649.289	212.38
649.494	203.38
649.698	216.38
649.903	211.38
650.107	209.38
650.312	199.38
650.516	185.38
650.721	199.38
650.925	175.38
651.13	161.38
651.334	187.38
651.539	194.38
651.743	179.38
651.947	200.38
652.152	179.38
652.356	179.38
652.56	178.38
652.764	177.38
652.969	178.38
653.173	169.38
653.377	165.38
653.581	178.38
653.785	171.38
653.99	176.38
654.194	169.38
654.398	164.38
654.602	160.38
654.806	167.38
655.01	158.38
655.214	176.38
655.418	158.38
655.622	162.38
655.826	157.38
656.03	164.38
656.234	152.38
656.438	150.38
656.642	168.38
656.846	150.38
657.049	163.38
657.253	159.38
657.457	145.38
657.661	144.38
657.865	144.38
658.068	134.38
658.272	134.38
658.476	124.38
658.68	124.38
658.883	129.38
659.087	116.38
659.291	114.38
659.494	106.38
659.698	121.38
659.901	118.38
660.105	121.38
660.309	109.38
660.512	106.38
660.716	93.38
660.919	110.38
661.123	103.38
661.326	92.38
661.53	97.38
661.733	109.38
661.936	77.38
662.14	83.38
662.343	91.38
662.546	95.38
662.75	87.38
662.953	103.38
663.156	87.38
663.36	89.38
663.563	74.38
663.766	81.38
663.969	78.38
664.173	90.38
664.376	83.38
664.579	83.38
664.782	89.38
664.985	76.38
665.188	82.38
665.391	84.38
665.594	79.38
665.797	77.38
666	91.38
666.203	91.38
666.406	81.38
666.609	94.38
666.812	83.38
667.015	82.38
667.218	101.38
667.421	83.38
667.624	76.38
667.827	97.38
668.03	86.38
668.232	86.38
668.435	88.38
668.638	82.38
668.841	92.38
669.043	91.38
669.246	80.38
669.449	74.38
669.651	93.38
669.854	81.38
670.057	84.38
670.259	81.38
670.462	76.38
670.665	82.38
670.867	84.38
671.07	84.38
671.272	88.38
671.475	91.38
671.677	75.38
671.88	81.38
672.082	85.38
672.284	90.38
672.487	90.38
672.689	82.38
672.892	64.38
