Data from NickelSpatula.Lamp.E10.P2_HRD10591_11-59-53-523.txt Node
Date: Tue Jul 23 11:59:53 EDT 2019
User: cochatt
Spectrometer: HR+D1059
Trigger mode: 1
Integration Time (sec): 1.000000E-1
Scans to average: 1
Electric dark correction enabled: true
Nonlinearity correction enabled: false
Boxcar width: 0
XAxis mode: Wavelengths
Number of Pixels in Spectrum: 2048
>>>>>Begin Spectral Data<<<<<
223.165	-7.88
223.4	-7.88
223.635	-7.88
223.869	-13.88
224.104	-12.88
224.338	-17.88
224.573	-6.88
224.808	-8.88
225.042	-2.88
225.277	-3.88
225.511	-12.88
225.746	-0.88
225.98	-7.88
226.215	4.12
226.449	17.12
226.683	30.12
226.918	26.12
227.152	19.12
227.387	32.12
227.621	42.12
227.856	37.12
228.09	47.12
228.324	52.12
228.559	57.12
228.793	82.12
229.027	142.12
229.262	162.12
229.496	157.12
229.73	152.12
229.964	192.12
230.199	236.12
230.433	204.12
230.667	204.12
230.901	213.12
231.136	189.12
231.37	187.12
231.604	224.12
231.838	257.12
232.072	260.12
232.306	261.12
232.541	250.12
232.775	268.12
233.009	290.12
233.243	312.12
233.477	303.12
233.711	353.12
233.945	326.12
234.179	321.12
234.413	358.12
234.647	382.12
234.881	457.12
235.115	436.12
235.349	422.12
235.583	367.12
235.817	362.12
236.051	378.12
236.285	432.12
236.519	485.12
236.753	434.12
236.987	432.12
237.221	417.12
237.455	413.12
237.689	447.12
237.922	466.12
238.156	490.12
238.39	579.12
238.624	659.12
238.858	599.12
239.091	508.12
239.325	528.12
239.559	508.12
239.793	530.12
240.027	655.12
240.26	599.12
240.494	609.12
240.728	630.12
240.961	696.12
241.195	670.12
241.429	635.12
241.662	632.12
241.896	543.12
242.13	473.12
242.363	462.12
242.597	482.12
242.83	568.12
243.064	566.12
243.298	578.12
243.531	629.12
243.765	672.12
243.998	640.12
244.232	600.12
244.465	604.12
244.699	587.12
244.932	688.12
245.166	647.12
245.399	546.12
245.633	542.12
245.866	587.12
246.099	630.12
246.333	731.12
246.566	797.12
246.8	791.12
247.033	762.12
247.266	707.12
247.5	718.12
247.733	691.12
247.966	672.12
248.2	720.12
248.433	786.12
248.666	874.12
248.899	846.12
249.133	859.12
249.366	1020.12
249.599	1068.12
249.832	945.12
250.066	832.12
250.299	836.12
250.532	834.12
250.765	842.12
250.998	742.12
251.231	729.12
251.465	795.12
251.698	845.12
251.931	862.12
252.164	873.12
252.397	963.12
252.63	1066.12
252.863	1188.12
253.096	1218.12
253.329	1186.12
253.562	1135.12
253.795	1268.12
254.028	1345.12
254.261	1428.12
254.494	1281.12
254.727	1162.12
254.96	1141.12
255.193	1174.12
255.426	1187.12
255.659	881.12
255.892	816.12
256.124	883.12
256.357	1042.12
256.59	1204.12
256.823	1131.12
257.056	994.12
257.289	946.12
257.521	1002.12
257.754	1146.12
257.987	1286.12
258.22	1150.12
258.452	1043.12
258.685	1202.12
258.918	1309.12
259.151	1258.12
259.383	1347.12
259.616	1494.12
259.849	1588.12
260.081	1740.12
260.314	1944.12
260.547	1458.12
260.779	1500.12
261.012	1737.12
261.244	1628.12
261.477	1690.12
261.71	1576.12
261.942	1307.12
262.175	1309.12
262.407	1227.12
262.64	1265.12
262.872	1546.12
263.105	1652.12
263.337	1757.12
263.57	1569.12
263.802	1062.12
264.035	930.12
264.267	882.12
264.499	784.12
264.732	704.12
264.964	720.12
265.197	716.12
265.429	777.12
265.661	849.12
265.894	867.12
266.126	922.12
266.358	1050.12
266.591	1283.12
266.823	1533.12
267.055	1411.12
267.287	1258.12
267.52	1255.12
267.752	1338.12
267.984	1462.12
268.216	1388.12
268.448	1120.12
268.681	1131.12
268.913	1218.12
269.145	1302.12
269.377	1312.12
269.609	1311.12
269.841	1250.12
270.073	1338.12
270.306	1401.12
270.538	1390.12
270.77	1390.12
271.002	1454.12
271.234	1518.12
271.466	1535.12
271.698	1505.12
271.93	1454.12
272.162	1460.12
272.394	1462.12
272.626	1416.12
272.858	1442.12
273.09	1538.12
273.322	1317.12
273.553	1278.12
273.785	1518.12
274.017	2039.12
274.249	2502.12
274.481	2543.12
274.713	2762.12
274.945	3246.12
275.176	3322.12
275.408	2923.12
275.64	2656.12
275.872	2688.12
276.104	2254.12
276.335	1970.12
276.567	1974.12
276.799	2027.12
277.031	2078.12
277.262	1628.12
277.494	1293.12
277.726	1233.12
277.957	1362.12
278.189	1503.12
278.421	1502.12
278.652	1442.12
278.884	1371.12
279.115	1302.12
279.347	1198.12
279.579	1221.12
279.81	1234.12
280.042	1242.12
280.273	1268.12
280.505	1176.12
280.736	1041.12
280.968	1050.12
281.199	1100.12
281.431	1282.12
281.662	1203.12
281.894	1219.12
282.125	1290.12
282.356	1367.12
282.588	1415.12
282.819	1254.12
283.051	1400.12
283.282	1717.12
283.513	1984.12
283.745	2224.12
283.976	2205.12
284.207	2051.12
284.439	2082.12
284.67	2060.12
284.901	1806.12
285.132	1961.12
285.364	2064.12
285.595	1916.12
285.826	2032.12
286.057	2105.12
286.288	1987.12
286.52	2045.12
286.751	2144.12
286.982	2195.12
287.213	1846.12
287.444	1779.12
287.675	1902.12
287.906	1867.12
288.138	1585.12
288.369	1380.12
288.6	1318.12
288.831	1370.12
289.062	1571.12
289.293	1726.12
289.524	1608.12
289.755	1648.12
289.986	1670.12
290.217	1424.12
290.448	1134.12
290.679	974.12
290.91	934.12
291.141	935.12
291.371	993.12
291.602	1005.12
291.833	1003.12
292.064	1102.12
292.295	1212.12
292.526	1447.12
292.757	1494.12
292.987	1578.12
293.218	1550.12
293.449	1613.12
293.68	1713.12
293.91	1654.12
294.141	1643.12
294.372	1560.12
294.603	1444.12
294.833	1627.12
295.064	1877.12
295.295	1784.12
295.525	1330.12
295.756	1129.12
295.987	1019.12
296.217	1038.12
296.448	1078.12
296.679	1126.12
296.909	1267.12
297.14	1400.12
297.37	1464.12
297.601	1423.12
297.831	1210.12
298.062	1286.12
298.292	1484.12
298.523	1597.12
298.753	1822.12
298.984	1616.12
299.214	1267.12
299.445	1104.12
299.675	1087.12
299.905	1034.12
300.136	1096.12
300.366	1215.12
300.597	1196.12
300.827	1045.12
301.057	1034.12
301.288	1073.12
301.518	1154.12
301.748	1252.12
301.979	1392.12
302.209	1492.12
302.439	1512.12
302.669	1283.12
302.9	1276.12
303.13	1193.12
303.36	1127.12
303.59	1083.12
303.82	1127.12
304.051	1231.12
304.281	1351.12
304.511	1331.12
304.741	1168.12
304.971	1216.12
305.201	1324.12
305.431	1221.12
305.661	1089.12
305.891	1095.12
306.121	1119.12
306.352	991.12
306.582	878.12
306.812	852.12
307.042	866.12
307.272	844.12
307.502	852.12
307.731	893.12
307.961	953.12
308.191	880.12
308.421	834.12
308.651	800.12
308.881	782.12
309.111	806.12
309.341	838.12
309.571	927.12
309.8	966.12
310.03	930.12
310.26	994.12
310.49	1006.12
310.72	886.12
310.949	878.12
311.179	903.12
311.409	980.12
311.639	1103.12
311.868	1431.12
312.098	1854.12
312.328	1995.12
312.557	1872.12
312.787	1911.12
313.017	1676.12
313.246	1822.12
313.476	1955.12
313.706	1680.12
313.935	1311.12
314.165	1076.12
314.394	975.12
314.624	963.12
314.853	1020.12
315.083	1063.12
315.312	1014.12
315.542	1003.12
315.771	966.12
316.001	864.12
316.23	840.12
316.46	875.12
316.689	875.12
316.919	891.12
317.148	903.12
317.377	868.12
317.607	902.12
317.836	954.12
318.065	1118.12
318.295	1251.12
318.524	1176.12
318.753	1013.12
318.983	954.12
319.212	935.12
319.441	1006.12
319.67	1148.12
319.9	1227.12
320.129	1156.12
320.358	1001.12
320.587	967.12
320.816	1034.12
321.046	1219.12
321.275	1385.12
321.504	1354.12
321.733	1303.12
321.962	1240.12
322.191	1183.12
322.42	1121.12
322.649	1176.12
322.878	1264.12
323.108	1243.12
323.337	1123.12
323.566	1118.12
323.795	1082.12
324.024	1055.12
324.253	1014.12
324.482	1006.12
324.71	1074.12
324.939	1215.12
325.168	1127.12
325.397	940.12
325.626	926.12
325.855	922.12
326.084	941.12
326.313	914.12
326.542	840.12
326.77	896.12
326.999	930.12
327.228	968.12
327.457	1029.12
327.686	1066.12
327.914	900.12
328.143	839.12
328.372	859.12
328.6	849.12
328.829	899.12
329.058	907.12
329.287	896.12
329.515	914.12
329.744	880.12
329.972	852.12
330.201	819.12
330.43	839.12
330.658	950.12
330.887	1095.12
331.115	1047.12
331.344	1030.12
331.572	972.12
331.801	923.12
332.03	860.12
332.258	890.12
332.486	966.12
332.715	1003.12
332.943	926.12
333.172	934.12
333.4	964.12
333.629	1033.12
333.857	1128.12
334.085	1130.12
334.314	1120.12
334.542	1076.12
334.771	974.12
334.999	953.12
335.227	909.12
335.455	939.12
335.684	1042.12
335.912	1203.12
336.14	1338.12
336.369	1258.12
336.597	1249.12
336.825	1438.12
337.053	1555.12
337.281	1253.12
337.51	1009.12
337.738	978.12
337.966	1045.12
338.194	1232.12
338.422	1140.12
338.65	996.12
338.878	901.12
339.106	936.12
339.334	1043.12
339.562	1123.12
339.79	1032.12
340.018	982.12
340.246	1068.12
340.474	1210.12
340.702	1295.12
340.93	1360.12
341.158	1360.12
341.386	1129.12
341.614	1144.12
341.842	1125.12
342.07	1172.12
342.298	1373.12
342.526	1449.12
342.754	1260.12
342.981	1118.12
343.209	1062.12
343.437	1154.12
343.665	1248.12
343.893	1240.12
344.12	1476.12
344.348	1683.12
344.576	1467.12
344.804	1227.12
345.031	1086.12
345.259	997.12
345.487	1016.12
345.714	1038.12
345.942	1112.12
346.17	1235.12
346.397	1179.12
346.625	1008.12
346.853	1008.12
347.08	938.12
347.308	1026.12
347.535	1137.12
347.763	1170.12
347.99	990.12
348.218	985.12
348.445	985.12
348.673	982.12
348.9	996.12
349.128	1078.12
349.355	1103.12
349.583	1064.12
349.81	1045.12
350.037	944.12
350.265	862.12
350.492	829.12
350.72	800.12
350.947	843.12
351.174	934.12
351.402	978.12
351.629	1050.12
351.856	975.12
352.083	912.12
352.311	991.12
352.538	1109.12
352.765	1178.12
352.992	1031.12
353.22	1027.12
353.447	997.12
353.674	981.12
353.901	1000.12
354.128	1008.12
354.355	1033.12
354.583	1014.12
354.81	1003.12
355.037	1062.12
355.264	1046.12
355.491	1088.12
355.718	1231.12
355.945	1152.12
356.172	1117.12
356.399	1117.12
356.626	1367.12
356.853	1694.12
357.08	1812.12
357.307	1842.12
357.534	1415.12
357.761	1464.12
357.988	1856.12
358.215	2150.12
358.441	2024.12
358.668	1673.12
358.895	1556.12
359.122	1278.12
359.349	1255.12
359.576	1360.12
359.802	1119.12
360.029	967.12
360.256	1111.12
360.483	1316.12
360.709	1716.12
360.936	1756.12
361.163	1521.12
361.39	1166.12
361.616	1077.12
361.843	1265.12
362.07	1563.12
362.296	1410.12
362.523	1098.12
362.749	953.12
362.976	1019.12
363.203	1251.12
363.429	1400.12
363.656	1120.12
363.882	1018.12
364.109	1027.12
364.335	1011.12
364.562	991.12
364.788	1148.12
365.015	1351.12
365.241	1218.12
365.468	1007.12
365.694	887.12
365.92	847.12
366.147	807.12
366.373	790.12
366.599	826.12
366.826	815.12
367.052	854.12
367.278	867.12
367.505	842.12
367.731	939.12
367.957	1030.12
368.184	1081.12
368.41	1048.12
368.636	1077.12
368.862	1132.12
369.089	1060.12
369.315	951.12
369.541	930.12
369.767	878.12
369.993	891.12
370.219	883.12
370.445	952.12
370.672	1070.12
370.898	1142.12
371.124	1103.12
371.35	989.12
371.576	912.12
371.802	1029.12
372.028	1193.12
372.254	1391.12
372.48	1166.12
372.706	1074.12
372.932	1144.12
373.158	1178.12
373.384	1434.12
373.61	1914.12
373.835	1975.12
374.061	1440.12
374.287	1220.12
374.513	1490.12
374.739	1699.12
374.965	1795.12
375.191	1726.12
375.416	1210.12
375.642	1061.12
375.868	1252.12
376.094	1428.12
376.319	1202.12
376.545	1342.12
376.771	1409.12
376.997	1174.12
377.222	864.12
377.448	778.12
377.674	754.12
377.899	730.12
378.125	770.12
378.35	776.12
378.576	807.12
378.802	895.12
379.027	937.12
379.253	909.12
379.478	979.12
379.704	1073.12
379.929	1142.12
380.155	1137.12
380.38	950.12
380.606	1048.12
380.831	1117.12
381.057	1063.12
381.282	995.12
381.507	1223.12
381.733	1527.12
381.958	1621.12
382.184	1733.12
382.409	1803.12
382.634	1763.12
382.86	1817.12
383.085	1486.12
383.31	1155.12
383.535	1251.12
383.761	1232.12
383.986	1191.12
384.211	1487.12
384.436	1438.12
384.662	1076.12
384.887	1034.12
385.112	1077.12
385.337	1060.12
385.562	1065.12
385.787	1146.12
386.013	1286.12
386.238	1330.12
386.463	1060.12
386.688	1026.12
386.913	979.12
387.138	958.12
387.363	982.12
387.588	1031.12
387.813	1027.12
388.038	1155.12
388.263	1015.12
388.488	1003.12
388.713	1134.12
388.938	1286.12
389.163	1074.12
389.387	944.12
389.612	936.12
389.837	1003.12
390.062	1008.12
390.287	1039.12
390.512	1042.12
390.736	990.12
390.961	899.12
391.186	903.12
391.411	870.12
391.636	860.12
391.86	942.12
392.085	1047.12
392.31	1020.12
392.534	970.12
392.759	963.12
392.984	1014.12
393.208	1012.12
393.433	883.12
393.658	806.12
393.882	806.12
394.107	798.12
394.331	823.12
394.556	827.12
394.78	868.12
395.005	855.12
395.229	885.12
395.454	896.12
395.678	892.12
395.903	947.12
396.127	883.12
396.352	905.12
396.576	994.12
396.801	1050.12
397.025	1125.12
397.249	1179.12
397.474	960.12
397.698	927.12
397.922	1003.12
398.147	929.12
398.371	932.12
398.595	967.12
398.82	943.12
399.044	970.12
399.268	1022.12
399.492	1083.12
399.717	1088.12
399.941	1129.12
400.165	1067.12
400.389	1057.12
400.613	1092.12
400.837	1016.12
401.062	946.12
401.286	913.12
401.51	929.12
401.734	906.12
401.958	935.12
402.182	916.12
402.406	929.12
402.63	934.12
402.854	955.12
403.078	1095.12
403.302	1372.12
403.526	1379.12
403.75	1220.12
403.974	1066.12
404.198	1155.12
404.422	1270.12
404.645	1476.12
404.869	1643.12
405.093	1210.12
405.317	1024.12
405.541	980.12
405.765	1018.12
405.988	1034.12
406.212	1112.12
406.436	1371.12
406.66	1458.12
406.883	1182.12
407.107	1208.12
407.331	1398.12
407.555	1370.12
407.778	1138.12
408.002	1094.12
408.226	1073.12
408.449	1100.12
408.673	1058.12
408.896	935.12
409.12	907.12
409.344	904.12
409.567	921.12
409.791	902.12
410.014	917.12
410.238	902.12
410.461	909.12
410.685	882.12
410.908	925.12
411.132	913.12
411.355	958.12
411.578	1000.12
411.802	969.12
412.025	984.12
412.249	1020.12
412.472	973.12
412.695	955.12
412.919	987.12
413.142	1003.12
413.365	1070.12
413.589	1106.12
413.812	1002.12
414.035	913.12
414.258	963.12
414.482	1099.12
414.705	1085.12
414.928	903.12
415.151	910.12
415.374	891.12
415.597	954.12
415.821	938.12
416.044	899.12
416.267	873.12
416.49	899.12
416.713	881.12
416.936	871.12
417.159	849.12
417.382	920.12
417.605	903.12
417.828	924.12
418.051	934.12
418.274	950.12
418.497	958.12
418.72	914.12
418.943	1004.12
419.166	1016.12
419.389	1041.12
419.611	1052.12
419.834	1073.12
420.057	1155.12
420.28	1159.12
420.503	1041.12
420.726	950.12
420.948	881.12
421.171	906.12
421.394	888.12
421.617	891.12
421.839	889.12
422.062	952.12
422.285	940.12
422.507	962.12
422.73	974.12
422.953	981.12
423.175	960.12
423.398	942.12
423.621	1010.12
423.843	1100.12
424.066	1026.12
424.288	957.12
424.511	912.12
424.733	910.12
424.956	997.12
425.178	1136.12
425.401	1278.12
425.623	1463.12
425.846	1217.12
426.068	1031.12
426.291	1126.12
426.513	1017.12
426.735	966.12
426.958	984.12
427.18	1208.12
427.402	1608.12
427.625	1547.12
427.847	1260.12
428.069	930.12
428.292	915.12
428.514	923.12
428.736	900.12
428.958	969.12
429.181	1185.12
429.403	1010.12
429.625	898.12
429.847	872.12
430.069	904.12
430.292	896.12
430.514	889.12
430.736	987.12
430.958	1255.12
431.18	1120.12
431.402	867.12
431.624	794.12
431.846	825.12
432.068	783.12
432.29	835.12
432.512	968.12
432.734	1285.12
432.956	1192.12
433.178	898.12
433.4	855.12
433.622	875.12
433.844	900.12
434.066	934.12
434.287	942.12
434.509	904.12
434.731	916.12
434.953	890.12
435.175	942.12
435.397	1041.12
435.618	934.12
435.84	836.12
436.062	850.12
436.284	856.12
436.505	815.12
436.727	802.12
436.949	826.12
437.17	857.12
437.392	889.12
437.614	841.12
437.835	832.12
438.057	866.12
438.278	997.12
438.5	1460.12
438.721	1474.12
438.943	973.12
439.165	822.12
439.386	819.12
439.608	796.12
439.829	802.12
440.05	797.12
440.272	874.12
440.493	1021.12
440.715	1276.12
440.936	1020.12
441.158	872.12
441.379	898.12
441.6	1003.12
441.822	1050.12
442.043	898.12
442.264	889.12
442.486	896.12
442.707	911.12
442.928	881.12
443.149	899.12
443.371	890.12
443.592	947.12
443.813	931.12
444.034	901.12
444.255	907.12
444.476	963.12
444.698	968.12
444.919	961.12
445.14	1071.12
445.361	1022.12
445.582	978.12
445.803	930.12
446.024	950.12
446.245	972.12
446.466	907.12
446.687	885.12
446.908	903.12
447.129	838.12
447.35	841.12
447.571	816.12
447.792	833.12
448.013	802.12
448.234	791.12
448.455	818.12
448.675	806.12
448.896	800.12
449.117	821.12
449.338	836.12
449.559	832.12
449.779	879.12
450	878.12
450.221	840.12
450.442	831.12
450.662	818.12
450.883	820.12
451.104	796.12
451.324	808.12
451.545	835.12
451.766	802.12
451.986	790.12
452.207	784.12
452.428	790.12
452.648	818.12
452.869	816.12
453.089	866.12
453.31	845.12
453.53	770.12
453.751	782.12
453.971	772.12
454.192	788.12
454.412	800.12
454.633	780.12
454.853	784.12
455.073	737.12
455.294	741.12
455.514	755.12
455.734	756.12
455.955	846.12
456.175	846.12
456.395	746.12
456.616	732.12
456.836	718.12
457.056	707.12
457.276	688.12
457.497	726.12
457.717	737.12
457.937	729.12
458.157	737.12
458.377	763.12
458.598	766.12
458.818	768.12
459.038	830.12
459.258	825.12
459.478	845.12
459.698	931.12
459.918	904.12
460.138	883.12
460.358	934.12
460.578	889.12
460.798	924.12
461.018	917.12
461.238	871.12
461.458	866.12
461.678	894.12
461.898	956.12
462.118	942.12
462.338	935.12
462.558	958.12
462.777	995.12
462.997	1024.12
463.217	1031.12
463.437	1063.12
463.657	1008.12
463.876	996.12
464.096	984.12
464.316	964.12
464.536	976.12
464.755	1055.12
464.975	1025.12
465.195	977.12
465.414	1021.12
465.634	971.12
465.854	945.12
466.073	878.12
466.293	864.12
466.512	948.12
466.732	1047.12
466.951	1042.12
467.171	959.12
467.391	881.12
467.61	871.12
467.829	932.12
468.049	962.12
468.268	900.12
468.488	895.12
468.707	945.12
468.927	1086.12
469.146	1176.12
469.365	1065.12
469.585	950.12
469.804	1033.12
470.023	1107.12
470.243	996.12
470.462	968.12
470.681	926.12
470.901	921.12
471.12	1009.12
471.339	988.12
471.558	938.12
471.777	932.12
471.997	1034.12
472.216	1123.12
472.435	1099.12
472.654	991.12
472.873	959.12
473.092	1028.12
473.311	1081.12
473.53	978.12
473.749	936.12
473.968	966.12
474.187	985.12
474.406	971.12
474.625	968.12
474.844	971.12
475.063	1051.12
475.282	1074.12
475.501	1085.12
475.72	1166.12
475.939	1099.12
476.158	1099.12
476.377	1250.12
476.596	1502.12
476.814	1544.12
477.033	1287.12
477.252	1089.12
477.471	1010.12
477.69	1036.12
477.908	1112.12
478.127	1166.12
478.346	1074.12
478.564	1184.12
478.783	1119.12
479.002	1125.12
479.22	1300.12
479.439	1458.12
479.658	1262.12
479.876	1138.12
480.095	1203.12
480.313	1234.12
480.532	1164.12
480.751	1142.12
480.969	1152.12
481.188	1287.12
481.406	1326.12
481.624	1242.12
481.843	1115.12
482.061	1106.12
482.28	1222.12
482.498	1470.12
482.717	1421.12
482.935	1204.12
483.153	1182.12
483.372	1054.12
483.59	1083.12
483.808	1074.12
484.027	1076.12
484.245	1015.12
484.463	1033.12
484.681	1038.12
484.9	1107.12
485.118	1221.12
485.336	1119.12
485.554	1083.12
485.772	1106.12
485.99	1200.12
486.209	1247.12
486.427	1290.12
486.645	1210.12
486.863	1243.12
487.081	1248.12
487.299	1415.12
487.517	1383.12
487.735	1238.12
487.953	1259.12
488.171	1299.12
488.389	1215.12
488.607	1127.12
488.825	1202.12
489.043	1266.12
489.261	1504.12
489.479	1604.12
489.696	1361.12
489.914	1194.12
490.132	1142.12
490.35	1124.12
490.568	1179.12
490.786	1119.12
491.003	1170.12
491.221	1182.12
491.439	1162.12
491.657	1152.12
491.874	1236.12
492.092	1549.12
492.31	1880.12
492.527	1815.12
492.745	1521.12
492.963	1355.12
493.18	1321.12
493.398	1323.12
493.615	1289.12
493.833	1265.12
494.05	1247.12
494.268	1291.12
494.485	1248.12
494.703	1191.12
494.92	1243.12
495.138	1223.12
495.355	1254.12
495.573	1284.12
495.79	1424.12
496.008	1922.12
496.225	1602.12
496.442	1396.12
496.66	1375.12
496.877	1459.12
497.094	1446.12
497.312	1340.12
497.529	1324.12
497.746	1348.12
497.963	1421.12
498.181	1488.12
498.398	1608.12
498.615	1700.12
498.832	1740.12
499.049	1739.12
499.267	1611.12
499.484	1572.12
499.701	1650.12
499.918	1763.12
500.135	1903.12
500.352	1956.12
500.569	2005.12
500.786	2079.12
501.003	2050.12
501.22	1831.12
501.437	1726.12
501.654	1716.12
501.871	1662.12
502.088	1657.12
502.305	1537.12
502.522	1503.12
502.739	1490.12
502.956	1403.12
503.172	1390.12
503.389	1288.12
503.606	1288.12
503.823	1350.12
504.04	1339.12
504.256	1351.12
504.473	1366.12
504.69	1387.12
504.907	1399.12
505.123	1399.12
505.34	1432.12
505.557	1446.12
505.773	1345.12
505.99	1300.12
506.207	1383.12
506.423	1314.12
506.64	1201.12
506.856	1259.12
507.073	1410.12
507.289	1376.12
507.506	1351.12
507.722	1409.12
507.939	1449.12
508.155	1491.12
508.372	1332.12
508.588	1293.12
508.805	1195.12
509.021	1224.12
509.238	1187.12
509.454	1198.12
509.67	1171.12
509.887	1239.12
510.103	1361.12
510.319	1346.12
510.536	1204.12
510.752	1118.12
510.968	1066.12
511.184	1050.12
511.401	1033.12
511.617	1029.12
511.833	1055.12
512.049	1068.12
512.265	1109.12
512.481	1129.12
512.698	1282.12
512.914	1395.12
513.13	1245.12
513.346	1163.12
513.562	1218.12
513.778	1200.12
513.994	1200.12
514.21	1259.12
514.426	1239.12
514.642	1204.12
514.858	1129.12
515.074	1214.12
515.29	1328.12
515.506	1439.12
515.721	1363.12
515.937	1262.12
516.153	1159.12
516.369	1206.12
516.585	1240.12
516.801	1425.12
517.016	1682.12
517.232	1646.12
517.448	1578.12
517.664	1359.12
517.879	1308.12
518.095	1291.12
518.311	1316.12
518.527	1345.12
518.742	1408.12
518.958	1432.12
519.173	1440.12
519.389	1425.12
519.605	1442.12
519.82	1503.12
520.036	1771.12
520.251	1730.12
520.467	1631.12
520.682	2464.12
520.898	3013.12
521.113	2849.12
521.329	1746.12
521.544	1575.12
521.76	1528.12
521.975	1391.12
522.19	1298.12
522.406	1355.12
522.621	1503.12
522.836	1575.12
523.052	1578.12
523.267	1321.12
523.482	1369.12
523.698	1433.12
523.913	1372.12
524.128	1234.12
524.343	1217.12
524.559	1200.12
524.774	1140.12
524.989	1193.12
525.204	1221.12
525.419	1308.12
525.634	1239.12
525.849	1287.12
526.064	1278.12
526.28	1302.12
526.495	1539.12
526.71	1572.12
526.925	1399.12
527.14	1464.12
527.355	1433.12
527.57	1206.12
527.785	1229.12
527.999	1163.12
528.214	1066.12
528.429	1086.12
528.644	1113.12
528.859	1064.12
529.074	1009.12
529.289	976.12
529.503	996.12
529.718	1062.12
529.933	1210.12
530.148	1246.12
530.363	1092.12
530.577	1055.12
530.792	1035.12
531.007	1048.12
531.221	1006.12
531.436	988.12
531.651	1052.12
531.865	1023.12
532.08	1034.12
532.295	1022.12
532.509	1060.12
532.724	1222.12
532.938	1328.12
533.153	1582.12
533.367	1246.12
533.582	1189.12
533.796	1115.12
534.011	1040.12
534.225	1058.12
534.44	1103.12
534.654	1121.12
534.868	1284.12
535.083	1178.12
535.297	1050.12
535.511	1036.12
535.726	1160.12
535.94	1088.12
536.154	1058.12
536.369	1044.12
536.583	1008.12
536.797	1044.12
537.011	1075.12
537.225	1130.12
537.44	1207.12
537.654	1040.12
537.868	1026.12
538.082	1031.12
538.296	1028.12
538.51	1117.12
538.724	1146.12
538.938	1072.12
539.153	1013.12
539.367	1009.12
539.581	1000.12
539.795	1042.12
540.009	1168.12
540.222	1084.12
540.436	1095.12
540.65	1207.12
540.864	1198.12
541.078	1212.12
541.292	1384.12
541.506	1144.12
541.72	1104.12
541.934	1076.12
542.147	1054.12
542.361	1077.12
542.575	1113.12
542.789	1080.12
543.002	1023.12
543.216	1098.12
543.43	967.12
543.644	986.12
543.857	961.12
544.071	967.12
544.285	948.12
544.498	928.12
544.712	939.12
544.925	1052.12
545.139	956.12
545.352	916.12
545.566	952.12
545.779	1058.12
545.993	992.12
546.206	898.12
546.42	889.12
546.633	902.12
546.847	855.12
547.06	866.12
547.274	879.12
547.487	898.12
547.7	983.12
547.914	1033.12
548.127	1126.12
548.34	1099.12
548.554	975.12
548.767	994.12
548.98	1083.12
549.193	976.12
549.407	1032.12
549.62	1193.12
549.833	1150.12
550.046	1178.12
550.259	1208.12
550.473	1063.12
550.686	1031.12
550.899	995.12
551.112	987.12
551.325	1052.12
551.538	1102.12
551.751	973.12
551.964	902.12
552.177	903.12
552.39	888.12
552.603	922.12
552.816	974.12
553.029	918.12
553.242	870.12
553.455	932.12
553.667	1032.12
553.88	974.12
554.093	902.12
554.306	831.12
554.519	846.12
554.732	798.12
554.944	795.12
555.157	788.12
555.37	782.12
555.583	757.12
555.795	802.12
556.008	824.12
556.221	808.12
556.433	824.12
556.646	798.12
556.859	792.12
557.071	825.12
557.284	814.12
557.496	865.12
557.709	819.12
557.921	797.12
558.134	772.12
558.346	759.12
558.559	743.12
558.771	784.12
558.984	839.12
559.196	796.12
559.409	735.12
559.621	696.12
559.833	734.12
560.046	742.12
560.258	742.12
560.47	740.12
560.683	739.12
560.895	698.12
561.107	680.12
561.32	714.12
561.532	685.12
561.744	790.12
561.956	790.12
562.168	731.12
562.381	717.12
562.593	746.12
562.805	739.12
563.017	701.12
563.229	701.12
563.441	688.12
563.653	716.12
563.865	707.12
564.077	692.12
564.289	677.12
564.501	694.12
564.713	766.12
564.925	730.12
565.137	721.12
565.349	691.12
565.561	692.12
565.773	735.12
565.985	751.12
566.197	812.12
566.408	866.12
566.62	870.12
566.832	879.12
567.044	867.12
567.255	899.12
567.467	970.12
567.679	898.12
567.891	896.12
568.102	899.12
568.314	929.12
568.526	861.12
568.737	842.12
568.949	874.12
569.161	784.12
569.372	706.12
569.584	708.12
569.795	680.12
570.007	702.12
570.218	776.12
570.43	735.12
570.641	715.12
570.853	680.12
571.064	670.12
571.276	694.12
571.487	735.12
571.698	686.12
571.91	706.12
572.121	678.12
572.333	660.12
572.544	593.12
572.755	642.12
572.966	619.12
573.178	615.12
573.389	675.12
573.6	641.12
573.811	643.12
574.023	595.12
574.234	595.12
574.445	585.12
574.656	562.12
574.867	568.12
575.078	577.12
575.289	608.12
575.501	651.12
575.712	587.12
575.923	562.12
576.134	565.12
576.345	549.12
576.556	567.12
576.767	549.12
576.978	532.12
577.188	537.12
577.399	519.12
577.61	521.12
577.821	538.12
578.032	552.12
578.243	580.12
578.454	580.12
578.665	586.12
578.875	554.12
579.086	562.12
579.297	569.12
579.508	574.12
579.718	576.12
579.929	552.12
580.14	558.12
580.35	504.12
580.561	503.12
580.772	485.12
580.982	495.12
581.193	478.12
581.403	485.12
581.614	511.12
581.825	472.12
582.035	464.12
582.246	472.12
582.456	460.12
582.667	495.12
582.877	502.12
583.087	458.12
583.298	469.12
583.508	474.12
583.719	466.12
583.929	467.12
584.139	469.12
584.35	458.12
584.56	483.12
584.77	490.12
584.981	491.12
585.191	474.12
585.401	456.12
585.611	489.12
585.821	484.12
586.032	504.12
586.242	475.12
586.452	491.12
586.662	480.12
586.872	503.12
587.082	489.12
587.292	465.12
587.502	475.12
587.713	461.12
587.923	466.12
588.133	516.12
588.343	477.12
588.553	455.12
588.762	463.12
588.972	466.12
589.182	474.12
589.392	451.12
589.602	465.12
589.812	483.12
590.022	506.12
590.232	520.12
590.441	480.12
590.651	474.12
590.861	464.12
591.071	486.12
591.281	444.12
591.49	460.12
591.7	446.12
591.91	452.12
592.119	446.12
592.329	459.12
592.539	459.12
592.748	478.12
592.958	465.12
593.167	501.12
593.377	471.12
593.587	496.12
593.796	482.12
594.006	462.12
594.215	483.12
594.424	491.12
594.634	492.12
594.843	499.12
595.053	467.12
595.262	448.12
595.472	446.12
595.681	444.12
595.89	428.12
596.1	433.12
596.309	436.12
596.518	437.12
596.727	447.12
596.937	439.12
597.146	443.12
597.355	482.12
597.564	429.12
597.774	424.12
597.983	429.12
598.192	412.12
598.401	407.12
598.61	395.12
598.819	394.12
599.028	402.12
599.237	402.12
599.446	390.12
599.655	377.12
599.864	362.12
600.073	364.12
600.282	377.12
600.491	414.12
600.7	398.12
600.909	402.12
601.118	390.12
601.327	380.12
601.536	382.12
601.745	408.12
601.953	414.12
602.162	398.12
602.371	395.12
602.58	424.12
602.789	397.12
602.997	391.12
603.206	400.12
603.415	381.12
603.623	371.12
603.832	371.12
604.041	361.12
604.249	378.12
604.458	384.12
604.666	373.12
604.875	361.12
605.084	348.12
605.292	355.12
605.501	362.12
605.709	384.12
605.918	372.12
606.126	355.12
606.334	354.12
606.543	358.12
606.751	377.12
606.96	369.12
607.168	348.12
607.376	342.12
607.585	344.12
607.793	347.12
608.001	363.12
608.21	351.12
608.418	383.12
608.626	372.12
608.834	362.12
609.043	351.12
609.251	357.12
609.459	349.12
609.667	347.12
609.875	341.12
610.083	346.12
610.291	370.12
610.499	363.12
610.707	347.12
610.916	341.12
611.124	365.12
611.332	340.12
611.54	327.12
611.748	340.12
611.955	352.12
612.163	353.12
612.371	344.12
612.579	324.12
612.787	334.12
612.995	332.12
613.203	340.12
613.411	321.12
613.618	332.12
613.826	355.12
614.034	385.12
614.242	363.12
614.449	325.12
614.657	323.12
614.865	331.12
615.072	330.12
615.28	327.12
615.488	336.12
615.695	336.12
615.903	323.12
616.111	334.12
616.318	327.12
616.526	322.12
616.733	323.12
616.941	321.12
617.148	342.12
617.356	318.12
617.563	310.12
617.771	335.12
617.978	312.12
618.185	305.12
618.393	340.12
618.6	326.12
618.807	332.12
619.015	314.12
619.222	322.12
619.429	335.12
619.637	314.12
619.844	314.12
620.051	320.12
620.258	325.12
620.466	314.12
620.673	311.12
620.88	299.12
621.087	312.12
621.294	309.12
621.501	302.12
621.708	307.12
621.915	309.12
622.122	303.12
622.329	306.12
622.536	314.12
622.743	291.12
622.95	286.12
623.157	310.12
623.364	311.12
623.571	299.12
623.778	320.12
623.985	311.12
624.192	311.12
624.399	336.12
624.606	300.12
624.812	294.12
625.019	312.12
625.226	338.12
625.433	310.12
625.639	295.12
625.846	289.12
626.053	295.12
626.259	307.12
626.466	304.12
626.673	305.12
626.879	282.12
627.086	280.12
627.293	274.12
627.499	281.12
627.706	261.12
627.912	266.12
628.119	266.12
628.325	283.12
628.532	273.12
628.738	259.12
628.945	262.12
629.151	267.12
629.357	247.12
629.564	262.12
629.77	288.12
629.976	257.12
630.183	254.12
630.389	263.12
630.595	282.12
630.802	275.12
631.008	260.12
631.214	261.12
631.42	262.12
631.627	279.12
631.833	260.12
632.039	262.12
632.245	247.12
632.451	259.12
632.657	245.12
632.863	235.12
633.069	246.12
633.275	260.12
633.481	246.12
633.688	233.12
633.893	243.12
634.099	232.12
634.305	244.12
634.511	247.12
634.717	240.12
634.923	233.12
635.129	227.12
635.335	239.12
635.541	245.12
635.747	238.12
635.952	237.12
636.158	224.12
636.364	258.12
636.57	243.12
636.775	245.12
636.981	248.12
637.187	226.12
637.392	238.12
637.598	238.12
637.804	227.12
638.009	229.12
638.215	221.12
638.421	225.12
638.626	225.12
638.832	238.12
639.037	224.12
639.243	207.12
639.448	223.12
639.654	238.12
639.859	229.12
640.065	217.12
640.27	237.12
640.475	230.12
640.681	234.12
640.886	224.12
641.091	233.12
641.297	222.12
641.502	235.12
641.707	231.12
641.913	225.12
642.118	223.12
642.323	224.12
642.528	223.12
642.733	235.12
642.939	225.12
643.144	224.12
643.349	217.12
643.554	224.12
643.759	212.12
643.964	215.12
644.169	194.12
644.374	207.12
644.579	220.12
644.784	226.12
644.989	220.12
645.194	193.12
645.399	213.12
645.604	202.12
645.809	220.12
646.014	213.12
646.219	226.12
646.423	232.12
646.628	209.12
646.833	228.12
647.038	233.12
647.243	216.12
647.447	201.12
647.652	223.12
647.857	213.12
648.062	229.12
648.266	247.12
648.471	205.12
648.676	213.12
648.88	202.12
649.085	218.12
649.289	218.12
649.494	206.12
649.698	228.12
649.903	211.12
650.107	198.12
650.312	214.12
650.516	180.12
650.721	220.12
650.925	194.12
651.13	189.12
651.334	171.12
651.539	187.12
651.743	186.12
651.947	180.12
652.152	186.12
652.356	182.12
652.56	189.12
652.764	187.12
652.969	179.12
653.173	170.12
653.377	165.12
653.581	163.12
653.785	185.12
653.99	159.12
654.194	167.12
654.398	172.12
654.602	144.12
654.806	166.12
655.01	180.12
655.214	174.12
655.418	164.12
655.622	156.12
655.826	180.12
656.03	183.12
656.234	180.12
656.438	168.12
656.642	164.12
656.846	150.12
657.049	147.12
657.253	154.12
657.457	139.12
657.661	147.12
657.865	130.12
658.068	132.12
658.272	133.12
658.476	126.12
658.68	113.12
658.883	129.12
659.087	121.12
659.291	114.12
659.494	108.12
659.698	108.12
659.901	112.12
660.105	110.12
660.309	115.12
660.512	113.12
660.716	107.12
660.919	98.12
661.123	89.12
661.326	97.12
661.53	82.12
661.733	97.12
661.936	87.12
662.14	99.12
662.343	99.12
662.546	89.12
662.75	99.12
662.953	97.12
663.156	83.12
663.36	86.12
663.563	90.12
663.766	89.12
663.969	89.12
664.173	90.12
664.376	83.12
664.579	75.12
664.782	77.12
664.985	92.12
665.188	84.12
665.391	87.12
665.594	90.12
665.797	87.12
666	84.12
666.203	85.12
666.406	68.12
666.609	88.12
666.812	74.12
667.015	77.12
667.218	94.12
667.421	79.12
667.624	86.12
667.827	91.12
668.03	89.12
668.232	84.12
668.435	92.12
668.638	100.12
668.841	81.12
669.043	85.12
669.246	87.12
669.449	75.12
669.651	75.12
669.854	76.12
670.057	79.12
670.259	88.12
670.462	78.12
670.665	81.12
670.867	86.12
671.07	87.12
671.272	77.12
671.475	98.12
671.677	92.12
671.88	89.12
672.082	95.12
672.284	80.12
672.487	87.12
672.689	81.12
672.892	90.12
