Data from NickelSpatula_HRD10591_16-35-17-126.txt Node
Date: Mon Jul 22 16:35:17 EDT 2019
User: cochatt
Spectrometer: HR+D1059
Trigger mode: 1
Integration Time (sec): 1.000000E-1
Scans to average: 1
Electric dark correction enabled: true
Nonlinearity correction enabled: false
Boxcar width: 0
XAxis mode: Wavelengths
Number of Pixels in Spectrum: 2048
>>>>>Begin Spectral Data<<<<<
223.165	-22.12
223.4	-22.12
223.635	-22.12
223.869	-22.12
224.104	-5.12
224.338	-6.12
224.573	-16.12
224.808	-0.12
225.042	-24.12
225.277	-10.12
225.511	-8.12
225.746	8.88
225.98	16.88
226.215	7.88
226.449	22.88
226.683	5.88
226.918	28.88
227.152	22.88
227.387	35.88
227.621	45.88
227.856	33.88
228.09	48.88
228.324	35.88
228.559	59.88
228.793	63.88
229.027	70.88
229.262	67.88
229.496	74.88
229.73	85.88
229.964	73.88
230.199	95.88
230.433	94.88
230.667	78.88
230.901	93.88
231.136	93.88
231.37	90.88
231.604	94.88
231.838	99.88
232.072	105.88
232.306	107.88
232.541	115.88
232.775	119.88
233.009	120.88
233.243	117.88
233.477	114.88
233.711	110.88
233.945	103.88
234.179	104.88
234.413	125.88
234.647	118.88
234.881	142.88
235.115	129.88
235.349	111.88
235.583	119.88
235.817	126.88
236.051	119.88
236.285	114.88
236.519	135.88
236.753	132.88
236.987	121.88
237.221	133.88
237.455	134.88
237.689	127.88
237.922	101.88
238.156	124.88
238.39	144.88
238.624	166.88
238.858	153.88
239.091	138.88
239.325	129.88
239.559	135.88
239.793	133.88
240.027	160.88
240.26	150.88
240.494	149.88
240.728	138.88
240.961	169.88
241.195	159.88
241.429	138.88
241.662	152.88
241.896	141.88
242.13	135.88
242.363	127.88
242.597	129.88
242.83	153.88
243.064	149.88
243.298	166.88
243.531	154.88
243.765	150.88
243.998	150.88
244.232	165.88
244.465	152.88
244.699	153.88
244.932	168.88
245.166	169.88
245.399	155.88
245.633	142.88
245.866	141.88
246.099	178.88
246.333	186.88
246.566	181.88
246.8	171.88
247.033	173.88
247.266	167.88
247.5	165.88
247.733	173.88
247.966	151.88
248.2	185.88
248.433	167.88
248.666	181.88
248.899	193.88
249.133	182.88
249.366	213.88
249.599	224.88
249.832	184.88
250.066	191.88
250.299	197.88
250.532	200.88
250.765	195.88
250.998	179.88
251.231	179.88
251.465	199.88
251.698	205.88
251.931	210.88
252.164	192.88
252.397	197.88
252.63	216.88
252.863	243.88
253.096	251.88
253.329	251.88
253.562	230.88
253.795	257.88
254.028	273.88
254.261	271.88
254.494	259.88
254.727	263.88
254.96	232.88
255.193	266.88
255.426	230.88
255.659	194.88
255.892	179.88
256.124	189.88
256.357	213.88
256.59	230.88
256.823	255.88
257.056	199.88
257.289	191.88
257.521	223.88
257.754	236.88
257.987	271.88
258.22	247.88
258.452	212.88
258.685	219.88
258.918	266.88
259.151	265.88
259.383	271.88
259.616	313.88
259.849	301.88
260.081	313.88
260.314	351.88
260.547	293.88
260.779	297.88
261.012	331.88
261.244	307.88
261.477	310.88
261.71	289.88
261.942	273.88
262.175	256.88
262.407	243.88
262.64	251.88
262.872	281.88
263.105	327.88
263.337	323.88
263.57	310.88
263.802	249.88
264.035	205.88
264.267	191.88
264.499	173.88
264.732	158.88
264.964	168.88
265.197	167.88
265.429	176.88
265.661	168.88
265.894	201.88
266.126	204.88
266.358	242.88
266.591	258.88
266.823	300.88
267.055	277.88
267.287	259.88
267.52	258.88
267.752	270.88
267.984	290.88
268.216	281.88
268.448	240.88
268.681	216.88
268.913	246.88
269.145	274.88
269.377	253.88
269.609	279.88
269.841	281.88
270.073	279.88
270.306	271.88
270.538	286.88
270.77	286.88
271.002	280.88
271.234	285.88
271.466	311.88
271.698	277.88
271.93	277.88
272.162	265.88
272.394	273.88
272.626	284.88
272.858	289.88
273.09	294.88
273.322	267.88
273.553	260.88
273.785	303.88
274.017	359.88
274.249	424.88
274.481	433.88
274.713	477.88
274.945	525.88
275.176	537.88
275.408	491.88
275.64	454.88
275.872	465.88
276.104	385.88
276.335	367.88
276.567	351.88
276.799	371.88
277.031	384.88
277.262	301.88
277.494	232.88
277.726	253.88
277.957	263.88
278.189	302.88
278.421	279.88
278.652	290.88
278.884	275.88
279.115	251.88
279.347	252.88
279.579	243.88
279.81	247.88
280.042	259.88
280.273	246.88
280.505	242.88
280.736	201.88
280.968	217.88
281.199	219.88
281.431	244.88
281.662	242.88
281.894	237.88
282.125	250.88
282.356	264.88
282.588	268.88
282.819	227.88
283.051	279.88
283.282	313.88
283.513	373.88
283.745	396.88
283.976	401.88
284.207	371.88
284.439	377.88
284.67	347.88
284.901	337.88
285.132	350.88
285.364	381.88
285.595	332.88
285.826	357.88
286.057	383.88
286.288	373.88
286.52	374.88
286.751	361.88
286.982	371.88
287.213	351.88
287.444	333.88
287.675	340.88
287.906	328.88
288.138	294.88
288.369	255.88
288.6	259.88
288.831	270.88
289.062	291.88
289.293	320.88
289.524	316.88
289.755	297.88
289.986	309.88
290.217	301.88
290.448	230.88
290.679	197.88
290.91	207.88
291.141	199.88
291.371	196.88
291.602	185.88
291.833	209.88
292.064	212.88
292.295	222.88
292.526	254.88
292.757	267.88
292.987	303.88
293.218	294.88
293.449	311.88
293.68	321.88
293.91	309.88
294.141	316.88
294.372	298.88
294.603	261.88
294.833	278.88
295.064	353.88
295.295	335.88
295.525	269.88
295.756	238.88
295.987	210.88
296.217	214.88
296.448	196.88
296.679	235.88
296.909	235.88
297.14	245.88
297.37	290.88
297.601	262.88
297.831	225.88
298.062	241.88
298.292	277.88
298.523	301.88
298.753	331.88
298.984	300.88
299.214	252.88
299.445	215.88
299.675	189.88
299.905	210.88
300.136	215.88
300.366	223.88
300.597	232.88
300.827	197.88
301.057	195.88
301.288	211.88
301.518	212.88
301.748	257.88
301.979	255.88
302.209	265.88
302.439	277.88
302.669	243.88
302.9	251.88
303.13	229.88
303.36	227.88
303.59	219.88
303.82	198.88
304.051	219.88
304.281	262.88
304.511	246.88
304.741	217.88
304.971	216.88
305.201	252.88
305.431	246.88
305.661	221.88
305.891	210.88
306.121	216.88
306.352	207.88
306.582	174.88
306.812	176.88
307.042	179.88
307.272	179.88
307.502	167.88
307.731	193.88
307.961	183.88
308.191	187.88
308.421	167.88
308.651	173.88
308.881	181.88
309.111	184.88
309.341	175.88
309.571	191.88
309.8	188.88
310.03	215.88
310.26	202.88
310.49	199.88
310.72	182.88
310.949	161.88
311.179	191.88
311.409	189.88
311.639	209.88
311.868	241.88
312.098	315.88
312.328	345.88
312.557	341.88
312.787	341.88
313.017	303.88
313.246	319.88
313.476	340.88
313.706	298.88
313.935	242.88
314.165	211.88
314.394	191.88
314.624	192.88
314.853	216.88
315.083	215.88
315.312	219.88
315.542	202.88
315.771	178.88
316.001	192.88
316.23	177.88
316.46	175.88
316.689	182.88
316.919	196.88
317.148	192.88
317.377	175.88
317.607	178.88
317.836	182.88
318.065	204.88
318.295	224.88
318.524	224.88
318.753	192.88
318.983	178.88
319.212	167.88
319.441	189.88
319.67	213.88
319.9	228.88
320.129	215.88
320.358	176.88
320.587	199.88
320.816	191.88
321.046	218.88
321.275	239.88
321.504	258.88
321.733	242.88
321.962	240.88
322.191	210.88
322.42	215.88
322.649	214.88
322.878	226.88
323.108	223.88
323.337	208.88
323.566	208.88
323.795	221.88
324.024	200.88
324.253	182.88
324.482	201.88
324.71	212.88
324.939	222.88
325.168	209.88
325.397	175.88
325.626	177.88
325.855	181.88
326.084	199.88
326.313	189.88
326.542	170.88
326.77	173.88
326.999	189.88
327.228	183.88
327.457	199.88
327.686	198.88
327.914	167.88
328.143	159.88
328.372	181.88
328.6	166.88
328.829	170.88
329.058	193.88
329.287	174.88
329.515	182.88
329.744	186.88
329.972	171.88
330.201	163.88
330.43	163.88
330.658	186.88
330.887	209.88
331.115	201.88
331.344	184.88
331.572	186.88
331.801	191.88
332.03	185.88
332.258	179.88
332.486	187.88
332.715	197.88
332.943	179.88
333.172	175.88
333.4	205.88
333.629	184.88
333.857	202.88
334.085	202.88
334.314	225.88
334.542	232.88
334.771	194.88
334.999	195.88
335.227	179.88
335.455	194.88
335.684	201.88
335.912	215.88
336.14	224.88
336.369	246.88
336.597	218.88
336.825	249.88
337.053	265.88
337.281	243.88
337.51	200.88
337.738	186.88
337.966	199.88
338.194	214.88
338.422	213.88
338.65	190.88
338.878	175.88
339.106	179.88
339.334	198.88
339.562	203.88
339.79	197.88
340.018	197.88
340.246	189.88
340.474	202.88
340.702	240.88
340.93	230.88
341.158	238.88
341.386	221.88
341.614	225.88
341.842	201.88
342.07	189.88
342.298	241.88
342.526	245.88
342.754	203.88
342.981	206.88
343.209	209.88
343.437	216.88
343.665	208.88
343.893	229.88
344.12	242.88
344.348	277.88
344.576	273.88
344.804	206.88
345.031	201.88
345.259	198.88
345.487	191.88
345.714	196.88
345.942	200.88
346.17	204.88
346.397	216.88
346.625	193.88
346.853	187.88
347.08	175.88
347.308	196.88
347.535	209.88
347.763	204.88
347.99	203.88
348.218	173.88
348.445	169.88
348.673	169.88
348.9	201.88
349.128	199.88
349.355	202.88
349.583	198.88
349.81	193.88
350.037	193.88
350.265	165.88
350.492	167.88
350.72	170.88
350.947	171.88
351.174	160.88
351.402	192.88
351.629	181.88
351.856	178.88
352.083	178.88
352.311	176.88
352.538	188.88
352.765	210.88
352.992	193.88
353.22	191.88
353.447	193.88
353.674	179.88
353.901	193.88
354.128	186.88
354.355	186.88
354.583	191.88
354.81	193.88
355.037	195.88
355.264	181.88
355.491	214.88
355.718	217.88
355.945	211.88
356.172	197.88
356.399	192.88
356.626	240.88
356.853	259.88
357.08	303.88
357.307	313.88
357.534	247.88
357.761	254.88
357.988	302.88
358.215	348.88
358.441	294.88
358.668	283.88
358.895	280.88
359.122	214.88
359.349	211.88
359.576	261.88
359.802	216.88
360.029	178.88
360.256	200.88
360.483	214.88
360.709	283.88
360.936	295.88
361.163	259.88
361.39	211.88
361.616	212.88
361.843	183.88
362.07	257.88
362.296	250.88
362.523	206.88
362.749	171.88
362.976	190.88
363.203	218.88
363.429	237.88
363.656	202.88
363.882	185.88
364.109	197.88
364.335	218.88
364.562	183.88
364.788	201.88
365.015	217.88
365.241	203.88
365.468	176.88
365.694	171.88
365.92	175.88
366.147	159.88
366.373	148.88
366.599	164.88
366.826	175.88
367.052	173.88
367.278	161.88
367.505	159.88
367.731	181.88
367.957	187.88
368.184	182.88
368.41	209.88
368.636	188.88
368.862	206.88
369.089	201.88
369.315	185.88
369.541	186.88
369.767	181.88
369.993	187.88
370.219	182.88
370.445	168.88
370.672	205.88
370.898	214.88
371.124	203.88
371.35	183.88
371.576	167.88
371.802	201.88
372.028	196.88
372.254	210.88
372.48	206.88
372.706	184.88
372.932	192.88
373.158	217.88
373.384	239.88
373.61	287.88
373.835	300.88
374.061	226.88
374.287	213.88
374.513	235.88
374.739	293.88
374.965	279.88
375.191	288.88
375.416	225.88
375.642	191.88
375.868	213.88
376.094	224.88
376.319	197.88
376.545	232.88
376.771	238.88
376.997	215.88
377.222	166.88
377.448	157.88
377.674	162.88
377.899	142.88
378.125	155.88
378.35	151.88
378.576	143.88
378.802	181.88
379.027	194.88
379.253	182.88
379.478	197.88
379.704	193.88
379.929	222.88
380.155	218.88
380.38	182.88
380.606	191.88
380.831	208.88
381.057	194.88
381.282	197.88
381.507	211.88
381.733	240.88
381.958	263.88
382.184	269.88
382.409	289.88
382.634	285.88
382.86	293.88
383.085	241.88
383.31	214.88
383.535	231.88
383.761	230.88
383.986	212.88
384.211	265.88
384.436	253.88
384.662	209.88
384.887	193.88
385.112	201.88
385.337	206.88
385.562	192.88
385.787	223.88
386.013	247.88
386.238	231.88
386.463	202.88
386.688	193.88
386.913	187.88
387.138	169.88
387.363	187.88
387.588	179.88
387.813	185.88
388.038	219.88
388.263	189.88
388.488	189.88
388.713	223.88
388.938	231.88
389.163	197.88
389.387	184.88
389.612	185.88
389.837	180.88
390.062	190.88
390.287	192.88
390.512	177.88
390.736	197.88
390.961	173.88
391.186	176.88
391.411	178.88
391.636	168.88
391.86	198.88
392.085	213.88
392.31	186.88
392.534	174.88
392.759	185.88
392.984	200.88
393.208	209.88
393.433	177.88
393.658	176.88
393.882	185.88
394.107	158.88
394.331	170.88
394.556	154.88
394.78	157.88
395.005	177.88
395.229	163.88
395.454	170.88
395.678	174.88
395.903	177.88
396.127	178.88
396.352	173.88
396.576	198.88
396.801	194.88
397.025	208.88
397.249	224.88
397.474	200.88
397.698	201.88
397.922	197.88
398.147	184.88
398.371	181.88
398.595	198.88
398.82	202.88
399.044	198.88
399.268	213.88
399.492	201.88
399.717	202.88
399.941	223.88
400.165	209.88
400.389	203.88
400.613	209.88
400.837	203.88
401.062	192.88
401.286	190.88
401.51	188.88
401.734	195.88
401.958	186.88
402.182	180.88
402.406	195.88
402.63	176.88
402.854	196.88
403.078	196.88
403.302	253.88
403.526	288.88
403.75	270.88
403.974	219.88
404.198	227.88
404.422	250.88
404.645	234.88
404.869	279.88
405.093	231.88
405.317	203.88
405.541	192.88
405.765	207.88
405.988	204.88
406.212	212.88
406.436	226.88
406.66	264.88
406.883	215.88
407.107	239.88
407.331	247.88
407.555	239.88
407.778	231.88
408.002	214.88
408.226	224.88
408.449	198.88
408.673	205.88
408.896	204.88
409.12	195.88
409.344	187.88
409.567	178.88
409.791	186.88
410.014	185.88
410.238	168.88
410.461	175.88
410.685	187.88
410.908	181.88
411.132	199.88
411.355	183.88
411.578	189.88
411.802	192.88
412.025	204.88
412.249	199.88
412.472	209.88
412.695	203.88
412.919	213.88
413.142	210.88
413.365	213.88
413.589	210.88
413.812	178.88
414.035	185.88
414.258	200.88
414.482	210.88
414.705	214.88
414.928	186.88
415.151	186.88
415.374	200.88
415.597	190.88
415.821	196.88
416.044	191.88
416.267	170.88
416.49	173.88
416.713	163.88
416.936	178.88
417.159	183.88
417.382	166.88
417.605	183.88
417.828	185.88
418.051	188.88
418.274	190.88
418.497	197.88
418.72	210.88
418.943	192.88
419.166	215.88
419.389	206.88
419.611	203.88
419.834	203.88
420.057	223.88
420.28	209.88
420.503	194.88
420.726	177.88
420.948	201.88
421.171	186.88
421.394	178.88
421.617	173.88
421.839	191.88
422.062	189.88
422.285	187.88
422.507	199.88
422.73	190.88
422.953	198.88
423.175	187.88
423.398	207.88
423.621	212.88
423.843	234.88
424.066	203.88
424.288	190.88
424.511	175.88
424.733	196.88
424.956	185.88
425.178	236.88
425.401	246.88
425.623	258.88
425.846	226.88
426.068	192.88
426.291	212.88
426.513	204.88
426.735	195.88
426.958	201.88
427.18	232.88
427.402	273.88
427.625	288.88
427.847	229.88
428.069	200.88
428.292	179.88
428.514	183.88
428.736	169.88
428.958	199.88
429.181	221.88
429.403	209.88
429.625	174.88
429.847	184.88
430.069	186.88
430.292	182.88
430.514	180.88
430.736	193.88
430.958	222.88
431.18	202.88
431.402	186.88
431.624	171.88
431.846	173.88
432.068	159.88
432.29	183.88
432.512	192.88
432.734	234.88
432.956	229.88
433.178	187.88
433.4	174.88
433.622	171.88
433.844	185.88
434.066	198.88
434.287	195.88
434.509	186.88
434.731	206.88
434.953	198.88
435.175	171.88
435.397	222.88
435.618	198.88
435.84	178.88
436.062	171.88
436.284	184.88
436.505	161.88
436.727	162.88
436.949	163.88
437.17	168.88
437.392	184.88
437.614	186.88
437.835	170.88
438.057	189.88
438.278	195.88
438.5	258.88
438.721	261.88
438.943	191.88
439.165	175.88
439.386	181.88
439.608	169.88
439.829	184.88
440.05	169.88
440.272	179.88
440.493	198.88
440.715	243.88
440.936	203.88
441.158	191.88
441.379	184.88
441.6	190.88
441.822	217.88
442.043	201.88
442.264	180.88
442.486	196.88
442.707	175.88
442.928	186.88
443.149	196.88
443.371	174.88
443.592	195.88
443.813	196.88
444.034	199.88
444.255	175.88
444.476	183.88
444.698	185.88
444.919	206.88
445.14	352.88
445.361	271.88
445.582	225.88
445.803	178.88
446.024	187.88
446.245	196.88
446.466	186.88
446.687	186.88
446.908	183.88
447.129	176.88
447.35	186.88
447.571	184.88
447.792	170.88
448.013	177.88
448.234	174.88
448.455	180.88
448.675	183.88
448.896	179.88
449.117	170.88
449.338	171.88
449.559	176.88
449.779	176.88
450	179.88
450.221	178.88
450.442	181.88
450.662	189.88
450.883	184.88
451.104	177.88
451.324	170.88
451.545	166.88
451.766	170.88
451.986	176.88
452.207	169.88
452.428	164.88
452.648	165.88
452.869	177.88
453.089	182.88
453.31	170.88
453.53	162.88
453.751	160.88
453.971	167.88
454.192	173.88
454.412	183.88
454.633	178.88
454.853	167.88
455.073	188.88
455.294	179.88
455.514	179.88
455.734	163.88
455.955	185.88
456.175	179.88
456.395	162.88
456.616	157.88
456.836	161.88
457.056	161.88
457.276	176.88
457.497	164.88
457.717	149.88
457.937	157.88
458.157	159.88
458.377	157.88
458.598	156.88
458.818	167.88
459.038	163.88
459.258	185.88
459.478	178.88
459.698	193.88
459.918	193.88
460.138	190.88
460.358	196.88
460.578	195.88
460.798	191.88
461.018	180.88
461.238	188.88
461.458	184.88
461.678	181.88
461.898	197.88
462.118	193.88
462.338	185.88
462.558	206.88
462.777	234.88
462.997	219.88
463.217	207.88
463.437	215.88
463.657	203.88
463.876	199.88
464.096	208.88
464.316	199.88
464.536	210.88
464.755	243.88
464.975	225.88
465.195	194.88
465.414	217.88
465.634	201.88
465.854	201.88
466.073	179.88
466.293	179.88
466.512	199.88
466.732	207.88
466.951	211.88
467.171	193.88
467.391	181.88
467.61	171.88
467.829	181.88
468.049	199.88
468.268	189.88
468.488	167.88
468.707	190.88
468.927	196.88
469.146	219.88
469.365	223.88
469.585	213.88
469.804	201.88
470.023	229.88
470.243	210.88
470.462	187.88
470.681	193.88
470.901	192.88
471.12	198.88
471.339	204.88
471.558	178.88
471.777	199.88
471.997	203.88
472.216	213.88
472.435	214.88
472.654	210.88
472.873	198.88
473.092	211.88
473.311	206.88
473.53	190.88
473.749	185.88
473.968	213.88
474.187	190.88
474.406	194.88
474.625	186.88
474.844	190.88
475.063	194.88
475.282	210.88
475.501	211.88
475.72	233.88
475.939	226.88
476.158	215.88
476.377	245.88
476.596	278.88
476.814	290.88
477.033	259.88
477.252	217.88
477.471	205.88
477.69	199.88
477.908	225.88
478.127	225.88
478.346	220.88
478.564	233.88
478.783	223.88
479.002	230.88
479.22	245.88
479.439	261.88
479.658	247.88
479.876	231.88
480.095	231.88
480.313	227.88
480.532	228.88
480.751	220.88
480.969	203.88
481.188	239.88
481.406	251.88
481.624	246.88
481.843	223.88
482.061	214.88
482.28	228.88
482.498	266.88
482.717	286.88
482.935	225.88
483.153	230.88
483.372	222.88
483.59	199.88
483.808	214.88
484.027	217.88
484.245	199.88
484.463	203.88
484.681	193.88
484.9	214.88
485.118	237.88
485.336	207.88
485.554	209.88
485.772	217.88
485.99	250.88
486.209	243.88
486.427	243.88
486.645	219.88
486.863	230.88
487.081	237.88
487.299	259.88
487.517	271.88
487.735	219.88
487.953	236.88
488.171	258.88
488.389	215.88
488.607	213.88
488.825	218.88
489.043	249.88
489.261	271.88
489.479	290.88
489.696	230.88
489.914	235.88
490.132	217.88
490.35	209.88
490.568	219.88
490.786	211.88
491.003	212.88
491.221	221.88
491.439	225.88
491.657	207.88
491.874	218.88
492.092	278.88
492.31	331.88
492.527	322.88
492.745	279.88
492.963	258.88
493.18	256.88
493.398	241.88
493.615	246.88
493.833	240.88
494.05	233.88
494.268	233.88
494.485	225.88
494.703	230.88
494.92	241.88
495.138	222.88
495.355	223.88
495.573	226.88
495.79	240.88
496.008	325.88
496.225	282.88
496.442	258.88
496.66	253.88
496.877	270.88
497.094	270.88
497.312	243.88
497.529	238.88
497.746	272.88
497.963	241.88
498.181	267.88
498.398	282.88
498.615	301.88
498.832	311.88
499.049	324.88
499.267	314.88
499.484	310.88
499.701	330.88
499.918	325.88
500.135	375.88
500.352	368.88
500.569	396.88
500.786	403.88
501.003	410.88
501.22	358.88
501.437	343.88
501.654	313.88
501.871	292.88
502.088	291.88
502.305	291.88
502.522	293.88
502.739	267.88
502.956	269.88
503.172	274.88
503.389	260.88
503.606	249.88
503.823	254.88
504.04	252.88
504.256	247.88
504.473	261.88
504.69	259.88
504.907	252.88
505.123	274.88
505.34	240.88
505.557	295.88
505.773	247.88
505.99	252.88
506.207	272.88
506.423	237.88
506.64	232.88
506.856	233.88
507.073	276.88
507.289	245.88
507.506	277.88
507.722	270.88
507.939	266.88
508.155	284.88
508.372	262.88
508.588	237.88
508.805	240.88
509.021	224.88
509.238	216.88
509.454	225.88
509.67	214.88
509.887	230.88
510.103	257.88
510.319	244.88
510.536	222.88
510.752	216.88
510.968	208.88
511.184	216.88
511.401	212.88
511.617	210.88
511.833	207.88
512.049	198.88
512.265	209.88
512.481	210.88
512.698	233.88
512.914	265.88
513.13	255.88
513.346	217.88
513.562	213.88
513.778	226.88
513.994	212.88
514.21	231.88
514.426	222.88
514.642	233.88
514.858	213.88
515.074	215.88
515.29	256.88
515.506	267.88
515.721	240.88
515.937	244.88
516.153	221.88
516.369	226.88
516.585	237.88
516.801	255.88
517.016	295.88
517.232	294.88
517.448	281.88
517.664	264.88
517.879	258.88
518.095	255.88
518.311	240.88
518.527	254.88
518.742	257.88
518.958	287.88
519.173	289.88
519.389	261.88
519.605	273.88
519.82	290.88
520.036	305.88
520.251	321.88
520.467	303.88
520.682	457.88
520.898	561.88
521.113	535.88
521.329	346.88
521.544	285.88
521.76	293.88
521.975	276.88
522.19	259.88
522.406	254.88
522.621	271.88
522.836	283.88
523.052	305.88
523.267	277.88
523.482	243.88
523.698	271.88
523.913	248.88
524.128	226.88
524.343	225.88
524.559	209.88
524.774	211.88
524.989	227.88
525.204	230.88
525.419	236.88
525.634	243.88
525.849	243.88
526.064	230.88
526.28	241.88
526.495	282.88
526.71	291.88
526.925	265.88
527.14	278.88
527.355	274.88
527.57	239.88
527.785	254.88
527.999	222.88
528.214	222.88
528.429	212.88
528.644	209.88
528.859	208.88
529.074	199.88
529.289	177.88
529.503	200.88
529.718	206.88
529.933	252.88
530.148	269.88
530.363	231.88
530.577	222.88
530.792	209.88
531.007	201.88
531.221	189.88
531.436	199.88
531.651	209.88
531.865	217.88
532.08	202.88
532.295	189.88
532.509	207.88
532.724	230.88
532.938	257.88
533.153	312.88
533.367	267.88
533.582	232.88
533.796	205.88
534.011	196.88
534.225	214.88
534.44	226.88
534.654	209.88
534.868	262.88
535.083	249.88
535.297	233.88
535.511	212.88
535.726	216.88
535.94	210.88
536.154	209.88
536.369	186.88
536.583	205.88
536.797	200.88
537.011	187.88
537.225	228.88
537.44	253.88
537.654	206.88
537.868	189.88
538.082	199.88
538.296	196.88
538.51	220.88
538.724	205.88
538.938	217.88
539.153	214.88
539.367	192.88
539.581	207.88
539.795	222.88
540.009	237.88
540.222	218.88
540.436	203.88
540.65	231.88
540.864	241.88
541.078	267.88
541.292	290.88
541.506	213.88
541.72	211.88
541.934	209.88
542.147	194.88
542.361	221.88
542.575	211.88
542.789	205.88
543.002	181.88
543.216	218.88
543.43	199.88
543.644	182.88
543.857	203.88
544.071	182.88
544.285	179.88
544.498	194.88
544.712	184.88
544.925	186.88
545.139	208.88
545.352	176.88
545.566	197.88
545.779	215.88
545.993	188.88
546.206	170.88
546.42	201.88
546.633	189.88
546.847	181.88
547.06	191.88
547.274	178.88
547.487	173.88
547.7	203.88
547.914	202.88
548.127	219.88
548.34	217.88
548.554	206.88
548.767	203.88
548.98	213.88
549.193	191.88
549.407	208.88
549.62	225.88
549.833	226.88
550.046	202.88
550.259	232.88
550.473	240.88
550.686	199.88
550.899	216.88
551.112	203.88
551.325	228.88
551.538	217.88
551.751	193.88
551.964	171.88
552.177	201.88
552.39	191.88
552.603	171.88
552.816	189.88
553.029	180.88
553.242	197.88
553.455	195.88
553.667	219.88
553.88	209.88
554.093	206.88
554.306	181.88
554.519	179.88
554.732	178.88
554.944	159.88
555.157	169.88
555.37	156.88
555.583	168.88
555.795	170.88
556.008	180.88
556.221	180.88
556.433	175.88
556.646	190.88
556.859	177.88
557.071	182.88
557.284	173.88
557.496	190.88
557.709	170.88
557.921	162.88
558.134	169.88
558.346	170.88
558.559	160.88
558.771	166.88
558.984	179.88
559.196	176.88
559.409	157.88
559.621	159.88
559.833	168.88
560.046	177.88
560.258	163.88
560.47	180.88
560.683	164.88
560.895	139.88
561.107	149.88
561.32	158.88
561.532	151.88
561.744	168.88
561.956	181.88
562.168	156.88
562.381	167.88
562.593	174.88
562.805	178.88
563.017	176.88
563.229	162.88
563.441	139.88
563.653	145.88
563.865	161.88
564.077	153.88
564.289	154.88
564.501	189.88
564.713	178.88
564.925	166.88
565.137	157.88
565.349	182.88
565.561	171.88
565.773	169.88
565.985	163.88
566.197	170.88
566.408	193.88
566.62	187.88
566.832	191.88
567.044	182.88
567.255	205.88
567.467	208.88
567.679	194.88
567.891	191.88
568.102	209.88
568.314	222.88
568.526	200.88
568.737	188.88
568.949	191.88
569.161	175.88
569.372	179.88
569.584	169.88
569.795	176.88
570.007	161.88
570.218	182.88
570.43	177.88
570.641	166.88
570.853	173.88
571.064	152.88
571.276	155.88
571.487	176.88
571.698	151.88
571.91	147.88
572.121	157.88
572.333	155.88
572.544	148.88
572.755	160.88
572.966	162.88
573.178	149.88
573.389	163.88
573.6	161.88
573.811	156.88
574.023	157.88
574.234	143.88
574.445	142.88
574.656	144.88
574.867	133.88
575.078	139.88
575.289	149.88
575.501	152.88
575.712	141.88
575.923	137.88
576.134	143.88
576.345	129.88
576.556	149.88
576.767	148.88
576.978	137.88
577.188	145.88
577.399	144.88
577.61	154.88
577.821	146.88
578.032	138.88
578.243	143.88
578.454	157.88
578.665	161.88
578.875	159.88
579.086	144.88
579.297	153.88
579.508	133.88
579.718	149.88
579.929	131.88
580.14	144.88
580.35	139.88
580.561	129.88
580.772	132.88
580.982	143.88
581.193	141.88
581.403	136.88
581.614	136.88
581.825	131.88
582.035	136.88
582.246	147.88
582.456	119.88
582.667	135.88
582.877	119.88
583.087	124.88
583.298	127.88
583.508	133.88
583.719	147.88
583.929	132.88
584.139	129.88
584.35	136.88
584.56	147.88
584.77	122.88
584.981	133.88
585.191	130.88
585.401	118.88
585.611	122.88
585.821	146.88
586.032	136.88
586.242	135.88
586.452	138.88
586.662	126.88
586.872	145.88
587.082	137.88
587.292	137.88
587.502	135.88
587.713	149.88
587.923	122.88
588.133	131.88
588.343	131.88
588.553	129.88
588.762	135.88
588.972	139.88
589.182	137.88
589.392	120.88
589.602	139.88
589.812	134.88
590.022	148.88
590.232	144.88
590.441	137.88
590.651	135.88
590.861	127.88
591.071	121.88
591.281	139.88
591.49	133.88
591.7	122.88
591.91	139.88
592.119	121.88
592.329	142.88
592.539	125.88
592.748	144.88
592.958	117.88
593.167	136.88
593.377	125.88
593.587	143.88
593.796	137.88
594.006	143.88
594.215	144.88
594.424	147.88
594.634	164.88
594.843	138.88
595.053	145.88
595.262	121.88
595.472	124.88
595.681	129.88
595.89	120.88
596.1	138.88
596.309	131.88
596.518	131.88
596.727	128.88
596.937	121.88
597.146	146.88
597.355	141.88
597.564	129.88
597.774	136.88
597.983	134.88
598.192	133.88
598.401	122.88
598.61	120.88
598.819	125.88
599.028	121.88
599.237	132.88
599.446	134.88
599.655	122.88
599.864	118.88
600.073	118.88
600.282	112.88
600.491	121.88
600.7	115.88
600.909	129.88
601.118	118.88
601.327	117.88
601.536	115.88
601.745	121.88
601.953	133.88
602.162	129.88
602.371	137.88
602.58	134.88
602.789	113.88
602.997	117.88
603.206	116.88
603.415	118.88
603.623	126.88
603.832	114.88
604.041	106.88
604.249	93.88
604.458	111.88
604.666	122.88
604.875	118.88
605.084	123.88
605.292	132.88
605.501	119.88
605.709	118.88
605.918	104.88
606.126	103.88
606.334	106.88
606.543	121.88
606.751	113.88
606.96	119.88
607.168	117.88
607.376	119.88
607.585	129.88
607.793	118.88
608.001	116.88
608.21	119.88
608.418	123.88
608.626	129.88
608.834	126.88
609.043	102.88
609.251	114.88
609.459	107.88
609.667	119.88
609.875	124.88
610.083	105.88
610.291	103.88
610.499	107.88
610.707	125.88
610.916	105.88
611.124	107.88
611.332	124.88
611.54	114.88
611.748	106.88
611.955	104.88
612.163	106.88
612.371	118.88
612.579	102.88
612.787	110.88
612.995	114.88
613.203	112.88
613.411	122.88
613.618	128.88
613.826	117.88
614.034	121.88
614.242	126.88
614.449	106.88
614.657	106.88
614.865	97.88
615.072	114.88
615.28	101.88
615.488	98.88
615.695	100.88
615.903	107.88
616.111	113.88
616.318	117.88
616.526	115.88
616.733	106.88
616.941	117.88
617.148	105.88
617.356	114.88
617.563	101.88
617.771	121.88
617.978	121.88
618.185	105.88
618.393	103.88
618.6	111.88
618.807	103.88
619.015	103.88
619.222	107.88
619.429	120.88
619.637	109.88
619.844	105.88
620.051	105.88
620.258	120.88
620.466	114.88
620.673	96.88
620.88	99.88
621.087	111.88
621.294	109.88
621.501	102.88
621.708	104.88
621.915	109.88
622.122	105.88
622.329	99.88
622.536	116.88
622.743	102.88
622.95	99.88
623.157	117.88
623.364	117.88
623.571	110.88
623.778	110.88
623.985	109.88
624.192	94.88
624.399	109.88
624.606	120.88
624.812	106.88
625.019	123.88
625.226	108.88
625.433	109.88
625.639	106.88
625.846	121.88
626.053	119.88
626.259	101.88
626.466	104.88
626.673	90.88
626.879	110.88
627.086	113.88
627.293	122.88
627.499	110.88
627.706	106.88
627.912	95.88
628.119	97.88
628.325	110.88
628.532	95.88
628.738	103.88
628.945	114.88
629.151	104.88
629.357	111.88
629.564	112.88
629.77	100.88
629.976	109.88
630.183	100.88
630.389	107.88
630.595	115.88
630.802	99.88
631.008	105.88
631.214	106.88
631.42	108.88
631.627	102.88
631.833	90.88
632.039	110.88
632.245	95.88
632.451	109.88
632.657	113.88
632.863	104.88
633.069	98.88
633.275	102.88
633.481	97.88
633.688	101.88
633.893	114.88
634.099	89.88
634.305	102.88
634.511	107.88
634.717	102.88
634.923	94.88
635.129	99.88
635.335	102.88
635.541	75.88
635.747	94.88
635.952	92.88
636.158	97.88
636.364	115.88
636.57	90.88
636.775	97.88
636.981	99.88
637.187	105.88
637.392	105.88
637.598	89.88
637.804	101.88
638.009	103.88
638.215	105.88
638.421	106.88
638.626	91.88
638.832	95.88
639.037	101.88
639.243	101.88
639.448	97.88
639.654	114.88
639.859	95.88
640.065	83.88
640.27	105.88
640.475	108.88
640.681	95.88
640.886	97.88
641.091	81.88
641.297	100.88
641.502	107.88
641.707	114.88
641.913	117.88
642.118	77.88
642.323	93.88
642.528	103.88
642.733	97.88
642.939	101.88
643.144	93.88
643.349	84.88
643.554	106.88
643.759	109.88
643.964	89.88
644.169	87.88
644.374	102.88
644.579	108.88
644.784	96.88
644.989	111.88
645.194	98.88
645.399	94.88
645.604	98.88
645.809	102.88
646.014	97.88
646.219	98.88
646.423	85.88
646.628	81.88
646.833	105.88
647.038	98.88
647.243	100.88
647.447	105.88
647.652	118.88
647.857	97.88
648.062	85.88
648.266	101.88
648.471	90.88
648.676	101.88
648.88	82.88
649.085	110.88
649.289	89.88
649.494	87.88
649.698	105.88
649.903	111.88
650.107	90.88
650.312	94.88
650.516	95.88
650.721	92.88
650.925	83.88
651.13	111.88
651.334	95.88
651.539	106.88
651.743	89.88
651.947	101.88
652.152	89.88
652.356	97.88
652.56	98.88
652.764	90.88
652.969	87.88
653.173	101.88
653.377	101.88
653.581	82.88
653.785	105.88
653.99	81.88
654.194	93.88
654.398	105.88
654.602	87.88
654.806	78.88
655.01	91.88
655.214	79.88
655.418	81.88
655.622	87.88
655.826	83.88
656.03	84.88
656.234	97.88
656.438	82.88
656.642	83.88
656.846	99.88
657.049	79.88
657.253	86.88
657.457	88.88
657.661	83.88
657.865	77.88
658.068	94.88
658.272	87.88
658.476	85.88
658.68	81.88
658.883	84.88
659.087	81.88
659.291	82.88
659.494	90.88
659.698	73.88
659.901	71.88
660.105	87.88
660.309	82.88
660.512	75.88
660.716	90.88
660.919	82.88
661.123	68.88
661.326	85.88
661.53	87.88
661.733	69.88
661.936	88.88
662.14	82.88
662.343	65.88
662.546	79.88
662.75	74.88
662.953	76.88
663.156	77.88
663.36	84.88
663.563	98.88
663.766	76.88
663.969	85.88
664.173	70.88
664.376	76.88
664.579	84.88
664.782	71.88
664.985	104.88
665.188	79.88
665.391	85.88
665.594	86.88
665.797	77.88
666	74.88
666.203	85.88
666.406	88.88
666.609	91.88
666.812	80.88
667.015	75.88
667.218	87.88
667.421	72.88
667.624	95.88
667.827	82.88
668.03	83.88
668.232	94.88
668.435	76.88
668.638	68.88
668.841	87.88
669.043	82.88
669.246	83.88
669.449	89.88
669.651	86.88
669.854	83.88
670.057	82.88
670.259	84.88
670.462	83.88
670.665	90.88
670.867	91.88
671.07	88.88
671.272	89.88
671.475	76.88
671.677	75.88
671.88	80.88
672.082	79.88
672.284	76.88
672.487	95.88
672.689	85.88
672.892	91.88
