Data from NickelSpatula.Lamp.E10.P2_HRD10591_11-58-35-527.txt Node
Date: Tue Jul 23 11:58:35 EDT 2019
User: cochatt
Spectrometer: HR+D1059
Trigger mode: 1
Integration Time (sec): 1.000000E-1
Scans to average: 1
Electric dark correction enabled: true
Nonlinearity correction enabled: false
Boxcar width: 0
XAxis mode: Wavelengths
Number of Pixels in Spectrum: 2048
>>>>>Begin Spectral Data<<<<<
223.165	-14.25
223.4	-14.25
223.635	-14.25
223.869	-14.25
224.104	-25.25
224.338	-18.25
224.573	-18.25
224.808	-15.25
225.042	-7.25
225.277	-1.25
225.511	-5.25
225.746	11.75
225.98	24.75
226.215	1.75
226.449	24.75
226.683	11.75
226.918	16.75
227.152	27.75
227.387	38.75
227.621	44.75
227.856	51.75
228.09	52.75
228.324	33.75
228.559	57.75
228.793	76.75
229.027	131.75
229.262	165.75
229.496	149.75
229.73	166.75
229.964	185.75
230.199	217.75
230.433	217.75
230.667	201.75
230.901	205.75
231.136	179.75
231.37	198.75
231.604	208.75
231.838	243.75
232.072	265.75
232.306	251.75
232.541	234.75
232.775	242.75
233.009	274.75
233.243	288.75
233.477	297.75
233.711	333.75
233.945	337.75
234.179	339.75
234.413	351.75
234.647	403.75
234.881	465.75
235.115	407.75
235.349	384.75
235.583	355.75
235.817	341.75
236.051	378.75
236.285	430.75
236.519	459.75
236.753	422.75
236.987	413.75
237.221	404.75
237.455	401.75
237.689	413.75
237.922	468.75
238.156	464.75
238.39	545.75
238.624	644.75
238.858	607.75
239.091	497.75
239.325	502.75
239.559	474.75
239.793	550.75
240.027	657.75
240.26	573.75
240.494	537.75
240.728	594.75
240.961	665.75
241.195	634.75
241.429	619.75
241.662	604.75
241.896	505.75
242.13	457.75
242.363	446.75
242.597	469.75
242.83	525.75
243.064	545.75
243.298	576.75
243.531	601.75
243.765	642.75
243.998	623.75
244.232	602.75
244.465	589.75
244.699	590.75
244.932	655.75
245.166	606.75
245.399	562.75
245.633	550.75
245.866	565.75
246.099	601.75
246.333	697.75
246.566	737.75
246.8	762.75
247.033	736.75
247.266	677.75
247.5	691.75
247.733	653.75
247.966	651.75
248.2	673.75
248.433	765.75
248.666	849.75
248.899	830.75
249.133	850.75
249.366	965.75
249.599	1036.75
249.832	961.75
250.066	794.75
250.299	823.75
250.532	805.75
250.765	801.75
250.998	735.75
251.231	714.75
251.465	778.75
251.698	833.75
251.931	811.75
252.164	850.75
252.397	930.75
252.63	1047.75
252.863	1145.75
253.096	1168.75
253.329	1144.75
253.562	1082.75
253.795	1207.75
254.028	1350.75
254.261	1391.75
254.494	1224.75
254.727	1110.75
254.96	1098.75
255.193	1192.75
255.426	1121.75
255.659	853.75
255.892	771.75
256.124	853.75
256.357	976.75
256.59	1194.75
256.823	1110.75
257.056	963.75
257.289	889.75
257.521	967.75
257.754	1129.75
257.987	1252.75
258.22	1088.75
258.452	1004.75
258.685	1139.75
258.918	1271.75
259.151	1208.75
259.383	1295.75
259.616	1497.75
259.849	1525.75
260.081	1669.75
260.314	1845.75
260.547	1453.75
260.779	1449.75
261.012	1689.75
261.244	1611.75
261.477	1582.75
261.71	1496.75
261.942	1251.75
262.175	1273.75
262.407	1214.75
262.64	1286.75
262.872	1488.75
263.105	1623.75
263.337	1712.75
263.57	1502.75
263.802	1019.75
264.035	895.75
264.267	841.75
264.499	755.75
264.732	693.75
264.964	695.75
265.197	719.75
265.429	765.75
265.661	796.75
265.894	838.75
266.126	911.75
266.358	1001.75
266.591	1239.75
266.823	1472.75
267.055	1401.75
267.287	1227.75
267.52	1247.75
267.752	1301.75
267.984	1437.75
268.216	1370.75
268.448	1098.75
268.681	1081.75
268.913	1173.75
269.145	1228.75
269.377	1280.75
269.609	1279.75
269.841	1190.75
270.073	1255.75
270.306	1346.75
270.538	1361.75
270.77	1397.75
271.002	1393.75
271.234	1425.75
271.466	1478.75
271.698	1419.75
271.93	1395.75
272.162	1432.75
272.394	1391.75
272.626	1368.75
272.858	1395.75
273.09	1466.75
273.322	1275.75
273.553	1246.75
273.785	1477.75
274.017	1923.75
274.249	2424.75
274.481	2462.75
274.713	2646.75
274.945	3096.75
275.176	3206.75
275.408	2788.75
275.64	2571.75
275.872	2568.75
276.104	2206.75
276.335	1896.75
276.567	1902.75
276.799	1937.75
277.031	2059.75
277.262	1634.75
277.494	1231.75
277.726	1184.75
277.957	1278.75
278.189	1441.75
278.421	1433.75
278.652	1414.75
278.884	1315.75
279.115	1245.75
279.347	1186.75
279.579	1203.75
279.81	1171.75
280.042	1169.75
280.273	1204.75
280.505	1118.75
280.736	993.75
280.968	990.75
281.199	1082.75
281.431	1213.75
281.662	1177.75
281.894	1128.75
282.125	1235.75
282.356	1315.75
282.588	1338.75
282.819	1220.75
283.051	1348.75
283.282	1655.75
283.513	1937.75
283.745	2128.75
283.976	2166.75
284.207	1994.75
284.439	2085.75
284.67	1958.75
284.901	1754.75
285.132	1885.75
285.364	1990.75
285.595	1855.75
285.826	1975.75
286.057	2018.75
286.288	1919.75
286.52	1972.75
286.751	2098.75
286.982	2023.75
287.213	1794.75
287.444	1738.75
287.675	1821.75
287.906	1824.75
288.138	1515.75
288.369	1353.75
288.6	1264.75
288.831	1304.75
289.062	1494.75
289.293	1637.75
289.524	1578.75
289.755	1536.75
289.986	1626.75
290.217	1405.75
290.448	1104.75
290.679	951.75
290.91	917.75
291.141	922.75
291.371	952.75
291.602	954.75
291.833	978.75
292.064	1034.75
292.295	1175.75
292.526	1347.75
292.757	1413.75
292.987	1526.75
293.218	1539.75
293.449	1575.75
293.68	1654.75
293.91	1573.75
294.141	1566.75
294.372	1521.75
294.603	1395.75
294.833	1522.75
295.064	1786.75
295.295	1718.75
295.525	1285.75
295.756	1123.75
295.987	999.75
296.217	1010.75
296.448	1025.75
296.679	1042.75
296.909	1204.75
297.14	1261.75
297.37	1391.75
297.601	1313.75
297.831	1140.75
298.062	1254.75
298.292	1405.75
298.523	1575.75
298.753	1724.75
298.984	1577.75
299.214	1228.75
299.445	1057.75
299.675	991.75
299.905	1002.75
300.136	1066.75
300.366	1150.75
300.597	1103.75
300.827	986.75
301.057	961.75
301.288	1000.75
301.518	1046.75
301.748	1182.75
301.979	1307.75
302.209	1385.75
302.439	1415.75
302.669	1218.75
302.9	1178.75
303.13	1110.75
303.36	1071.75
303.59	1033.75
303.82	1091.75
304.051	1220.75
304.281	1305.75
304.511	1259.75
304.741	1104.75
304.971	1122.75
305.201	1265.75
305.431	1150.75
305.661	1040.75
305.891	1041.75
306.121	1043.75
306.352	937.75
306.582	877.75
306.812	850.75
307.042	826.75
307.272	792.75
307.502	802.75
307.731	854.75
307.961	903.75
308.191	879.75
308.421	800.75
308.651	787.75
308.881	747.75
309.111	756.75
309.341	801.75
309.571	887.75
309.8	913.75
310.03	924.75
310.26	986.75
310.49	961.75
310.72	877.75
310.949	826.75
311.179	875.75
311.409	928.75
311.639	1069.75
311.868	1386.75
312.098	1756.75
312.328	1915.75
312.557	1833.75
312.787	1832.75
313.017	1658.75
313.246	1781.75
313.476	1896.75
313.706	1576.75
313.935	1262.75
314.165	1015.75
314.394	929.75
314.624	953.75
314.853	981.75
315.083	1028.75
315.312	1025.75
315.542	1008.75
315.771	915.75
316.001	846.75
316.23	847.75
316.46	846.75
316.689	845.75
316.919	849.75
317.148	884.75
317.377	885.75
317.607	862.75
317.836	937.75
318.065	1075.75
318.295	1215.75
318.524	1122.75
318.753	996.75
318.983	929.75
319.212	912.75
319.441	991.75
319.67	1110.75
319.9	1193.75
320.129	1131.75
320.358	945.75
320.587	925.75
320.816	980.75
321.046	1154.75
321.275	1299.75
321.504	1303.75
321.733	1287.75
321.962	1211.75
322.191	1147.75
322.42	1071.75
322.649	1082.75
322.878	1183.75
323.108	1178.75
323.337	1096.75
323.566	1058.75
323.795	1040.75
324.024	1000.75
324.253	954.75
324.482	957.75
324.71	1066.75
324.939	1191.75
325.168	1099.75
325.397	929.75
325.626	880.75
325.855	893.75
326.084	901.75
326.313	854.75
326.542	820.75
326.77	853.75
326.999	880.75
327.228	939.75
327.457	1009.75
327.686	977.75
327.914	857.75
328.143	827.75
328.372	822.75
328.6	847.75
328.829	861.75
329.058	888.75
329.287	870.75
329.515	893.75
329.744	871.75
329.972	805.75
330.201	789.75
330.43	843.75
330.658	909.75
330.887	1057.75
331.115	1035.75
331.344	962.75
331.572	939.75
331.801	900.75
332.03	865.75
332.258	882.75
332.486	935.75
332.715	965.75
332.943	898.75
333.172	900.75
333.4	931.75
333.629	1021.75
333.857	1109.75
334.085	1083.75
334.314	1093.75
334.542	1030.75
334.771	955.75
334.999	917.75
335.227	913.75
335.455	910.75
335.684	1020.75
335.912	1146.75
336.14	1312.75
336.369	1221.75
336.597	1184.75
336.825	1314.75
337.053	1494.75
337.281	1206.75
337.51	961.75
337.738	979.75
337.966	1034.75
338.194	1163.75
338.422	1096.75
338.65	942.75
338.878	849.75
339.106	894.75
339.334	1016.75
339.562	1049.75
339.79	991.75
340.018	952.75
340.246	1025.75
340.474	1178.75
340.702	1255.75
340.93	1292.75
341.158	1302.75
341.386	1115.75
341.614	1078.75
341.842	1112.75
342.07	1176.75
342.298	1296.75
342.526	1354.75
342.754	1183.75
342.981	1089.75
343.209	1056.75
343.437	1097.75
343.665	1178.75
343.893	1141.75
344.12	1341.75
344.348	1565.75
344.576	1400.75
344.804	1171.75
345.031	993.75
345.259	971.75
345.487	1004.75
345.714	1012.75
345.942	1058.75
346.17	1197.75
346.397	1133.75
346.625	975.75
346.853	937.75
347.08	943.75
347.308	978.75
347.535	1073.75
347.763	1130.75
347.99	962.75
348.218	908.75
348.445	953.75
348.673	941.75
348.9	945.75
349.128	1019.75
349.355	1070.75
349.583	1042.75
349.81	967.75
350.037	949.75
350.265	814.75
350.492	793.75
350.72	755.75
350.947	807.75
351.174	870.75
351.402	931.75
351.629	971.75
351.856	931.75
352.083	890.75
352.311	982.75
352.538	1036.75
352.765	1135.75
352.992	1045.75
353.22	946.75
353.447	950.75
353.674	969.75
353.901	952.75
354.128	954.75
354.355	979.75
354.583	995.75
354.81	945.75
355.037	1000.75
355.264	978.75
355.491	1048.75
355.718	1147.75
355.945	1141.75
356.172	1064.75
356.399	1079.75
356.626	1299.75
356.853	1622.75
357.08	1688.75
357.307	1746.75
357.534	1327.75
357.761	1377.75
357.988	1718.75
358.215	2027.75
358.441	1900.75
358.668	1639.75
358.895	1437.75
359.122	1181.75
359.349	1153.75
359.576	1303.75
359.802	1058.75
360.029	944.75
360.256	1021.75
360.483	1257.75
360.709	1560.75
360.936	1621.75
361.163	1429.75
361.39	1114.75
361.616	1025.75
361.843	1192.75
362.07	1458.75
362.296	1319.75
362.523	1075.75
362.749	939.75
362.976	984.75
363.203	1170.75
363.429	1309.75
363.656	1069.75
363.882	973.75
364.109	985.75
364.335	1007.75
364.562	967.75
364.788	1098.75
365.015	1289.75
365.241	1137.75
365.468	926.75
365.694	809.75
365.92	797.75
366.147	755.75
366.373	753.75
366.599	750.75
366.826	787.75
367.052	799.75
367.278	826.75
367.505	829.75
367.731	889.75
367.957	989.75
368.184	1010.75
368.41	992.75
368.636	999.75
368.862	1015.75
369.089	1021.75
369.315	903.75
369.541	882.75
369.767	871.75
369.993	831.75
370.219	856.75
370.445	903.75
370.672	1004.75
370.898	1101.75
371.124	1053.75
371.35	949.75
371.576	867.75
371.802	947.75
372.028	1169.75
372.254	1341.75
372.48	1122.75
372.706	1023.75
372.932	1075.75
373.158	1089.75
373.384	1350.75
373.61	1762.75
373.835	1823.75
374.061	1352.75
374.287	1137.75
374.513	1367.75
374.739	1627.75
374.965	1669.75
375.191	1632.75
375.416	1142.75
375.642	1010.75
375.868	1177.75
376.094	1333.75
376.319	1136.75
376.545	1258.75
376.771	1369.75
376.997	1129.75
377.222	848.75
377.448	758.75
377.674	765.75
377.899	754.75
378.125	743.75
378.35	724.75
378.576	778.75
378.802	838.75
379.027	904.75
379.253	885.75
379.478	897.75
379.704	1032.75
379.929	1075.75
380.155	1086.75
380.38	936.75
380.606	976.75
380.831	1062.75
381.057	984.75
381.282	971.75
381.507	1161.75
381.733	1432.75
381.958	1515.75
382.184	1591.75
382.409	1667.75
382.634	1642.75
382.86	1711.75
383.085	1408.75
383.31	1109.75
383.535	1201.75
383.761	1225.75
383.986	1151.75
384.211	1382.75
384.436	1347.75
384.662	1003.75
384.887	975.75
385.112	1032.75
385.337	1057.75
385.562	990.75
385.787	1102.75
386.013	1193.75
386.238	1202.75
386.463	1007.75
386.688	976.75
386.913	931.75
387.138	867.75
387.363	934.75
387.588	961.75
387.813	963.75
388.038	1074.75
388.263	961.75
388.488	951.75
388.713	1098.75
388.938	1184.75
389.163	1023.75
389.387	901.75
389.612	894.75
389.837	944.75
390.062	953.75
390.287	982.75
390.512	978.75
390.736	935.75
390.961	885.75
391.186	823.75
391.411	823.75
391.636	849.75
391.86	905.75
392.085	1001.75
392.31	976.75
392.534	947.75
392.759	923.75
392.984	976.75
393.208	949.75
393.433	855.75
393.658	779.75
393.882	769.75
394.107	772.75
394.331	777.75
394.556	790.75
394.78	783.75
395.005	814.75
395.229	843.75
395.454	870.75
395.678	834.75
395.903	911.75
396.127	894.75
396.352	892.75
396.576	926.75
396.801	977.75
397.025	1083.75
397.249	1145.75
397.474	927.75
397.698	909.75
397.922	967.75
398.147	896.75
398.371	897.75
398.595	946.75
398.82	947.75
399.044	934.75
399.268	1002.75
399.492	1051.75
399.717	1051.75
399.941	1068.75
400.165	1045.75
400.389	1035.75
400.613	1032.75
400.837	989.75
401.062	895.75
401.286	886.75
401.51	899.75
401.734	908.75
401.958	921.75
402.182	888.75
402.406	892.75
402.63	910.75
402.854	956.75
403.078	1037.75
403.302	1271.75
403.526	1345.75
403.75	1192.75
403.974	1027.75
404.198	1039.75
404.422	1214.75
404.645	1441.75
404.869	1539.75
405.093	1130.75
405.317	987.75
405.541	957.75
405.765	979.75
405.988	1026.75
406.212	1085.75
406.436	1251.75
406.66	1393.75
406.883	1124.75
407.107	1133.75
407.331	1361.75
407.555	1299.75
407.778	1085.75
408.002	1052.75
408.226	1059.75
408.449	1047.75
408.673	1006.75
408.896	919.75
409.12	890.75
409.344	907.75
409.567	890.75
409.791	890.75
410.014	868.75
410.238	870.75
410.461	887.75
410.685	886.75
410.908	884.75
411.132	892.75
411.355	936.75
411.578	929.75
411.802	926.75
412.025	965.75
412.249	957.75
412.472	950.75
412.695	925.75
412.919	934.75
413.142	977.75
413.365	1051.75
413.589	1043.75
413.812	964.75
414.035	926.75
414.258	932.75
414.482	1049.75
414.705	1061.75
414.928	918.75
415.151	859.75
415.374	886.75
415.597	899.75
415.821	910.75
416.044	881.75
416.267	861.75
416.49	855.75
416.713	849.75
416.936	823.75
417.159	843.75
417.382	869.75
417.605	869.75
417.828	922.75
418.051	893.75
418.274	929.75
418.497	899.75
418.72	905.75
418.943	964.75
419.166	971.75
419.389	1034.75
419.611	999.75
419.834	990.75
420.057	1107.75
420.28	1099.75
420.503	1043.75
420.726	884.75
420.948	882.75
421.171	877.75
421.394	858.75
421.617	858.75
421.839	852.75
422.062	932.75
422.285	909.75
422.507	893.75
422.73	933.75
422.953	957.75
423.175	929.75
423.398	934.75
423.621	1019.75
423.843	1056.75
424.066	960.75
424.288	941.75
424.511	882.75
424.733	897.75
424.956	953.75
425.178	1075.75
425.401	1206.75
425.623	1383.75
425.846	1133.75
426.068	993.75
426.291	1097.75
426.513	1020.75
426.735	945.75
426.958	995.75
427.18	1137.75
427.402	1475.75
427.625	1444.75
427.847	1185.75
428.069	917.75
428.292	891.75
428.514	879.75
428.736	867.75
428.958	943.75
429.181	1109.75
429.403	961.75
429.625	893.75
429.847	843.75
430.069	888.75
430.292	913.75
430.514	853.75
430.736	945.75
430.958	1209.75
431.18	1055.75
431.402	835.75
431.624	820.75
431.846	819.75
432.068	756.75
432.29	804.75
432.512	914.75
432.734	1186.75
432.956	1124.75
433.178	856.75
433.4	849.75
433.622	837.75
433.844	870.75
434.066	944.75
434.287	892.75
434.509	883.75
434.731	921.75
434.953	873.75
435.175	938.75
435.397	1023.75
435.618	915.75
435.84	835.75
436.062	850.75
436.284	826.75
436.505	789.75
436.727	790.75
436.949	806.75
437.17	843.75
437.392	851.75
437.614	802.75
437.835	800.75
438.057	847.75
438.278	987.75
438.5	1382.75
438.721	1369.75
438.943	913.75
439.165	802.75
439.386	772.75
439.608	782.75
439.829	771.75
440.05	782.75
440.272	828.75
440.493	1005.75
440.715	1227.75
440.936	974.75
441.158	840.75
441.379	842.75
441.6	965.75
441.822	994.75
442.043	901.75
442.264	870.75
442.486	855.75
442.707	893.75
442.928	841.75
443.149	883.75
443.371	864.75
443.592	921.75
443.813	936.75
444.034	899.75
444.255	896.75
444.476	944.75
444.698	931.75
444.919	931.75
445.14	1014.75
445.361	1029.75
445.582	925.75
445.803	905.75
446.024	898.75
446.245	935.75
446.466	882.75
446.687	835.75
446.908	871.75
447.129	825.75
447.35	801.75
447.571	810.75
447.792	803.75
448.013	774.75
448.234	759.75
448.455	774.75
448.675	787.75
448.896	820.75
449.117	787.75
449.338	769.75
449.559	807.75
449.779	869.75
450	858.75
450.221	826.75
450.442	802.75
450.662	801.75
450.883	778.75
451.104	785.75
451.324	794.75
451.545	800.75
451.766	813.75
451.986	782.75
452.207	741.75
452.428	786.75
452.648	751.75
452.869	811.75
453.089	850.75
453.31	846.75
453.53	759.75
453.751	734.75
453.971	697.75
454.192	742.75
454.412	776.75
454.633	730.75
454.853	749.75
455.073	721.75
455.294	721.75
455.514	735.75
455.734	765.75
455.955	798.75
456.175	817.75
456.395	760.75
456.616	698.75
456.836	707.75
457.056	705.75
457.276	686.75
457.497	702.75
457.717	710.75
457.937	711.75
458.157	739.75
458.377	729.75
458.598	752.75
458.818	766.75
459.038	795.75
459.258	777.75
459.478	819.75
459.698	876.75
459.918	901.75
460.138	877.75
460.358	892.75
460.578	847.75
460.798	889.75
461.018	899.75
461.238	839.75
461.458	858.75
461.678	882.75
461.898	945.75
462.118	911.75
462.338	913.75
462.558	933.75
462.777	981.75
462.997	989.75
463.217	990.75
463.437	1027.75
463.657	996.75
463.876	933.75
464.096	954.75
464.316	982.75
464.536	1000.75
464.755	1025.75
464.975	969.75
465.195	956.75
465.414	1000.75
465.634	922.75
465.854	934.75
466.073	887.75
466.293	852.75
466.512	901.75
466.732	1053.75
466.951	1067.75
467.171	906.75
467.391	887.75
467.61	846.75
467.829	934.75
468.049	937.75
468.268	874.75
468.488	877.75
468.707	907.75
468.927	1034.75
469.146	1135.75
469.365	1015.75
469.585	946.75
469.804	1025.75
470.023	1073.75
470.243	948.75
470.462	902.75
470.681	916.75
470.901	918.75
471.12	957.75
471.339	962.75
471.558	902.75
471.777	931.75
471.997	991.75
472.216	1081.75
472.435	1067.75
472.654	967.75
472.873	959.75
473.092	992.75
473.311	1060.75
473.53	942.75
473.749	938.75
473.968	969.75
474.187	977.75
474.406	929.75
474.625	933.75
474.844	910.75
475.063	1039.75
475.282	1027.75
475.501	1073.75
475.72	1135.75
475.939	1067.75
476.158	1054.75
476.377	1228.75
476.596	1413.75
476.814	1457.75
477.033	1249.75
477.252	1063.75
477.471	978.75
477.69	989.75
477.908	1084.75
478.127	1123.75
478.346	1032.75
478.564	1167.75
478.783	1085.75
479.002	1111.75
479.22	1263.75
479.439	1395.75
479.658	1202.75
479.876	1098.75
480.095	1182.75
480.313	1211.75
480.532	1114.75
480.751	1066.75
480.969	1092.75
481.188	1250.75
481.406	1271.75
481.624	1237.75
481.843	1086.75
482.061	1043.75
482.28	1201.75
482.498	1461.75
482.717	1363.75
482.935	1171.75
483.153	1131.75
483.372	1041.75
483.59	1067.75
483.808	1050.75
484.027	1030.75
484.245	981.75
484.463	979.75
484.681	1008.75
484.9	1095.75
485.118	1239.75
485.336	1096.75
485.554	1065.75
485.772	1047.75
485.99	1162.75
486.209	1228.75
486.427	1234.75
486.645	1184.75
486.863	1237.75
487.081	1211.75
487.299	1371.75
487.517	1314.75
487.735	1194.75
487.953	1263.75
488.171	1255.75
488.389	1187.75
488.607	1126.75
488.825	1170.75
489.043	1227.75
489.261	1414.75
489.479	1545.75
489.696	1293.75
489.914	1167.75
490.132	1101.75
490.35	1098.75
490.568	1105.75
490.786	1120.75
491.003	1117.75
491.221	1149.75
491.439	1137.75
491.657	1117.75
491.874	1199.75
492.092	1477.75
492.31	1727.75
492.527	1731.75
492.745	1545.75
492.963	1335.75
493.18	1262.75
493.398	1286.75
493.615	1263.75
493.833	1241.75
494.05	1219.75
494.268	1235.75
494.485	1221.75
494.703	1183.75
494.92	1249.75
495.138	1201.75
495.355	1178.75
495.573	1200.75
495.79	1370.75
496.008	1805.75
496.225	1557.75
496.442	1386.75
496.66	1333.75
496.877	1426.75
497.094	1389.75
497.312	1321.75
497.529	1321.75
497.746	1311.75
497.963	1348.75
498.181	1480.75
498.398	1599.75
498.615	1611.75
498.832	1692.75
499.049	1681.75
499.267	1525.75
499.484	1539.75
499.701	1600.75
499.918	1684.75
500.135	1875.75
500.352	1872.75
500.569	1986.75
500.786	1977.75
501.003	2002.75
501.22	1787.75
501.437	1679.75
501.654	1642.75
501.871	1621.75
502.088	1655.75
502.305	1497.75
502.522	1487.75
502.739	1489.75
502.956	1355.75
503.172	1367.75
503.389	1329.75
503.606	1242.75
503.823	1301.75
504.04	1318.75
504.256	1293.75
504.473	1325.75
504.69	1363.75
504.907	1360.75
505.123	1344.75
505.34	1435.75
505.557	1411.75
505.773	1307.75
505.99	1285.75
506.207	1347.75
506.423	1225.75
506.64	1168.75
506.856	1216.75
507.073	1374.75
507.289	1337.75
507.506	1324.75
507.722	1386.75
507.939	1435.75
508.155	1485.75
508.372	1283.75
508.588	1265.75
508.805	1203.75
509.021	1203.75
509.238	1178.75
509.454	1156.75
509.67	1159.75
509.887	1189.75
510.103	1296.75
510.319	1296.75
510.536	1177.75
510.752	1085.75
510.968	1071.75
511.184	1010.75
511.401	1029.75
511.617	1018.75
511.833	1024.75
512.049	1012.75
512.265	1075.75
512.481	1120.75
512.698	1251.75
512.914	1350.75
513.13	1226.75
513.346	1090.75
513.562	1183.75
513.778	1173.75
513.994	1147.75
514.21	1229.75
514.426	1171.75
514.642	1109.75
514.858	1126.75
515.074	1167.75
515.29	1237.75
515.506	1400.75
515.721	1297.75
515.937	1226.75
516.153	1163.75
516.369	1127.75
516.585	1203.75
516.801	1345.75
517.016	1562.75
517.232	1529.75
517.448	1496.75
517.664	1355.75
517.879	1269.75
518.095	1237.75
518.311	1225.75
518.527	1319.75
518.742	1376.75
518.958	1439.75
519.173	1381.75
519.389	1322.75
519.605	1359.75
519.82	1472.75
520.036	1711.75
520.251	1697.75
520.467	1574.75
520.682	2364.75
520.898	2810.75
521.113	2655.75
521.329	1691.75
521.544	1489.75
521.76	1475.75
521.975	1336.75
522.19	1258.75
522.406	1304.75
522.621	1446.75
522.836	1483.75
523.052	1571.75
523.267	1316.75
523.482	1256.75
523.698	1391.75
523.913	1360.75
524.128	1214.75
524.343	1144.75
524.559	1194.75
524.774	1093.75
524.989	1133.75
525.204	1201.75
525.419	1303.75
525.634	1201.75
525.849	1249.75
526.064	1226.75
526.28	1271.75
526.495	1453.75
526.71	1521.75
526.925	1365.75
527.14	1405.75
527.355	1349.75
527.57	1137.75
527.785	1177.75
527.999	1115.75
528.214	1069.75
528.429	1052.75
528.644	1075.75
528.859	1005.75
529.074	1013.75
529.289	978.75
529.503	962.75
529.718	991.75
529.933	1164.75
530.148	1187.75
530.363	1027.75
530.577	974.75
530.792	997.75
531.007	990.75
531.221	952.75
531.436	962.75
531.651	986.75
531.865	962.75
532.08	1015.75
532.295	1005.75
532.509	1049.75
532.724	1179.75
532.938	1288.75
533.153	1501.75
533.367	1238.75
533.582	1157.75
533.796	1041.75
534.011	1019.75
534.225	1020.75
534.44	1049.75
534.654	1092.75
534.868	1233.75
535.083	1060.75
535.297	1000.75
535.511	989.75
535.726	1153.75
535.94	1063.75
536.154	989.75
536.369	981.75
536.583	979.75
536.797	1015.75
537.011	1044.75
537.225	1093.75
537.44	1150.75
537.654	981.75
537.868	1026.75
538.082	1017.75
538.296	976.75
538.51	1061.75
538.724	1091.75
538.938	1021.75
539.153	987.75
539.367	969.75
539.581	975.75
539.795	1023.75
540.009	1138.75
540.222	1030.75
540.436	1053.75
540.65	1125.75
540.864	1171.75
541.078	1186.75
541.292	1308.75
541.506	1097.75
541.72	1065.75
541.934	1050.75
542.147	1021.75
542.361	1045.75
542.575	1046.75
542.789	1013.75
543.002	941.75
543.216	1047.75
543.43	964.75
543.644	910.75
543.857	931.75
544.071	938.75
544.285	927.75
544.498	896.75
544.712	911.75
544.925	981.75
545.139	961.75
545.352	905.75
545.566	903.75
545.779	1038.75
545.993	964.75
546.206	887.75
546.42	877.75
546.633	852.75
546.847	823.75
547.06	859.75
547.274	861.75
547.487	844.75
547.7	950.75
547.914	989.75
548.127	1096.75
548.34	1102.75
548.554	943.75
548.767	1002.75
548.98	1033.75
549.193	950.75
549.407	1009.75
549.62	1164.75
549.833	1079.75
550.046	1133.75
550.259	1147.75
550.473	1031.75
550.686	951.75
550.899	959.75
551.112	980.75
551.325	1041.75
551.538	1081.75
551.751	946.75
551.964	875.75
552.177	874.75
552.39	855.75
552.603	893.75
552.816	912.75
553.029	879.75
553.242	868.75
553.455	927.75
553.667	998.75
553.88	913.75
554.093	881.75
554.306	840.75
554.519	805.75
554.732	785.75
554.944	799.75
555.157	766.75
555.37	770.75
555.583	775.75
555.795	775.75
556.008	820.75
556.221	792.75
556.433	804.75
556.646	780.75
556.859	789.75
557.071	826.75
557.284	806.75
557.496	846.75
557.709	808.75
557.921	763.75
558.134	729.75
558.346	740.75
558.559	726.75
558.771	770.75
558.984	792.75
559.196	777.75
559.409	728.75
559.621	686.75
559.833	710.75
560.046	727.75
560.258	713.75
560.47	742.75
560.683	715.75
560.895	670.75
561.107	693.75
561.32	673.75
561.532	674.75
561.744	756.75
561.956	789.75
562.168	702.75
562.381	719.75
562.593	705.75
562.805	725.75
563.017	681.75
563.229	664.75
563.441	655.75
563.653	648.75
563.865	666.75
564.077	682.75
564.289	656.75
564.501	689.75
564.713	759.75
564.925	731.75
565.137	691.75
565.349	670.75
565.561	675.75
565.773	696.75
565.985	719.75
566.197	771.75
566.408	824.75
566.62	847.75
566.832	840.75
567.044	830.75
567.255	899.75
567.467	963.75
567.679	869.75
567.891	881.75
568.102	883.75
568.314	894.75
568.526	825.75
568.737	817.75
568.949	869.75
569.161	775.75
569.372	692.75
569.584	687.75
569.795	704.75
570.007	686.75
570.218	726.75
570.43	708.75
570.641	698.75
570.853	649.75
571.064	641.75
571.276	700.75
571.487	695.75
571.698	682.75
571.91	659.75
572.121	652.75
572.333	626.75
572.544	621.75
572.755	616.75
572.966	588.75
573.178	602.75
573.389	665.75
573.6	639.75
573.811	621.75
574.023	599.75
574.234	578.75
574.445	561.75
574.656	565.75
574.867	574.75
575.078	576.75
575.289	591.75
575.501	598.75
575.712	563.75
575.923	555.75
576.134	542.75
576.345	551.75
576.556	567.75
576.767	544.75
576.978	523.75
577.188	513.75
577.399	493.75
577.61	540.75
577.821	534.75
578.032	537.75
578.243	579.75
578.454	559.75
578.665	583.75
578.875	562.75
579.086	563.75
579.297	528.75
579.508	576.75
579.718	575.75
579.929	558.75
580.14	519.75
580.35	501.75
580.561	489.75
580.772	479.75
580.982	467.75
581.193	478.75
581.403	462.75
581.614	457.75
581.825	461.75
582.035	453.75
582.246	449.75
582.456	453.75
582.667	445.75
582.877	472.75
583.087	467.75
583.298	469.75
583.508	445.75
583.719	464.75
583.929	456.75
584.139	453.75
584.35	459.75
584.56	463.75
584.77	462.75
584.981	465.75
585.191	456.75
585.401	459.75
585.611	469.75
585.821	491.75
586.032	475.75
586.242	483.75
586.452	476.75
586.662	455.75
586.872	483.75
587.082	494.75
587.292	474.75
587.502	465.75
587.713	435.75
587.923	437.75
588.133	495.75
588.343	471.75
588.553	464.75
588.762	441.75
588.972	466.75
589.182	441.75
589.392	446.75
589.602	456.75
589.812	478.75
590.022	497.75
590.232	490.75
590.441	471.75
590.651	436.75
590.861	449.75
591.071	488.75
591.281	447.75
591.49	436.75
591.7	452.75
591.91	453.75
592.119	461.75
592.329	453.75
592.539	468.75
592.748	454.75
592.958	457.75
593.167	467.75
593.377	505.75
593.587	481.75
593.796	474.75
594.006	465.75
594.215	466.75
594.424	473.75
594.634	500.75
594.843	463.75
595.053	440.75
595.262	447.75
595.472	442.75
595.681	413.75
595.89	424.75
596.1	441.75
596.309	454.75
596.518	422.75
596.727	430.75
596.937	414.75
597.146	451.75
597.355	465.75
597.564	435.75
597.774	404.75
597.983	419.75
598.192	422.75
598.401	395.75
598.61	383.75
598.819	377.75
599.028	410.75
599.237	396.75
599.446	383.75
599.655	369.75
599.864	361.75
600.073	361.75
600.282	375.75
600.491	383.75
600.7	406.75
600.909	383.75
601.118	391.75
601.327	381.75
601.536	372.75
601.745	393.75
601.953	401.75
602.162	387.75
602.371	402.75
602.58	394.75
602.789	379.75
602.997	367.75
603.206	370.75
603.415	372.75
603.623	352.75
603.832	366.75
604.041	342.75
604.249	367.75
604.458	377.75
604.666	371.75
604.875	328.75
605.084	344.75
605.292	374.75
605.501	375.75
605.709	374.75
605.918	376.75
606.126	357.75
606.334	340.75
606.543	371.75
606.751	359.75
606.96	348.75
607.168	350.75
607.376	339.75
607.585	350.75
607.793	361.75
608.001	351.75
608.21	353.75
608.418	356.75
608.626	357.75
608.834	351.75
609.043	321.75
609.251	337.75
609.459	330.75
609.667	366.75
609.875	351.75
610.083	345.75
610.291	365.75
610.499	355.75
610.707	338.75
610.916	336.75
611.124	332.75
611.332	341.75
611.54	335.75
611.748	346.75
611.955	344.75
612.163	342.75
612.371	327.75
612.579	329.75
612.787	328.75
612.995	322.75
613.203	319.75
613.411	319.75
613.618	342.75
613.826	351.75
614.034	328.75
614.242	327.75
614.449	307.75
614.657	324.75
614.865	317.75
615.072	337.75
615.28	317.75
615.488	313.75
615.695	321.75
615.903	336.75
616.111	335.75
616.318	340.75
616.526	314.75
616.733	324.75
616.941	315.75
617.148	318.75
617.356	306.75
617.563	316.75
617.771	315.75
617.978	325.75
618.185	318.75
618.393	301.75
618.6	313.75
618.807	307.75
619.015	323.75
619.222	301.75
619.429	326.75
619.637	309.75
619.844	297.75
620.051	296.75
620.258	304.75
620.466	318.75
620.673	304.75
620.88	290.75
621.087	274.75
621.294	298.75
621.501	283.75
621.708	287.75
621.915	279.75
622.122	290.75
622.329	300.75
622.536	282.75
622.743	290.75
622.95	285.75
623.157	319.75
623.364	324.75
623.571	286.75
623.778	303.75
623.985	296.75
624.192	319.75
624.399	301.75
624.606	288.75
624.812	302.75
625.019	287.75
625.226	313.75
625.433	321.75
625.639	285.75
625.846	270.75
626.053	271.75
626.259	272.75
626.466	291.75
626.673	309.75
626.879	276.75
627.086	275.75
627.293	274.75
627.499	281.75
627.706	295.75
627.912	253.75
628.119	255.75
628.325	266.75
628.532	254.75
628.738	244.75
628.945	274.75
629.151	282.75
629.357	275.75
629.564	247.75
629.77	245.75
629.976	260.75
630.183	242.75
630.389	257.75
630.595	265.75
630.802	267.75
631.008	258.75
631.214	260.75
631.42	253.75
631.627	257.75
631.833	249.75
632.039	237.75
632.245	256.75
632.451	258.75
632.657	235.75
632.863	229.75
633.069	250.75
633.275	243.75
633.481	229.75
633.688	227.75
633.893	237.75
634.099	239.75
634.305	224.75
634.511	233.75
634.717	246.75
634.923	232.75
635.129	229.75
635.335	242.75
635.541	225.75
635.747	247.75
635.952	232.75
636.158	228.75
636.364	237.75
636.57	236.75
636.775	238.75
636.981	235.75
637.187	238.75
637.392	230.75
637.598	258.75
637.804	230.75
638.009	229.75
638.215	223.75
638.421	218.75
638.626	226.75
638.832	228.75
639.037	216.75
639.243	225.75
639.448	240.75
639.654	235.75
639.859	219.75
640.065	242.75
640.27	243.75
640.475	229.75
640.681	213.75
640.886	204.75
641.091	219.75
641.297	233.75
641.502	235.75
641.707	220.75
641.913	232.75
642.118	215.75
642.323	228.75
642.528	208.75
642.733	209.75
642.939	218.75
643.144	209.75
643.349	227.75
643.554	205.75
643.759	211.75
643.964	218.75
644.169	206.75
644.374	204.75
644.579	221.75
644.784	201.75
644.989	210.75
645.194	215.75
645.399	221.75
645.604	208.75
645.809	211.75
646.014	218.75
646.219	215.75
646.423	195.75
646.628	207.75
646.833	228.75
647.038	210.75
647.243	199.75
647.447	217.75
647.652	212.75
647.857	209.75
648.062	197.75
648.266	222.75
648.471	203.75
648.676	202.75
648.88	210.75
649.085	198.75
649.289	218.75
649.494	205.75
649.698	218.75
649.903	201.75
650.107	218.75
650.312	204.75
650.516	167.75
650.721	188.75
650.925	169.75
651.13	191.75
651.334	193.75
651.539	178.75
651.743	178.75
651.947	175.75
652.152	179.75
652.356	171.75
652.56	169.75
652.764	186.75
652.969	164.75
653.173	152.75
653.377	181.75
653.581	157.75
653.785	183.75
653.99	171.75
654.194	178.75
654.398	168.75
654.602	165.75
654.806	167.75
655.01	165.75
655.214	168.75
655.418	151.75
655.622	161.75
655.826	152.75
656.03	149.75
656.234	168.75
656.438	175.75
656.642	169.75
656.846	170.75
657.049	150.75
657.253	154.75
657.457	144.75
657.661	125.75
657.865	131.75
658.068	112.75
658.272	129.75
658.476	133.75
658.68	111.75
658.883	109.75
659.087	113.75
659.291	113.75
659.494	114.75
659.698	106.75
659.901	100.75
660.105	97.75
660.309	105.75
660.512	101.75
660.716	109.75
660.919	95.75
661.123	109.75
661.326	102.75
661.53	93.75
661.733	93.75
661.936	97.75
662.14	81.75
662.343	81.75
662.546	82.75
662.75	86.75
662.953	88.75
663.156	75.75
663.36	86.75
663.563	93.75
663.766	81.75
663.969	71.75
664.173	75.75
664.376	86.75
664.579	74.75
664.782	90.75
664.985	93.75
665.188	85.75
665.391	82.75
665.594	73.75
665.797	79.75
666	72.75
666.203	80.75
666.406	93.75
666.609	84.75
666.812	78.75
667.015	78.75
667.218	83.75
667.421	80.75
667.624	92.75
667.827	95.75
668.03	84.75
668.232	90.75
668.435	74.75
668.638	83.75
668.841	60.75
669.043	79.75
669.246	78.75
669.449	100.75
669.651	83.75
669.854	79.75
670.057	66.75
670.259	80.75
670.462	79.75
670.665	69.75
670.867	73.75
671.07	75.75
671.272	85.75
671.475	81.75
671.677	78.75
671.88	86.75
672.082	81.75
672.284	85.75
672.487	69.75
672.689	77.75
672.892	72.75
