Data from NickelSpatula.Lamp.E10.P2_HRD10591_11-57-23-532.txt Node
Date: Tue Jul 23 11:57:23 EDT 2019
User: cochatt
Spectrometer: HR+D1059
Trigger mode: 1
Integration Time (sec): 1.000000E-1
Scans to average: 1
Electric dark correction enabled: true
Nonlinearity correction enabled: false
Boxcar width: 0
XAxis mode: Wavelengths
Number of Pixels in Spectrum: 2048
>>>>>Begin Spectral Data<<<<<
223.165	-17.62
223.4	-17.62
223.635	-17.62
223.869	-16.62
224.104	-11.62
224.338	-3.62
224.573	-19.62
224.808	-18.62
225.042	-11.62
225.277	-4.62
225.511	-7.62
225.746	10.38
225.98	14.38
226.215	16.38
226.449	15.38
226.683	11.38
226.918	11.38
227.152	32.38
227.387	30.38
227.621	50.38
227.856	42.38
228.09	35.38
228.324	63.38
228.559	68.38
228.793	86.38
229.027	149.38
229.262	148.38
229.496	144.38
229.73	156.38
229.964	182.38
230.199	225.38
230.433	220.38
230.667	209.38
230.901	209.38
231.136	186.38
231.37	222.38
231.604	222.38
231.838	231.38
232.072	241.38
232.306	243.38
232.541	241.38
232.775	258.38
233.009	257.38
233.243	301.38
233.477	312.38
233.711	341.38
233.945	341.38
234.179	329.38
234.413	370.38
234.647	392.38
234.881	448.38
235.115	406.38
235.349	395.38
235.583	371.38
235.817	354.38
236.051	367.38
236.285	420.38
236.519	462.38
236.753	416.38
236.987	430.38
237.221	406.38
237.455	407.38
237.689	456.38
237.922	462.38
238.156	448.38
238.39	577.38
238.624	676.38
238.858	607.38
239.091	483.38
239.325	518.38
239.559	504.38
239.793	535.38
240.027	629.38
240.26	596.38
240.494	586.38
240.728	577.38
240.961	680.38
241.195	642.38
241.429	643.38
241.662	614.38
241.896	544.38
242.13	470.38
242.363	441.38
242.597	464.38
242.83	530.38
243.064	538.38
243.298	603.38
243.531	632.38
243.765	612.38
243.998	620.38
244.232	624.38
244.465	591.38
244.699	581.38
244.932	640.38
245.166	620.38
245.399	549.38
245.633	542.38
245.866	571.38
246.099	628.38
246.333	726.38
246.566	767.38
246.8	739.38
247.033	744.38
247.266	708.38
247.5	679.38
247.733	655.38
247.966	656.38
248.2	708.38
248.433	756.38
248.666	825.38
248.899	838.38
249.133	879.38
249.366	978.38
249.599	1046.38
249.832	935.38
250.066	820.38
250.299	854.38
250.532	822.38
250.765	804.38
250.998	725.38
251.231	700.38
251.465	770.38
251.698	833.38
251.931	828.38
252.164	860.38
252.397	936.38
252.63	1070.38
252.863	1142.38
253.096	1199.38
253.329	1114.38
253.562	1120.38
253.795	1247.38
254.028	1353.38
254.261	1396.38
254.494	1250.38
254.727	1158.38
254.96	1106.38
255.193	1136.38
255.426	1116.38
255.659	871.38
255.892	789.38
256.124	896.38
256.357	1026.38
256.59	1192.38
256.823	1135.38
257.056	974.38
257.289	912.38
257.521	945.38
257.754	1121.38
257.987	1271.38
258.22	1109.38
258.452	998.38
258.685	1144.38
258.918	1298.38
259.151	1254.38
259.383	1330.38
259.616	1497.38
259.849	1604.38
260.081	1749.38
260.314	1884.38
260.547	1492.38
260.779	1479.38
261.012	1728.38
261.244	1650.38
261.477	1662.38
261.71	1516.38
261.942	1291.38
262.175	1263.38
262.407	1253.38
262.64	1253.38
262.872	1496.38
263.105	1682.38
263.337	1725.38
263.57	1537.38
263.802	1066.38
264.035	915.38
264.267	892.38
264.499	761.38
264.732	694.38
264.964	696.38
265.197	713.38
265.429	793.38
265.661	847.38
265.894	862.38
266.126	944.38
266.358	1015.38
266.591	1279.38
266.823	1507.38
267.055	1439.38
267.287	1299.38
267.52	1266.38
267.752	1346.38
267.984	1474.38
268.216	1410.38
268.448	1152.38
268.681	1111.38
268.913	1183.38
269.145	1269.38
269.377	1316.38
269.609	1339.38
269.841	1254.38
270.073	1341.38
270.306	1350.38
270.538	1370.38
270.77	1422.38
271.002	1402.38
271.234	1485.38
271.466	1529.38
271.698	1439.38
271.93	1404.38
272.162	1440.38
272.394	1430.38
272.626	1386.38
272.858	1428.38
273.09	1446.38
273.322	1327.38
273.553	1250.38
273.785	1511.38
274.017	1948.38
274.249	2399.38
274.481	2535.38
274.713	2734.38
274.945	3149.38
275.176	3236.38
275.408	2892.38
275.64	2662.38
275.872	2608.38
276.104	2181.38
276.335	1920.38
276.567	1927.38
276.799	1989.38
277.031	2052.38
277.262	1602.38
277.494	1261.38
277.726	1200.38
277.957	1296.38
278.189	1528.38
278.421	1470.38
278.652	1433.38
278.884	1364.38
279.115	1236.38
279.347	1213.38
279.579	1194.38
279.81	1188.38
280.042	1209.38
280.273	1226.38
280.505	1139.38
280.736	1040.38
280.968	1048.38
281.199	1103.38
281.431	1235.38
281.662	1213.38
281.894	1196.38
282.125	1259.38
282.356	1348.38
282.588	1406.38
282.819	1265.38
283.051	1364.38
283.282	1680.38
283.513	1958.38
283.745	2187.38
283.976	2194.38
284.207	1978.38
284.439	2109.38
284.67	1998.38
284.901	1824.38
285.132	1943.38
285.364	2066.38
285.595	1879.38
285.826	1958.38
286.057	2028.38
286.288	1968.38
286.52	2031.38
286.751	2132.38
286.982	2127.38
287.213	1797.38
287.444	1776.38
287.675	1882.38
287.906	1831.38
288.138	1575.38
288.369	1380.38
288.6	1304.38
288.831	1357.38
289.062	1590.38
289.293	1749.38
289.524	1647.38
289.755	1602.38
289.986	1660.38
290.217	1412.38
290.448	1103.38
290.679	964.38
290.91	922.38
291.141	921.38
291.371	998.38
291.602	994.38
291.833	987.38
292.064	1095.38
292.295	1210.38
292.526	1372.38
292.757	1453.38
292.987	1564.38
293.218	1603.38
293.449	1636.38
293.68	1708.38
293.91	1636.38
294.141	1650.38
294.372	1520.38
294.603	1432.38
294.833	1586.38
295.064	1849.38
295.295	1774.38
295.525	1315.38
295.756	1168.38
295.987	1002.38
296.217	1054.38
296.448	1037.38
296.679	1082.38
296.909	1215.38
297.14	1310.38
297.37	1466.38
297.601	1348.38
297.831	1188.38
298.062	1253.38
298.292	1417.38
298.523	1519.38
298.753	1788.38
298.984	1594.38
299.214	1256.38
299.445	1061.38
299.675	1064.38
299.905	1037.38
300.136	1076.38
300.366	1170.38
300.597	1136.38
300.827	1015.38
301.057	956.38
301.288	978.38
301.518	1049.38
301.748	1176.38
301.979	1268.38
302.209	1404.38
302.439	1400.38
302.669	1229.38
302.9	1220.38
303.13	1134.38
303.36	1092.38
303.59	1046.38
303.82	1079.38
304.051	1220.38
304.281	1343.38
304.511	1301.38
304.741	1148.38
304.971	1208.38
305.201	1284.38
305.431	1202.38
305.661	1076.38
305.891	1044.38
306.121	1061.38
306.352	962.38
306.582	879.38
306.812	848.38
307.042	840.38
307.272	787.38
307.502	790.38
307.731	874.38
307.961	889.38
308.191	836.38
308.421	788.38
308.651	790.38
308.881	783.38
309.111	770.38
309.341	829.38
309.571	879.38
309.8	911.38
310.03	928.38
310.26	973.38
310.49	968.38
310.72	864.38
310.949	845.38
311.179	872.38
311.409	917.38
311.639	1074.38
311.868	1415.38
312.098	1772.38
312.328	1956.38
312.557	1857.38
312.787	1887.38
313.017	1689.38
313.246	1844.38
313.476	1984.38
313.706	1629.38
313.935	1319.38
314.165	1057.38
314.394	958.38
314.624	972.38
314.853	1013.38
315.083	1032.38
315.312	1023.38
315.542	1004.38
315.771	919.38
316.001	846.38
316.23	828.38
316.46	844.38
316.689	838.38
316.919	876.38
317.148	869.38
317.377	871.38
317.607	873.38
317.836	960.38
318.065	1112.38
318.295	1239.38
318.524	1102.38
318.753	959.38
318.983	920.38
319.212	913.38
319.441	1001.38
319.67	1116.38
319.9	1198.38
320.129	1112.38
320.358	961.38
320.587	942.38
320.816	1024.38
321.046	1147.38
321.275	1283.38
321.504	1300.38
321.733	1262.38
321.962	1178.38
322.191	1116.38
322.42	1084.38
322.649	1095.38
322.878	1176.38
323.108	1190.38
323.337	1095.38
323.566	1095.38
323.795	1041.38
324.024	1004.38
324.253	948.38
324.482	964.38
324.71	1057.38
324.939	1173.38
325.168	1112.38
325.397	914.38
325.626	904.38
325.855	912.38
326.084	913.38
326.313	851.38
326.542	820.38
326.77	864.38
326.999	892.38
327.228	938.38
327.457	1000.38
327.686	1018.38
327.914	864.38
328.143	846.38
328.372	830.38
328.6	870.38
328.829	870.38
329.058	890.38
329.287	885.38
329.515	896.38
329.744	910.38
329.972	829.38
330.201	806.38
330.43	828.38
330.658	947.38
330.887	1078.38
331.115	1039.38
331.344	1013.38
331.572	942.38
331.801	911.38
332.03	856.38
332.258	862.38
332.486	947.38
332.715	983.38
332.943	920.38
333.172	917.38
333.4	953.38
333.629	1039.38
333.857	1110.38
334.085	1126.38
334.314	1108.38
334.542	1050.38
334.771	959.38
334.999	956.38
335.227	915.38
335.455	916.38
335.684	1030.38
335.912	1217.38
336.14	1311.38
336.369	1264.38
336.597	1232.38
336.825	1330.38
337.053	1538.38
337.281	1233.38
337.51	996.38
337.738	971.38
337.966	1040.38
338.194	1178.38
338.422	1094.38
338.65	960.38
338.878	893.38
339.106	912.38
339.334	997.38
339.562	1060.38
339.79	997.38
340.018	956.38
340.246	1026.38
340.474	1180.38
340.702	1267.38
340.93	1319.38
341.158	1274.38
341.386	1097.38
341.614	1094.38
341.842	1074.38
342.07	1143.38
342.298	1331.38
342.526	1389.38
342.754	1185.38
342.981	1098.38
343.209	1034.38
343.437	1111.38
343.665	1224.38
343.893	1156.38
344.12	1341.38
344.348	1579.38
344.576	1422.38
344.804	1157.38
345.031	1023.38
345.259	960.38
345.487	974.38
345.714	1014.38
345.942	1078.38
346.17	1197.38
346.397	1125.38
346.625	964.38
346.853	953.38
347.08	934.38
347.308	994.38
347.535	1092.38
347.763	1110.38
347.99	1000.38
348.218	914.38
348.445	963.38
348.673	971.38
348.9	969.38
349.128	1023.38
349.355	1058.38
349.583	1053.38
349.81	998.38
350.037	930.38
350.265	836.38
350.492	804.38
350.72	774.38
350.947	827.38
351.174	860.38
351.402	939.38
351.629	974.38
351.856	929.38
352.083	903.38
352.311	953.38
352.538	1083.38
352.765	1139.38
352.992	1022.38
353.22	969.38
353.447	992.38
353.674	953.38
353.901	932.38
354.128	934.38
354.355	986.38
354.583	946.38
354.81	959.38
355.037	1011.38
355.264	973.38
355.491	1045.38
355.718	1142.38
355.945	1099.38
356.172	1064.38
356.399	1081.38
356.626	1291.38
356.853	1566.38
357.08	1646.38
357.307	1717.38
357.534	1327.38
357.761	1342.38
357.988	1690.38
358.215	1938.38
358.441	1852.38
358.668	1600.38
358.895	1469.38
359.122	1193.38
359.349	1214.38
359.576	1294.38
359.802	1077.38
360.029	919.38
360.256	1025.38
360.483	1241.38
360.709	1555.38
360.936	1647.38
361.163	1359.38
361.39	1088.38
361.616	1029.38
361.843	1215.38
362.07	1448.38
362.296	1318.38
362.523	1038.38
362.749	946.38
362.976	965.38
363.203	1176.38
363.429	1304.38
363.656	1072.38
363.882	975.38
364.109	1006.38
364.335	942.38
364.562	986.38
364.788	1064.38
365.015	1265.38
365.241	1124.38
365.468	944.38
365.694	800.38
365.92	801.38
366.147	765.38
366.373	762.38
366.599	792.38
366.826	790.38
367.052	828.38
367.278	819.38
367.505	847.38
367.731	885.38
367.957	1011.38
368.184	1010.38
368.41	960.38
368.636	998.38
368.862	1042.38
369.089	991.38
369.315	890.38
369.541	872.38
369.767	851.38
369.993	834.38
370.219	831.38
370.445	897.38
370.672	1006.38
370.898	1089.38
371.124	1052.38
371.35	951.38
371.576	891.38
371.802	983.38
372.028	1148.38
372.254	1296.38
372.48	1069.38
372.706	987.38
372.932	1084.38
373.158	1091.38
373.384	1283.38
373.61	1753.38
373.835	1764.38
374.061	1341.38
374.287	1135.38
374.513	1323.38
374.739	1608.38
374.965	1620.38
375.191	1607.38
375.416	1130.38
375.642	1008.38
375.868	1161.38
376.094	1338.38
376.319	1146.38
376.545	1281.38
376.771	1326.38
376.997	1119.38
377.222	844.38
377.448	748.38
377.674	771.38
377.899	716.38
378.125	770.38
378.35	752.38
378.576	762.38
378.802	847.38
379.027	885.38
379.253	867.38
379.478	894.38
379.704	1017.38
379.929	1029.38
380.155	1042.38
380.38	923.38
380.606	997.38
380.831	1068.38
381.057	994.38
381.282	976.38
381.507	1138.38
381.733	1413.38
381.958	1476.38
382.184	1598.38
382.409	1599.38
382.634	1569.38
382.86	1676.38
383.085	1406.38
383.31	1107.38
383.535	1179.38
383.761	1206.38
383.986	1140.38
384.211	1378.38
384.436	1330.38
384.662	1030.38
384.887	995.38
385.112	987.38
385.337	1048.38
385.562	974.38
385.787	1077.38
386.013	1202.38
386.238	1194.38
386.463	1020.38
386.688	951.38
386.913	965.38
387.138	899.38
387.363	944.38
387.588	958.38
387.813	984.38
388.038	1069.38
388.263	944.38
388.488	957.38
388.713	1116.38
388.938	1149.38
389.163	988.38
389.387	901.38
389.612	905.38
389.837	935.38
390.062	934.38
390.287	956.38
390.512	986.38
390.736	914.38
390.961	870.38
391.186	849.38
391.411	808.38
391.636	856.38
391.86	898.38
392.085	991.38
392.31	990.38
392.534	951.38
392.759	931.38
392.984	997.38
393.208	962.38
393.433	861.38
393.658	822.38
393.882	783.38
394.107	812.38
394.331	845.38
394.556	804.38
394.78	806.38
395.005	854.38
395.229	840.38
395.454	874.38
395.678	888.38
395.903	902.38
396.127	864.38
396.352	910.38
396.576	974.38
396.801	992.38
397.025	1076.38
397.249	1096.38
397.474	928.38
397.698	889.38
397.922	962.38
398.147	891.38
398.371	908.38
398.595	971.38
398.82	947.38
399.044	964.38
399.268	1016.38
399.492	1048.38
399.717	1053.38
399.941	1107.38
400.165	1058.38
400.389	1050.38
400.613	1050.38
400.837	1030.38
401.062	912.38
401.286	908.38
401.51	912.38
401.734	917.38
401.958	922.38
402.182	917.38
402.406	915.38
402.63	917.38
402.854	949.38
403.078	1051.38
403.302	1274.38
403.526	1350.38
403.75	1184.38
403.974	1041.38
404.198	1104.38
404.422	1230.38
404.645	1399.38
404.869	1530.38
405.093	1192.38
405.317	1001.38
405.541	956.38
405.765	1014.38
405.988	1028.38
406.212	1092.38
406.436	1234.38
406.66	1408.38
406.883	1124.38
407.107	1146.38
407.331	1340.38
407.555	1273.38
407.778	1094.38
408.002	1070.38
408.226	1043.38
408.449	1026.38
408.673	1018.38
408.896	936.38
409.12	925.38
409.344	905.38
409.567	890.38
409.791	902.38
410.014	896.38
410.238	863.38
410.461	872.38
410.685	891.38
410.908	890.38
411.132	910.38
411.355	942.38
411.578	971.38
411.802	908.38
412.025	999.38
412.249	974.38
412.472	949.38
412.695	962.38
412.919	953.38
413.142	985.38
413.365	1040.38
413.589	1017.38
413.812	976.38
414.035	900.38
414.258	923.38
414.482	1022.38
414.705	1041.38
414.928	921.38
415.151	877.38
415.374	898.38
415.597	897.38
415.821	906.38
416.044	893.38
416.267	862.38
416.49	884.38
416.713	880.38
416.936	858.38
417.159	878.38
417.382	884.38
417.605	879.38
417.828	891.38
418.051	905.38
418.274	946.38
418.497	926.38
418.72	944.38
418.943	933.38
419.166	988.38
419.389	1025.38
419.611	1002.38
419.834	1024.38
420.057	1093.38
420.28	1103.38
420.503	1011.38
420.726	902.38
420.948	871.38
421.171	882.38
421.394	876.38
421.617	860.38
421.839	870.38
422.062	934.38
422.285	921.38
422.507	919.38
422.73	941.38
422.953	979.38
423.175	925.38
423.398	943.38
423.621	1007.38
423.843	1048.38
424.066	1015.38
424.288	935.38
424.511	893.38
424.733	908.38
424.956	957.38
425.178	1081.38
425.401	1178.38
425.623	1389.38
425.846	1174.38
426.068	1028.38
426.291	1081.38
426.513	1000.38
426.735	950.38
426.958	983.38
427.18	1160.38
427.402	1436.38
427.625	1430.38
427.847	1188.38
428.069	912.38
428.292	884.38
428.514	903.38
428.736	880.38
428.958	921.38
429.181	1094.38
429.403	955.38
429.625	853.38
429.847	845.38
430.069	921.38
430.292	919.38
430.514	881.38
430.736	971.38
430.958	1160.38
431.18	1052.38
431.402	854.38
431.624	790.38
431.846	834.38
432.068	824.38
432.29	823.38
432.512	913.38
432.734	1193.38
432.956	1139.38
433.178	877.38
433.4	841.38
433.622	859.38
433.844	865.38
434.066	916.38
434.287	896.38
434.509	892.38
434.731	909.38
434.953	874.38
435.175	914.38
435.397	1042.38
435.618	914.38
435.84	848.38
436.062	822.38
436.284	842.38
436.505	776.38
436.727	793.38
436.949	839.38
437.17	842.38
437.392	866.38
437.614	855.38
437.835	828.38
438.057	888.38
438.278	961.38
438.5	1354.38
438.721	1329.38
438.943	952.38
439.165	828.38
439.386	798.38
439.608	796.38
439.829	774.38
440.05	794.38
440.272	874.38
440.493	1010.38
440.715	1186.38
440.936	956.38
441.158	862.38
441.379	882.38
441.6	998.38
441.822	1044.38
442.043	885.38
442.264	885.38
442.486	889.38
442.707	886.38
442.928	880.38
443.149	941.38
443.371	878.38
443.592	945.38
443.813	922.38
444.034	916.38
444.255	925.38
444.476	951.38
444.698	948.38
444.919	950.38
445.14	1075.38
445.361	1037.38
445.582	976.38
445.803	928.38
446.024	948.38
446.245	966.38
446.466	940.38
446.687	900.38
446.908	891.38
447.129	833.38
447.35	808.38
447.571	830.38
447.792	830.38
448.013	819.38
448.234	802.38
448.455	779.38
448.675	791.38
448.896	818.38
449.117	804.38
449.338	796.38
449.559	851.38
449.779	888.38
450	841.38
450.221	853.38
450.442	812.38
450.662	792.38
450.883	791.38
451.104	814.38
451.324	817.38
451.545	803.38
451.766	804.38
451.986	809.38
452.207	786.38
452.428	815.38
452.648	798.38
452.869	831.38
453.089	841.38
453.31	852.38
453.53	739.38
453.751	756.38
453.971	737.38
454.192	784.38
454.412	798.38
454.633	746.38
454.853	752.38
455.073	766.38
455.294	731.38
455.514	741.38
455.734	784.38
455.955	818.38
456.175	847.38
456.395	760.38
456.616	701.38
456.836	713.38
457.056	700.38
457.276	708.38
457.497	719.38
457.717	716.38
457.937	709.38
458.157	712.38
458.377	733.38
458.598	764.38
458.818	786.38
459.038	793.38
459.258	818.38
459.478	861.38
459.698	905.38
459.918	904.38
460.138	888.38
460.358	896.38
460.578	900.38
460.798	884.38
461.018	908.38
461.238	837.38
461.458	859.38
461.678	871.38
461.898	929.38
462.118	932.38
462.338	972.38
462.558	958.38
462.777	954.38
462.997	1028.38
463.217	1024.38
463.437	1062.38
463.657	1032.38
463.876	992.38
464.096	997.38
464.316	966.38
464.536	982.38
464.755	1039.38
464.975	1030.38
465.195	964.38
465.414	992.38
465.634	940.38
465.854	951.38
466.073	914.38
466.293	868.38
466.512	948.38
466.732	1002.38
466.951	1064.38
467.171	914.38
467.391	876.38
467.61	905.38
467.829	966.38
468.049	896.38
468.268	863.38
468.488	847.38
468.707	912.38
468.927	1082.38
469.146	1184.38
469.365	1043.38
469.585	916.38
469.804	1033.38
470.023	1102.38
470.243	963.38
470.462	939.38
470.681	911.38
470.901	922.38
471.12	979.38
471.339	995.38
471.558	921.38
471.777	930.38
471.997	1022.38
472.216	1136.38
472.435	1089.38
472.654	977.38
472.873	950.38
473.092	982.38
473.311	1053.38
473.53	983.38
473.749	944.38
473.968	1005.38
474.187	1001.38
474.406	946.38
474.625	948.38
474.844	972.38
475.063	1035.38
475.282	990.38
475.501	1096.38
475.72	1119.38
475.939	1083.38
476.158	1118.38
476.377	1242.38
476.596	1402.38
476.814	1479.38
477.033	1238.38
477.252	1090.38
477.471	1040.38
477.69	1030.38
477.908	1116.38
478.127	1158.38
478.346	1058.38
478.564	1133.38
478.783	1094.38
479.002	1128.38
479.22	1310.38
479.439	1448.38
479.658	1222.38
479.876	1120.38
480.095	1219.38
480.313	1207.38
480.532	1111.38
480.751	1098.38
480.969	1125.38
481.188	1266.38
481.406	1332.38
481.624	1235.38
481.843	1134.38
482.061	1113.38
482.28	1220.38
482.498	1460.38
482.717	1386.38
482.935	1204.38
483.153	1120.38
483.372	1070.38
483.59	1053.38
483.808	1076.38
484.027	1040.38
484.245	1025.38
484.463	1016.38
484.681	1030.38
484.9	1141.38
485.118	1169.38
485.336	1133.38
485.554	1078.38
485.772	1071.38
485.99	1156.38
486.209	1224.38
486.427	1225.38
486.645	1219.38
486.863	1255.38
487.081	1237.38
487.299	1358.38
487.517	1326.38
487.735	1215.38
487.953	1232.38
488.171	1256.38
488.389	1161.38
488.607	1142.38
488.825	1165.38
489.043	1254.38
489.261	1412.38
489.479	1518.38
489.696	1302.38
489.914	1191.38
490.132	1120.38
490.35	1091.38
490.568	1121.38
490.786	1113.38
491.003	1128.38
491.221	1173.38
491.439	1172.38
491.657	1169.38
491.874	1223.38
492.092	1493.38
492.31	1737.38
492.527	1746.38
492.745	1563.38
492.963	1335.38
493.18	1314.38
493.398	1297.38
493.615	1271.38
493.833	1268.38
494.05	1286.38
494.268	1265.38
494.485	1249.38
494.703	1237.38
494.92	1252.38
495.138	1188.38
495.355	1229.38
495.573	1234.38
495.79	1376.38
496.008	1770.38
496.225	1569.38
496.442	1358.38
496.66	1347.38
496.877	1447.38
497.094	1375.38
497.312	1293.38
497.529	1354.38
497.746	1342.38
497.963	1349.38
498.181	1478.38
498.398	1601.38
498.615	1662.38
498.832	1697.38
499.049	1730.38
499.267	1561.38
499.484	1542.38
499.701	1614.38
499.918	1759.38
500.135	1904.38
500.352	1953.38
500.569	2014.38
500.786	2053.38
501.003	1995.38
501.22	1831.38
501.437	1734.38
501.654	1666.38
501.871	1664.38
502.088	1669.38
502.305	1504.38
502.522	1512.38
502.739	1522.38
502.956	1412.38
503.172	1374.38
503.389	1325.38
503.606	1298.38
503.823	1299.38
504.04	1339.38
504.256	1317.38
504.473	1348.38
504.69	1382.38
504.907	1368.38
505.123	1343.38
505.34	1457.38
505.557	1417.38
505.773	1338.38
505.99	1312.38
506.207	1396.38
506.423	1288.38
506.64	1168.38
506.856	1238.38
507.073	1353.38
507.289	1352.38
507.506	1324.38
507.722	1417.38
507.939	1439.38
508.155	1448.38
508.372	1328.38
508.588	1260.38
508.805	1226.38
509.021	1223.38
509.238	1170.38
509.454	1148.38
509.67	1183.38
509.887	1170.38
510.103	1337.38
510.319	1300.38
510.536	1196.38
510.752	1093.38
510.968	1099.38
511.184	1013.38
511.401	1022.38
511.617	1025.38
511.833	1052.38
512.049	1072.38
512.265	1104.38
512.481	1114.38
512.698	1255.38
512.914	1401.38
513.13	1216.38
513.346	1152.38
513.562	1163.38
513.778	1177.38
513.994	1148.38
514.21	1210.38
514.426	1192.38
514.642	1142.38
514.858	1140.38
515.074	1198.38
515.29	1296.38
515.506	1408.38
515.721	1360.38
515.937	1265.38
516.153	1166.38
516.369	1170.38
516.585	1248.38
516.801	1367.38
517.016	1590.38
517.232	1550.38
517.448	1541.38
517.664	1353.38
517.879	1322.38
518.095	1279.38
518.311	1282.38
518.527	1360.38
518.742	1409.38
518.958	1490.38
519.173	1393.38
519.389	1366.38
519.605	1382.38
519.82	1458.38
520.036	1708.38
520.251	1701.38
520.467	1607.38
520.682	2284.38
520.898	2809.38
521.113	2704.38
521.329	1727.38
521.544	1586.38
521.76	1530.38
521.975	1362.38
522.19	1258.38
522.406	1316.38
522.621	1464.38
522.836	1503.38
523.052	1529.38
523.267	1273.38
523.482	1277.38
523.698	1382.38
523.913	1345.38
524.128	1231.38
524.343	1166.38
524.559	1193.38
524.774	1139.38
524.989	1161.38
525.204	1173.38
525.419	1300.38
525.634	1214.38
525.849	1266.38
526.064	1282.38
526.28	1271.38
526.495	1471.38
526.71	1498.38
526.925	1303.38
527.14	1378.38
527.355	1330.38
527.57	1201.38
527.785	1203.38
527.999	1136.38
528.214	1080.38
528.429	1066.38
528.644	1072.38
528.859	1023.38
529.074	993.38
529.289	1012.38
529.503	1001.38
529.718	1042.38
529.933	1199.38
530.148	1217.38
530.363	1023.38
530.577	1037.38
530.792	990.38
531.007	997.38
531.221	996.38
531.436	993.38
531.651	994.38
531.865	1001.38
532.08	1034.38
532.295	1008.38
532.509	1029.38
532.724	1129.38
532.938	1304.38
533.153	1468.38
533.367	1216.38
533.582	1165.38
533.796	1107.38
534.011	1030.38
534.225	1048.38
534.44	1071.38
534.654	1090.38
534.868	1228.38
535.083	1094.38
535.297	1042.38
535.511	1038.38
535.726	1174.38
535.94	1078.38
536.154	1053.38
536.369	995.38
536.583	993.38
536.797	1038.38
537.011	1039.38
537.225	1128.38
537.44	1178.38
537.654	1060.38
537.868	1028.38
538.082	1044.38
538.296	1035.38
538.51	1076.38
538.724	1086.38
538.938	1063.38
539.153	1003.38
539.367	995.38
539.581	990.38
539.795	1052.38
540.009	1111.38
540.222	1076.38
540.436	1045.38
540.65	1153.38
540.864	1166.38
541.078	1151.38
541.292	1349.38
541.506	1088.38
541.72	1056.38
541.934	1055.38
542.147	1030.38
542.361	1054.38
542.575	1053.38
542.789	1050.38
543.002	949.38
543.216	1038.38
543.43	962.38
543.644	959.38
543.857	945.38
544.071	934.38
544.285	954.38
544.498	914.38
544.712	900.38
544.925	984.38
545.139	954.38
545.352	889.38
545.566	934.38
545.779	1022.38
545.993	982.38
546.206	896.38
546.42	897.38
546.633	882.38
546.847	867.38
547.06	842.38
547.274	861.38
547.487	905.38
547.7	977.38
547.914	995.38
548.127	1134.38
548.34	1086.38
548.554	997.38
548.767	993.38
548.98	1058.38
549.193	1002.38
549.407	1023.38
549.62	1194.38
549.833	1111.38
550.046	1156.38
550.259	1187.38
550.473	1033.38
550.686	979.38
550.899	999.38
551.112	992.38
551.325	1043.38
551.538	1110.38
551.751	969.38
551.964	896.38
552.177	903.38
552.39	904.38
552.603	900.38
552.816	962.38
553.029	901.38
553.242	904.38
553.455	936.38
553.667	1029.38
553.88	964.38
554.093	938.38
554.306	825.38
554.519	833.38
554.732	789.38
554.944	767.38
555.157	794.38
555.37	784.38
555.583	770.38
555.795	789.38
556.008	822.38
556.221	793.38
556.433	789.38
556.646	769.38
556.859	786.38
557.071	811.38
557.284	822.38
557.496	817.38
557.709	831.38
557.921	807.38
558.134	770.38
558.346	731.38
558.559	737.38
558.771	784.38
558.984	814.38
559.196	778.38
559.409	726.38
559.621	728.38
559.833	716.38
560.046	694.38
560.258	718.38
560.47	741.38
560.683	740.38
560.895	711.38
561.107	681.38
561.32	696.38
561.532	708.38
561.744	754.38
561.956	800.38
562.168	723.38
562.381	727.38
562.593	722.38
562.805	752.38
563.017	713.38
563.229	703.38
563.441	673.38
563.653	673.38
563.865	726.38
564.077	720.38
564.289	677.38
564.501	695.38
564.713	762.38
564.925	711.38
565.137	696.38
565.349	702.38
565.561	729.38
565.773	750.38
565.985	754.38
566.197	779.38
566.408	867.38
566.62	870.38
566.832	845.38
567.044	827.38
567.255	921.38
567.467	984.38
567.679	859.38
567.891	871.38
568.102	887.38
568.314	904.38
568.526	853.38
568.737	826.38
568.949	890.38
569.161	772.38
569.372	716.38
569.584	694.38
569.795	681.38
570.007	712.38
570.218	760.38
570.43	733.38
570.641	713.38
570.853	679.38
571.064	676.38
571.276	681.38
571.487	737.38
571.698	685.38
571.91	686.38
572.121	680.38
572.333	620.38
572.544	640.38
572.755	645.38
572.966	640.38
573.178	640.38
573.389	633.38
573.6	622.38
573.811	650.38
574.023	566.38
574.234	592.38
574.445	588.38
574.656	555.38
574.867	587.38
575.078	575.38
575.289	585.38
575.501	649.38
575.712	583.38
575.923	552.38
576.134	556.38
576.345	536.38
576.556	589.38
576.767	548.38
576.978	554.38
577.188	530.38
577.399	514.38
577.61	528.38
577.821	558.38
578.032	560.38
578.243	565.38
578.454	568.38
578.665	579.38
578.875	566.38
579.086	537.38
579.297	541.38
579.508	556.38
579.718	572.38
579.929	552.38
580.14	547.38
580.35	509.38
580.561	506.38
580.772	485.38
580.982	477.38
581.193	474.38
581.403	471.38
581.614	473.38
581.825	462.38
582.035	480.38
582.246	464.38
582.456	486.38
582.667	491.38
582.877	468.38
583.087	460.38
583.298	443.38
583.508	468.38
583.719	473.38
583.929	456.38
584.139	462.38
584.35	453.38
584.56	471.38
584.77	496.38
584.981	487.38
585.191	479.38
585.401	470.38
585.611	480.38
585.821	523.38
586.032	497.38
586.242	486.38
586.452	478.38
586.662	472.38
586.872	492.38
587.082	502.38
587.292	465.38
587.502	472.38
587.713	479.38
587.923	479.38
588.133	527.38
588.343	482.38
588.553	467.38
588.762	467.38
588.972	452.38
589.182	469.38
589.392	447.38
589.602	462.38
589.812	494.38
590.022	523.38
590.232	506.38
590.441	475.38
590.651	456.38
590.861	466.38
591.071	460.38
591.281	454.38
591.49	449.38
591.7	449.38
591.91	450.38
592.119	448.38
592.329	445.38
592.539	479.38
592.748	470.38
592.958	452.38
593.167	479.38
593.377	497.38
593.587	518.38
593.796	495.38
594.006	473.38
594.215	470.38
594.424	488.38
594.634	507.38
594.843	484.38
595.053	452.38
595.262	455.38
595.472	470.38
595.681	438.38
595.89	447.38
596.1	447.38
596.309	449.38
596.518	425.38
596.727	420.38
596.937	430.38
597.146	446.38
597.355	457.38
597.564	434.38
597.774	422.38
597.983	412.38
598.192	407.38
598.401	410.38
598.61	429.38
598.819	400.38
599.028	389.38
599.237	394.38
599.446	377.38
599.655	382.38
599.864	367.38
600.073	373.38
600.282	389.38
600.491	378.38
600.7	370.38
600.909	399.38
601.118	384.38
601.327	380.38
601.536	377.38
601.745	398.38
601.953	403.38
602.162	384.38
602.371	415.38
602.58	406.38
602.789	396.38
602.997	370.38
603.206	392.38
603.415	388.38
603.623	359.38
603.832	350.38
604.041	382.38
604.249	366.38
604.458	398.38
604.666	350.38
604.875	350.38
605.084	341.38
605.292	353.38
605.501	369.38
605.709	408.38
605.918	376.38
606.126	365.38
606.334	348.38
606.543	349.38
606.751	367.38
606.96	338.38
607.168	356.38
607.376	348.38
607.585	339.38
607.793	348.38
608.001	340.38
608.21	352.38
608.418	346.38
608.626	359.38
608.834	343.38
609.043	352.38
609.251	346.38
609.459	318.38
609.667	346.38
609.875	345.38
610.083	348.38
610.291	389.38
610.499	366.38
610.707	353.38
610.916	335.38
611.124	343.38
611.332	348.38
611.54	342.38
611.748	340.38
611.955	329.38
612.163	330.38
612.371	333.38
612.579	347.38
612.787	326.38
612.995	317.38
613.203	340.38
613.411	341.38
613.618	351.38
613.826	360.38
614.034	368.38
614.242	335.38
614.449	307.38
614.657	327.38
614.865	327.38
615.072	318.38
615.28	307.38
615.488	327.38
615.695	326.38
615.903	332.38
616.111	342.38
616.318	334.38
616.526	344.38
616.733	335.38
616.941	350.38
617.148	324.38
617.356	331.38
617.563	332.38
617.771	309.38
617.978	306.38
618.185	311.38
618.393	301.38
618.6	316.38
618.807	319.38
619.015	330.38
619.222	335.38
619.429	344.38
619.637	310.38
619.844	313.38
620.051	319.38
620.258	297.38
620.466	309.38
620.673	304.38
620.88	294.38
621.087	290.38
621.294	303.38
621.501	285.38
621.708	280.38
621.915	295.38
622.122	299.38
622.329	284.38
622.536	293.38
622.743	272.38
622.95	297.38
623.157	304.38
623.364	303.38
623.571	313.38
623.778	307.38
623.985	312.38
624.192	328.38
624.399	313.38
624.606	293.38
624.812	307.38
625.019	306.38
625.226	316.38
625.433	306.38
625.639	285.38
625.846	270.38
626.053	286.38
626.259	273.38
626.466	294.38
626.673	295.38
626.879	292.38
627.086	284.38
627.293	280.38
627.499	281.38
627.706	261.38
627.912	269.38
628.119	272.38
628.325	254.38
628.532	281.38
628.738	271.38
628.945	263.38
629.151	262.38
629.357	245.38
629.564	272.38
629.77	262.38
629.976	272.38
630.183	260.38
630.389	268.38
630.595	268.38
630.802	254.38
631.008	269.38
631.214	232.38
631.42	242.38
631.627	266.38
631.833	263.38
632.039	240.38
632.245	245.38
632.451	246.38
632.657	246.38
632.863	256.38
633.069	239.38
633.275	258.38
633.481	245.38
633.688	248.38
633.893	265.38
634.099	243.38
634.305	255.38
634.511	238.38
634.717	220.38
634.923	239.38
635.129	227.38
635.335	239.38
635.541	228.38
635.747	221.38
635.952	229.38
636.158	249.38
636.364	250.38
636.57	249.38
636.775	232.38
636.981	225.38
637.187	239.38
637.392	230.38
637.598	232.38
637.804	239.38
638.009	238.38
638.215	227.38
638.421	240.38
638.626	241.38
638.832	222.38
639.037	236.38
639.243	242.38
639.448	232.38
639.654	231.38
639.859	231.38
640.065	218.38
640.27	234.38
640.475	244.38
640.681	230.38
640.886	223.38
641.091	228.38
641.297	234.38
641.502	228.38
641.707	213.38
641.913	218.38
642.118	214.38
642.323	236.38
642.528	226.38
642.733	237.38
642.939	229.38
643.144	205.38
643.349	205.38
643.554	228.38
643.759	199.38
643.964	210.38
644.169	225.38
644.374	202.38
644.579	232.38
644.784	208.38
644.989	201.38
645.194	221.38
645.399	208.38
645.604	205.38
645.809	208.38
646.014	199.38
646.219	214.38
646.423	215.38
646.628	196.38
646.833	212.38
647.038	213.38
647.243	200.38
647.447	224.38
647.652	211.38
647.857	206.38
648.062	225.38
648.266	210.38
648.471	220.38
648.676	223.38
648.88	217.38
649.085	205.38
649.289	210.38
649.494	200.38
649.698	206.38
649.903	223.38
650.107	204.38
650.312	209.38
650.516	202.38
650.721	211.38
650.925	190.38
651.13	191.38
651.334	175.38
651.539	183.38
651.743	196.38
651.947	191.38
652.152	169.38
652.356	191.38
652.56	176.38
652.764	186.38
652.969	168.38
653.173	160.38
653.377	183.38
653.581	156.38
653.785	144.38
653.99	167.38
654.194	159.38
654.398	173.38
654.602	160.38
654.806	158.38
655.01	164.38
655.214	174.38
655.418	160.38
655.622	144.38
655.826	157.38
656.03	156.38
656.234	171.38
656.438	150.38
656.642	152.38
656.846	159.38
657.049	161.38
657.253	148.38
657.457	133.38
657.661	135.38
657.865	138.38
658.068	126.38
658.272	110.38
658.476	121.38
658.68	122.38
658.883	103.38
659.087	116.38
659.291	116.38
659.494	119.38
659.698	114.38
659.901	104.38
660.105	108.38
660.309	101.38
660.512	95.38
660.716	89.38
660.919	103.38
661.123	103.38
661.326	101.38
661.53	99.38
661.733	88.38
661.936	88.38
662.14	88.38
662.343	88.38
662.546	104.38
662.75	95.38
662.953	78.38
663.156	83.38
663.36	76.38
663.563	79.38
663.766	84.38
663.969	84.38
664.173	94.38
664.376	89.38
664.579	82.38
664.782	82.38
664.985	89.38
665.188	92.38
665.391	86.38
665.594	98.38
665.797	91.38
666	77.38
666.203	81.38
666.406	91.38
666.609	88.38
666.812	83.38
667.015	76.38
667.218	71.38
667.421	83.38
667.624	82.38
667.827	81.38
668.03	74.38
668.232	64.38
668.435	79.38
668.638	96.38
668.841	86.38
669.043	75.38
669.246	85.38
669.449	73.38
669.651	89.38
669.854	82.38
670.057	87.38
670.259	75.38
670.462	79.38
670.665	79.38
670.867	92.38
671.07	88.38
671.272	93.38
671.475	88.38
671.677	78.38
671.88	96.38
672.082	89.38
672.284	89.38
672.487	88.38
672.689	90.38
672.892	87.38
