Data from NickelSpatula.Lamp.E10.P2_HRD10591_11-59-37-525.txt Node
Date: Tue Jul 23 11:59:37 EDT 2019
User: cochatt
Spectrometer: HR+D1059
Trigger mode: 1
Integration Time (sec): 1.000000E-1
Scans to average: 1
Electric dark correction enabled: true
Nonlinearity correction enabled: false
Boxcar width: 0
XAxis mode: Wavelengths
Number of Pixels in Spectrum: 2048
>>>>>Begin Spectral Data<<<<<
223.165	0.56
223.4	0.56
223.635	0.56
223.869	-8.44
224.104	-30.44
224.338	-20.44
224.573	-21.44
224.808	-13.44
225.042	-8.44
225.277	-11.44
225.511	-2.44
225.746	-7.44
225.98	9.56
226.215	14.56
226.449	14.56
226.683	23.56
226.918	31.56
227.152	29.56
227.387	27.56
227.621	34.56
227.856	46.56
228.09	42.56
228.324	58.56
228.559	67.56
228.793	83.56
229.027	148.56
229.262	165.56
229.496	160.56
229.73	158.56
229.964	205.56
230.199	215.56
230.433	220.56
230.667	211.56
230.901	215.56
231.136	179.56
231.37	230.56
231.604	212.56
231.838	236.56
232.072	226.56
232.306	254.56
232.541	251.56
232.775	238.56
233.009	271.56
233.243	291.56
233.477	299.56
233.711	336.56
233.945	354.56
234.179	332.56
234.413	362.56
234.647	398.56
234.881	472.56
235.115	404.56
235.349	389.56
235.583	347.56
235.817	367.56
236.051	382.56
236.285	433.56
236.519	465.56
236.753	442.56
236.987	430.56
237.221	410.56
237.455	414.56
237.689	428.56
237.922	462.56
238.156	485.56
238.39	550.56
238.624	682.56
238.858	596.56
239.091	498.56
239.325	545.56
239.559	493.56
239.793	540.56
240.027	654.56
240.26	595.56
240.494	590.56
240.728	607.56
240.961	709.56
241.195	674.56
241.429	643.56
241.662	631.56
241.896	504.56
242.13	484.56
242.363	476.56
242.597	490.56
242.83	546.56
243.064	549.56
243.298	595.56
243.531	620.56
243.765	657.56
243.998	637.56
244.232	593.56
244.465	602.56
244.699	598.56
244.932	666.56
245.166	638.56
245.399	552.56
245.633	552.56
245.866	572.56
246.099	604.56
246.333	748.56
246.566	780.56
246.8	780.56
247.033	754.56
247.266	702.56
247.5	709.56
247.733	692.56
247.966	650.56
248.2	686.56
248.433	786.56
248.666	847.56
248.899	845.56
249.133	888.56
249.366	1032.56
249.599	1054.56
249.832	971.56
250.066	817.56
250.299	854.56
250.532	817.56
250.765	834.56
250.998	757.56
251.231	721.56
251.465	791.56
251.698	840.56
251.931	807.56
252.164	853.56
252.397	949.56
252.63	1056.56
252.863	1145.56
253.096	1219.56
253.329	1181.56
253.562	1136.56
253.795	1251.56
254.028	1388.56
254.261	1413.56
254.494	1294.56
254.727	1168.56
254.96	1148.56
255.193	1190.56
255.426	1150.56
255.659	885.56
255.892	813.56
256.124	881.56
256.357	1047.56
256.59	1224.56
256.823	1144.56
257.056	982.56
257.289	944.56
257.521	986.56
257.754	1172.56
257.987	1320.56
258.22	1131.56
258.452	1027.56
258.685	1143.56
258.918	1308.56
259.151	1230.56
259.383	1317.56
259.616	1500.56
259.849	1562.56
260.081	1752.56
260.314	1934.56
260.547	1480.56
260.779	1503.56
261.012	1727.56
261.244	1656.56
261.477	1696.56
261.71	1575.56
261.942	1308.56
262.175	1288.56
262.407	1262.56
262.64	1306.56
262.872	1515.56
263.105	1636.56
263.337	1745.56
263.57	1537.56
263.802	1027.56
264.035	902.56
264.267	890.56
264.499	771.56
264.732	687.56
264.964	694.56
265.197	711.56
265.429	785.56
265.661	814.56
265.894	858.56
266.126	913.56
266.358	1054.56
266.591	1251.56
266.823	1506.56
267.055	1433.56
267.287	1258.56
267.52	1262.56
267.752	1340.56
267.984	1482.56
268.216	1359.56
268.448	1135.56
268.681	1123.56
268.913	1218.56
269.145	1293.56
269.377	1292.56
269.609	1339.56
269.841	1238.56
270.073	1311.56
270.306	1389.56
270.538	1408.56
270.77	1411.56
271.002	1421.56
271.234	1474.56
271.466	1529.56
271.698	1509.56
271.93	1462.56
272.162	1481.56
272.394	1451.56
272.626	1425.56
272.858	1482.56
273.09	1528.56
273.322	1333.56
273.553	1288.56
273.785	1526.56
274.017	2021.56
274.249	2480.56
274.481	2612.56
274.713	2847.56
274.945	3244.56
275.176	3362.56
275.408	2945.56
275.64	2697.56
275.872	2716.56
276.104	2243.56
276.335	2001.56
276.567	1913.56
276.799	1979.56
277.031	2124.56
277.262	1630.56
277.494	1251.56
277.726	1202.56
277.957	1329.56
278.189	1534.56
278.421	1481.56
278.652	1454.56
278.884	1380.56
279.115	1276.56
279.347	1204.56
279.579	1196.56
279.81	1206.56
280.042	1241.56
280.273	1244.56
280.505	1163.56
280.736	1033.56
280.968	1023.56
281.199	1124.56
281.431	1236.56
281.662	1225.56
281.894	1164.56
282.125	1258.56
282.356	1355.56
282.588	1399.56
282.819	1271.56
283.051	1396.56
283.282	1708.56
283.513	1986.56
283.745	2202.56
283.976	2160.56
284.207	2054.56
284.439	2102.56
284.67	2068.56
284.901	1801.56
285.132	1950.56
285.364	2066.56
285.595	1918.56
285.826	1995.56
286.057	2107.56
286.288	1952.56
286.52	2071.56
286.751	2162.56
286.982	2115.56
287.213	1837.56
287.444	1808.56
287.675	1877.56
287.906	1842.56
288.138	1551.56
288.369	1405.56
288.6	1294.56
288.831	1349.56
289.062	1585.56
289.293	1735.56
289.524	1644.56
289.755	1643.56
289.986	1677.56
290.217	1450.56
290.448	1094.56
290.679	982.56
290.91	904.56
291.141	942.56
291.371	953.56
291.602	995.56
291.833	988.56
292.064	1059.56
292.295	1232.56
292.526	1394.56
292.757	1460.56
292.987	1584.56
293.218	1549.56
293.449	1586.56
293.68	1708.56
293.91	1630.56
294.141	1662.56
294.372	1528.56
294.603	1436.56
294.833	1599.56
295.064	1845.56
295.295	1753.56
295.525	1358.56
295.756	1166.56
295.987	1016.56
296.217	1020.56
296.448	1084.56
296.679	1102.56
296.909	1220.56
297.14	1354.56
297.37	1448.56
297.601	1403.56
297.831	1202.56
298.062	1232.56
298.292	1451.56
298.523	1614.56
298.753	1812.56
298.984	1612.56
299.214	1300.56
299.445	1111.56
299.675	1060.56
299.905	1079.56
300.136	1095.56
300.366	1188.56
300.597	1164.56
300.827	1037.56
301.057	1030.56
301.288	1030.56
301.518	1122.56
301.748	1274.56
301.979	1343.56
302.209	1529.56
302.439	1472.56
302.669	1262.56
302.9	1258.56
303.13	1178.56
303.36	1107.56
303.59	1066.56
303.82	1104.56
304.051	1267.56
304.281	1341.56
304.511	1307.56
304.741	1166.56
304.971	1222.56
305.201	1306.56
305.431	1240.56
305.661	1092.56
305.891	1090.56
306.121	1117.56
306.352	995.56
306.582	865.56
306.812	888.56
307.042	892.56
307.272	838.56
307.502	849.56
307.731	883.56
307.961	908.56
308.191	896.56
308.421	830.56
308.651	814.56
308.881	781.56
309.111	810.56
309.341	830.56
309.571	911.56
309.8	919.56
310.03	956.56
310.26	1030.56
310.49	963.56
310.72	872.56
310.949	855.56
311.179	897.56
311.409	921.56
311.639	1095.56
311.868	1417.56
312.098	1819.56
312.328	1982.56
312.557	1890.56
312.787	1944.56
313.017	1725.56
313.246	1845.56
313.476	2006.56
313.706	1628.56
313.935	1324.56
314.165	1059.56
314.394	944.56
314.624	955.56
314.853	1030.56
315.083	1052.56
315.312	1030.56
315.542	993.56
315.771	950.56
316.001	856.56
316.23	849.56
316.46	851.56
316.689	858.56
316.919	906.56
317.148	896.56
317.377	875.56
317.607	880.56
317.836	964.56
318.065	1121.56
318.295	1268.56
318.524	1158.56
318.753	960.56
318.983	946.56
319.212	911.56
319.441	1010.56
319.67	1140.56
319.9	1234.56
320.129	1159.56
320.358	989.56
320.587	979.56
320.816	1039.56
321.046	1214.56
321.275	1347.56
321.504	1398.56
321.733	1300.56
321.962	1256.56
322.191	1127.56
322.42	1141.56
322.649	1159.56
322.878	1250.56
323.108	1226.56
323.337	1107.56
323.566	1107.56
323.795	1114.56
324.024	1025.56
324.253	1005.56
324.482	996.56
324.71	1101.56
324.939	1215.56
325.168	1141.56
325.397	921.56
325.626	928.56
325.855	914.56
326.084	922.56
326.313	883.56
326.542	856.56
326.77	869.56
326.999	897.56
327.228	958.56
327.457	1025.56
327.686	1006.56
327.914	904.56
328.143	810.56
328.372	840.56
328.6	872.56
328.829	888.56
329.058	877.56
329.287	903.56
329.515	910.56
329.744	897.56
329.972	820.56
330.201	792.56
330.43	832.56
330.658	933.56
330.887	1088.56
331.115	1034.56
331.344	981.56
331.572	972.56
331.801	917.56
332.03	834.56
332.258	891.56
332.486	970.56
332.715	1015.56
332.943	920.56
333.172	941.56
333.4	938.56
333.629	1078.56
333.857	1117.56
334.085	1119.56
334.314	1103.56
334.542	1051.56
334.771	960.56
334.999	964.56
335.227	948.56
335.455	952.56
335.684	1044.56
335.912	1200.56
336.14	1354.56
336.369	1250.56
336.597	1212.56
336.825	1393.56
337.053	1533.56
337.281	1252.56
337.51	1020.56
337.738	982.56
337.966	1076.56
338.194	1200.56
338.422	1128.56
338.65	959.56
338.878	880.56
339.106	895.56
339.334	1011.56
339.562	1096.56
339.79	986.56
340.018	952.56
340.246	1075.56
340.474	1208.56
340.702	1260.56
340.93	1316.56
341.158	1334.56
341.386	1163.56
341.614	1168.56
341.842	1124.56
342.07	1159.56
342.298	1342.56
342.526	1409.56
342.754	1194.56
342.981	1118.56
343.209	1060.56
343.437	1129.56
343.665	1229.56
343.893	1209.56
344.12	1419.56
344.348	1672.56
344.576	1467.56
344.804	1205.56
345.031	1043.56
345.259	994.56
345.487	1033.56
345.714	1066.56
345.942	1126.56
346.17	1207.56
346.397	1142.56
346.625	1007.56
346.853	980.56
347.08	943.56
347.308	1038.56
347.535	1139.56
347.763	1167.56
347.99	981.56
348.218	916.56
348.445	973.56
348.673	994.56
348.9	1004.56
349.128	1080.56
349.355	1130.56
349.583	1077.56
349.81	1044.56
350.037	968.56
350.265	850.56
350.492	812.56
350.72	804.56
350.947	868.56
351.174	907.56
351.402	967.56
351.629	1008.56
351.856	959.56
352.083	911.56
352.311	987.56
352.538	1121.56
352.765	1188.56
352.992	1080.56
353.22	982.56
353.447	1042.56
353.674	972.56
353.901	987.56
354.128	1024.56
354.355	1021.56
354.583	1011.56
354.81	982.56
355.037	1049.56
355.264	1012.56
355.491	1111.56
355.718	1256.56
355.945	1127.56
356.172	1121.56
356.399	1133.56
356.626	1358.56
356.853	1662.56
357.08	1760.56
357.307	1817.56
357.534	1414.56
357.761	1450.56
357.988	1813.56
358.215	2124.56
358.441	2017.56
358.668	1741.56
358.895	1548.56
359.122	1232.56
359.349	1198.56
359.576	1349.56
359.802	1154.56
360.029	964.56
360.256	1047.56
360.483	1322.56
360.709	1624.56
360.936	1718.56
361.163	1470.56
361.39	1155.56
361.616	1072.56
361.843	1274.56
362.07	1572.56
362.296	1403.56
362.523	1112.56
362.749	965.56
362.976	1010.56
363.203	1251.56
363.429	1402.56
363.656	1103.56
363.882	1008.56
364.109	1033.56
364.335	1014.56
364.562	987.56
364.788	1156.56
365.015	1374.56
365.241	1199.56
365.468	994.56
365.694	850.56
365.92	828.56
366.147	775.56
366.373	783.56
366.599	792.56
366.826	804.56
367.052	839.56
367.278	863.56
367.505	821.56
367.731	899.56
367.957	1045.56
368.184	1059.56
368.41	1042.56
368.636	1044.56
368.862	1115.56
369.089	1024.56
369.315	930.56
369.541	920.56
369.767	881.56
369.993	852.56
370.219	886.56
370.445	908.56
370.672	1023.56
370.898	1148.56
371.124	1077.56
371.35	990.56
371.576	926.56
371.802	996.56
372.028	1183.56
372.254	1376.56
372.48	1177.56
372.706	1063.56
372.932	1119.56
373.158	1146.56
373.384	1420.56
373.61	1918.56
373.835	1931.56
374.061	1408.56
374.287	1208.56
374.513	1414.56
374.739	1700.56
374.965	1755.56
375.191	1693.56
375.416	1191.56
375.642	1036.56
375.868	1254.56
376.094	1374.56
376.319	1217.56
376.545	1351.56
376.771	1360.56
376.997	1200.56
377.222	836.56
377.448	758.56
377.674	771.56
377.899	751.56
378.125	741.56
378.35	754.56
378.576	781.56
378.802	851.56
379.027	946.56
379.253	894.56
379.478	929.56
379.704	1090.56
379.929	1143.56
380.155	1089.56
380.38	981.56
380.606	1036.56
380.831	1145.56
381.057	1022.56
381.282	983.56
381.507	1202.56
381.733	1466.56
381.958	1598.56
382.184	1639.56
382.409	1738.56
382.634	1696.56
382.86	1844.56
383.085	1491.56
383.31	1160.56
383.535	1247.56
383.761	1247.56
383.986	1203.56
384.211	1469.56
384.436	1399.56
384.662	1058.56
384.887	1007.56
385.112	1034.56
385.337	1067.56
385.562	1023.56
385.787	1102.56
386.013	1282.56
386.238	1293.56
386.463	1040.56
386.688	1006.56
386.913	968.56
387.138	888.56
387.363	964.56
387.588	1029.56
387.813	995.56
388.038	1139.56
388.263	995.56
388.488	995.56
388.713	1139.56
388.938	1282.56
389.163	1058.56
389.387	967.56
389.612	927.56
389.837	979.56
390.062	987.56
390.287	1035.56
390.512	1053.56
390.736	942.56
390.961	911.56
391.186	853.56
391.411	837.56
391.636	869.56
391.86	929.56
392.085	1052.56
392.31	1047.56
392.534	992.56
392.759	975.56
392.984	1020.56
393.208	989.56
393.433	878.56
393.658	815.56
393.882	793.56
394.107	810.56
394.331	818.56
394.556	801.56
394.78	802.56
395.005	848.56
395.229	893.56
395.454	884.56
395.678	898.56
395.903	913.56
396.127	874.56
396.352	899.56
396.576	950.56
396.801	1031.56
397.025	1119.56
397.249	1131.56
397.474	944.56
397.698	950.56
397.922	1012.56
398.147	878.56
398.371	906.56
398.595	950.56
398.82	949.56
399.044	976.56
399.268	1040.56
399.492	1060.56
399.717	1092.56
399.941	1107.56
400.165	1042.56
400.389	1020.56
400.613	1100.56
400.837	1051.56
401.062	927.56
401.286	903.56
401.51	903.56
401.734	928.56
401.958	947.56
402.182	930.56
402.406	908.56
402.63	914.56
402.854	958.56
403.078	1086.56
403.302	1339.56
403.526	1373.56
403.75	1191.56
403.974	1059.56
404.198	1083.56
404.422	1229.56
404.645	1481.56
404.869	1615.56
405.093	1197.56
405.317	1011.56
405.541	958.56
405.765	1035.56
405.988	1024.56
406.212	1111.56
406.436	1324.56
406.66	1441.56
406.883	1122.56
407.107	1194.56
407.331	1404.56
407.555	1334.56
407.778	1120.56
408.002	1073.56
408.226	1047.56
408.449	1078.56
408.673	1028.56
408.896	975.56
409.12	942.56
409.344	897.56
409.567	874.56
409.791	918.56
410.014	900.56
410.238	907.56
410.461	916.56
410.685	902.56
410.908	920.56
411.132	935.56
411.355	954.56
411.578	960.56
411.802	910.56
412.025	994.56
412.249	1023.56
412.472	968.56
412.695	968.56
412.919	995.56
413.142	997.56
413.365	1056.56
413.589	1059.56
413.812	974.56
414.035	914.56
414.258	911.56
414.482	1076.56
414.705	1090.56
414.928	951.56
415.151	916.56
415.374	885.56
415.597	935.56
415.821	925.56
416.044	915.56
416.267	899.56
416.49	874.56
416.713	847.56
416.936	864.56
417.159	857.56
417.382	888.56
417.605	904.56
417.828	935.56
418.051	902.56
418.274	951.56
418.497	928.56
418.72	956.56
418.943	970.56
419.166	1003.56
419.389	1060.56
419.611	1064.56
419.834	1064.56
420.057	1152.56
420.28	1125.56
420.503	1031.56
420.726	922.56
420.948	878.56
421.171	876.56
421.394	889.56
421.617	853.56
421.839	892.56
422.062	918.56
422.285	929.56
422.507	958.56
422.73	971.56
422.953	986.56
423.175	988.56
423.398	946.56
423.621	1021.56
423.843	1051.56
424.066	996.56
424.288	943.56
424.511	909.56
424.733	911.56
424.956	981.56
425.178	1117.56
425.401	1242.56
425.623	1422.56
425.846	1171.56
426.068	1040.56
426.291	1136.56
426.513	1031.56
426.735	974.56
426.958	1005.56
427.18	1184.56
427.402	1543.56
427.625	1534.56
427.847	1210.56
428.069	890.56
428.292	908.56
428.514	891.56
428.736	852.56
428.958	959.56
429.181	1164.56
429.403	997.56
429.625	886.56
429.847	915.56
430.069	916.56
430.292	924.56
430.514	870.56
430.736	987.56
430.958	1243.56
431.18	1103.56
431.402	858.56
431.624	814.56
431.846	823.56
432.068	780.56
432.29	834.56
432.512	946.56
432.734	1262.56
432.956	1166.56
433.178	879.56
433.4	853.56
433.622	851.56
433.844	867.56
434.066	948.56
434.287	940.56
434.509	910.56
434.731	931.56
434.953	884.56
435.175	911.56
435.397	1055.56
435.618	917.56
435.84	837.56
436.062	839.56
436.284	822.56
436.505	804.56
436.727	813.56
436.949	846.56
437.17	874.56
437.392	885.56
437.614	855.56
437.835	819.56
438.057	860.56
438.278	1000.56
438.5	1439.56
438.721	1426.56
438.943	951.56
439.165	812.56
439.386	830.56
439.608	775.56
439.829	776.56
440.05	830.56
440.272	875.56
440.493	1009.56
440.715	1262.56
440.936	1017.56
441.158	874.56
441.379	869.56
441.6	1000.56
441.822	1052.56
442.043	924.56
442.264	896.56
442.486	895.56
442.707	905.56
442.928	900.56
443.149	898.56
443.371	892.56
443.592	954.56
443.813	925.56
444.034	909.56
444.255	888.56
444.476	946.56
444.698	969.56
444.919	966.56
445.14	1010.56
445.361	1017.56
445.582	938.56
445.803	919.56
446.024	941.56
446.245	954.56
446.466	913.56
446.687	866.56
446.908	916.56
447.129	848.56
447.35	822.56
447.571	812.56
447.792	796.56
448.013	789.56
448.234	791.56
448.455	790.56
448.675	794.56
448.896	821.56
449.117	819.56
449.338	798.56
449.559	818.56
449.779	867.56
450	891.56
450.221	852.56
450.442	839.56
450.662	796.56
450.883	813.56
451.104	822.56
451.324	794.56
451.545	824.56
451.766	823.56
451.986	799.56
452.207	780.56
452.428	781.56
452.648	818.56
452.869	846.56
453.089	866.56
453.31	829.56
453.53	765.56
453.751	754.56
453.971	739.56
454.192	775.56
454.412	788.56
454.633	788.56
454.853	750.56
455.073	741.56
455.294	732.56
455.514	736.56
455.734	790.56
455.955	811.56
456.175	818.56
456.395	757.56
456.616	734.56
456.836	704.56
457.056	695.56
457.276	704.56
457.497	725.56
457.717	730.56
457.937	739.56
458.157	725.56
458.377	737.56
458.598	760.56
458.818	794.56
459.038	832.56
459.258	835.56
459.478	869.56
459.698	921.56
459.918	891.56
460.138	895.56
460.358	944.56
460.578	863.56
460.798	881.56
461.018	912.56
461.238	861.56
461.458	848.56
461.678	882.56
461.898	945.56
462.118	915.56
462.338	958.56
462.558	965.56
462.777	1020.56
462.997	1035.56
463.217	1019.56
463.437	1055.56
463.657	1003.56
463.876	966.56
464.096	970.56
464.316	955.56
464.536	989.56
464.755	1036.56
464.975	1042.56
465.195	959.56
465.414	1028.56
465.634	970.56
465.854	934.56
466.073	862.56
466.293	888.56
466.512	954.56
466.732	1048.56
466.951	1058.56
467.171	930.56
467.391	876.56
467.61	855.56
467.829	976.56
468.049	946.56
468.268	908.56
468.488	898.56
468.707	944.56
468.927	1112.56
469.146	1154.56
469.365	1054.56
469.585	944.56
469.804	1009.56
470.023	1119.56
470.243	1002.56
470.462	924.56
470.681	954.56
470.901	923.56
471.12	978.56
471.339	995.56
471.558	927.56
471.777	950.56
471.997	987.56
472.216	1138.56
472.435	1100.56
472.654	1037.56
472.873	952.56
473.092	1026.56
473.311	1079.56
473.53	968.56
473.749	928.56
473.968	988.56
474.187	969.56
474.406	946.56
474.625	942.56
474.844	972.56
475.063	1010.56
475.282	1023.56
475.501	1082.56
475.72	1149.56
475.939	1122.56
476.158	1117.56
476.377	1244.56
476.596	1466.56
476.814	1516.56
477.033	1260.56
477.252	1027.56
477.471	999.56
477.69	999.56
477.908	1151.56
478.127	1166.56
478.346	1041.56
478.564	1148.56
478.783	1101.56
479.002	1096.56
479.22	1295.56
479.439	1405.56
479.658	1218.56
479.876	1130.56
480.095	1232.56
480.313	1253.56
480.532	1122.56
480.751	1143.56
480.969	1148.56
481.188	1285.56
481.406	1314.56
481.624	1221.56
481.843	1106.56
482.061	1099.56
482.28	1211.56
482.498	1484.56
482.717	1441.56
482.935	1219.56
483.153	1164.56
483.372	1064.56
483.59	1048.56
483.808	1063.56
484.027	1061.56
484.245	1019.56
484.463	977.56
484.681	1054.56
484.9	1125.56
485.118	1184.56
485.336	1133.56
485.554	1050.56
485.772	1106.56
485.99	1206.56
486.209	1233.56
486.427	1248.56
486.645	1174.56
486.863	1266.56
487.081	1255.56
487.299	1408.56
487.517	1400.56
487.735	1235.56
487.953	1248.56
488.171	1295.56
488.389	1193.56
488.607	1134.56
488.825	1161.56
489.043	1335.56
489.261	1501.56
489.479	1563.56
489.696	1295.56
489.914	1179.56
490.132	1107.56
490.35	1142.56
490.568	1147.56
490.786	1133.56
491.003	1137.56
491.221	1187.56
491.439	1155.56
491.657	1162.56
491.874	1235.56
492.092	1501.56
492.31	1843.56
492.527	1786.56
492.745	1516.56
492.963	1332.56
493.18	1313.56
493.398	1324.56
493.615	1288.56
493.833	1264.56
494.05	1246.56
494.268	1266.56
494.485	1229.56
494.703	1204.56
494.92	1268.56
495.138	1223.56
495.355	1222.56
495.573	1231.56
495.79	1403.56
496.008	1916.56
496.225	1640.56
496.442	1397.56
496.66	1351.56
496.877	1417.56
497.094	1398.56
497.312	1374.56
497.529	1315.56
497.746	1344.56
497.963	1382.56
498.181	1487.56
498.398	1658.56
498.615	1652.56
498.832	1763.56
499.049	1707.56
499.267	1560.56
499.484	1595.56
499.701	1630.56
499.918	1711.56
500.135	1902.56
500.352	1932.56
500.569	2046.56
500.786	2072.56
501.003	2004.56
501.22	1860.56
501.437	1720.56
501.654	1644.56
501.871	1595.56
502.088	1642.56
502.305	1497.56
502.522	1524.56
502.739	1503.56
502.956	1377.56
503.172	1375.56
503.389	1327.56
503.606	1332.56
503.823	1320.56
504.04	1343.56
504.256	1348.56
504.473	1376.56
504.69	1375.56
504.907	1450.56
505.123	1376.56
505.34	1484.56
505.557	1474.56
505.773	1351.56
505.99	1331.56
506.207	1360.56
506.423	1274.56
506.64	1198.56
506.856	1245.56
507.073	1414.56
507.289	1368.56
507.506	1392.56
507.722	1454.56
507.939	1420.56
508.155	1467.56
508.372	1336.56
508.588	1299.56
508.805	1237.56
509.021	1212.56
509.238	1168.56
509.454	1210.56
509.67	1204.56
509.887	1207.56
510.103	1355.56
510.319	1323.56
510.536	1211.56
510.752	1118.56
510.968	1046.56
511.184	1039.56
511.401	1054.56
511.617	1045.56
511.833	1066.56
512.049	1070.56
512.265	1105.56
512.481	1125.56
512.698	1250.56
512.914	1404.56
513.13	1247.56
513.346	1127.56
513.562	1202.56
513.778	1196.56
513.994	1180.56
514.21	1264.56
514.426	1214.56
514.642	1172.56
514.858	1151.56
515.074	1187.56
515.29	1299.56
515.506	1432.56
515.721	1335.56
515.937	1231.56
516.153	1215.56
516.369	1174.56
516.585	1225.56
516.801	1407.56
517.016	1646.56
517.232	1618.56
517.448	1562.56
517.664	1371.56
517.879	1306.56
518.095	1281.56
518.311	1305.56
518.527	1337.56
518.742	1415.56
518.958	1490.56
519.173	1423.56
519.389	1387.56
519.605	1427.56
519.82	1496.56
520.036	1810.56
520.251	1724.56
520.467	1633.56
520.682	2464.56
520.898	3004.56
521.113	2866.56
521.329	1766.56
521.544	1536.56
521.76	1548.56
521.975	1392.56
522.19	1260.56
522.406	1357.56
522.621	1480.56
522.836	1522.56
523.052	1624.56
523.267	1308.56
523.482	1329.56
523.698	1461.56
523.913	1341.56
524.128	1248.56
524.343	1201.56
524.559	1212.56
524.774	1150.56
524.989	1191.56
525.204	1226.56
525.419	1339.56
525.634	1238.56
525.849	1262.56
526.064	1267.56
526.28	1258.56
526.495	1552.56
526.71	1538.56
526.925	1358.56
527.14	1437.56
527.355	1373.56
527.57	1180.56
527.785	1223.56
527.999	1133.56
528.214	1051.56
528.429	1084.56
528.644	1109.56
528.859	1035.56
529.074	987.56
529.289	1006.56
529.503	1010.56
529.718	1050.56
529.933	1196.56
530.148	1214.56
530.363	1074.56
530.577	1022.56
530.792	995.56
531.007	993.56
531.221	1002.56
531.436	993.56
531.651	993.56
531.865	1026.56
532.08	1051.56
532.295	977.56
532.509	1047.56
532.724	1194.56
532.938	1342.56
533.153	1540.56
533.367	1256.56
533.582	1189.56
533.796	1129.56
534.011	1082.56
534.225	1080.56
534.44	1082.56
534.654	1104.56
534.868	1269.56
535.083	1143.56
535.297	1024.56
535.511	1020.56
535.726	1190.56
535.94	1075.56
536.154	1035.56
536.369	1018.56
536.583	1006.56
536.797	1071.56
537.011	1041.56
537.225	1134.56
537.44	1242.56
537.654	1020.56
537.868	1030.56
538.082	1062.56
538.296	1037.56
538.51	1110.56
538.724	1134.56
538.938	1026.56
539.153	979.56
539.367	1004.56
539.581	1036.56
539.795	1093.56
540.009	1186.56
540.222	1074.56
540.436	1075.56
540.65	1206.56
540.864	1241.56
541.078	1230.56
541.292	1334.56
541.506	1135.56
541.72	1109.56
541.934	1081.56
542.147	1048.56
542.361	1061.56
542.575	1100.56
542.789	1058.56
543.002	964.56
543.216	1099.56
543.43	989.56
543.644	949.56
543.857	954.56
544.071	956.56
544.285	959.56
544.498	929.56
544.712	923.56
544.925	1053.56
545.139	985.56
545.352	920.56
545.566	945.56
545.779	1079.56
545.993	979.56
546.206	900.56
546.42	867.56
546.633	884.56
546.847	869.56
547.06	860.56
547.274	859.56
547.487	910.56
547.7	983.56
547.914	1006.56
548.127	1144.56
548.34	1072.56
548.554	995.56
548.767	1003.56
548.98	1082.56
549.193	984.56
549.407	1010.56
549.62	1166.56
549.833	1096.56
550.046	1160.56
550.259	1197.56
550.473	1047.56
550.686	950.56
550.899	1018.56
551.112	1036.56
551.325	1032.56
551.538	1084.56
551.751	944.56
551.964	879.56
552.177	898.56
552.39	854.56
552.603	894.56
552.816	934.56
553.029	884.56
553.242	884.56
553.455	954.56
553.667	1038.56
553.88	971.56
554.093	908.56
554.306	845.56
554.519	817.56
554.732	777.56
554.944	800.56
555.157	776.56
555.37	798.56
555.583	771.56
555.795	791.56
556.008	816.56
556.221	826.56
556.433	803.56
556.646	798.56
556.859	774.56
557.071	832.56
557.284	830.56
557.496	841.56
557.709	807.56
557.921	799.56
558.134	745.56
558.346	730.56
558.559	738.56
558.771	787.56
558.984	827.56
559.196	750.56
559.409	751.56
559.621	694.56
559.833	722.56
560.046	739.56
560.258	720.56
560.47	758.56
560.683	720.56
560.895	682.56
561.107	687.56
561.32	710.56
561.532	677.56
561.744	781.56
561.956	806.56
562.168	739.56
562.381	727.56
562.593	715.56
562.805	768.56
563.017	718.56
563.229	672.56
563.441	679.56
563.653	668.56
563.865	707.56
564.077	713.56
564.289	688.56
564.501	686.56
564.713	720.56
564.925	710.56
565.137	692.56
565.349	696.56
565.561	695.56
565.773	740.56
565.985	749.56
566.197	777.56
566.408	831.56
566.62	862.56
566.832	858.56
567.044	842.56
567.255	890.56
567.467	973.56
567.679	903.56
567.891	866.56
568.102	879.56
568.314	914.56
568.526	864.56
568.737	818.56
568.949	883.56
569.161	772.56
569.372	703.56
569.584	682.56
569.795	689.56
570.007	716.56
570.218	760.56
570.43	755.56
570.641	693.56
570.853	667.56
571.064	636.56
571.276	702.56
571.487	714.56
571.698	671.56
571.91	682.56
572.121	680.56
572.333	622.56
572.544	640.56
572.755	635.56
572.966	612.56
573.178	612.56
573.389	625.56
573.6	666.56
573.811	631.56
574.023	592.56
574.234	561.56
574.445	596.56
574.656	583.56
574.867	563.56
575.078	603.56
575.289	572.56
575.501	629.56
575.712	590.56
575.923	556.56
576.134	532.56
576.345	550.56
576.556	576.56
576.767	546.56
576.978	555.56
577.188	526.56
577.399	508.56
577.61	514.56
577.821	529.56
578.032	537.56
578.243	576.56
578.454	571.56
578.665	587.56
578.875	572.56
579.086	564.56
579.297	586.56
579.508	588.56
579.718	575.56
579.929	546.56
580.14	546.56
580.35	500.56
580.561	478.56
580.772	483.56
580.982	483.56
581.193	475.56
581.403	486.56
581.614	474.56
581.825	453.56
582.035	468.56
582.246	465.56
582.456	482.56
582.667	484.56
582.877	479.56
583.087	467.56
583.298	465.56
583.508	457.56
583.719	449.56
583.929	449.56
584.139	443.56
584.35	453.56
584.56	485.56
584.77	478.56
584.981	482.56
585.191	477.56
585.401	458.56
585.611	475.56
585.821	496.56
586.032	500.56
586.242	489.56
586.452	511.56
586.662	459.56
586.872	481.56
587.082	491.56
587.292	486.56
587.502	475.56
587.713	458.56
587.923	441.56
588.133	551.56
588.343	478.56
588.553	485.56
588.762	454.56
588.972	457.56
589.182	458.56
589.392	451.56
589.602	444.56
589.812	491.56
590.022	509.56
590.232	516.56
590.441	451.56
590.651	462.56
590.861	455.56
591.071	480.56
591.281	470.56
591.49	450.56
591.7	442.56
591.91	466.56
592.119	460.56
592.329	455.56
592.539	476.56
592.748	481.56
592.958	455.56
593.167	469.56
593.377	482.56
593.587	496.56
593.796	498.56
594.006	479.56
594.215	483.56
594.424	458.56
594.634	528.56
594.843	488.56
595.053	460.56
595.262	451.56
595.472	442.56
595.681	426.56
595.89	440.56
596.1	446.56
596.309	450.56
596.518	434.56
596.727	418.56
596.937	430.56
597.146	449.56
597.355	471.56
597.564	441.56
597.774	405.56
597.983	398.56
598.192	413.56
598.401	389.56
598.61	401.56
598.819	388.56
599.028	392.56
599.237	382.56
599.446	370.56
599.655	375.56
599.864	380.56
600.073	362.56
600.282	401.56
600.491	404.56
600.7	397.56
600.909	402.56
601.118	387.56
601.327	370.56
601.536	376.56
601.745	391.56
601.953	403.56
602.162	375.56
602.371	398.56
602.58	418.56
602.789	381.56
602.997	376.56
603.206	388.56
603.415	396.56
603.623	359.56
603.832	374.56
604.041	378.56
604.249	373.56
604.458	391.56
604.666	364.56
604.875	359.56
605.084	362.56
605.292	363.56
605.501	357.56
605.709	363.56
605.918	361.56
606.126	345.56
606.334	353.56
606.543	337.56
606.751	387.56
606.96	350.56
607.168	354.56
607.376	344.56
607.585	341.56
607.793	356.56
608.001	350.56
608.21	359.56
608.418	369.56
608.626	375.56
608.834	362.56
609.043	354.56
609.251	339.56
609.459	337.56
609.667	339.56
609.875	356.56
610.083	342.56
610.291	347.56
610.499	345.56
610.707	327.56
610.916	350.56
611.124	343.56
611.332	329.56
611.54	327.56
611.748	366.56
611.955	334.56
612.163	346.56
612.371	339.56
612.579	319.56
612.787	346.56
612.995	333.56
613.203	323.56
613.411	330.56
613.618	330.56
613.826	365.56
614.034	366.56
614.242	308.56
614.449	314.56
614.657	322.56
614.865	328.56
615.072	329.56
615.28	322.56
615.488	320.56
615.695	327.56
615.903	328.56
616.111	316.56
616.318	324.56
616.526	320.56
616.733	310.56
616.941	306.56
617.148	308.56
617.356	307.56
617.563	313.56
617.771	308.56
617.978	311.56
618.185	302.56
618.393	291.56
618.6	288.56
618.807	312.56
619.015	321.56
619.222	315.56
619.429	339.56
619.637	302.56
619.844	296.56
620.051	301.56
620.258	314.56
620.466	292.56
620.673	277.56
620.88	290.56
621.087	284.56
621.294	274.56
621.501	288.56
621.708	279.56
621.915	288.56
622.122	294.56
622.329	310.56
622.536	296.56
622.743	283.56
622.95	295.56
623.157	301.56
623.364	306.56
623.571	296.56
623.778	314.56
623.985	302.56
624.192	317.56
624.399	303.56
624.606	294.56
624.812	300.56
625.019	290.56
625.226	302.56
625.433	310.56
625.639	285.56
625.846	285.56
626.053	281.56
626.259	269.56
626.466	276.56
626.673	291.56
626.879	273.56
627.086	274.56
627.293	273.56
627.499	283.56
627.706	279.56
627.912	264.56
628.119	274.56
628.325	258.56
628.532	268.56
628.738	268.56
628.945	251.56
629.151	268.56
629.357	286.56
629.564	254.56
629.77	259.56
629.976	248.56
630.183	242.56
630.389	259.56
630.595	251.56
630.802	260.56
631.008	252.56
631.214	249.56
631.42	250.56
631.627	259.56
631.833	251.56
632.039	246.56
632.245	240.56
632.451	240.56
632.657	235.56
632.863	240.56
633.069	231.56
633.275	239.56
633.481	222.56
633.688	223.56
633.893	235.56
634.099	224.56
634.305	252.56
634.511	236.56
634.717	224.56
634.923	250.56
635.129	220.56
635.335	217.56
635.541	232.56
635.747	209.56
635.952	231.56
636.158	241.56
636.364	230.56
636.57	235.56
636.775	218.56
636.981	228.56
637.187	228.56
637.392	234.56
637.598	228.56
637.804	236.56
638.009	224.56
638.215	217.56
638.421	235.56
638.626	203.56
638.832	220.56
639.037	243.56
639.243	230.56
639.448	222.56
639.654	249.56
639.859	221.56
640.065	250.56
640.27	228.56
640.475	223.56
640.681	207.56
640.886	223.56
641.091	234.56
641.297	208.56
641.502	231.56
641.707	220.56
641.913	223.56
642.118	221.56
642.323	214.56
642.528	216.56
642.733	224.56
642.939	206.56
643.144	196.56
643.349	228.56
643.554	226.56
643.759	219.56
643.964	202.56
644.169	215.56
644.374	197.56
644.579	213.56
644.784	211.56
644.989	222.56
645.194	212.56
645.399	209.56
645.604	200.56
645.809	221.56
646.014	210.56
646.219	212.56
646.423	193.56
646.628	203.56
646.833	206.56
647.038	216.56
647.243	212.56
647.447	225.56
647.652	207.56
647.857	208.56
648.062	222.56
648.266	200.56
648.471	220.56
648.676	205.56
648.88	210.56
649.085	222.56
649.289	204.56
649.494	200.56
649.698	218.56
649.903	213.56
650.107	184.56
650.312	192.56
650.516	202.56
650.721	195.56
650.925	173.56
651.13	185.56
651.334	168.56
651.539	178.56
651.743	178.56
651.947	180.56
652.152	183.56
652.356	163.56
652.56	174.56
652.764	172.56
652.969	163.56
653.173	166.56
653.377	171.56
653.581	172.56
653.785	158.56
653.99	157.56
654.194	158.56
654.398	171.56
654.602	174.56
654.806	158.56
655.01	156.56
655.214	169.56
655.418	142.56
655.622	159.56
655.826	151.56
656.03	152.56
656.234	156.56
656.438	170.56
656.642	166.56
656.846	151.56
657.049	136.56
657.253	157.56
657.457	139.56
657.661	126.56
657.865	137.56
658.068	126.56
658.272	140.56
658.476	137.56
658.68	119.56
658.883	118.56
659.087	124.56
659.291	115.56
659.494	116.56
659.698	97.56
659.901	101.56
660.105	118.56
660.309	106.56
660.512	102.56
660.716	113.56
660.919	107.56
661.123	104.56
661.326	108.56
661.53	102.56
661.733	95.56
661.936	106.56
662.14	96.56
662.343	80.56
662.546	94.56
662.75	89.56
662.953	105.56
663.156	87.56
663.36	89.56
663.563	90.56
663.766	85.56
663.969	74.56
664.173	73.56
664.376	82.56
664.579	91.56
664.782	85.56
664.985	81.56
665.188	72.56
665.391	75.56
665.594	78.56
665.797	76.56
666	73.56
666.203	86.56
666.406	80.56
666.609	83.56
666.812	82.56
667.015	87.56
667.218	86.56
667.421	68.56
667.624	87.56
667.827	84.56
668.03	82.56
668.232	73.56
668.435	79.56
668.638	83.56
668.841	87.56
669.043	79.56
669.246	68.56
669.449	86.56
669.651	82.56
669.854	81.56
670.057	90.56
670.259	86.56
670.462	65.56
670.665	79.56
670.867	76.56
671.07	78.56
671.272	78.56
671.475	82.56
671.677	90.56
671.88	77.56
672.082	85.56
672.284	77.56
672.487	76.56
672.689	65.56
672.892	69.56
