Data from NickelSpatula.Lamp.E5.5.P2_HRD10591_11-50-56-563.txt Node
Date: Tue Jul 23 11:50:56 EDT 2019
User: cochatt
Spectrometer: HR+D1059
Trigger mode: 1
Integration Time (sec): 1.000000E-1
Scans to average: 1
Electric dark correction enabled: true
Nonlinearity correction enabled: false
Boxcar width: 0
XAxis mode: Wavelengths
Number of Pixels in Spectrum: 2048
>>>>>Begin Spectral Data<<<<<
223.165	-7.94
223.4	-7.94
223.635	-7.94
223.869	-14.94
224.104	-15.94
224.338	-3.94
224.573	-20.94
224.808	-3.94
225.042	-13.94
225.277	-17.94
225.511	6.06
225.746	9.06
225.98	-1.94
226.215	2.06
226.449	4.06
226.683	21.06
226.918	16.06
227.152	43.06
227.387	23.06
227.621	29.06
227.856	44.06
228.09	55.06
228.324	44.06
228.559	45.06
228.793	50.06
229.027	75.06
229.262	71.06
229.496	80.06
229.73	80.06
229.964	91.06
230.199	94.06
230.433	90.06
230.667	99.06
230.901	85.06
231.136	90.06
231.37	89.06
231.604	87.06
231.838	99.06
232.072	114.06
232.306	114.06
232.541	97.06
232.775	115.06
233.009	103.06
233.243	110.06
233.477	119.06
233.711	115.06
233.945	104.06
234.179	100.06
234.413	109.06
234.647	104.06
234.881	149.06
235.115	123.06
235.349	132.06
235.583	121.06
235.817	102.06
236.051	117.06
236.285	116.06
236.519	138.06
236.753	129.06
236.987	127.06
237.221	124.06
237.455	112.06
237.689	125.06
237.922	123.06
238.156	125.06
238.39	139.06
238.624	150.06
238.858	153.06
239.091	136.06
239.325	141.06
239.559	141.06
239.793	133.06
240.027	162.06
240.26	148.06
240.494	142.06
240.728	137.06
240.961	162.06
241.195	152.06
241.429	150.06
241.662	144.06
241.896	137.06
242.13	133.06
242.363	133.06
242.597	126.06
242.83	119.06
243.064	137.06
243.298	149.06
243.531	167.06
243.765	164.06
243.998	152.06
244.232	165.06
244.465	144.06
244.699	148.06
244.932	158.06
245.166	155.06
245.399	142.06
245.633	128.06
245.866	143.06
246.099	148.06
246.333	156.06
246.566	181.06
246.8	177.06
247.033	177.06
247.266	164.06
247.5	141.06
247.733	148.06
247.966	152.06
248.2	174.06
248.433	177.06
248.666	192.06
248.899	175.06
249.133	184.06
249.366	197.06
249.599	218.06
249.832	200.06
250.066	165.06
250.299	166.06
250.532	168.06
250.765	164.06
250.998	175.06
251.231	164.06
251.465	187.06
251.698	184.06
251.931	174.06
252.164	173.06
252.397	192.06
252.63	218.06
252.863	233.06
253.096	235.06
253.329	231.06
253.562	233.06
253.795	242.06
254.028	273.06
254.261	257.06
254.494	258.06
254.727	214.06
254.96	220.06
255.193	250.06
255.426	223.06
255.659	185.06
255.892	193.06
256.124	178.06
256.357	199.06
256.59	232.06
256.823	210.06
257.056	206.06
257.289	192.06
257.521	215.06
257.754	252.06
257.987	263.06
258.22	238.06
258.452	206.06
258.685	218.06
258.918	257.06
259.151	269.06
259.383	275.06
259.616	300.06
259.849	307.06
260.081	301.06
260.314	324.06
260.547	273.06
260.779	315.06
261.012	317.06
261.244	315.06
261.477	294.06
261.71	264.06
261.942	252.06
262.175	256.06
262.407	237.06
262.64	244.06
262.872	290.06
263.105	299.06
263.337	307.06
263.57	289.06
263.802	224.06
264.035	206.06
264.267	205.06
264.499	189.06
264.732	174.06
264.964	183.06
265.197	167.06
265.429	165.06
265.661	187.06
265.894	196.06
266.126	218.06
266.358	203.06
266.591	264.06
266.823	290.06
267.055	270.06
267.287	253.06
267.52	260.06
267.752	269.06
267.984	285.06
268.216	286.06
268.448	257.06
268.681	231.06
268.913	240.06
269.145	270.06
269.377	262.06
269.609	269.06
269.841	279.06
270.073	261.06
270.306	265.06
270.538	281.06
270.77	263.06
271.002	274.06
271.234	290.06
271.466	290.06
271.698	285.06
271.93	281.06
272.162	271.06
272.394	278.06
272.626	283.06
272.858	254.06
273.09	264.06
273.322	250.06
273.553	239.06
273.785	279.06
274.017	319.06
274.249	379.06
274.481	390.06
274.713	433.06
274.945	483.06
275.176	511.06
275.408	451.06
275.64	432.06
275.872	440.06
276.104	389.06
276.335	354.06
276.567	345.06
276.799	365.06
277.031	375.06
277.262	300.06
277.494	268.06
277.726	249.06
277.957	243.06
278.189	295.06
278.421	278.06
278.652	278.06
278.884	280.06
279.115	270.06
279.347	233.06
279.579	249.06
279.81	255.06
280.042	265.06
280.273	268.06
280.505	237.06
280.736	221.06
280.968	226.06
281.199	245.06
281.431	269.06
281.662	255.06
281.894	240.06
282.125	264.06
282.356	271.06
282.588	295.06
282.819	258.06
283.051	255.06
283.282	321.06
283.513	350.06
283.745	383.06
283.976	391.06
284.207	364.06
284.439	375.06
284.67	366.06
284.901	336.06
285.132	354.06
285.364	361.06
285.595	341.06
285.826	346.06
286.057	376.06
286.288	356.06
286.52	356.06
286.751	389.06
286.982	380.06
287.213	329.06
287.444	326.06
287.675	348.06
287.906	352.06
288.138	306.06
288.369	260.06
288.6	273.06
288.831	267.06
289.062	310.06
289.293	323.06
289.524	325.06
289.755	309.06
289.986	332.06
290.217	305.06
290.448	234.06
290.679	222.06
290.91	204.06
291.141	212.06
291.371	221.06
291.602	213.06
291.833	201.06
292.064	239.06
292.295	243.06
292.526	281.06
292.757	273.06
292.987	287.06
293.218	311.06
293.449	323.06
293.68	342.06
293.91	330.06
294.141	330.06
294.372	322.06
294.603	289.06
294.833	295.06
295.064	355.06
295.295	368.06
295.525	292.06
295.756	245.06
295.987	219.06
296.217	215.06
296.448	232.06
296.679	224.06
296.909	243.06
297.14	260.06
297.37	279.06
297.601	283.06
297.831	238.06
298.062	249.06
298.292	294.06
298.523	326.06
298.753	329.06
298.984	324.06
299.214	252.06
299.445	238.06
299.675	229.06
299.905	204.06
300.136	231.06
300.366	263.06
300.597	228.06
300.827	220.06
301.057	233.06
301.288	236.06
301.518	238.06
301.748	254.06
301.979	268.06
302.209	285.06
302.439	308.06
302.669	281.06
302.9	251.06
303.13	242.06
303.36	226.06
303.59	263.06
303.82	235.06
304.051	254.06
304.281	276.06
304.511	276.06
304.741	244.06
304.971	244.06
305.201	292.06
305.431	269.06
305.661	247.06
305.891	240.06
306.121	236.06
306.352	207.06
306.582	219.06
306.812	208.06
307.042	198.06
307.272	195.06
307.502	199.06
307.731	202.06
307.961	209.06
308.191	184.06
308.421	179.06
308.651	195.06
308.881	189.06
309.111	186.06
309.341	185.06
309.571	212.06
309.8	204.06
310.03	210.06
310.26	220.06
310.49	201.06
310.72	198.06
310.949	196.06
311.179	189.06
311.409	210.06
311.639	215.06
311.868	268.06
312.098	321.06
312.328	364.06
312.557	363.06
312.787	364.06
313.017	323.06
313.246	326.06
313.476	363.06
313.706	312.06
313.935	269.06
314.165	236.06
314.394	208.06
314.624	209.06
314.853	200.06
315.083	233.06
315.312	209.06
315.542	215.06
315.771	197.06
316.001	192.06
316.23	213.06
316.46	196.06
316.689	188.06
316.919	195.06
317.148	203.06
317.377	187.06
317.607	201.06
317.836	205.06
318.065	226.06
318.295	251.06
318.524	260.06
318.753	218.06
318.983	196.06
319.212	215.06
319.441	220.06
319.67	241.06
319.9	237.06
320.129	221.06
320.358	215.06
320.587	200.06
320.816	220.06
321.046	231.06
321.275	255.06
321.504	251.06
321.733	233.06
321.962	241.06
322.191	239.06
322.42	236.06
322.649	224.06
322.878	252.06
323.108	240.06
323.337	238.06
323.566	221.06
323.795	227.06
324.024	215.06
324.253	198.06
324.482	230.06
324.71	251.06
324.939	256.06
325.168	241.06
325.397	215.06
325.626	221.06
325.855	199.06
326.084	204.06
326.313	200.06
326.542	200.06
326.77	200.06
326.999	192.06
327.228	193.06
327.457	227.06
327.686	232.06
327.914	211.06
328.143	199.06
328.372	207.06
328.6	189.06
328.829	192.06
329.058	193.06
329.287	205.06
329.515	195.06
329.744	197.06
329.972	191.06
330.201	197.06
330.43	196.06
330.658	207.06
330.887	220.06
331.115	229.06
331.344	210.06
331.572	223.06
331.801	205.06
332.03	203.06
332.258	189.06
332.486	207.06
332.715	225.06
332.943	219.06
333.172	206.06
333.4	237.06
333.629	243.06
333.857	248.06
334.085	247.06
334.314	242.06
334.542	257.06
334.771	252.06
334.999	236.06
335.227	210.06
335.455	211.06
335.684	245.06
335.912	232.06
336.14	263.06
336.369	287.06
336.597	262.06
336.825	271.06
337.053	305.06
337.281	246.06
337.51	220.06
337.738	216.06
337.966	220.06
338.194	252.06
338.422	225.06
338.65	211.06
338.878	210.06
339.106	207.06
339.334	210.06
339.562	220.06
339.79	213.06
340.018	201.06
340.246	223.06
340.474	254.06
340.702	249.06
340.93	265.06
341.158	269.06
341.386	235.06
341.614	226.06
341.842	219.06
342.07	222.06
342.298	271.06
342.526	264.06
342.754	246.06
342.981	224.06
343.209	215.06
343.437	231.06
343.665	253.06
343.893	272.06
344.12	275.06
344.348	323.06
344.576	312.06
344.804	259.06
345.031	223.06
345.259	204.06
345.487	224.06
345.714	204.06
345.942	242.06
346.17	253.06
346.397	239.06
346.625	217.06
346.853	227.06
347.08	215.06
347.308	244.06
347.535	260.06
347.763	252.06
347.99	226.06
348.218	211.06
348.445	222.06
348.673	219.06
348.9	227.06
349.128	239.06
349.355	237.06
349.583	219.06
349.81	224.06
350.037	218.06
350.265	197.06
350.492	183.06
350.72	206.06
350.947	195.06
351.174	197.06
351.402	202.06
351.629	215.06
351.856	211.06
352.083	195.06
352.311	203.06
352.538	229.06
352.765	226.06
352.992	224.06
353.22	221.06
353.447	238.06
353.674	206.06
353.901	197.06
354.128	208.06
354.355	213.06
354.583	221.06
354.81	241.06
355.037	227.06
355.264	241.06
355.491	232.06
355.718	247.06
355.945	214.06
356.172	247.06
356.399	218.06
356.626	280.06
356.853	317.06
357.08	323.06
357.307	317.06
357.534	277.06
357.761	289.06
357.988	364.06
358.215	375.06
358.441	358.06
358.668	312.06
358.895	291.06
359.122	251.06
359.349	273.06
359.576	291.06
359.802	240.06
360.029	207.06
360.256	229.06
360.483	284.06
360.709	323.06
360.936	325.06
361.163	300.06
361.39	225.06
361.616	233.06
361.843	259.06
362.07	290.06
362.296	256.06
362.523	240.06
362.749	213.06
362.976	229.06
363.203	227.06
363.429	250.06
363.656	219.06
363.882	209.06
364.109	221.06
364.335	218.06
364.562	207.06
364.788	215.06
365.015	259.06
365.241	229.06
365.468	216.06
365.694	196.06
365.92	189.06
366.147	187.06
366.373	194.06
366.599	189.06
366.826	188.06
367.052	198.06
367.278	205.06
367.505	209.06
367.731	201.06
367.957	214.06
368.184	221.06
368.41	193.06
368.636	221.06
368.862	217.06
369.089	223.06
369.315	199.06
369.541	198.06
369.767	203.06
369.993	205.06
370.219	202.06
370.445	219.06
370.672	217.06
370.898	236.06
371.124	236.06
371.35	226.06
371.576	206.06
371.802	213.06
372.028	253.06
372.254	282.06
372.48	256.06
372.706	239.06
372.932	254.06
373.158	232.06
373.384	278.06
373.61	339.06
373.835	345.06
374.061	280.06
374.287	247.06
374.513	279.06
374.739	315.06
374.965	342.06
375.191	341.06
375.416	264.06
375.642	240.06
375.868	250.06
376.094	276.06
376.319	235.06
376.545	263.06
376.771	261.06
376.997	253.06
377.222	208.06
377.448	195.06
377.674	195.06
377.899	181.06
378.125	187.06
378.35	188.06
378.576	196.06
378.802	213.06
379.027	212.06
379.253	197.06
379.478	217.06
379.704	231.06
379.929	243.06
380.155	231.06
380.38	229.06
380.606	224.06
380.831	230.06
381.057	229.06
381.282	220.06
381.507	235.06
381.733	292.06
381.958	296.06
382.184	315.06
382.409	333.06
382.634	316.06
382.86	329.06
383.085	295.06
383.31	252.06
383.535	264.06
383.761	275.06
383.986	247.06
384.211	275.06
384.436	288.06
384.662	220.06
384.887	224.06
385.112	231.06
385.337	233.06
385.562	243.06
385.787	245.06
386.013	282.06
386.238	285.06
386.463	236.06
386.688	231.06
386.913	224.06
387.138	211.06
387.363	223.06
387.588	221.06
387.813	229.06
388.038	246.06
388.263	235.06
388.488	222.06
388.713	255.06
388.938	285.06
389.163	219.06
389.387	204.06
389.612	221.06
389.837	235.06
390.062	219.06
390.287	232.06
390.512	221.06
390.736	209.06
390.961	208.06
391.186	214.06
391.411	224.06
391.636	219.06
391.86	231.06
392.085	246.06
392.31	241.06
392.534	236.06
392.759	221.06
392.984	247.06
393.208	233.06
393.433	235.06
393.658	213.06
393.882	201.06
394.107	215.06
394.331	194.06
394.556	200.06
394.78	198.06
395.005	197.06
395.229	211.06
395.454	217.06
395.678	208.06
395.903	223.06
396.127	216.06
396.352	216.06
396.576	243.06
396.801	239.06
397.025	251.06
397.249	245.06
397.474	221.06
397.698	237.06
397.922	213.06
398.147	210.06
398.371	224.06
398.595	243.06
398.82	242.06
399.044	223.06
399.268	249.06
399.492	293.06
399.717	309.06
399.941	293.06
400.165	263.06
400.389	253.06
400.613	246.06
400.837	240.06
401.062	231.06
401.286	235.06
401.51	222.06
401.734	213.06
401.958	246.06
402.182	219.06
402.406	231.06
402.63	232.06
402.854	260.06
403.078	270.06
403.302	360.06
403.526	365.06
403.75	343.06
403.974	278.06
404.198	302.06
404.422	294.06
404.645	325.06
404.869	351.06
405.093	301.06
405.317	260.06
405.541	258.06
405.765	252.06
405.988	244.06
406.212	248.06
406.436	279.06
406.66	319.06
406.883	282.06
407.107	277.06
407.331	302.06
407.555	297.06
407.778	269.06
408.002	265.06
408.226	265.06
408.449	278.06
408.673	272.06
408.896	255.06
409.12	247.06
409.344	227.06
409.567	224.06
409.791	225.06
410.014	259.06
410.238	235.06
410.461	220.06
410.685	237.06
410.908	221.06
411.132	231.06
411.355	228.06
411.578	236.06
411.802	236.06
412.025	260.06
412.249	241.06
412.472	225.06
412.695	247.06
412.919	235.06
413.142	252.06
413.365	249.06
413.589	235.06
413.812	251.06
414.035	243.06
414.258	234.06
414.482	275.06
414.705	261.06
414.928	226.06
415.151	225.06
415.374	252.06
415.597	232.06
415.821	248.06
416.044	218.06
416.267	237.06
416.49	224.06
416.713	230.06
416.936	237.06
417.159	212.06
417.382	245.06
417.605	241.06
417.828	230.06
418.051	236.06
418.274	243.06
418.497	254.06
418.72	242.06
418.943	241.06
419.166	235.06
419.389	244.06
419.611	255.06
419.834	249.06
420.057	256.06
420.28	244.06
420.503	268.06
420.726	220.06
420.948	260.06
421.171	220.06
421.394	241.06
421.617	237.06
421.839	240.06
422.062	224.06
422.285	253.06
422.507	222.06
422.73	243.06
422.953	255.06
423.175	237.06
423.398	243.06
423.621	269.06
423.843	270.06
424.066	259.06
424.288	247.06
424.511	241.06
424.733	240.06
424.956	253.06
425.178	256.06
425.401	296.06
425.623	356.06
425.846	318.06
426.068	260.06
426.291	273.06
426.513	240.06
426.735	236.06
426.958	252.06
427.18	280.06
427.402	318.06
427.625	335.06
427.847	293.06
428.069	240.06
428.292	224.06
428.514	220.06
428.736	235.06
428.958	248.06
429.181	302.06
429.403	259.06
429.625	235.06
429.847	214.06
430.069	235.06
430.292	232.06
430.514	227.06
430.736	241.06
430.958	264.06
431.18	230.06
431.402	201.06
431.624	218.06
431.846	227.06
432.068	220.06
432.29	210.06
432.512	240.06
432.734	274.06
432.956	253.06
433.178	205.06
433.4	226.06
433.622	226.06
433.844	228.06
434.066	231.06
434.287	235.06
434.509	237.06
434.731	242.06
434.953	233.06
435.175	241.06
435.397	254.06
435.618	237.06
435.84	221.06
436.062	222.06
436.284	201.06
436.505	217.06
436.727	197.06
436.949	216.06
437.17	215.06
437.392	227.06
437.614	216.06
437.835	206.06
438.057	235.06
438.278	224.06
438.5	292.06
438.721	320.06
438.943	241.06
439.165	213.06
439.386	221.06
439.608	214.06
439.829	209.06
440.05	209.06
440.272	213.06
440.493	231.06
440.715	261.06
440.936	238.06
441.158	226.06
441.379	233.06
441.6	269.06
441.822	275.06
442.043	246.06
442.264	239.06
442.486	214.06
442.707	219.06
442.928	238.06
443.149	243.06
443.371	237.06
443.592	246.06
443.813	222.06
444.034	237.06
444.255	230.06
444.476	238.06
444.698	264.06
444.919	263.06
445.14	369.06
445.361	286.06
445.582	253.06
445.803	236.06
446.024	240.06
446.245	261.06
446.466	265.06
446.687	231.06
446.908	228.06
447.129	229.06
447.35	200.06
447.571	221.06
447.792	214.06
448.013	195.06
448.234	206.06
448.455	204.06
448.675	200.06
448.896	207.06
449.117	219.06
449.338	219.06
449.559	226.06
449.779	222.06
450	217.06
450.221	206.06
450.442	212.06
450.662	211.06
450.883	205.06
451.104	214.06
451.324	210.06
451.545	198.06
451.766	228.06
451.986	215.06
452.207	208.06
452.428	197.06
452.648	197.06
452.869	220.06
453.089	214.06
453.31	227.06
453.53	207.06
453.751	208.06
453.971	212.06
454.192	210.06
454.412	204.06
454.633	192.06
454.853	197.06
455.073	205.06
455.294	195.06
455.514	191.06
455.734	213.06
455.955	201.06
456.175	225.06
456.395	180.06
456.616	200.06
456.836	186.06
457.056	188.06
457.276	189.06
457.497	181.06
457.717	192.06
457.937	193.06
458.157	196.06
458.377	201.06
458.598	184.06
458.818	200.06
459.038	209.06
459.258	217.06
459.478	214.06
459.698	226.06
459.918	243.06
460.138	229.06
460.358	252.06
460.578	254.06
460.798	233.06
461.018	246.06
461.238	235.06
461.458	225.06
461.678	239.06
461.898	254.06
462.118	239.06
462.338	232.06
462.558	273.06
462.777	248.06
462.997	285.06
463.217	296.06
463.437	295.06
463.657	279.06
463.876	271.06
464.096	278.06
464.316	256.06
464.536	261.06
464.755	279.06
464.975	283.06
465.195	259.06
465.414	263.06
465.634	236.06
465.854	244.06
466.073	226.06
466.293	230.06
466.512	227.06
466.732	246.06
466.951	255.06
467.171	227.06
467.391	231.06
467.61	219.06
467.829	216.06
468.049	230.06
468.268	213.06
468.488	212.06
468.707	240.06
468.927	235.06
469.146	245.06
469.365	232.06
469.585	216.06
469.804	244.06
470.023	268.06
470.243	247.06
470.462	235.06
470.681	224.06
470.901	239.06
471.12	225.06
471.339	230.06
471.558	228.06
471.777	232.06
471.997	230.06
472.216	247.06
472.435	253.06
472.654	236.06
472.873	226.06
473.092	236.06
473.311	248.06
473.53	230.06
473.749	223.06
473.968	228.06
474.187	238.06
474.406	219.06
474.625	228.06
474.844	221.06
475.063	239.06
475.282	232.06
475.501	242.06
475.72	267.06
475.939	235.06
476.158	253.06
476.377	299.06
476.596	310.06
476.814	316.06
477.033	277.06
477.252	249.06
477.471	245.06
477.69	236.06
477.908	254.06
478.127	276.06
478.346	264.06
478.564	277.06
478.783	244.06
479.002	256.06
479.22	301.06
479.439	317.06
479.658	278.06
479.876	259.06
480.095	257.06
480.313	285.06
480.532	270.06
480.751	269.06
480.969	270.06
481.188	283.06
481.406	269.06
481.624	278.06
481.843	263.06
482.061	240.06
482.28	270.06
482.498	316.06
482.717	303.06
482.935	257.06
483.153	264.06
483.372	241.06
483.59	268.06
483.808	254.06
484.027	251.06
484.245	232.06
484.463	240.06
484.681	251.06
484.9	275.06
485.118	276.06
485.336	249.06
485.554	250.06
485.772	246.06
485.99	264.06
486.209	292.06
486.427	272.06
486.645	269.06
486.863	297.06
487.081	296.06
487.299	308.06
487.517	279.06
487.735	260.06
487.953	267.06
488.171	286.06
488.389	253.06
488.607	257.06
488.825	252.06
489.043	253.06
489.261	324.06
489.479	324.06
489.696	263.06
489.914	258.06
490.132	261.06
490.35	265.06
490.568	252.06
490.786	265.06
491.003	264.06
491.221	251.06
491.439	253.06
491.657	254.06
491.874	257.06
492.092	309.06
492.31	343.06
492.527	357.06
492.745	304.06
492.963	306.06
493.18	281.06
493.398	303.06
493.615	301.06
493.833	287.06
494.05	271.06
494.268	283.06
494.485	268.06
494.703	259.06
494.92	267.06
495.138	268.06
495.355	266.06
495.573	260.06
495.79	280.06
496.008	360.06
496.225	331.06
496.442	299.06
496.66	299.06
496.877	287.06
497.094	297.06
497.312	287.06
497.529	288.06
497.746	293.06
497.963	304.06
498.181	312.06
498.398	335.06
498.615	337.06
498.832	370.06
499.049	385.06
499.267	381.06
499.484	367.06
499.701	425.06
499.918	442.06
500.135	494.06
500.352	516.06
500.569	565.06
500.786	555.06
501.003	540.06
501.22	463.06
501.437	443.06
501.654	397.06
501.871	383.06
502.088	370.06
502.305	349.06
502.522	340.06
502.739	332.06
502.956	300.06
503.172	301.06
503.389	291.06
503.606	291.06
503.823	293.06
504.04	293.06
504.256	297.06
504.473	304.06
504.69	318.06
504.907	315.06
505.123	311.06
505.34	329.06
505.557	311.06
505.773	274.06
505.99	277.06
506.207	285.06
506.423	275.06
506.64	263.06
506.856	274.06
507.073	308.06
507.289	287.06
507.506	283.06
507.722	304.06
507.939	312.06
508.155	310.06
508.372	265.06
508.588	266.06
508.805	273.06
509.021	260.06
509.238	246.06
509.454	262.06
509.67	261.06
509.887	271.06
510.103	302.06
510.319	279.06
510.536	280.06
510.752	242.06
510.968	244.06
511.184	235.06
511.401	221.06
511.617	244.06
511.833	247.06
512.049	256.06
512.265	246.06
512.481	267.06
512.698	271.06
512.914	287.06
513.13	284.06
513.346	248.06
513.562	256.06
513.778	257.06
513.994	244.06
514.21	280.06
514.426	273.06
514.642	248.06
514.858	242.06
515.074	263.06
515.29	278.06
515.506	320.06
515.721	284.06
515.937	275.06
516.153	255.06
516.369	261.06
516.585	273.06
516.801	293.06
517.016	352.06
517.232	335.06
517.448	341.06
517.664	331.06
517.879	318.06
518.095	318.06
518.311	309.06
518.527	305.06
518.742	325.06
518.958	334.06
519.173	319.06
519.389	310.06
519.605	302.06
519.82	323.06
520.036	315.06
520.251	334.06
520.467	339.06
520.682	543.06
520.898	703.06
521.113	627.06
521.329	389.06
521.544	325.06
521.76	311.06
521.975	295.06
522.19	278.06
522.406	281.06
522.621	307.06
522.836	317.06
523.052	294.06
523.267	285.06
523.482	260.06
523.698	286.06
523.913	284.06
524.128	259.06
524.343	245.06
524.559	275.06
524.774	248.06
524.989	269.06
525.204	277.06
525.419	282.06
525.634	276.06
525.849	280.06
526.064	279.06
526.28	279.06
526.495	316.06
526.71	323.06
526.925	295.06
527.14	281.06
527.355	297.06
527.57	276.06
527.785	273.06
527.999	255.06
528.214	247.06
528.429	260.06
528.644	253.06
528.859	255.06
529.074	244.06
529.289	224.06
529.503	218.06
529.718	218.06
529.933	289.06
530.148	303.06
530.363	250.06
530.577	232.06
530.792	232.06
531.007	232.06
531.221	231.06
531.436	220.06
531.651	259.06
531.865	224.06
532.08	252.06
532.295	235.06
532.509	262.06
532.724	309.06
532.938	297.06
533.153	335.06
533.367	297.06
533.582	289.06
533.796	257.06
534.011	249.06
534.225	238.06
534.44	236.06
534.654	274.06
534.868	320.06
535.083	281.06
535.297	262.06
535.511	253.06
535.726	280.06
535.94	237.06
536.154	257.06
536.369	236.06
536.583	232.06
536.797	262.06
537.011	244.06
537.225	253.06
537.44	270.06
537.654	243.06
537.868	249.06
538.082	232.06
538.296	230.06
538.51	249.06
538.724	239.06
538.938	238.06
539.153	232.06
539.367	235.06
539.581	246.06
539.795	229.06
540.009	266.06
540.222	259.06
540.436	246.06
540.65	255.06
540.864	265.06
541.078	287.06
541.292	332.06
541.506	265.06
541.72	245.06
541.934	238.06
542.147	214.06
542.361	233.06
542.575	250.06
542.789	247.06
543.002	243.06
543.216	249.06
543.43	192.06
543.644	209.06
543.857	227.06
544.071	210.06
544.285	233.06
544.498	221.06
544.712	217.06
544.925	247.06
545.139	242.06
545.352	210.06
545.566	225.06
545.779	251.06
545.993	231.06
546.206	228.06
546.42	213.06
546.633	216.06
546.847	209.06
547.06	224.06
547.274	191.06
547.487	221.06
547.7	222.06
547.914	229.06
548.127	242.06
548.34	235.06
548.554	248.06
548.767	232.06
548.98	253.06
549.193	223.06
549.407	233.06
549.62	265.06
549.833	236.06
550.046	235.06
550.259	282.06
550.473	265.06
550.686	255.06
550.899	243.06
551.112	228.06
551.325	232.06
551.538	245.06
551.751	202.06
551.964	235.06
552.177	231.06
552.39	231.06
552.603	226.06
552.816	230.06
553.029	240.06
553.242	222.06
553.455	244.06
553.667	257.06
553.88	262.06
554.093	244.06
554.306	224.06
554.519	209.06
554.732	209.06
554.944	204.06
555.157	203.06
555.37	215.06
555.583	210.06
555.795	207.06
556.008	217.06
556.221	200.06
556.433	206.06
556.646	216.06
556.859	211.06
557.071	199.06
557.284	190.06
557.496	200.06
557.709	213.06
557.921	187.06
558.134	207.06
558.346	189.06
558.559	207.06
558.771	188.06
558.984	220.06
559.196	204.06
559.409	191.06
559.621	198.06
559.833	197.06
560.046	185.06
560.258	178.06
560.47	204.06
560.683	183.06
560.895	180.06
561.107	190.06
561.32	194.06
561.532	193.06
561.744	205.06
561.956	184.06
562.168	182.06
562.381	181.06
562.593	201.06
562.805	205.06
563.017	194.06
563.229	190.06
563.441	176.06
563.653	191.06
563.865	204.06
564.077	181.06
564.289	191.06
564.501	200.06
564.713	212.06
564.925	205.06
565.137	187.06
565.349	206.06
565.561	221.06
565.773	217.06
565.985	215.06
566.197	217.06
566.408	238.06
566.62	237.06
566.832	249.06
567.044	246.06
567.255	285.06
567.467	279.06
567.679	282.06
567.891	254.06
568.102	291.06
568.314	292.06
568.526	268.06
568.737	254.06
568.949	253.06
569.161	220.06
569.372	204.06
569.584	193.06
569.795	200.06
570.007	195.06
570.218	218.06
570.43	205.06
570.641	200.06
570.853	204.06
571.064	210.06
571.276	192.06
571.487	217.06
571.698	197.06
571.91	193.06
572.121	190.06
572.333	196.06
572.544	195.06
572.755	187.06
572.966	172.06
573.178	180.06
573.389	199.06
573.6	179.06
573.811	184.06
574.023	174.06
574.234	183.06
574.445	186.06
574.656	183.06
574.867	169.06
575.078	181.06
575.289	175.06
575.501	175.06
575.712	178.06
575.923	171.06
576.134	176.06
576.345	165.06
576.556	181.06
576.767	164.06
576.978	163.06
577.188	167.06
577.399	163.06
577.61	175.06
577.821	173.06
578.032	183.06
578.243	165.06
578.454	183.06
578.665	179.06
578.875	183.06
579.086	181.06
579.297	178.06
579.508	161.06
579.718	162.06
579.929	184.06
580.14	171.06
580.35	161.06
580.561	152.06
580.772	156.06
580.982	172.06
581.193	161.06
581.403	146.06
581.614	163.06
581.825	158.06
582.035	154.06
582.246	157.06
582.456	156.06
582.667	151.06
582.877	156.06
583.087	147.06
583.298	155.06
583.508	147.06
583.719	157.06
583.929	161.06
584.139	141.06
584.35	149.06
584.56	151.06
584.77	143.06
584.981	169.06
585.191	148.06
585.401	162.06
585.611	151.06
585.821	162.06
586.032	162.06
586.242	162.06
586.452	145.06
586.662	157.06
586.872	157.06
587.082	152.06
587.292	142.06
587.502	155.06
587.713	153.06
587.923	161.06
588.133	171.06
588.343	159.06
588.553	155.06
588.762	150.06
588.972	171.06
589.182	161.06
589.392	147.06
589.602	152.06
589.812	172.06
590.022	175.06
590.232	181.06
590.441	169.06
590.651	158.06
590.861	153.06
591.071	168.06
591.281	156.06
591.49	161.06
591.7	171.06
591.91	162.06
592.119	161.06
592.329	163.06
592.539	167.06
592.748	165.06
592.958	148.06
593.167	183.06
593.377	176.06
593.587	182.06
593.796	179.06
594.006	169.06
594.215	183.06
594.424	185.06
594.634	196.06
594.843	171.06
595.053	166.06
595.262	159.06
595.472	163.06
595.681	158.06
595.89	157.06
596.1	141.06
596.309	147.06
596.518	148.06
596.727	159.06
596.937	159.06
597.146	146.06
597.355	149.06
597.564	170.06
597.774	146.06
597.983	134.06
598.192	128.06
598.401	157.06
598.61	150.06
598.819	129.06
599.028	164.06
599.237	148.06
599.446	147.06
599.655	145.06
599.864	142.06
600.073	125.06
600.282	149.06
600.491	135.06
600.7	147.06
600.909	141.06
601.118	138.06
601.327	152.06
601.536	150.06
601.745	132.06
601.953	136.06
602.162	139.06
602.371	151.06
602.58	139.06
602.789	125.06
602.997	156.06
603.206	147.06
603.415	134.06
603.623	141.06
603.832	138.06
604.041	131.06
604.249	147.06
604.458	159.06
604.666	130.06
604.875	140.06
605.084	145.06
605.292	131.06
605.501	140.06
605.709	137.06
605.918	147.06
606.126	141.06
606.334	148.06
606.543	128.06
606.751	130.06
606.96	124.06
607.168	130.06
607.376	129.06
607.585	131.06
607.793	141.06
608.001	128.06
608.21	145.06
608.418	147.06
608.626	131.06
608.834	142.06
609.043	142.06
609.251	136.06
609.459	129.06
609.667	139.06
609.875	135.06
610.083	145.06
610.291	135.06
610.499	149.06
610.707	124.06
610.916	120.06
611.124	142.06
611.332	132.06
611.54	135.06
611.748	143.06
611.955	138.06
612.163	144.06
612.371	123.06
612.579	135.06
612.787	133.06
612.995	137.06
613.203	121.06
613.411	133.06
613.618	136.06
613.826	133.06
614.034	145.06
614.242	135.06
614.449	153.06
614.657	134.06
614.865	143.06
615.072	145.06
615.28	124.06
615.488	143.06
615.695	141.06
615.903	128.06
616.111	128.06
616.318	143.06
616.526	139.06
616.733	149.06
616.941	129.06
617.148	123.06
617.356	125.06
617.563	141.06
617.771	129.06
617.978	138.06
618.185	132.06
618.393	131.06
618.6	117.06
618.807	129.06
619.015	125.06
619.222	144.06
619.429	138.06
619.637	121.06
619.844	133.06
620.051	132.06
620.258	109.06
620.466	116.06
620.673	120.06
620.88	120.06
621.087	116.06
621.294	125.06
621.501	120.06
621.708	126.06
621.915	131.06
622.122	129.06
622.329	141.06
622.536	138.06
622.743	128.06
622.95	133.06
623.157	128.06
623.364	124.06
623.571	114.06
623.778	123.06
623.985	123.06
624.192	134.06
624.399	124.06
624.606	122.06
624.812	124.06
625.019	108.06
625.226	131.06
625.433	116.06
625.639	133.06
625.846	143.06
626.053	129.06
626.259	115.06
626.466	121.06
626.673	132.06
626.879	131.06
627.086	133.06
627.293	115.06
627.499	115.06
627.706	116.06
627.912	120.06
628.119	107.06
628.325	124.06
628.532	124.06
628.738	113.06
628.945	127.06
629.151	129.06
629.357	107.06
629.564	105.06
629.77	122.06
629.976	104.06
630.183	109.06
630.389	121.06
630.595	108.06
630.802	123.06
631.008	120.06
631.214	101.06
631.42	109.06
631.627	104.06
631.833	131.06
632.039	128.06
632.245	132.06
632.451	103.06
632.657	112.06
632.863	112.06
633.069	113.06
633.275	113.06
633.481	118.06
633.688	118.06
633.893	116.06
634.099	123.06
634.305	120.06
634.511	119.06
634.717	109.06
634.923	118.06
635.129	114.06
635.335	105.06
635.541	121.06
635.747	123.06
635.952	117.06
636.158	93.06
636.364	109.06
636.57	113.06
636.775	123.06
636.981	120.06
637.187	107.06
637.392	133.06
637.598	119.06
637.804	125.06
638.009	124.06
638.215	107.06
638.421	116.06
638.626	105.06
638.832	111.06
639.037	112.06
639.243	116.06
639.448	119.06
639.654	123.06
639.859	107.06
640.065	119.06
640.27	115.06
640.475	124.06
640.681	101.06
640.886	116.06
641.091	124.06
641.297	115.06
641.502	121.06
641.707	110.06
641.913	118.06
642.118	115.06
642.323	111.06
642.528	112.06
642.733	97.06
642.939	106.06
643.144	103.06
643.349	93.06
643.554	102.06
643.759	117.06
643.964	108.06
644.169	107.06
644.374	104.06
644.579	116.06
644.784	114.06
644.989	104.06
645.194	113.06
645.399	102.06
645.604	111.06
645.809	101.06
646.014	107.06
646.219	115.06
646.423	117.06
646.628	105.06
646.833	107.06
647.038	112.06
647.243	103.06
647.447	119.06
647.652	111.06
647.857	117.06
648.062	109.06
648.266	117.06
648.471	93.06
648.676	116.06
648.88	120.06
649.085	116.06
649.289	119.06
649.494	116.06
649.698	101.06
649.903	100.06
650.107	118.06
650.312	97.06
650.516	101.06
650.721	110.06
650.925	107.06
651.13	100.06
651.334	84.06
651.539	109.06
651.743	113.06
651.947	121.06
652.152	91.06
652.356	110.06
652.56	99.06
652.764	93.06
652.969	82.06
653.173	113.06
653.377	95.06
653.581	91.06
653.785	109.06
653.99	102.06
654.194	84.06
654.398	100.06
654.602	105.06
654.806	101.06
655.01	90.06
655.214	104.06
655.418	97.06
655.622	109.06
655.826	106.06
656.03	98.06
656.234	98.06
656.438	113.06
656.642	103.06
656.846	94.06
657.049	103.06
657.253	99.06
657.457	97.06
657.661	103.06
657.865	90.06
658.068	87.06
658.272	88.06
658.476	88.06
658.68	92.06
658.883	96.06
659.087	79.06
659.291	93.06
659.494	82.06
659.698	83.06
659.901	85.06
660.105	92.06
660.309	99.06
660.512	96.06
660.716	90.06
660.919	90.06
661.123	86.06
661.326	88.06
661.53	81.06
661.733	84.06
661.936	79.06
662.14	77.06
662.343	81.06
662.546	83.06
662.75	92.06
662.953	107.06
663.156	88.06
663.36	88.06
663.563	79.06
663.766	92.06
663.969	84.06
664.173	86.06
664.376	85.06
664.579	81.06
664.782	86.06
664.985	85.06
665.188	76.06
665.391	77.06
665.594	63.06
665.797	70.06
666	81.06
666.203	88.06
666.406	78.06
666.609	82.06
666.812	85.06
667.015	60.06
667.218	60.06
667.421	92.06
667.624	74.06
667.827	93.06
668.03	72.06
668.232	62.06
668.435	80.06
668.638	71.06
668.841	62.06
669.043	93.06
669.246	79.06
669.449	81.06
669.651	94.06
669.854	76.06
670.057	85.06
670.259	90.06
670.462	82.06
670.665	68.06
670.867	89.06
671.07	87.06
671.272	95.06
671.475	84.06
671.677	82.06
671.88	82.06
672.082	90.06
672.284	85.06
672.487	89.06
672.689	92.06
672.892	70.06
