Data from NickelSpatula.Lamp.E10.P2_HRD10591_11-59-17-526.txt Node
Date: Tue Jul 23 11:59:17 EDT 2019
User: cochatt
Spectrometer: HR+D1059
Trigger mode: 1
Integration Time (sec): 1.000000E-1
Scans to average: 1
Electric dark correction enabled: true
Nonlinearity correction enabled: false
Boxcar width: 0
XAxis mode: Wavelengths
Number of Pixels in Spectrum: 2048
>>>>>Begin Spectral Data<<<<<
223.165	-12.62
223.4	-12.62
223.635	-12.62
223.869	-1.62
224.104	-26.62
224.338	-20.62
224.573	-10.62
224.808	0.38
225.042	-4.62
225.277	-13.62
225.511	4.38
225.746	-2.62
225.98	17.38
226.215	-2.62
226.449	9.38
226.683	8.38
226.918	23.38
227.152	32.38
227.387	37.38
227.621	54.38
227.856	47.38
228.09	43.38
228.324	47.38
228.559	51.38
228.793	76.38
229.027	133.38
229.262	147.38
229.496	161.38
229.73	164.38
229.964	202.38
230.199	215.38
230.433	216.38
230.667	199.38
230.901	200.38
231.136	189.38
231.37	200.38
231.604	212.38
231.838	218.38
232.072	256.38
232.306	251.38
232.541	241.38
232.775	259.38
233.009	260.38
233.243	300.38
233.477	308.38
233.711	338.38
233.945	336.38
234.179	318.38
234.413	355.38
234.647	372.38
234.881	458.38
235.115	428.38
235.349	403.38
235.583	360.38
235.817	350.38
236.051	375.38
236.285	429.38
236.519	476.38
236.753	443.38
236.987	438.38
237.221	417.38
237.455	439.38
237.689	444.38
237.922	465.38
238.156	482.38
238.39	575.38
238.624	655.38
238.858	591.38
239.091	468.38
239.325	492.38
239.559	489.38
239.793	551.38
240.027	671.38
240.26	611.38
240.494	589.38
240.728	593.38
240.961	691.38
241.195	646.38
241.429	629.38
241.662	631.38
241.896	506.38
242.13	470.38
242.363	450.38
242.597	464.38
242.83	549.38
243.064	549.38
243.298	586.38
243.531	616.38
243.765	659.38
243.998	631.38
244.232	580.38
244.465	612.38
244.699	582.38
244.932	671.38
245.166	650.38
245.399	566.38
245.633	526.38
245.866	558.38
246.099	608.38
246.333	702.38
246.566	768.38
246.8	771.38
247.033	751.38
247.266	671.38
247.5	692.38
247.733	689.38
247.966	648.38
248.2	698.38
248.433	771.38
248.666	844.38
248.899	839.38
249.133	866.38
249.366	994.38
249.599	1043.38
249.832	939.38
250.066	844.38
250.299	840.38
250.532	847.38
250.765	798.38
250.998	748.38
251.231	739.38
251.465	796.38
251.698	827.38
251.931	795.38
252.164	836.38
252.397	947.38
252.63	1096.38
252.863	1173.38
253.096	1213.38
253.329	1164.38
253.562	1067.38
253.795	1224.38
254.028	1337.38
254.261	1402.38
254.494	1246.38
254.727	1159.38
254.96	1100.38
255.193	1207.38
255.426	1143.38
255.659	874.38
255.892	799.38
256.124	875.38
256.357	1043.38
256.59	1232.38
256.823	1137.38
257.056	969.38
257.289	916.38
257.521	972.38
257.754	1160.38
257.987	1305.38
258.22	1116.38
258.452	1028.38
258.685	1156.38
258.918	1268.38
259.151	1243.38
259.383	1286.38
259.616	1495.38
259.849	1553.38
260.081	1750.38
260.314	1890.38
260.547	1452.38
260.779	1479.38
261.012	1711.38
261.244	1589.38
261.477	1636.38
261.71	1525.38
261.942	1257.38
262.175	1287.38
262.407	1204.38
262.64	1269.38
262.872	1509.38
263.105	1652.38
263.337	1721.38
263.57	1563.38
263.802	1043.38
264.035	871.38
264.267	880.38
264.499	781.38
264.732	728.38
264.964	701.38
265.197	718.38
265.429	761.38
265.661	814.38
265.894	851.38
266.126	926.38
266.358	1020.38
266.591	1221.38
266.823	1485.38
267.055	1439.38
267.287	1234.38
267.52	1239.38
267.752	1300.38
267.984	1415.38
268.216	1379.38
268.448	1139.38
268.681	1097.38
268.913	1208.38
269.145	1296.38
269.377	1298.38
269.609	1260.38
269.841	1205.38
270.073	1269.38
270.306	1372.38
270.538	1385.38
270.77	1383.38
271.002	1398.38
271.234	1465.38
271.466	1512.38
271.698	1445.38
271.93	1422.38
272.162	1453.38
272.394	1427.38
272.626	1401.38
272.858	1499.38
273.09	1512.38
273.322	1336.38
273.553	1285.38
273.785	1545.38
274.017	2019.38
274.249	2508.38
274.481	2537.38
274.713	2831.38
274.945	3196.38
275.176	3296.38
275.408	2879.38
275.64	2672.38
275.872	2681.38
276.104	2246.38
276.335	1948.38
276.567	1878.38
276.799	2001.38
277.031	2085.38
277.262	1584.38
277.494	1213.38
277.726	1199.38
277.957	1318.38
278.189	1495.38
278.421	1491.38
278.652	1425.38
278.884	1357.38
279.115	1258.38
279.347	1208.38
279.579	1194.38
279.81	1204.38
280.042	1169.38
280.273	1243.38
280.505	1174.38
280.736	1034.38
280.968	1004.38
281.199	1081.38
281.431	1217.38
281.662	1233.38
281.894	1165.38
282.125	1234.38
282.356	1347.38
282.588	1380.38
282.819	1255.38
283.051	1403.38
283.282	1689.38
283.513	1958.38
283.745	2191.38
283.976	2154.38
284.207	2035.38
284.439	2022.38
284.67	1993.38
284.901	1777.38
285.132	1916.38
285.364	2018.38
285.595	1881.38
285.826	1967.38
286.057	2066.38
286.288	1928.38
286.52	1999.38
286.751	2130.38
286.982	2087.38
287.213	1838.38
287.444	1727.38
287.675	1832.38
287.906	1822.38
288.138	1544.38
288.369	1348.38
288.6	1278.38
288.831	1325.38
289.062	1558.38
289.293	1663.38
289.524	1585.38
289.755	1590.38
289.986	1638.38
290.217	1378.38
290.448	1119.38
290.679	963.38
290.91	924.38
291.141	921.38
291.371	998.38
291.602	942.38
291.833	945.38
292.064	1073.38
292.295	1216.38
292.526	1401.38
292.757	1441.38
292.987	1553.38
293.218	1566.38
293.449	1589.38
293.68	1691.38
293.91	1561.38
294.141	1629.38
294.372	1506.38
294.603	1448.38
294.833	1555.38
295.064	1840.38
295.295	1716.38
295.525	1285.38
295.756	1139.38
295.987	998.38
296.217	1033.38
296.448	1038.38
296.679	1138.38
296.909	1228.38
297.14	1304.38
297.37	1434.38
297.601	1339.38
297.831	1149.38
298.062	1252.38
298.292	1445.38
298.523	1567.38
298.753	1775.38
298.984	1565.38
299.214	1249.38
299.445	1071.38
299.675	1044.38
299.905	1017.38
300.136	1073.38
300.366	1178.38
300.597	1154.38
300.827	1033.38
301.057	1008.38
301.288	1010.38
301.518	1092.38
301.748	1213.38
301.979	1314.38
302.209	1466.38
302.439	1454.38
302.669	1255.38
302.9	1237.38
303.13	1155.38
303.36	1141.38
303.59	1040.38
303.82	1083.38
304.051	1229.38
304.281	1348.38
304.511	1295.38
304.741	1143.38
304.971	1171.38
305.201	1292.38
305.431	1182.38
305.661	1057.38
305.891	1059.38
306.121	1082.38
306.352	961.38
306.582	864.38
306.812	822.38
307.042	875.38
307.272	827.38
307.502	800.38
307.731	904.38
307.961	929.38
308.191	847.38
308.421	808.38
308.651	803.38
308.881	767.38
309.111	766.38
309.341	816.38
309.571	864.38
309.8	913.38
310.03	943.38
310.26	1007.38
310.49	1012.38
310.72	878.38
310.949	874.38
311.179	864.38
311.409	913.38
311.639	1064.38
311.868	1346.38
312.098	1771.38
312.328	1940.38
312.557	1839.38
312.787	1871.38
313.017	1689.38
313.246	1832.38
313.476	1946.38
313.706	1662.38
313.935	1299.38
314.165	1045.38
314.394	954.38
314.624	971.38
314.853	1020.38
315.083	1025.38
315.312	995.38
315.542	1025.38
315.771	917.38
316.001	856.38
316.23	844.38
316.46	816.38
316.689	845.38
316.919	881.38
317.148	884.38
317.377	836.38
317.607	863.38
317.836	941.38
318.065	1074.38
318.295	1249.38
318.524	1101.38
318.753	980.38
318.983	941.38
319.212	932.38
319.441	1013.38
319.67	1142.38
319.9	1219.38
320.129	1117.38
320.358	988.38
320.587	951.38
320.816	1007.38
321.046	1171.38
321.275	1343.38
321.504	1336.38
321.733	1289.38
321.962	1240.38
322.191	1159.38
322.42	1123.38
322.649	1141.38
322.878	1214.38
323.108	1211.38
323.337	1134.38
323.566	1049.38
323.795	1067.38
324.024	1037.38
324.253	993.38
324.482	962.38
324.71	1073.38
324.939	1209.38
325.168	1126.38
325.397	940.38
325.626	895.38
325.855	938.38
326.084	945.38
326.313	858.38
326.542	851.38
326.77	865.38
326.999	911.38
327.228	992.38
327.457	985.38
327.686	1040.38
327.914	877.38
328.143	838.38
328.372	824.38
328.6	844.38
328.829	857.38
329.058	871.38
329.287	903.38
329.515	893.38
329.744	895.38
329.972	834.38
330.201	824.38
330.43	845.38
330.658	957.38
330.887	1100.38
331.115	1032.38
331.344	990.38
331.572	945.38
331.801	892.38
332.03	867.38
332.258	862.38
332.486	932.38
332.715	963.38
332.943	886.38
333.172	905.38
333.4	908.38
333.629	1025.38
333.857	1074.38
334.085	1073.38
334.314	1133.38
334.542	1063.38
334.771	976.38
334.999	960.38
335.227	925.38
335.455	935.38
335.684	1026.38
335.912	1177.38
336.14	1311.38
336.369	1237.38
336.597	1204.38
336.825	1382.38
337.053	1514.38
337.281	1206.38
337.51	995.38
337.738	974.38
337.966	1085.38
338.194	1202.38
338.422	1118.38
338.65	952.38
338.878	887.38
339.106	885.38
339.334	1033.38
339.562	1088.38
339.79	997.38
340.018	962.38
340.246	1073.38
340.474	1176.38
340.702	1291.38
340.93	1329.38
341.158	1312.38
341.386	1102.38
341.614	1141.38
341.842	1115.38
342.07	1139.38
342.298	1326.38
342.526	1391.38
342.754	1213.38
342.981	1117.38
343.209	1073.38
343.437	1153.38
343.665	1191.38
343.893	1206.38
344.12	1383.38
344.348	1618.38
344.576	1429.38
344.804	1204.38
345.031	1039.38
345.259	980.38
345.487	988.38
345.714	1028.38
345.942	1097.38
346.17	1213.38
346.397	1149.38
346.625	1001.38
346.853	959.38
347.08	937.38
347.308	1005.38
347.535	1115.38
347.763	1160.38
347.99	990.38
348.218	904.38
348.445	984.38
348.673	992.38
348.9	974.38
349.128	1052.38
349.355	1108.38
349.583	1059.38
349.81	1032.38
350.037	934.38
350.265	839.38
350.492	775.38
350.72	788.38
350.947	847.38
351.174	868.38
351.402	964.38
351.629	997.38
351.856	976.38
352.083	849.38
352.311	970.38
352.538	1071.38
352.765	1181.38
352.992	1051.38
353.22	980.38
353.447	1005.38
353.674	971.38
353.901	967.38
354.128	976.38
354.355	1000.38
354.583	1007.38
354.81	980.38
355.037	1023.38
355.264	1008.38
355.491	1087.38
355.718	1175.38
355.945	1126.38
356.172	1104.38
356.399	1080.38
356.626	1333.38
356.853	1628.38
357.08	1727.38
357.307	1765.38
357.534	1387.38
357.761	1400.38
357.988	1783.38
358.215	2090.38
358.441	1951.38
358.668	1643.38
358.895	1519.38
359.122	1233.38
359.349	1220.38
359.576	1324.38
359.802	1101.38
360.029	964.38
360.256	1041.38
360.483	1302.38
360.709	1616.38
360.936	1667.38
361.163	1453.38
361.39	1131.38
361.616	1089.38
361.843	1277.38
362.07	1550.38
362.296	1376.38
362.523	1044.38
362.749	920.38
362.976	966.38
363.203	1225.38
363.429	1384.38
363.656	1087.38
363.882	982.38
364.109	995.38
364.335	978.38
364.562	980.38
364.788	1127.38
365.015	1342.38
365.241	1148.38
365.468	950.38
365.694	843.38
365.92	821.38
366.147	792.38
366.373	767.38
366.599	783.38
366.826	804.38
367.052	811.38
367.278	859.38
367.505	839.38
367.731	923.38
367.957	1023.38
368.184	1022.38
368.41	1029.38
368.636	1040.38
368.862	1073.38
369.089	1037.38
369.315	886.38
369.541	892.38
369.767	879.38
369.993	840.38
370.219	847.38
370.445	917.38
370.672	1029.38
370.898	1107.38
371.124	1088.38
371.35	961.38
371.576	893.38
371.802	976.38
372.028	1191.38
372.254	1368.38
372.48	1186.38
372.706	1024.38
372.932	1113.38
373.158	1176.38
373.384	1380.38
373.61	1843.38
373.835	1879.38
374.061	1392.38
374.287	1177.38
374.513	1426.38
374.739	1677.38
374.965	1724.38
375.191	1661.38
375.416	1166.38
375.642	1029.38
375.868	1240.38
376.094	1387.38
376.319	1180.38
376.545	1313.38
376.771	1384.38
376.997	1158.38
377.222	871.38
377.448	739.38
377.674	731.38
377.899	751.38
378.125	768.38
378.35	769.38
378.576	774.38
378.802	833.38
379.027	921.38
379.253	893.38
379.478	912.38
379.704	1036.38
379.929	1087.38
380.155	1119.38
380.38	954.38
380.606	1021.38
380.831	1135.38
381.057	1027.38
381.282	972.38
381.507	1155.38
381.733	1492.38
381.958	1517.38
382.184	1652.38
382.409	1720.38
382.634	1689.38
382.86	1783.38
383.085	1468.38
383.31	1151.38
383.535	1208.38
383.761	1221.38
383.986	1192.38
384.211	1405.38
384.436	1377.38
384.662	1053.38
384.887	996.38
385.112	1039.38
385.337	1064.38
385.562	977.38
385.787	1096.38
386.013	1247.38
386.238	1279.38
386.463	1035.38
386.688	994.38
386.913	947.38
387.138	872.38
387.363	962.38
387.588	1010.38
387.813	999.38
388.038	1138.38
388.263	976.38
388.488	959.38
388.713	1131.38
388.938	1235.38
389.163	996.38
389.387	914.38
389.612	922.38
389.837	943.38
390.062	960.38
390.287	993.38
390.512	1024.38
390.736	926.38
390.961	881.38
391.186	870.38
391.411	819.38
391.636	857.38
391.86	923.38
392.085	999.38
392.31	1020.38
392.534	963.38
392.759	931.38
392.984	981.38
393.208	985.38
393.433	871.38
393.658	797.38
393.882	788.38
394.107	793.38
394.331	771.38
394.556	807.38
394.78	827.38
395.005	837.38
395.229	853.38
395.454	886.38
395.678	910.38
395.903	916.38
396.127	876.38
396.352	893.38
396.576	974.38
396.801	1008.38
397.025	1107.38
397.249	1140.38
397.474	931.38
397.698	917.38
397.922	965.38
398.147	940.38
398.371	924.38
398.595	966.38
398.82	951.38
399.044	943.38
399.268	1014.38
399.492	1017.38
399.717	1056.38
399.941	1093.38
400.165	1072.38
400.389	1053.38
400.613	1058.38
400.837	1051.38
401.062	912.38
401.286	892.38
401.51	902.38
401.734	928.38
401.958	908.38
402.182	905.38
402.406	916.38
402.63	912.38
402.854	937.38
403.078	1059.38
403.302	1306.38
403.526	1354.38
403.75	1182.38
403.974	1024.38
404.198	1097.38
404.422	1253.38
404.645	1460.38
404.869	1595.38
405.093	1139.38
405.317	993.38
405.541	979.38
405.765	1025.38
405.988	1027.38
406.212	1091.38
406.436	1290.38
406.66	1451.38
406.883	1165.38
407.107	1149.38
407.331	1352.38
407.555	1289.38
407.778	1090.38
408.002	1053.38
408.226	1044.38
408.449	1045.38
408.673	1015.38
408.896	943.38
409.12	923.38
409.344	928.38
409.567	877.38
409.791	923.38
410.014	884.38
410.238	899.38
410.461	887.38
410.685	893.38
410.908	907.38
411.132	915.38
411.355	932.38
411.578	945.38
411.802	957.38
412.025	1001.38
412.249	994.38
412.472	957.38
412.695	962.38
412.919	991.38
413.142	991.38
413.365	1050.38
413.589	1087.38
413.812	951.38
414.035	902.38
414.258	910.38
414.482	1070.38
414.705	1069.38
414.928	903.38
415.151	872.38
415.374	876.38
415.597	929.38
415.821	919.38
416.044	879.38
416.267	900.38
416.49	871.38
416.713	855.38
416.936	869.38
417.159	862.38
417.382	894.38
417.605	905.38
417.828	922.38
418.051	912.38
418.274	947.38
418.497	941.38
418.72	948.38
418.943	958.38
419.166	1009.38
419.389	1008.38
419.611	982.38
419.834	1019.38
420.057	1114.38
420.28	1139.38
420.503	1041.38
420.726	927.38
420.948	865.38
421.171	877.38
421.394	889.38
421.617	871.38
421.839	895.38
422.062	929.38
422.285	956.38
422.507	931.38
422.73	965.38
422.953	967.38
423.175	936.38
423.398	948.38
423.621	1012.38
423.843	1042.38
424.066	964.38
424.288	963.38
424.511	914.38
424.733	910.38
424.956	964.38
425.178	1105.38
425.401	1249.38
425.623	1400.38
425.846	1166.38
426.068	991.38
426.291	1117.38
426.513	1043.38
426.735	965.38
426.958	981.38
427.18	1175.38
427.402	1529.38
427.625	1467.38
427.847	1195.38
428.069	877.38
428.292	919.38
428.514	910.38
428.736	869.38
428.958	937.38
429.181	1126.38
429.403	976.38
429.625	915.38
429.847	858.38
430.069	875.38
430.292	909.38
430.514	889.38
430.736	936.38
430.958	1230.38
431.18	1086.38
431.402	860.38
431.624	798.38
431.846	813.38
432.068	783.38
432.29	804.38
432.512	947.38
432.734	1265.38
432.956	1146.38
433.178	886.38
433.4	831.38
433.622	840.38
433.844	862.38
434.066	946.38
434.287	924.38
434.509	869.38
434.731	918.38
434.953	873.38
435.175	897.38
435.397	1046.38
435.618	903.38
435.84	838.38
436.062	808.38
436.284	829.38
436.505	805.38
436.727	770.38
436.949	785.38
437.17	813.38
437.392	852.38
437.614	827.38
437.835	825.38
438.057	835.38
438.278	959.38
438.5	1403.38
438.721	1392.38
438.943	933.38
439.165	830.38
439.386	787.38
439.608	809.38
439.829	775.38
440.05	780.38
440.272	861.38
440.493	1017.38
440.715	1243.38
440.936	994.38
441.158	854.38
441.379	858.38
441.6	959.38
441.822	1037.38
442.043	892.38
442.264	841.38
442.486	870.38
442.707	840.38
442.928	874.38
443.149	905.38
443.371	887.38
443.592	923.38
443.813	943.38
444.034	913.38
444.255	901.38
444.476	963.38
444.698	919.38
444.919	958.38
445.14	1039.38
445.361	1029.38
445.582	957.38
445.803	919.38
446.024	943.38
446.245	955.38
446.466	906.38
446.687	879.38
446.908	881.38
447.129	823.38
447.35	818.38
447.571	816.38
447.792	806.38
448.013	809.38
448.234	786.38
448.455	802.38
448.675	797.38
448.896	800.38
449.117	800.38
449.338	817.38
449.559	825.38
449.779	869.38
450	841.38
450.221	833.38
450.442	796.38
450.662	793.38
450.883	783.38
451.104	792.38
451.324	788.38
451.545	805.38
451.766	802.38
451.986	786.38
452.207	747.38
452.428	772.38
452.648	780.38
452.869	814.38
453.089	859.38
453.31	862.38
453.53	757.38
453.751	779.38
453.971	756.38
454.192	785.38
454.412	796.38
454.633	765.38
454.853	779.38
455.073	732.38
455.294	744.38
455.514	742.38
455.734	773.38
455.955	803.38
456.175	821.38
456.395	756.38
456.616	671.38
456.836	694.38
457.056	699.38
457.276	688.38
457.497	696.38
457.717	717.38
457.937	734.38
458.157	725.38
458.377	726.38
458.598	748.38
458.818	759.38
459.038	820.38
459.258	832.38
459.478	849.38
459.698	895.38
459.918	912.38
460.138	864.38
460.358	910.38
460.578	846.38
460.798	899.38
461.018	923.38
461.238	879.38
461.458	876.38
461.678	856.38
461.898	915.38
462.118	911.38
462.338	943.38
462.558	948.38
462.777	972.38
462.997	1000.38
463.217	1027.38
463.437	1043.38
463.657	1000.38
463.876	931.38
464.096	948.38
464.316	962.38
464.536	971.38
464.755	1003.38
464.975	1031.38
465.195	948.38
465.414	1006.38
465.634	967.38
465.854	922.38
466.073	846.38
466.293	865.38
466.512	931.38
466.732	1003.38
466.951	1032.38
467.171	936.38
467.391	907.38
467.61	864.38
467.829	921.38
468.049	917.38
468.268	885.38
468.488	876.38
468.707	879.38
468.927	1032.38
469.146	1155.38
469.365	1044.38
469.585	954.38
469.804	1007.38
470.023	1096.38
470.243	978.38
470.462	911.38
470.681	908.38
470.901	920.38
471.12	977.38
471.339	969.38
471.558	923.38
471.777	929.38
471.997	990.38
472.216	1102.38
472.435	1081.38
472.654	966.38
472.873	943.38
473.092	1033.38
473.311	1019.38
473.53	923.38
473.749	930.38
473.968	983.38
474.187	964.38
474.406	959.38
474.625	920.38
474.844	950.38
475.063	1062.38
475.282	1046.38
475.501	1053.38
475.72	1102.38
475.939	1124.38
476.158	1074.38
476.377	1243.38
476.596	1465.38
476.814	1473.38
477.033	1220.38
477.252	1050.38
477.471	1007.38
477.69	1004.38
477.908	1127.38
478.127	1141.38
478.346	1025.38
478.564	1169.38
478.783	1084.38
479.002	1098.38
479.22	1289.38
479.439	1429.38
479.658	1243.38
479.876	1125.38
480.095	1197.38
480.313	1235.38
480.532	1136.38
480.751	1078.38
480.969	1125.38
481.188	1290.38
481.406	1327.38
481.624	1218.38
481.843	1128.38
482.061	1079.38
482.28	1181.38
482.498	1448.38
482.717	1362.38
482.935	1185.38
483.153	1115.38
483.372	1064.38
483.59	1068.38
483.808	1044.38
484.027	1032.38
484.245	984.38
484.463	988.38
484.681	1015.38
484.9	1105.38
485.118	1192.38
485.336	1088.38
485.554	1070.38
485.772	1078.38
485.99	1191.38
486.209	1239.38
486.427	1228.38
486.645	1184.38
486.863	1251.38
487.081	1227.38
487.299	1356.38
487.517	1309.38
487.735	1218.38
487.953	1217.38
488.171	1254.38
488.389	1190.38
488.607	1096.38
488.825	1182.38
489.043	1291.38
489.261	1468.38
489.479	1568.38
489.696	1296.38
489.914	1169.38
490.132	1122.38
490.35	1121.38
490.568	1147.38
490.786	1113.38
491.003	1124.38
491.221	1175.38
491.439	1139.38
491.657	1144.38
491.874	1219.38
492.092	1497.38
492.31	1874.38
492.527	1788.38
492.745	1515.38
492.963	1327.38
493.18	1277.38
493.398	1282.38
493.615	1259.38
493.833	1251.38
494.05	1225.38
494.268	1275.38
494.485	1264.38
494.703	1193.38
494.92	1247.38
495.138	1188.38
495.355	1203.38
495.573	1252.38
495.79	1384.38
496.008	1817.38
496.225	1572.38
496.442	1378.38
496.66	1352.38
496.877	1426.38
497.094	1413.38
497.312	1310.38
497.529	1327.38
497.746	1340.38
497.963	1383.38
498.181	1502.38
498.398	1611.38
498.615	1619.38
498.832	1714.38
499.049	1692.38
499.267	1558.38
499.484	1508.38
499.701	1568.38
499.918	1733.38
500.135	1851.38
500.352	1892.38
500.569	1963.38
500.786	2043.38
501.003	2030.38
501.22	1833.38
501.437	1721.38
501.654	1653.38
501.871	1644.38
502.088	1672.38
502.305	1512.38
502.522	1467.38
502.739	1462.38
502.956	1370.38
503.172	1345.38
503.389	1294.38
503.606	1259.38
503.823	1293.38
504.04	1293.38
504.256	1297.38
504.473	1341.38
504.69	1370.38
504.907	1402.38
505.123	1387.38
505.34	1440.38
505.557	1433.38
505.773	1328.38
505.99	1298.38
506.207	1357.38
506.423	1269.38
506.64	1173.38
506.856	1243.38
507.073	1351.38
507.289	1350.38
507.506	1327.38
507.722	1416.38
507.939	1447.38
508.155	1483.38
508.372	1300.38
508.588	1298.38
508.805	1236.38
509.021	1237.38
509.238	1163.38
509.454	1197.38
509.67	1157.38
509.887	1205.38
510.103	1336.38
510.319	1337.38
510.536	1184.38
510.752	1086.38
510.968	1067.38
511.184	1013.38
511.401	1044.38
511.617	1056.38
511.833	1020.38
512.049	1089.38
512.265	1095.38
512.481	1141.38
512.698	1259.38
512.914	1348.38
513.13	1239.38
513.346	1139.38
513.562	1187.38
513.778	1199.38
513.994	1122.38
514.21	1247.38
514.426	1208.38
514.642	1151.38
514.858	1137.38
515.074	1204.38
515.29	1294.38
515.506	1423.38
515.721	1310.38
515.937	1258.38
516.153	1170.38
516.369	1155.38
516.585	1239.38
516.801	1410.38
517.016	1612.38
517.232	1566.38
517.448	1548.38
517.664	1382.38
517.879	1285.38
518.095	1261.38
518.311	1264.38
518.527	1314.38
518.742	1413.38
518.958	1453.38
519.173	1399.38
519.389	1406.38
519.605	1397.38
519.82	1517.38
520.036	1737.38
520.251	1720.38
520.467	1616.38
520.682	2440.38
520.898	2943.38
521.113	2778.38
521.329	1776.38
521.544	1553.38
521.76	1533.38
521.975	1331.38
522.19	1283.38
522.406	1333.38
522.621	1479.38
522.836	1522.38
523.052	1585.38
523.267	1267.38
523.482	1291.38
523.698	1377.38
523.913	1358.38
524.128	1244.38
524.343	1196.38
524.559	1198.38
524.774	1124.38
524.989	1163.38
525.204	1191.38
525.419	1309.38
525.634	1220.38
525.849	1264.38
526.064	1255.38
526.28	1239.38
526.495	1500.38
526.71	1535.38
526.925	1392.38
527.14	1444.38
527.355	1387.38
527.57	1147.38
527.785	1186.38
527.999	1190.38
528.214	1115.38
528.429	1056.38
528.644	1075.38
528.859	1037.38
529.074	982.38
529.289	977.38
529.503	982.38
529.718	1017.38
529.933	1173.38
530.148	1213.38
530.363	1046.38
530.577	1029.38
530.792	992.38
531.007	1007.38
531.221	961.38
531.436	956.38
531.651	985.38
531.865	1021.38
532.08	1041.38
532.295	983.38
532.509	1040.38
532.724	1206.38
532.938	1317.38
533.153	1511.38
533.367	1251.38
533.582	1170.38
533.796	1063.38
534.011	1032.38
534.225	1092.38
534.44	1076.38
534.654	1123.38
534.868	1273.38
535.083	1128.38
535.297	1027.38
535.511	1032.38
535.726	1139.38
535.94	1070.38
536.154	1031.38
536.369	988.38
536.583	995.38
536.797	1028.38
537.011	1006.38
537.225	1109.38
537.44	1194.38
537.654	1059.38
537.868	1019.38
538.082	1012.38
538.296	1011.38
538.51	1089.38
538.724	1105.38
538.938	1058.38
539.153	1007.38
539.367	987.38
539.581	999.38
539.795	1055.38
540.009	1175.38
540.222	1066.38
540.436	1055.38
540.65	1156.38
540.864	1179.38
541.078	1191.38
541.292	1348.38
541.506	1135.38
541.72	1083.38
541.934	1032.38
542.147	1008.38
542.361	1043.38
542.575	1076.38
542.789	1060.38
543.002	984.38
543.216	1102.38
543.43	960.38
543.644	961.38
543.857	958.38
544.071	950.38
544.285	959.38
544.498	918.38
544.712	921.38
544.925	986.38
545.139	950.38
545.352	915.38
545.566	944.38
545.779	1070.38
545.993	967.38
546.206	908.38
546.42	895.38
546.633	908.38
546.847	857.38
547.06	878.38
547.274	849.38
547.487	881.38
547.7	984.38
547.914	1040.38
548.127	1098.38
548.34	1093.38
548.554	928.38
548.767	1021.38
548.98	1065.38
549.193	981.38
549.407	989.38
549.62	1203.38
549.833	1118.38
550.046	1155.38
550.259	1165.38
550.473	1005.38
550.686	997.38
550.899	1010.38
551.112	971.38
551.325	1054.38
551.538	1099.38
551.751	944.38
551.964	883.38
552.177	889.38
552.39	866.38
552.603	880.38
552.816	914.38
553.029	873.38
553.242	877.38
553.455	922.38
553.667	1051.38
553.88	961.38
554.093	891.38
554.306	829.38
554.519	792.38
554.732	807.38
554.944	787.38
555.157	776.38
555.37	785.38
555.583	784.38
555.795	772.38
556.008	773.38
556.221	799.38
556.433	789.38
556.646	783.38
556.859	762.38
557.071	823.38
557.284	832.38
557.496	836.38
557.709	820.38
557.921	809.38
558.134	720.38
558.346	715.38
558.559	747.38
558.771	771.38
558.984	849.38
559.196	795.38
559.409	721.38
559.621	705.38
559.833	710.38
560.046	734.38
560.258	727.38
560.47	765.38
560.683	694.38
560.895	669.38
561.107	680.38
561.32	675.38
561.532	699.38
561.744	770.38
561.956	800.38
562.168	685.38
562.381	701.38
562.593	724.38
562.805	740.38
563.017	692.38
563.229	687.38
563.441	676.38
563.653	697.38
563.865	680.38
564.077	685.38
564.289	660.38
564.501	711.38
564.713	763.38
564.925	735.38
565.137	684.38
565.349	703.38
565.561	705.38
565.773	696.38
565.985	752.38
566.197	797.38
566.408	854.38
566.62	859.38
566.832	831.38
567.044	861.38
567.255	886.38
567.467	972.38
567.679	875.38
567.891	855.38
568.102	903.38
568.314	909.38
568.526	839.38
568.737	822.38
568.949	847.38
569.161	751.38
569.372	702.38
569.584	691.38
569.795	661.38
570.007	690.38
570.218	750.38
570.43	733.38
570.641	700.38
570.853	662.38
571.064	665.38
571.276	700.38
571.487	708.38
571.698	694.38
571.91	649.38
572.121	656.38
572.333	628.38
572.544	611.38
572.755	629.38
572.966	603.38
573.178	597.38
573.389	638.38
573.6	612.38
573.811	625.38
574.023	583.38
574.234	571.38
574.445	578.38
574.656	598.38
574.867	592.38
575.078	593.38
575.289	596.38
575.501	641.38
575.712	586.38
575.923	549.38
576.134	535.38
576.345	555.38
576.556	548.38
576.767	541.38
576.978	509.38
577.188	516.38
577.399	526.38
577.61	525.38
577.821	546.38
578.032	529.38
578.243	575.38
578.454	598.38
578.665	564.38
578.875	554.38
579.086	539.38
579.297	564.38
579.508	566.38
579.718	556.38
579.929	536.38
580.14	521.38
580.35	500.38
580.561	496.38
580.772	470.38
580.982	469.38
581.193	494.38
581.403	453.38
581.614	475.38
581.825	460.38
582.035	465.38
582.246	472.38
582.456	457.38
582.667	469.38
582.877	463.38
583.087	489.38
583.298	462.38
583.508	459.38
583.719	458.38
583.929	456.38
584.139	457.38
584.35	454.38
584.56	479.38
584.77	474.38
584.981	474.38
585.191	467.38
585.401	451.38
585.611	494.38
585.821	467.38
586.032	477.38
586.242	470.38
586.452	477.38
586.662	461.38
586.872	503.38
587.082	478.38
587.292	461.38
587.502	466.38
587.713	466.38
587.923	467.38
588.133	516.38
588.343	503.38
588.553	461.38
588.762	448.38
588.972	472.38
589.182	471.38
589.392	458.38
589.602	454.38
589.812	468.38
590.022	508.38
590.232	500.38
590.441	465.38
590.651	448.38
590.861	445.38
591.071	468.38
591.281	454.38
591.49	435.38
591.7	463.38
591.91	477.38
592.119	464.38
592.329	445.38
592.539	462.38
592.748	469.38
592.958	453.38
593.167	452.38
593.377	481.38
593.587	482.38
593.796	463.38
594.006	479.38
594.215	490.38
594.424	504.38
594.634	517.38
594.843	493.38
595.053	456.38
595.262	437.38
595.472	430.38
595.681	431.38
595.89	431.38
596.1	448.38
596.309	443.38
596.518	413.38
596.727	425.38
596.937	418.38
597.146	425.38
597.355	452.38
597.564	424.38
597.774	408.38
597.983	418.38
598.192	391.38
598.401	391.38
598.61	379.38
598.819	389.38
599.028	372.38
599.237	393.38
599.446	383.38
599.655	365.38
599.864	374.38
600.073	395.38
600.282	387.38
600.491	389.38
600.7	391.38
600.909	387.38
601.118	360.38
601.327	371.38
601.536	384.38
601.745	397.38
601.953	390.38
602.162	393.38
602.371	430.38
602.58	412.38
602.789	386.38
602.997	394.38
603.206	393.38
603.415	368.38
603.623	357.38
603.832	358.38
604.041	377.38
604.249	366.38
604.458	404.38
604.666	367.38
604.875	352.38
605.084	342.38
605.292	345.38
605.501	373.38
605.709	368.38
605.918	356.38
606.126	365.38
606.334	351.38
606.543	358.38
606.751	353.38
606.96	362.38
607.168	332.38
607.376	347.38
607.585	339.38
607.793	375.38
608.001	348.38
608.21	346.38
608.418	352.38
608.626	361.38
608.834	345.38
609.043	336.38
609.251	350.38
609.459	336.38
609.667	329.38
609.875	337.38
610.083	352.38
610.291	365.38
610.499	373.38
610.707	346.38
610.916	328.38
611.124	324.38
611.332	342.38
611.54	345.38
611.748	340.38
611.955	342.38
612.163	344.38
612.371	346.38
612.579	321.38
612.787	320.38
612.995	332.38
613.203	332.38
613.411	320.38
613.618	333.38
613.826	353.38
614.034	366.38
614.242	343.38
614.449	328.38
614.657	328.38
614.865	327.38
615.072	326.38
615.28	334.38
615.488	332.38
615.695	320.38
615.903	320.38
616.111	317.38
616.318	320.38
616.526	325.38
616.733	335.38
616.941	355.38
617.148	325.38
617.356	313.38
617.563	308.38
617.771	319.38
617.978	320.38
618.185	325.38
618.393	310.38
618.6	301.38
618.807	311.38
619.015	316.38
619.222	309.38
619.429	349.38
619.637	317.38
619.844	303.38
620.051	327.38
620.258	313.38
620.466	296.38
620.673	300.38
620.88	288.38
621.087	285.38
621.294	285.38
621.501	306.38
621.708	288.38
621.915	291.38
622.122	275.38
622.329	303.38
622.536	288.38
622.743	290.38
622.95	294.38
623.157	286.38
623.364	297.38
623.571	311.38
623.778	313.38
623.985	312.38
624.192	310.38
624.399	308.38
624.606	290.38
624.812	289.38
625.019	281.38
625.226	308.38
625.433	308.38
625.639	285.38
625.846	273.38
626.053	266.38
626.259	284.38
626.466	280.38
626.673	290.38
626.879	279.38
627.086	275.38
627.293	259.38
627.499	269.38
627.706	292.38
627.912	271.38
628.119	257.38
628.325	273.38
628.532	248.38
628.738	268.38
628.945	251.38
629.151	263.38
629.357	259.38
629.564	272.38
629.77	271.38
629.976	236.38
630.183	255.38
630.389	255.38
630.595	264.38
630.802	246.38
631.008	257.38
631.214	225.38
631.42	260.38
631.627	258.38
631.833	271.38
632.039	248.38
632.245	236.38
632.451	251.38
632.657	225.38
632.863	244.38
633.069	237.38
633.275	253.38
633.481	254.38
633.688	248.38
633.893	252.38
634.099	237.38
634.305	232.38
634.511	257.38
634.717	243.38
634.923	239.38
635.129	244.38
635.335	227.38
635.541	223.38
635.747	227.38
635.952	245.38
636.158	237.38
636.364	238.38
636.57	227.38
636.775	217.38
636.981	230.38
637.187	228.38
637.392	243.38
637.598	227.38
637.804	238.38
638.009	228.38
638.215	229.38
638.421	237.38
638.626	213.38
638.832	225.38
639.037	217.38
639.243	212.38
639.448	232.38
639.654	225.38
639.859	228.38
640.065	219.38
640.27	245.38
640.475	218.38
640.681	213.38
640.886	223.38
641.091	216.38
641.297	242.38
641.502	231.38
641.707	213.38
641.913	222.38
642.118	209.38
642.323	222.38
642.528	236.38
642.733	231.38
642.939	214.38
643.144	223.38
643.349	204.38
643.554	232.38
643.759	209.38
643.964	199.38
644.169	212.38
644.374	207.38
644.579	222.38
644.784	221.38
644.989	206.38
645.194	209.38
645.399	182.38
645.604	222.38
645.809	223.38
646.014	211.38
646.219	207.38
646.423	221.38
646.628	206.38
646.833	206.38
647.038	205.38
647.243	216.38
647.447	221.38
647.652	210.38
647.857	208.38
648.062	199.38
648.266	204.38
648.471	221.38
648.676	209.38
648.88	217.38
649.085	211.38
649.289	196.38
649.494	213.38
649.698	217.38
649.903	217.38
650.107	195.38
650.312	211.38
650.516	188.38
650.721	186.38
650.925	183.38
651.13	185.38
651.334	199.38
651.539	193.38
651.743	185.38
651.947	183.38
652.152	175.38
652.356	176.38
652.56	169.38
652.764	177.38
652.969	181.38
653.173	177.38
653.377	167.38
653.581	166.38
653.785	168.38
653.99	166.38
654.194	144.38
654.398	171.38
654.602	161.38
654.806	157.38
655.01	158.38
655.214	174.38
655.418	153.38
655.622	173.38
655.826	165.38
656.03	163.38
656.234	176.38
656.438	158.38
656.642	173.38
656.846	168.38
657.049	144.38
657.253	146.38
657.457	142.38
657.661	132.38
657.865	133.38
658.068	138.38
658.272	118.38
658.476	130.38
658.68	123.38
658.883	115.38
659.087	100.38
659.291	91.38
659.494	98.38
659.698	108.38
659.901	105.38
660.105	103.38
660.309	103.38
660.512	110.38
660.716	107.38
660.919	94.38
661.123	107.38
661.326	88.38
661.53	91.38
661.733	116.38
661.936	96.38
662.14	100.38
662.343	94.38
662.546	75.38
662.75	97.38
662.953	97.38
663.156	93.38
663.36	84.38
663.563	91.38
663.766	74.38
663.969	90.38
664.173	94.38
664.376	98.38
664.579	73.38
664.782	88.38
664.985	87.38
665.188	84.38
665.391	98.38
665.594	84.38
665.797	97.38
666	85.38
666.203	84.38
666.406	73.38
666.609	72.38
666.812	86.38
667.015	71.38
667.218	74.38
667.421	76.38
667.624	89.38
667.827	95.38
668.03	80.38
668.232	95.38
668.435	66.38
668.638	96.38
668.841	84.38
669.043	69.38
669.246	91.38
669.449	79.38
669.651	87.38
669.854	75.38
670.057	69.38
670.259	72.38
670.462	72.38
670.665	82.38
670.867	92.38
671.07	71.38
671.272	95.38
671.475	88.38
671.677	87.38
671.88	74.38
672.082	61.38
672.284	97.38
672.487	87.38
672.689	96.38
672.892	84.38
