Data from NickelSpatula.Lamp.E10.P2_HRD10591_11-57-36-533.txt Node
Date: Tue Jul 23 11:57:36 EDT 2019
User: cochatt
Spectrometer: HR+D1059
Trigger mode: 1
Integration Time (sec): 1.000000E-1
Scans to average: 1
Electric dark correction enabled: true
Nonlinearity correction enabled: false
Boxcar width: 0
XAxis mode: Wavelengths
Number of Pixels in Spectrum: 2048
>>>>>Begin Spectral Data<<<<<
223.165	-9.94
223.4	-9.94
223.635	-9.94
223.869	-6.94
224.104	-23.94
224.338	-27.94
224.573	-5.94
224.808	-7.94
225.042	-6.94
225.277	-10.94
225.511	-14.94
225.746	-9.94
225.98	24.06
226.215	18.06
226.449	30.06
226.683	15.06
226.918	14.06
227.152	24.06
227.387	28.06
227.621	28.06
227.856	44.06
228.09	45.06
228.324	61.06
228.559	59.06
228.793	83.06
229.027	154.06
229.262	168.06
229.496	155.06
229.73	168.06
229.964	183.06
230.199	228.06
230.433	246.06
230.667	217.06
230.901	216.06
231.136	211.06
231.37	211.06
231.604	219.06
231.838	254.06
232.072	233.06
232.306	241.06
232.541	249.06
232.775	252.06
233.009	270.06
233.243	309.06
233.477	314.06
233.711	346.06
233.945	348.06
234.179	338.06
234.413	356.06
234.647	381.06
234.881	469.06
235.115	420.06
235.349	415.06
235.583	363.06
235.817	349.06
236.051	378.06
236.285	412.06
236.519	465.06
236.753	440.06
236.987	436.06
237.221	402.06
237.455	426.06
237.689	446.06
237.922	477.06
238.156	488.06
238.39	568.06
238.624	686.06
238.858	590.06
239.091	512.06
239.325	503.06
239.559	491.06
239.793	538.06
240.027	662.06
240.26	612.06
240.494	594.06
240.728	589.06
240.961	689.06
241.195	658.06
241.429	634.06
241.662	633.06
241.896	551.06
242.13	512.06
242.363	458.06
242.597	488.06
242.83	541.06
243.064	518.06
243.298	602.06
243.531	649.06
243.765	667.06
243.998	629.06
244.232	613.06
244.465	640.06
244.699	596.06
244.932	678.06
245.166	636.06
245.399	576.06
245.633	549.06
245.866	560.06
246.099	598.06
246.333	733.06
246.566	782.06
246.8	784.06
247.033	731.06
247.266	697.06
247.5	706.06
247.733	680.06
247.966	659.06
248.2	692.06
248.433	790.06
248.666	879.06
248.899	859.06
249.133	881.06
249.366	998.06
249.599	1085.06
249.832	938.06
250.066	825.06
250.299	843.06
250.532	832.06
250.765	778.06
250.998	736.06
251.231	726.06
251.465	782.06
251.698	813.06
251.931	829.06
252.164	852.06
252.397	956.06
252.63	1065.06
252.863	1164.06
253.096	1228.06
253.329	1147.06
253.562	1109.06
253.795	1248.06
254.028	1364.06
254.261	1435.06
254.494	1290.06
254.727	1168.06
254.96	1128.06
255.193	1207.06
255.426	1154.06
255.659	874.06
255.892	790.06
256.124	910.06
256.357	1036.06
256.59	1199.06
256.823	1160.06
257.056	1002.06
257.289	940.06
257.521	980.06
257.754	1141.06
257.987	1320.06
258.22	1138.06
258.452	1019.06
258.685	1177.06
258.918	1303.06
259.151	1277.06
259.383	1350.06
259.616	1518.06
259.849	1586.06
260.081	1731.06
260.314	1863.06
260.547	1466.06
260.779	1511.06
261.012	1776.06
261.244	1629.06
261.477	1683.06
261.71	1597.06
261.942	1324.06
262.175	1310.06
262.407	1224.06
262.64	1284.06
262.872	1506.06
263.105	1675.06
263.337	1755.06
263.57	1574.06
263.802	1028.06
264.035	920.06
264.267	887.06
264.499	790.06
264.732	696.06
264.964	690.06
265.197	723.06
265.429	809.06
265.661	830.06
265.894	876.06
266.126	928.06
266.358	1042.06
266.591	1272.06
266.823	1500.06
267.055	1424.06
267.287	1245.06
267.52	1286.06
267.752	1334.06
267.984	1476.06
268.216	1370.06
268.448	1150.06
268.681	1117.06
268.913	1230.06
269.145	1303.06
269.377	1318.06
269.609	1321.06
269.841	1204.06
270.073	1346.06
270.306	1421.06
270.538	1416.06
270.77	1444.06
271.002	1405.06
271.234	1503.06
271.466	1544.06
271.698	1476.06
271.93	1405.06
272.162	1438.06
272.394	1401.06
272.626	1404.06
272.858	1452.06
273.09	1515.06
273.322	1310.06
273.553	1273.06
273.785	1532.06
274.017	1972.06
274.249	2454.06
274.481	2543.06
274.713	2777.06
274.945	3229.06
275.176	3341.06
275.408	2948.06
275.64	2685.06
275.872	2635.06
276.104	2290.06
276.335	1922.06
276.567	1907.06
276.799	1998.06
277.031	2092.06
277.262	1628.06
277.494	1248.06
277.726	1200.06
277.957	1319.06
278.189	1509.06
278.421	1478.06
278.652	1457.06
278.884	1394.06
279.115	1273.06
279.347	1204.06
279.579	1210.06
279.81	1212.06
280.042	1211.06
280.273	1246.06
280.505	1137.06
280.736	1030.06
280.968	1014.06
281.199	1093.06
281.431	1269.06
281.662	1210.06
281.894	1191.06
282.125	1252.06
282.356	1363.06
282.588	1436.06
282.819	1270.06
283.051	1367.06
283.282	1692.06
283.513	1982.06
283.745	2241.06
283.976	2219.06
284.207	2026.06
284.439	2128.06
284.67	2021.06
284.901	1816.06
285.132	1927.06
285.364	2048.06
285.595	1884.06
285.826	1972.06
286.057	2050.06
286.288	1985.06
286.52	2040.06
286.751	2171.06
286.982	2148.06
287.213	1848.06
287.444	1797.06
287.675	1888.06
287.906	1857.06
288.138	1561.06
288.369	1372.06
288.6	1305.06
288.831	1364.06
289.062	1566.06
289.293	1705.06
289.524	1606.06
289.755	1609.06
289.986	1666.06
290.217	1431.06
290.448	1129.06
290.679	994.06
290.91	919.06
291.141	932.06
291.371	993.06
291.602	1005.06
291.833	981.06
292.064	1062.06
292.295	1228.06
292.526	1392.06
292.757	1472.06
292.987	1590.06
293.218	1562.06
293.449	1602.06
293.68	1709.06
293.91	1616.06
294.141	1654.06
294.372	1542.06
294.603	1423.06
294.833	1582.06
295.064	1879.06
295.295	1734.06
295.525	1302.06
295.756	1160.06
295.987	994.06
296.217	986.06
296.448	1045.06
296.679	1109.06
296.909	1230.06
297.14	1318.06
297.37	1432.06
297.601	1350.06
297.831	1152.06
298.062	1274.06
298.292	1429.06
298.523	1604.06
298.753	1806.06
298.984	1591.06
299.214	1274.06
299.445	1069.06
299.675	1004.06
299.905	1023.06
300.136	1070.06
300.366	1175.06
300.597	1165.06
300.827	1019.06
301.057	991.06
301.288	1016.06
301.518	1080.06
301.748	1230.06
301.979	1315.06
302.209	1435.06
302.439	1456.06
302.669	1255.06
302.9	1266.06
303.13	1150.06
303.36	1107.06
303.59	1062.06
303.82	1081.06
304.051	1242.06
304.281	1340.06
304.511	1291.06
304.741	1133.06
304.971	1195.06
305.201	1292.06
305.431	1201.06
305.661	1068.06
305.891	1066.06
306.121	1069.06
306.352	955.06
306.582	925.06
306.812	874.06
307.042	867.06
307.272	800.06
307.502	804.06
307.731	904.06
307.961	899.06
308.191	857.06
308.421	798.06
308.651	795.06
308.881	754.06
309.111	763.06
309.341	844.06
309.571	924.06
309.8	916.06
310.03	956.06
310.26	1008.06
310.49	939.06
310.72	887.06
310.949	845.06
311.179	869.06
311.409	924.06
311.639	1089.06
311.868	1397.06
312.098	1820.06
312.328	2016.06
312.557	1892.06
312.787	1899.06
313.017	1689.06
313.246	1820.06
313.476	1960.06
313.706	1662.06
313.935	1306.06
314.165	1074.06
314.394	950.06
314.624	976.06
314.853	1010.06
315.083	1044.06
315.312	1005.06
315.542	1003.06
315.771	949.06
316.001	852.06
316.23	834.06
316.46	839.06
316.689	862.06
316.919	894.06
317.148	904.06
317.377	877.06
317.607	877.06
317.836	964.06
318.065	1116.06
318.295	1262.06
318.524	1108.06
318.753	981.06
318.983	953.06
319.212	926.06
319.441	996.06
319.67	1100.06
319.9	1227.06
320.129	1152.06
320.358	962.06
320.587	937.06
320.816	986.06
321.046	1189.06
321.275	1328.06
321.504	1324.06
321.733	1271.06
321.962	1184.06
322.191	1178.06
322.42	1096.06
322.649	1099.06
322.878	1210.06
323.108	1190.06
323.337	1101.06
323.566	1084.06
323.795	1036.06
324.024	1030.06
324.253	965.06
324.482	979.06
324.71	1052.06
324.939	1240.06
325.168	1152.06
325.397	936.06
325.626	908.06
325.855	898.06
326.084	924.06
326.313	854.06
326.542	809.06
326.77	877.06
326.999	886.06
327.228	952.06
327.457	1009.06
327.686	980.06
327.914	897.06
328.143	851.06
328.372	843.06
328.6	856.06
328.829	888.06
329.058	896.06
329.287	864.06
329.515	900.06
329.744	864.06
329.972	820.06
330.201	825.06
330.43	869.06
330.658	949.06
330.887	1059.06
331.115	1021.06
331.344	1006.06
331.572	971.06
331.801	899.06
332.03	852.06
332.258	900.06
332.486	942.06
332.715	1011.06
332.943	935.06
333.172	888.06
333.4	932.06
333.629	1025.06
333.857	1110.06
334.085	1113.06
334.314	1141.06
334.542	1062.06
334.771	983.06
334.999	941.06
335.227	924.06
335.455	951.06
335.684	1034.06
335.912	1186.06
336.14	1288.06
336.369	1288.06
336.597	1228.06
336.825	1382.06
337.053	1562.06
337.281	1230.06
337.51	987.06
337.738	978.06
337.966	1083.06
338.194	1183.06
338.422	1093.06
338.65	930.06
338.878	866.06
339.106	928.06
339.334	1007.06
339.562	1080.06
339.79	996.06
340.018	978.06
340.246	1034.06
340.474	1190.06
340.702	1286.06
340.93	1330.06
341.158	1355.06
341.386	1104.06
341.614	1091.06
341.842	1107.06
342.07	1146.06
342.298	1304.06
342.526	1357.06
342.754	1193.06
342.981	1097.06
343.209	1079.06
343.437	1099.06
343.665	1192.06
343.893	1162.06
344.12	1359.06
344.348	1612.06
344.576	1432.06
344.804	1180.06
345.031	1038.06
345.259	956.06
345.487	985.06
345.714	1019.06
345.942	1112.06
346.17	1206.06
346.397	1146.06
346.625	985.06
346.853	952.06
347.08	918.06
347.308	1016.06
347.535	1138.06
347.763	1110.06
347.99	997.06
348.218	917.06
348.445	954.06
348.673	938.06
348.9	957.06
349.128	1045.06
349.355	1106.06
349.583	1061.06
349.81	1020.06
350.037	928.06
350.265	834.06
350.492	807.06
350.72	800.06
350.947	833.06
351.174	885.06
351.402	937.06
351.629	967.06
351.856	907.06
352.083	903.06
352.311	966.06
352.538	1040.06
352.765	1088.06
352.992	1042.06
353.22	989.06
353.447	972.06
353.674	930.06
353.901	936.06
354.128	965.06
354.355	957.06
354.583	972.06
354.81	971.06
355.037	1012.06
355.264	981.06
355.491	1072.06
355.718	1145.06
355.945	1092.06
356.172	1086.06
356.399	1095.06
356.626	1290.06
356.853	1558.06
357.08	1676.06
357.307	1690.06
357.534	1332.06
357.761	1400.06
357.988	1724.06
358.215	2009.06
358.441	1891.06
358.668	1580.06
358.895	1476.06
359.122	1195.06
359.349	1204.06
359.576	1321.06
359.802	1077.06
360.029	928.06
360.256	1011.06
360.483	1233.06
360.709	1578.06
360.936	1594.06
361.163	1386.06
361.39	1138.06
361.616	1031.06
361.843	1222.06
362.07	1464.06
362.296	1366.06
362.523	1059.06
362.749	946.06
362.976	957.06
363.203	1186.06
363.429	1334.06
363.656	1074.06
363.882	946.06
364.109	990.06
364.335	951.06
364.562	954.06
364.788	1100.06
365.015	1296.06
365.241	1143.06
365.468	928.06
365.694	858.06
365.92	803.06
366.147	796.06
366.373	793.06
366.599	784.06
366.826	800.06
367.052	828.06
367.278	829.06
367.505	826.06
367.731	897.06
367.957	989.06
368.184	1004.06
368.41	986.06
368.636	1044.06
368.862	1052.06
369.089	1013.06
369.315	902.06
369.541	865.06
369.767	880.06
369.993	834.06
370.219	857.06
370.445	893.06
370.672	971.06
370.898	1086.06
371.124	1044.06
371.35	947.06
371.576	934.06
371.802	957.06
372.028	1127.06
372.254	1293.06
372.48	1110.06
372.706	998.06
372.932	1060.06
373.158	1098.06
373.384	1353.06
373.61	1744.06
373.835	1839.06
374.061	1331.06
374.287	1141.06
374.513	1369.06
374.739	1612.06
374.965	1632.06
375.191	1617.06
375.416	1132.06
375.642	993.06
375.868	1183.06
376.094	1359.06
376.319	1157.06
376.545	1278.06
376.771	1332.06
376.997	1145.06
377.222	875.06
377.448	762.06
377.674	760.06
377.899	736.06
378.125	758.06
378.35	748.06
378.576	784.06
378.802	862.06
379.027	922.06
379.253	892.06
379.478	886.06
379.704	1009.06
379.929	1072.06
380.155	1061.06
380.38	926.06
380.606	1015.06
380.831	1106.06
381.057	981.06
381.282	975.06
381.507	1134.06
381.733	1408.06
381.958	1490.06
382.184	1580.06
382.409	1692.06
382.634	1603.06
382.86	1688.06
383.085	1405.06
383.31	1130.06
383.535	1202.06
383.761	1194.06
383.986	1101.06
384.211	1377.06
384.436	1340.06
384.662	1030.06
384.887	972.06
385.112	1014.06
385.337	1028.06
385.562	964.06
385.787	1080.06
386.013	1198.06
386.238	1254.06
386.463	1016.06
386.688	984.06
386.913	934.06
387.138	884.06
387.363	958.06
387.588	954.06
387.813	987.06
388.038	1098.06
388.263	945.06
388.488	964.06
388.713	1092.06
388.938	1193.06
389.163	1035.06
389.387	906.06
389.612	900.06
389.837	924.06
390.062	954.06
390.287	988.06
390.512	1024.06
390.736	904.06
390.961	901.06
391.186	865.06
391.411	849.06
391.636	872.06
391.86	918.06
392.085	1005.06
392.31	1004.06
392.534	955.06
392.759	960.06
392.984	968.06
393.208	962.06
393.433	883.06
393.658	813.06
393.882	812.06
394.107	790.06
394.331	816.06
394.556	798.06
394.78	824.06
395.005	858.06
395.229	836.06
395.454	880.06
395.678	908.06
395.903	925.06
396.127	892.06
396.352	907.06
396.576	984.06
396.801	998.06
397.025	1064.06
397.249	1128.06
397.474	944.06
397.698	948.06
397.922	970.06
398.147	940.06
398.371	939.06
398.595	973.06
398.82	952.06
399.044	925.06
399.268	991.06
399.492	1025.06
399.717	1060.06
399.941	1088.06
400.165	1067.06
400.389	1052.06
400.613	1070.06
400.837	1018.06
401.062	884.06
401.286	911.06
401.51	920.06
401.734	917.06
401.958	900.06
402.182	929.06
402.406	922.06
402.63	930.06
402.854	929.06
403.078	1093.06
403.302	1288.06
403.526	1339.06
403.75	1191.06
403.974	1058.06
404.198	1099.06
404.422	1222.06
404.645	1410.06
404.869	1574.06
405.093	1162.06
405.317	998.06
405.541	988.06
405.765	1005.06
405.988	1022.06
406.212	1091.06
406.436	1316.06
406.66	1440.06
406.883	1149.06
407.107	1186.06
407.331	1372.06
407.555	1278.06
407.778	1103.06
408.002	1097.06
408.226	1061.06
408.449	1068.06
408.673	1026.06
408.896	944.06
409.12	901.06
409.344	916.06
409.567	868.06
409.791	917.06
410.014	903.06
410.238	884.06
410.461	896.06
410.685	910.06
410.908	927.06
411.132	928.06
411.355	921.06
411.578	953.06
411.802	963.06
412.025	990.06
412.249	998.06
412.472	974.06
412.695	981.06
412.919	973.06
413.142	982.06
413.365	1039.06
413.589	1051.06
413.812	964.06
414.035	926.06
414.258	927.06
414.482	1025.06
414.705	1037.06
414.928	894.06
415.151	902.06
415.374	891.06
415.597	918.06
415.821	916.06
416.044	900.06
416.267	887.06
416.49	895.06
416.713	850.06
416.936	890.06
417.159	874.06
417.382	885.06
417.605	896.06
417.828	907.06
418.051	930.06
418.274	949.06
418.497	941.06
418.72	946.06
418.943	936.06
419.166	1005.06
419.389	1060.06
419.611	1028.06
419.834	1014.06
420.057	1098.06
420.28	1087.06
420.503	1013.06
420.726	875.06
420.948	872.06
421.171	906.06
421.394	882.06
421.617	863.06
421.839	889.06
422.062	938.06
422.285	901.06
422.507	956.06
422.73	952.06
422.953	980.06
423.175	948.06
423.398	944.06
423.621	999.06
423.843	1046.06
424.066	1012.06
424.288	951.06
424.511	929.06
424.733	908.06
424.956	971.06
425.178	1077.06
425.401	1189.06
425.623	1371.06
425.846	1150.06
426.068	1006.06
426.291	1086.06
426.513	1026.06
426.735	965.06
426.958	1048.06
427.18	1138.06
427.402	1448.06
427.625	1449.06
427.847	1152.06
428.069	915.06
428.292	919.06
428.514	928.06
428.736	895.06
428.958	967.06
429.181	1116.06
429.403	981.06
429.625	883.06
429.847	863.06
430.069	909.06
430.292	898.06
430.514	866.06
430.736	937.06
430.958	1180.06
431.18	1068.06
431.402	866.06
431.624	811.06
431.846	810.06
432.068	809.06
432.29	853.06
432.512	928.06
432.734	1192.06
432.956	1114.06
433.178	870.06
433.4	846.06
433.622	860.06
433.844	869.06
434.066	944.06
434.287	917.06
434.509	896.06
434.731	919.06
434.953	891.06
435.175	915.06
435.397	1004.06
435.618	912.06
435.84	851.06
436.062	832.06
436.284	850.06
436.505	816.06
436.727	802.06
436.949	792.06
437.17	876.06
437.392	882.06
437.614	832.06
437.835	847.06
438.057	865.06
438.278	971.06
438.5	1378.06
438.721	1353.06
438.943	952.06
439.165	829.06
439.386	780.06
439.608	804.06
439.829	811.06
440.05	816.06
440.272	871.06
440.493	1008.06
440.715	1198.06
440.936	987.06
441.158	876.06
441.379	848.06
441.6	965.06
441.822	1016.06
442.043	883.06
442.264	864.06
442.486	874.06
442.707	888.06
442.928	872.06
443.149	878.06
443.371	901.06
443.592	949.06
443.813	925.06
444.034	910.06
444.255	928.06
444.476	944.06
444.698	930.06
444.919	978.06
445.14	1052.06
445.361	1035.06
445.582	952.06
445.803	926.06
446.024	920.06
446.245	939.06
446.466	921.06
446.687	898.06
446.908	875.06
447.129	836.06
447.35	832.06
447.571	818.06
447.792	808.06
448.013	794.06
448.234	804.06
448.455	800.06
448.675	805.06
448.896	837.06
449.117	811.06
449.338	827.06
449.559	840.06
449.779	858.06
450	861.06
450.221	852.06
450.442	825.06
450.662	805.06
450.883	790.06
451.104	836.06
451.324	812.06
451.545	805.06
451.766	833.06
451.986	785.06
452.207	793.06
452.428	786.06
452.648	770.06
452.869	791.06
453.089	846.06
453.31	828.06
453.53	745.06
453.751	751.06
453.971	735.06
454.192	778.06
454.412	812.06
454.633	745.06
454.853	764.06
455.073	736.06
455.294	745.06
455.514	718.06
455.734	767.06
455.955	826.06
456.175	846.06
456.395	765.06
456.616	728.06
456.836	704.06
457.056	715.06
457.276	697.06
457.497	732.06
457.717	735.06
457.937	723.06
458.157	728.06
458.377	763.06
458.598	732.06
458.818	772.06
459.038	817.06
459.258	818.06
459.478	854.06
459.698	931.06
459.918	916.06
460.138	886.06
460.358	933.06
460.578	885.06
460.798	898.06
461.018	902.06
461.238	885.06
461.458	889.06
461.678	885.06
461.898	954.06
462.118	940.06
462.338	971.06
462.558	954.06
462.777	1009.06
462.997	1026.06
463.217	1035.06
463.437	1033.06
463.657	1035.06
463.876	952.06
464.096	991.06
464.316	968.06
464.536	979.06
464.755	994.06
464.975	1040.06
465.195	970.06
465.414	998.06
465.634	986.06
465.854	906.06
466.073	892.06
466.293	868.06
466.512	958.06
466.732	1024.06
466.951	1055.06
467.171	941.06
467.391	883.06
467.61	906.06
467.829	953.06
468.049	938.06
468.268	892.06
468.488	868.06
468.707	907.06
468.927	1085.06
469.146	1186.06
469.365	1035.06
469.585	950.06
469.804	1005.06
470.023	1097.06
470.243	983.06
470.462	941.06
470.681	929.06
470.901	933.06
471.12	988.06
471.339	980.06
471.558	925.06
471.777	945.06
471.997	1022.06
472.216	1113.06
472.435	1095.06
472.654	996.06
472.873	976.06
473.092	1001.06
473.311	1051.06
473.53	968.06
473.749	928.06
473.968	997.06
474.187	982.06
474.406	958.06
474.625	957.06
474.844	982.06
475.063	1042.06
475.282	1049.06
475.501	1080.06
475.72	1148.06
475.939	1096.06
476.158	1132.06
476.377	1238.06
476.596	1442.06
476.814	1527.06
477.033	1263.06
477.252	1066.06
477.471	997.06
477.69	1038.06
477.908	1117.06
478.127	1160.06
478.346	1088.06
478.564	1160.06
478.783	1121.06
479.002	1124.06
479.22	1287.06
479.439	1420.06
479.658	1243.06
479.876	1136.06
480.095	1223.06
480.313	1220.06
480.532	1118.06
480.751	1118.06
480.969	1143.06
481.188	1296.06
481.406	1341.06
481.624	1257.06
481.843	1126.06
482.061	1101.06
482.28	1219.06
482.498	1468.06
482.717	1420.06
482.935	1233.06
483.153	1150.06
483.372	1083.06
483.59	1078.06
483.808	1061.06
484.027	1044.06
484.245	1006.06
484.463	1006.06
484.681	1052.06
484.9	1120.06
485.118	1196.06
485.336	1147.06
485.554	1061.06
485.772	1104.06
485.99	1170.06
486.209	1244.06
486.427	1211.06
486.645	1202.06
486.863	1249.06
487.081	1236.06
487.299	1406.06
487.517	1337.06
487.735	1216.06
487.953	1230.06
488.171	1273.06
488.389	1194.06
488.607	1143.06
488.825	1163.06
489.043	1265.06
489.261	1444.06
489.479	1551.06
489.696	1331.06
489.914	1210.06
490.132	1113.06
490.35	1144.06
490.568	1144.06
490.786	1113.06
491.003	1148.06
491.221	1197.06
491.439	1142.06
491.657	1160.06
491.874	1267.06
492.092	1514.06
492.31	1773.06
492.527	1758.06
492.745	1512.06
492.963	1361.06
493.18	1295.06
493.398	1305.06
493.615	1318.06
493.833	1267.06
494.05	1241.06
494.268	1234.06
494.485	1251.06
494.703	1212.06
494.92	1229.06
495.138	1209.06
495.355	1201.06
495.573	1245.06
495.79	1431.06
496.008	1805.06
496.225	1597.06
496.442	1384.06
496.66	1365.06
496.877	1435.06
497.094	1396.06
497.312	1320.06
497.529	1350.06
497.746	1328.06
497.963	1410.06
498.181	1472.06
498.398	1581.06
498.615	1663.06
498.832	1725.06
499.049	1712.06
499.267	1560.06
499.484	1549.06
499.701	1626.06
499.918	1739.06
500.135	1880.06
500.352	1944.06
500.569	2004.06
500.786	2043.06
501.003	2037.06
501.22	1852.06
501.437	1778.06
501.654	1654.06
501.871	1652.06
502.088	1658.06
502.305	1530.06
502.522	1558.06
502.739	1524.06
502.956	1427.06
503.172	1379.06
503.389	1322.06
503.606	1290.06
503.823	1289.06
504.04	1319.06
504.256	1336.06
504.473	1338.06
504.69	1372.06
504.907	1411.06
505.123	1383.06
505.34	1459.06
505.557	1466.06
505.773	1351.06
505.99	1310.06
506.207	1393.06
506.423	1255.06
506.64	1233.06
506.856	1284.06
507.073	1381.06
507.289	1330.06
507.506	1338.06
507.722	1439.06
507.939	1468.06
508.155	1442.06
508.372	1326.06
508.588	1291.06
508.805	1253.06
509.021	1232.06
509.238	1187.06
509.454	1223.06
509.67	1218.06
509.887	1225.06
510.103	1355.06
510.319	1324.06
510.536	1180.06
510.752	1107.06
510.968	1061.06
511.184	1042.06
511.401	1048.06
511.617	1033.06
511.833	1057.06
512.049	1061.06
512.265	1098.06
512.481	1148.06
512.698	1250.06
512.914	1392.06
513.13	1226.06
513.346	1116.06
513.562	1210.06
513.778	1154.06
513.994	1184.06
514.21	1220.06
514.426	1221.06
514.642	1179.06
514.858	1133.06
515.074	1190.06
515.29	1287.06
515.506	1458.06
515.721	1391.06
515.937	1269.06
516.153	1175.06
516.369	1206.06
516.585	1247.06
516.801	1408.06
517.016	1596.06
517.232	1572.06
517.448	1537.06
517.664	1398.06
517.879	1324.06
518.095	1281.06
518.311	1317.06
518.527	1357.06
518.742	1400.06
518.958	1473.06
519.173	1412.06
519.389	1369.06
519.605	1400.06
519.82	1504.06
520.036	1741.06
520.251	1726.06
520.467	1614.06
520.682	2314.06
520.898	2822.06
521.113	2676.06
521.329	1726.06
521.544	1538.06
521.76	1493.06
521.975	1356.06
522.19	1286.06
522.406	1325.06
522.621	1509.06
522.836	1502.06
523.052	1555.06
523.267	1301.06
523.482	1304.06
523.698	1404.06
523.913	1330.06
524.128	1225.06
524.343	1187.06
524.559	1212.06
524.774	1143.06
524.989	1158.06
525.204	1195.06
525.419	1302.06
525.634	1258.06
525.849	1273.06
526.064	1267.06
526.28	1269.06
526.495	1521.06
526.71	1498.06
526.925	1344.06
527.14	1387.06
527.355	1348.06
527.57	1169.06
527.785	1196.06
527.999	1166.06
528.214	1096.06
528.429	1050.06
528.644	1067.06
528.859	1031.06
529.074	1011.06
529.289	1012.06
529.503	1003.06
529.718	1033.06
529.933	1163.06
530.148	1178.06
530.363	1040.06
530.577	1009.06
530.792	1024.06
531.007	1011.06
531.221	999.06
531.436	993.06
531.651	1018.06
531.865	1032.06
532.08	1051.06
532.295	1023.06
532.509	1033.06
532.724	1166.06
532.938	1306.06
533.153	1469.06
533.367	1214.06
533.582	1214.06
533.796	1102.06
534.011	1045.06
534.225	1041.06
534.44	1083.06
534.654	1111.06
534.868	1254.06
535.083	1129.06
535.297	1022.06
535.511	1056.06
535.726	1154.06
535.94	1099.06
536.154	1064.06
536.369	997.06
536.583	1026.06
536.797	1030.06
537.011	1032.06
537.225	1113.06
537.44	1143.06
537.654	1036.06
537.868	1035.06
538.082	1045.06
538.296	1008.06
538.51	1098.06
538.724	1088.06
538.938	1060.06
539.153	981.06
539.367	979.06
539.581	1016.06
539.795	1028.06
540.009	1140.06
540.222	1057.06
540.436	1030.06
540.65	1132.06
540.864	1183.06
541.078	1200.06
541.292	1352.06
541.506	1117.06
541.72	1046.06
541.934	1030.06
542.147	1061.06
542.361	1031.06
542.575	1049.06
542.789	1058.06
543.002	981.06
543.216	1069.06
543.43	963.06
543.644	965.06
543.857	928.06
544.071	982.06
544.285	967.06
544.498	933.06
544.712	956.06
544.925	1028.06
545.139	974.06
545.352	899.06
545.566	943.06
545.779	1030.06
545.993	966.06
546.206	877.06
546.42	885.06
546.633	908.06
546.847	861.06
547.06	865.06
547.274	849.06
547.487	893.06
547.7	988.06
547.914	1028.06
548.127	1127.06
548.34	1089.06
548.554	970.06
548.767	996.06
548.98	1072.06
549.193	983.06
549.407	1032.06
549.62	1204.06
549.833	1157.06
550.046	1180.06
550.259	1157.06
550.473	1048.06
550.686	992.06
550.899	997.06
551.112	989.06
551.325	1070.06
551.538	1102.06
551.751	993.06
551.964	905.06
552.177	910.06
552.39	877.06
552.603	888.06
552.816	930.06
553.029	878.06
553.242	882.06
553.455	968.06
553.667	1059.06
553.88	990.06
554.093	917.06
554.306	854.06
554.519	834.06
554.732	777.06
554.944	771.06
555.157	773.06
555.37	785.06
555.583	780.06
555.795	784.06
556.008	816.06
556.221	789.06
556.433	784.06
556.646	774.06
556.859	805.06
557.071	859.06
557.284	823.06
557.496	834.06
557.709	853.06
557.921	800.06
558.134	768.06
558.346	749.06
558.559	752.06
558.771	776.06
558.984	843.06
559.196	766.06
559.409	728.06
559.621	711.06
559.833	731.06
560.046	736.06
560.258	731.06
560.47	760.06
560.683	712.06
560.895	684.06
561.107	665.06
561.32	692.06
561.532	720.06
561.744	748.06
561.956	793.06
562.168	714.06
562.381	704.06
562.593	728.06
562.805	739.06
563.017	719.06
563.229	682.06
563.441	680.06
563.653	689.06
563.865	713.06
564.077	711.06
564.289	713.06
564.501	714.06
564.713	780.06
564.925	741.06
565.137	694.06
565.349	708.06
565.561	681.06
565.773	718.06
565.985	747.06
566.197	796.06
566.408	861.06
566.62	886.06
566.832	848.06
567.044	875.06
567.255	928.06
567.467	959.06
567.679	915.06
567.891	895.06
568.102	905.06
568.314	907.06
568.526	856.06
568.737	830.06
568.949	872.06
569.161	788.06
569.372	715.06
569.584	704.06
569.795	679.06
570.007	710.06
570.218	756.06
570.43	735.06
570.641	721.06
570.853	649.06
571.064	654.06
571.276	696.06
571.487	711.06
571.698	686.06
571.91	670.06
572.121	674.06
572.333	614.06
572.544	628.06
572.755	632.06
572.966	614.06
573.178	651.06
573.389	670.06
573.6	660.06
573.811	659.06
574.023	583.06
574.234	592.06
574.445	590.06
574.656	555.06
574.867	607.06
575.078	640.06
575.289	603.06
575.501	653.06
575.712	590.06
575.923	573.06
576.134	570.06
576.345	564.06
576.556	567.06
576.767	525.06
576.978	536.06
577.188	534.06
577.399	513.06
577.61	540.06
577.821	548.06
578.032	540.06
578.243	590.06
578.454	570.06
578.665	577.06
578.875	542.06
579.086	576.06
579.297	569.06
579.508	560.06
579.718	558.06
579.929	541.06
580.14	550.06
580.35	514.06
580.561	504.06
580.772	506.06
580.982	494.06
581.193	486.06
581.403	470.06
581.614	485.06
581.825	461.06
582.035	472.06
582.246	470.06
582.456	484.06
582.667	493.06
582.877	475.06
583.087	473.06
583.298	449.06
583.508	450.06
583.719	459.06
583.929	453.06
584.139	472.06
584.35	469.06
584.56	477.06
584.77	491.06
584.981	470.06
585.191	468.06
585.401	462.06
585.611	487.06
585.821	491.06
586.032	516.06
586.242	485.06
586.452	476.06
586.662	474.06
586.872	500.06
587.082	500.06
587.292	497.06
587.502	466.06
587.713	484.06
587.923	474.06
588.133	524.06
588.343	484.06
588.553	474.06
588.762	456.06
588.972	464.06
589.182	468.06
589.392	463.06
589.602	462.06
589.812	480.06
590.022	508.06
590.232	533.06
590.441	483.06
590.651	466.06
590.861	471.06
591.071	456.06
591.281	468.06
591.49	446.06
591.7	459.06
591.91	461.06
592.119	466.06
592.329	460.06
592.539	463.06
592.748	453.06
592.958	481.06
593.167	473.06
593.377	483.06
593.587	505.06
593.796	485.06
594.006	486.06
594.215	477.06
594.424	479.06
594.634	506.06
594.843	508.06
595.053	485.06
595.262	434.06
595.472	459.06
595.681	420.06
595.89	425.06
596.1	450.06
596.309	452.06
596.518	429.06
596.727	438.06
596.937	460.06
597.146	446.06
597.355	483.06
597.564	429.06
597.774	433.06
597.983	411.06
598.192	437.06
598.401	404.06
598.61	410.06
598.819	404.06
599.028	381.06
599.237	394.06
599.446	379.06
599.655	398.06
599.864	375.06
600.073	378.06
600.282	379.06
600.491	418.06
600.7	395.06
600.909	402.06
601.118	380.06
601.327	365.06
601.536	394.06
601.745	388.06
601.953	403.06
602.162	395.06
602.371	408.06
602.58	408.06
602.789	395.06
602.997	374.06
603.206	387.06
603.415	386.06
603.623	378.06
603.832	388.06
604.041	379.06
604.249	380.06
604.458	412.06
604.666	378.06
604.875	359.06
605.084	364.06
605.292	347.06
605.501	381.06
605.709	376.06
605.918	374.06
606.126	360.06
606.334	362.06
606.543	383.06
606.751	379.06
606.96	365.06
607.168	356.06
607.376	350.06
607.585	368.06
607.793	371.06
608.001	365.06
608.21	349.06
608.418	350.06
608.626	350.06
608.834	364.06
609.043	358.06
609.251	356.06
609.459	327.06
609.667	342.06
609.875	344.06
610.083	341.06
610.291	357.06
610.499	379.06
610.707	340.06
610.916	333.06
611.124	340.06
611.332	332.06
611.54	332.06
611.748	353.06
611.955	354.06
612.163	326.06
612.371	353.06
612.579	355.06
612.787	357.06
612.995	340.06
613.203	315.06
613.411	330.06
613.618	342.06
613.826	348.06
614.034	379.06
614.242	326.06
614.449	322.06
614.657	326.06
614.865	334.06
615.072	331.06
615.28	350.06
615.488	352.06
615.695	345.06
615.903	341.06
616.111	329.06
616.318	342.06
616.526	334.06
616.733	327.06
616.941	328.06
617.148	328.06
617.356	314.06
617.563	283.06
617.771	303.06
617.978	313.06
618.185	319.06
618.393	306.06
618.6	326.06
618.807	307.06
619.015	324.06
619.222	322.06
619.429	334.06
619.637	335.06
619.844	311.06
620.051	305.06
620.258	297.06
620.466	288.06
620.673	316.06
620.88	288.06
621.087	302.06
621.294	312.06
621.501	288.06
621.708	306.06
621.915	293.06
622.122	292.06
622.329	298.06
622.536	308.06
622.743	299.06
622.95	296.06
623.157	289.06
623.364	307.06
623.571	292.06
623.778	310.06
623.985	325.06
624.192	327.06
624.399	324.06
624.606	308.06
624.812	300.06
625.019	315.06
625.226	310.06
625.433	308.06
625.639	289.06
625.846	278.06
626.053	277.06
626.259	267.06
626.466	271.06
626.673	304.06
626.879	287.06
627.086	293.06
627.293	285.06
627.499	278.06
627.706	277.06
627.912	287.06
628.119	257.06
628.325	266.06
628.532	268.06
628.738	261.06
628.945	270.06
629.151	274.06
629.357	264.06
629.564	261.06
629.77	262.06
629.976	259.06
630.183	248.06
630.389	274.06
630.595	267.06
630.802	262.06
631.008	257.06
631.214	267.06
631.42	260.06
631.627	264.06
631.833	249.06
632.039	267.06
632.245	256.06
632.451	237.06
632.657	263.06
632.863	259.06
633.069	260.06
633.275	246.06
633.481	242.06
633.688	241.06
633.893	259.06
634.099	249.06
634.305	230.06
634.511	254.06
634.717	240.06
634.923	242.06
635.129	236.06
635.335	232.06
635.541	225.06
635.747	235.06
635.952	243.06
636.158	245.06
636.364	245.06
636.57	230.06
636.775	245.06
636.981	238.06
637.187	232.06
637.392	237.06
637.598	236.06
637.804	231.06
638.009	239.06
638.215	226.06
638.421	248.06
638.626	236.06
638.832	221.06
639.037	218.06
639.243	230.06
639.448	231.06
639.654	260.06
639.859	232.06
640.065	221.06
640.27	226.06
640.475	234.06
640.681	232.06
640.886	216.06
641.091	207.06
641.297	228.06
641.502	222.06
641.707	242.06
641.913	230.06
642.118	234.06
642.323	226.06
642.528	226.06
642.733	224.06
642.939	217.06
643.144	205.06
643.349	215.06
643.554	211.06
643.759	220.06
643.964	213.06
644.169	211.06
644.374	216.06
644.579	217.06
644.784	211.06
644.989	209.06
645.194	210.06
645.399	225.06
645.604	206.06
645.809	228.06
646.014	217.06
646.219	216.06
646.423	210.06
646.628	231.06
646.833	208.06
647.038	220.06
647.243	216.06
647.447	213.06
647.652	210.06
647.857	196.06
648.062	210.06
648.266	208.06
648.471	215.06
648.676	215.06
648.88	204.06
649.085	226.06
649.289	231.06
649.494	214.06
649.698	232.06
649.903	204.06
650.107	200.06
650.312	189.06
650.516	202.06
650.721	206.06
650.925	182.06
651.13	189.06
651.334	180.06
651.539	194.06
651.743	205.06
651.947	182.06
652.152	181.06
652.356	177.06
652.56	198.06
652.764	174.06
652.969	177.06
653.173	176.06
653.377	186.06
653.581	177.06
653.785	155.06
653.99	149.06
654.194	167.06
654.398	161.06
654.602	168.06
654.806	182.06
655.01	164.06
655.214	158.06
655.418	178.06
655.622	164.06
655.826	166.06
656.03	160.06
656.234	169.06
656.438	176.06
656.642	159.06
656.846	171.06
657.049	132.06
657.253	158.06
657.457	156.06
657.661	146.06
657.865	135.06
658.068	131.06
658.272	121.06
658.476	148.06
658.68	122.06
658.883	118.06
659.087	133.06
659.291	115.06
659.494	124.06
659.698	117.06
659.901	116.06
660.105	116.06
660.309	110.06
660.512	116.06
660.716	106.06
660.919	102.06
661.123	93.06
661.326	116.06
661.53	105.06
661.733	96.06
661.936	102.06
662.14	104.06
662.343	85.06
662.546	89.06
662.75	79.06
662.953	76.06
663.156	95.06
663.36	90.06
663.563	91.06
663.766	78.06
663.969	92.06
664.173	83.06
664.376	91.06
664.579	92.06
664.782	91.06
664.985	98.06
665.188	90.06
665.391	90.06
665.594	102.06
665.797	91.06
666	71.06
666.203	92.06
666.406	91.06
666.609	94.06
666.812	100.06
667.015	91.06
667.218	76.06
667.421	99.06
667.624	81.06
667.827	94.06
668.03	84.06
668.232	80.06
668.435	82.06
668.638	90.06
668.841	88.06
669.043	86.06
669.246	87.06
669.449	103.06
669.651	96.06
669.854	95.06
670.057	96.06
670.259	98.06
670.462	92.06
670.665	90.06
670.867	90.06
671.07	88.06
671.272	86.06
671.475	95.06
671.677	101.06
671.88	84.06
672.082	85.06
672.284	75.06
672.487	78.06
672.689	83.06
672.892	86.06
