Data from NickelSpatula_HRD10591_16-36-33-127.txt Node
Date: Mon Jul 22 16:36:33 EDT 2019
User: cochatt
Spectrometer: HR+D1059
Trigger mode: 1
Integration Time (sec): 1.000000E-1
Scans to average: 1
Electric dark correction enabled: true
Nonlinearity correction enabled: false
Boxcar width: 0
XAxis mode: Wavelengths
Number of Pixels in Spectrum: 2048
>>>>>Begin Spectral Data<<<<<
223.165	-8.62
223.4	-8.62
223.635	-8.62
223.869	-21.62
224.104	-21.62
224.338	-5.62
224.573	-16.62
224.808	-19.62
225.042	-12.62
225.277	3.38
225.511	-10.62
225.746	7.38
225.98	10.38
226.215	14.38
226.449	11.38
226.683	15.38
226.918	22.38
227.152	32.38
227.387	28.38
227.621	37.38
227.856	36.38
228.09	54.38
228.324	41.38
228.559	57.38
228.793	77.38
229.027	64.38
229.262	64.38
229.496	90.38
229.73	73.38
229.964	61.38
230.199	80.38
230.433	88.38
230.667	82.38
230.901	71.38
231.136	82.38
231.37	112.38
231.604	89.38
231.838	94.38
232.072	96.38
232.306	82.38
232.541	84.38
232.775	74.38
233.009	101.38
233.243	82.38
233.477	96.38
233.711	94.38
233.945	109.38
234.179	97.38
234.413	110.38
234.647	92.38
234.881	100.38
235.115	100.38
235.349	95.38
235.583	96.38
235.817	92.38
236.051	83.38
236.285	100.38
236.519	92.38
236.753	101.38
236.987	88.38
237.221	70.38
237.455	100.38
237.689	87.38
237.922	96.38
238.156	80.38
238.39	93.38
238.624	94.38
238.858	101.38
239.091	92.38
239.325	106.38
239.559	100.38
239.793	99.38
240.027	112.38
240.26	95.38
240.494	103.38
240.728	88.38
240.961	101.38
241.195	107.38
241.429	106.38
241.662	100.38
241.896	108.38
242.13	88.38
242.363	85.38
242.597	96.38
242.83	106.38
243.064	112.38
243.298	111.38
243.531	97.38
243.765	116.38
243.998	101.38
244.232	111.38
244.465	104.38
244.699	92.38
244.932	113.38
245.166	107.38
245.399	96.38
245.633	86.38
245.866	87.38
246.099	83.38
246.333	117.38
246.566	120.38
246.8	104.38
247.033	102.38
247.266	107.38
247.5	103.38
247.733	100.38
247.966	112.38
248.2	107.38
248.433	106.38
248.666	114.38
248.899	95.38
249.133	113.38
249.366	119.38
249.599	123.38
249.832	116.38
250.066	104.38
250.299	105.38
250.532	122.38
250.765	124.38
250.998	104.38
251.231	103.38
251.465	93.38
251.698	100.38
251.931	100.38
252.164	114.38
252.397	102.38
252.63	117.38
252.863	129.38
253.096	121.38
253.329	130.38
253.562	124.38
253.795	130.38
254.028	139.38
254.261	124.38
254.494	127.38
254.727	127.38
254.96	121.38
255.193	136.38
255.426	117.38
255.659	104.38
255.892	112.38
256.124	111.38
256.357	123.38
256.59	130.38
256.823	124.38
257.056	115.38
257.289	108.38
257.521	123.38
257.754	128.38
257.987	132.38
258.22	125.38
258.452	121.38
258.685	122.38
258.918	123.38
259.151	134.38
259.383	143.38
259.616	156.38
259.849	143.38
260.081	162.38
260.314	160.38
260.547	147.38
260.779	139.38
261.012	145.38
261.244	144.38
261.477	145.38
261.71	150.38
261.942	143.38
262.175	133.38
262.407	130.38
262.64	125.38
262.872	142.38
263.105	148.38
263.337	166.38
263.57	137.38
263.802	123.38
264.035	125.38
264.267	119.38
264.499	106.38
264.732	107.38
264.964	108.38
265.197	110.38
265.429	129.38
265.661	121.38
265.894	108.38
266.126	108.38
266.358	126.38
266.591	124.38
266.823	137.38
267.055	139.38
267.287	123.38
267.52	134.38
267.752	148.38
267.984	150.38
268.216	122.38
268.448	126.38
268.681	124.38
268.913	149.38
269.145	133.38
269.377	133.38
269.609	136.38
269.841	145.38
270.073	133.38
270.306	138.38
270.538	121.38
270.77	135.38
271.002	136.38
271.234	144.38
271.466	137.38
271.698	129.38
271.93	123.38
272.162	135.38
272.394	132.38
272.626	144.38
272.858	148.38
273.09	139.38
273.322	131.38
273.553	131.38
273.785	137.38
274.017	149.38
274.249	173.38
274.481	166.38
274.713	193.38
274.945	199.38
275.176	236.38
275.408	216.38
275.64	196.38
275.872	175.38
276.104	160.38
276.335	162.38
276.567	153.38
276.799	155.38
277.031	169.38
277.262	133.38
277.494	134.38
277.726	135.38
277.957	125.38
278.189	138.38
278.421	137.38
278.652	127.38
278.884	135.38
279.115	123.38
279.347	142.38
279.579	130.38
279.81	132.38
280.042	134.38
280.273	126.38
280.505	131.38
280.736	121.38
280.968	115.38
281.199	122.38
281.431	141.38
281.662	136.38
281.894	131.38
282.125	140.38
282.356	137.38
282.588	149.38
282.819	130.38
283.051	131.38
283.282	141.38
283.513	169.38
283.745	176.38
283.976	161.38
284.207	169.38
284.439	145.38
284.67	167.38
284.901	142.38
285.132	160.38
285.364	161.38
285.595	157.38
285.826	172.38
286.057	172.38
286.288	156.38
286.52	148.38
286.751	159.38
286.982	137.38
287.213	153.38
287.444	151.38
287.675	164.38
287.906	149.38
288.138	137.38
288.369	124.38
288.6	140.38
288.831	145.38
289.062	153.38
289.293	171.38
289.524	131.38
289.755	135.38
289.986	139.38
290.217	141.38
290.448	145.38
290.679	131.38
290.91	127.38
291.141	114.38
291.371	131.38
291.602	120.38
291.833	106.38
292.064	123.38
292.295	133.38
292.526	134.38
292.757	127.38
292.987	136.38
293.218	137.38
293.449	146.38
293.68	156.38
293.91	142.38
294.141	159.38
294.372	133.38
294.603	149.38
294.833	153.38
295.064	159.38
295.295	142.38
295.525	137.38
295.756	135.38
295.987	122.38
296.217	112.38
296.448	120.38
296.679	117.38
296.909	119.38
297.14	134.38
297.37	151.38
297.601	129.38
297.831	124.38
298.062	132.38
298.292	141.38
298.523	152.38
298.753	133.38
298.984	127.38
299.214	119.38
299.445	111.38
299.675	116.38
299.905	124.38
300.136	111.38
300.366	128.38
300.597	121.38
300.827	121.38
301.057	105.38
301.288	105.38
301.518	102.38
301.748	114.38
301.979	119.38
302.209	127.38
302.439	116.38
302.669	115.38
302.9	112.38
303.13	106.38
303.36	109.38
303.59	113.38
303.82	113.38
304.051	122.38
304.281	141.38
304.511	136.38
304.741	121.38
304.971	112.38
305.201	129.38
305.431	123.38
305.661	123.38
305.891	113.38
306.121	123.38
306.352	123.38
306.582	114.38
306.812	107.38
307.042	111.38
307.272	113.38
307.502	105.38
307.731	105.38
307.961	123.38
308.191	121.38
308.421	104.38
308.651	103.38
308.881	97.38
309.111	101.38
309.341	100.38
309.571	115.38
309.8	113.38
310.03	112.38
310.26	117.38
310.49	117.38
310.72	97.38
310.949	125.38
311.179	119.38
311.409	108.38
311.639	122.38
311.868	136.38
312.098	156.38
312.328	145.38
312.557	150.38
312.787	148.38
313.017	149.38
313.246	156.38
313.476	147.38
313.706	136.38
313.935	141.38
314.165	108.38
314.394	96.38
314.624	104.38
314.853	116.38
315.083	107.38
315.312	114.38
315.542	121.38
315.771	115.38
316.001	109.38
316.23	108.38
316.46	99.38
316.689	105.38
316.919	100.38
317.148	98.38
317.377	106.38
317.607	98.38
317.836	107.38
318.065	99.38
318.295	128.38
318.524	123.38
318.753	108.38
318.983	127.38
319.212	121.38
319.441	119.38
319.67	101.38
319.9	123.38
320.129	105.38
320.358	115.38
320.587	116.38
320.816	124.38
321.046	122.38
321.275	115.38
321.504	129.38
321.733	117.38
321.962	108.38
322.191	123.38
322.42	109.38
322.649	137.38
322.878	127.38
323.108	111.38
323.337	118.38
323.566	122.38
323.795	115.38
324.024	112.38
324.253	109.38
324.482	109.38
324.71	119.38
324.939	120.38
325.168	105.38
325.397	97.38
325.626	112.38
325.855	94.38
326.084	123.38
326.313	109.38
326.542	120.38
326.77	95.38
326.999	116.38
327.228	116.38
327.457	117.38
327.686	128.38
327.914	113.38
328.143	117.38
328.372	101.38
328.6	108.38
328.829	112.38
329.058	108.38
329.287	118.38
329.515	101.38
329.744	113.38
329.972	117.38
330.201	105.38
330.43	100.38
330.658	119.38
330.887	123.38
331.115	118.38
331.344	122.38
331.572	107.38
331.801	97.38
332.03	99.38
332.258	105.38
332.486	114.38
332.715	117.38
332.943	113.38
333.172	103.38
333.4	113.38
333.629	128.38
333.857	135.38
334.085	108.38
334.314	112.38
334.542	129.38
334.771	122.38
334.999	112.38
335.227	103.38
335.455	113.38
335.684	117.38
335.912	124.38
336.14	132.38
336.369	117.38
336.597	117.38
336.825	128.38
337.053	153.38
337.281	125.38
337.51	108.38
337.738	113.38
337.966	124.38
338.194	130.38
338.422	124.38
338.65	116.38
338.878	111.38
339.106	115.38
339.334	109.38
339.562	128.38
339.79	127.38
340.018	124.38
340.246	114.38
340.474	105.38
340.702	118.38
340.93	122.38
341.158	105.38
341.386	100.38
341.614	113.38
341.842	125.38
342.07	123.38
342.298	136.38
342.526	147.38
342.754	116.38
342.981	106.38
343.209	115.38
343.437	115.38
343.665	104.38
343.893	103.38
344.12	122.38
344.348	137.38
344.576	135.38
344.804	118.38
345.031	119.38
345.259	112.38
345.487	107.38
345.714	119.38
345.942	123.38
346.17	123.38
346.397	123.38
346.625	126.38
346.853	119.38
347.08	112.38
347.308	118.38
347.535	121.38
347.763	112.38
347.99	97.38
348.218	107.38
348.445	102.38
348.673	120.38
348.9	109.38
349.128	108.38
349.355	122.38
349.583	116.38
349.81	117.38
350.037	115.38
350.265	121.38
350.492	100.38
350.72	110.38
350.947	113.38
351.174	108.38
351.402	115.38
351.629	119.38
351.856	117.38
352.083	99.38
352.311	120.38
352.538	92.38
352.765	104.38
352.992	104.38
353.22	108.38
353.447	116.38
353.674	113.38
353.901	112.38
354.128	99.38
354.355	104.38
354.583	103.38
354.81	95.38
355.037	119.38
355.264	119.38
355.491	109.38
355.718	110.38
355.945	117.38
356.172	100.38
356.399	117.38
356.626	129.38
356.853	137.38
357.08	144.38
357.307	139.38
357.534	119.38
357.761	128.38
357.988	137.38
358.215	138.38
358.441	126.38
358.668	123.38
358.895	123.38
359.122	108.38
359.349	119.38
359.576	114.38
359.802	109.38
360.029	123.38
360.256	108.38
360.483	122.38
360.709	128.38
360.936	142.38
361.163	117.38
361.39	112.38
361.616	106.38
361.843	114.38
362.07	127.38
362.296	119.38
362.523	116.38
362.749	108.38
362.976	121.38
363.203	120.38
363.429	114.38
363.656	99.38
363.882	121.38
364.109	116.38
364.335	117.38
364.562	94.38
364.788	117.38
365.015	121.38
365.241	120.38
365.468	118.38
365.694	116.38
365.92	100.38
366.147	103.38
366.373	111.38
366.599	89.38
366.826	98.38
367.052	99.38
367.278	113.38
367.505	101.38
367.731	111.38
367.957	117.38
368.184	114.38
368.41	115.38
368.636	115.38
368.862	120.38
369.089	119.38
369.315	96.38
369.541	115.38
369.767	111.38
369.993	102.38
370.219	109.38
370.445	105.38
370.672	104.38
370.898	109.38
371.124	123.38
371.35	99.38
371.576	111.38
371.802	106.38
372.028	102.38
372.254	118.38
372.48	115.38
372.706	123.38
372.932	108.38
373.158	112.38
373.384	131.38
373.61	151.38
373.835	135.38
374.061	131.38
374.287	123.38
374.513	107.38
374.739	122.38
374.965	139.38
375.191	123.38
375.416	115.38
375.642	98.38
375.868	123.38
376.094	119.38
376.319	113.38
376.545	114.38
376.771	116.38
376.997	114.38
377.222	107.38
377.448	107.38
377.674	114.38
377.899	102.38
378.125	85.38
378.35	87.38
378.576	105.38
378.802	101.38
379.027	110.38
379.253	110.38
379.478	116.38
379.704	124.38
379.929	123.38
380.155	107.38
380.38	120.38
380.606	118.38
380.831	117.38
381.057	126.38
381.282	118.38
381.507	121.38
381.733	122.38
381.958	126.38
382.184	131.38
382.409	136.38
382.634	131.38
382.86	131.38
383.085	137.38
383.31	107.38
383.535	128.38
383.761	125.38
383.986	119.38
384.211	145.38
384.436	120.38
384.662	124.38
384.887	122.38
385.112	115.38
385.337	126.38
385.562	116.38
385.787	117.38
386.013	127.38
386.238	132.38
386.463	127.38
386.688	124.38
386.913	106.38
387.138	100.38
387.363	122.38
387.588	108.38
387.813	113.38
388.038	114.38
388.263	100.38
388.488	120.38
388.713	127.38
388.938	133.38
389.163	123.38
389.387	112.38
389.612	111.38
389.837	117.38
390.062	112.38
390.287	114.38
390.512	119.38
390.736	132.38
390.961	113.38
391.186	114.38
391.411	100.38
391.636	102.38
391.86	105.38
392.085	114.38
392.31	108.38
392.534	109.38
392.759	131.38
392.984	107.38
393.208	125.38
393.433	117.38
393.658	124.38
393.882	96.38
394.107	103.38
394.331	101.38
394.556	107.38
394.78	111.38
395.005	103.38
395.229	117.38
395.454	115.38
395.678	112.38
395.903	104.38
396.127	92.38
396.352	114.38
396.576	108.38
396.801	123.38
397.025	117.38
397.249	112.38
397.474	116.38
397.698	112.38
397.922	117.38
398.147	116.38
398.371	107.38
398.595	106.38
398.82	114.38
399.044	121.38
399.268	121.38
399.492	125.38
399.717	120.38
399.941	110.38
400.165	127.38
400.389	120.38
400.613	120.38
400.837	126.38
401.062	117.38
401.286	104.38
401.51	101.38
401.734	108.38
401.958	106.38
402.182	113.38
402.406	114.38
402.63	117.38
402.854	125.38
403.078	120.38
403.302	123.38
403.526	130.38
403.75	127.38
403.974	114.38
404.198	121.38
404.422	125.38
404.645	134.38
404.869	121.38
405.093	131.38
405.317	114.38
405.541	122.38
405.765	106.38
405.988	123.38
406.212	121.38
406.436	132.38
406.66	139.38
406.883	120.38
407.107	135.38
407.331	135.38
407.555	114.38
407.778	119.38
408.002	119.38
408.226	120.38
408.449	110.38
408.673	113.38
408.896	105.38
409.12	93.38
409.344	107.38
409.567	106.38
409.791	123.38
410.014	108.38
410.238	119.38
410.461	94.38
410.685	117.38
410.908	111.38
411.132	113.38
411.355	122.38
411.578	113.38
411.802	124.38
412.025	105.38
412.249	125.38
412.472	120.38
412.695	120.38
412.919	113.38
413.142	111.38
413.365	109.38
413.589	122.38
413.812	128.38
414.035	117.38
414.258	112.38
414.482	124.38
414.705	125.38
414.928	124.38
415.151	128.38
415.374	115.38
415.597	120.38
415.821	117.38
416.044	109.38
416.267	127.38
416.49	114.38
416.713	121.38
416.936	123.38
417.159	110.38
417.382	112.38
417.605	116.38
417.828	122.38
418.051	109.38
418.274	123.38
418.497	114.38
418.72	124.38
418.943	99.38
419.166	117.38
419.389	116.38
419.611	123.38
419.834	112.38
420.057	127.38
420.28	137.38
420.503	117.38
420.726	111.38
420.948	120.38
421.171	113.38
421.394	116.38
421.617	103.38
421.839	118.38
422.062	107.38
422.285	106.38
422.507	121.38
422.73	121.38
422.953	121.38
423.175	116.38
423.398	119.38
423.621	117.38
423.843	128.38
424.066	119.38
424.288	123.38
424.511	108.38
424.733	114.38
424.956	114.38
425.178	131.38
425.401	128.38
425.623	130.38
425.846	129.38
426.068	124.38
426.291	107.38
426.513	123.38
426.735	121.38
426.958	115.38
427.18	139.38
427.402	127.38
427.625	132.38
427.847	122.38
428.069	105.38
428.292	115.38
428.514	111.38
428.736	117.38
428.958	120.38
429.181	127.38
429.403	123.38
429.625	120.38
429.847	115.38
430.069	103.38
430.292	127.38
430.514	123.38
430.736	123.38
430.958	115.38
431.18	130.38
431.402	115.38
431.624	104.38
431.846	118.38
432.068	108.38
432.29	107.38
432.512	120.38
432.734	121.38
432.956	120.38
433.178	106.38
433.4	113.38
433.622	116.38
433.844	124.38
434.066	120.38
434.287	109.38
434.509	114.38
434.731	129.38
434.953	122.38
435.175	110.38
435.397	118.38
435.618	114.38
435.84	109.38
436.062	104.38
436.284	113.38
436.505	122.38
436.727	115.38
436.949	108.38
437.17	116.38
437.392	105.38
437.614	107.38
437.835	121.38
438.057	103.38
438.278	133.38
438.5	137.38
438.721	124.38
438.943	130.38
439.165	120.38
439.386	125.38
439.608	115.38
439.829	110.38
440.05	133.38
440.272	121.38
440.493	125.38
440.715	136.38
440.936	119.38
441.158	130.38
441.379	124.38
441.6	115.38
441.822	124.38
442.043	111.38
442.264	116.38
442.486	103.38
442.707	110.38
442.928	109.38
443.149	122.38
443.371	120.38
443.592	107.38
443.813	123.38
444.034	117.38
444.255	123.38
444.476	117.38
444.698	131.38
444.919	123.38
445.14	251.38
445.361	172.38
445.582	111.38
445.803	119.38
446.024	122.38
446.245	119.38
446.466	124.38
446.687	108.38
446.908	116.38
447.129	122.38
447.35	105.38
447.571	111.38
447.792	114.38
448.013	113.38
448.234	91.38
448.455	104.38
448.675	112.38
448.896	120.38
449.117	125.38
449.338	112.38
449.559	121.38
449.779	119.38
450	124.38
450.221	136.38
450.442	118.38
450.662	118.38
450.883	109.38
451.104	116.38
451.324	100.38
451.545	124.38
451.766	120.38
451.986	117.38
452.207	115.38
452.428	102.38
452.648	118.38
452.869	115.38
453.089	115.38
453.31	108.38
453.53	102.38
453.751	112.38
453.971	107.38
454.192	101.38
454.412	114.38
454.633	111.38
454.853	110.38
455.073	102.38
455.294	108.38
455.514	104.38
455.734	109.38
455.955	118.38
456.175	110.38
456.395	113.38
456.616	103.38
456.836	110.38
457.056	107.38
457.276	121.38
457.497	117.38
457.717	107.38
457.937	107.38
458.157	106.38
458.377	116.38
458.598	109.38
458.818	110.38
459.038	103.38
459.258	100.38
459.478	128.38
459.698	113.38
459.918	118.38
460.138	113.38
460.358	111.38
460.578	123.38
460.798	118.38
461.018	105.38
461.238	118.38
461.458	130.38
461.678	123.38
461.898	117.38
462.118	120.38
462.338	120.38
462.558	129.38
462.777	124.38
462.997	123.38
463.217	125.38
463.437	120.38
463.657	107.38
463.876	112.38
464.096	124.38
464.316	130.38
464.536	122.38
464.755	121.38
464.975	120.38
465.195	125.38
465.414	123.38
465.634	125.38
465.854	120.38
466.073	109.38
466.293	119.38
466.512	131.38
466.732	117.38
466.951	134.38
467.171	116.38
467.391	107.38
467.61	125.38
467.829	108.38
468.049	127.38
468.268	105.38
468.488	107.38
468.707	120.38
468.927	124.38
469.146	135.38
469.365	119.38
469.585	125.38
469.804	102.38
470.023	134.38
470.243	114.38
470.462	117.38
470.681	116.38
470.901	112.38
471.12	131.38
471.339	118.38
471.558	113.38
471.777	116.38
471.997	111.38
472.216	107.38
472.435	119.38
472.654	127.38
472.873	116.38
473.092	120.38
473.311	125.38
473.53	121.38
473.749	128.38
473.968	133.38
474.187	118.38
474.406	114.38
474.625	112.38
474.844	117.38
475.063	118.38
475.282	119.38
475.501	128.38
475.72	140.38
475.939	138.38
476.158	135.38
476.377	137.38
476.596	141.38
476.814	160.38
477.033	149.38
477.252	121.38
477.471	124.38
477.69	124.38
477.908	126.38
478.127	123.38
478.346	123.38
478.564	127.38
478.783	116.38
479.002	125.38
479.22	136.38
479.439	145.38
479.658	142.38
479.876	115.38
480.095	119.38
480.313	127.38
480.532	120.38
480.751	131.38
480.969	125.38
481.188	124.38
481.406	129.38
481.624	131.38
481.843	110.38
482.061	114.38
482.28	142.38
482.498	132.38
482.717	148.38
482.935	137.38
483.153	125.38
483.372	140.38
483.59	124.38
483.808	124.38
484.027	120.38
484.245	127.38
484.463	129.38
484.681	122.38
484.9	127.38
485.118	133.38
485.336	124.38
485.554	119.38
485.772	133.38
485.99	131.38
486.209	140.38
486.427	137.38
486.645	129.38
486.863	130.38
487.081	134.38
487.299	146.38
487.517	139.38
487.735	130.38
487.953	134.38
488.171	147.38
488.389	123.38
488.607	131.38
488.825	119.38
489.043	149.38
489.261	148.38
489.479	142.38
489.696	133.38
489.914	133.38
490.132	118.38
490.35	131.38
490.568	125.38
490.786	121.38
491.003	135.38
491.221	121.38
491.439	132.38
491.657	125.38
491.874	122.38
492.092	133.38
492.31	154.38
492.527	155.38
492.745	134.38
492.963	129.38
493.18	130.38
493.398	138.38
493.615	150.38
493.833	127.38
494.05	132.38
494.268	125.38
494.485	124.38
494.703	122.38
494.92	133.38
495.138	142.38
495.355	134.38
495.573	133.38
495.79	135.38
496.008	135.38
496.225	139.38
496.442	132.38
496.66	145.38
496.877	141.38
497.094	154.38
497.312	139.38
497.529	124.38
497.746	145.38
497.963	135.38
498.181	139.38
498.398	160.38
498.615	153.38
498.832	155.38
499.049	162.38
499.267	141.38
499.484	146.38
499.701	143.38
499.918	161.38
500.135	168.38
500.352	155.38
500.569	177.38
500.786	172.38
501.003	174.38
501.22	165.38
501.437	168.38
501.654	157.38
501.871	161.38
502.088	153.38
502.305	159.38
502.522	152.38
502.739	152.38
502.956	152.38
503.172	156.38
503.389	139.38
503.606	149.38
503.823	127.38
504.04	137.38
504.256	157.38
504.473	161.38
504.69	160.38
504.907	154.38
505.123	135.38
505.34	147.38
505.557	154.38
505.773	139.38
505.99	148.38
506.207	147.38
506.423	133.38
506.64	139.38
506.856	141.38
507.073	144.38
507.289	133.38
507.506	133.38
507.722	144.38
507.939	138.38
508.155	143.38
508.372	147.38
508.588	142.38
508.805	140.38
509.021	133.38
509.238	134.38
509.454	150.38
509.67	136.38
509.887	124.38
510.103	137.38
510.319	139.38
510.536	123.38
510.752	123.38
510.968	122.38
511.184	103.38
511.401	116.38
511.617	108.38
511.833	120.38
512.049	120.38
512.265	131.38
512.481	131.38
512.698	152.38
512.914	145.38
513.13	127.38
513.346	141.38
513.562	127.38
513.778	128.38
513.994	129.38
514.21	140.38
514.426	137.38
514.642	128.38
514.858	112.38
515.074	126.38
515.29	153.38
515.506	136.38
515.721	147.38
515.937	137.38
516.153	131.38
516.369	132.38
516.585	134.38
516.801	137.38
517.016	161.38
517.232	143.38
517.448	160.38
517.664	144.38
517.879	131.38
518.095	123.38
518.311	134.38
518.527	146.38
518.742	144.38
518.958	133.38
519.173	154.38
519.389	124.38
519.605	119.38
519.82	149.38
520.036	152.38
520.251	156.38
520.467	175.38
520.682	200.38
520.898	192.38
521.113	203.38
521.329	149.38
521.544	139.38
521.76	143.38
521.975	128.38
522.19	148.38
522.406	141.38
522.621	149.38
522.836	155.38
523.052	141.38
523.267	141.38
523.482	120.38
523.698	155.38
523.913	147.38
524.128	129.38
524.343	128.38
524.559	147.38
524.774	121.38
524.989	140.38
525.204	136.38
525.419	148.38
525.634	137.38
525.849	137.38
526.064	140.38
526.28	150.38
526.495	141.38
526.71	162.38
526.925	146.38
527.14	131.38
527.355	139.38
527.57	125.38
527.785	140.38
527.999	131.38
528.214	148.38
528.429	141.38
528.644	138.38
528.859	126.38
529.074	128.38
529.289	130.38
529.503	124.38
529.718	136.38
529.933	140.38
530.148	149.38
530.363	134.38
530.577	131.38
530.792	126.38
531.007	124.38
531.221	133.38
531.436	121.38
531.651	139.38
531.865	121.38
532.08	139.38
532.295	127.38
532.509	123.38
532.724	133.38
532.938	135.38
533.153	152.38
533.367	147.38
533.582	135.38
533.796	144.38
534.011	121.38
534.225	129.38
534.44	128.38
534.654	115.38
534.868	135.38
535.083	137.38
535.297	136.38
535.511	131.38
535.726	123.38
535.94	138.38
536.154	123.38
536.369	132.38
536.583	127.38
536.797	140.38
537.011	116.38
537.225	130.38
537.44	133.38
537.654	121.38
537.868	123.38
538.082	125.38
538.296	116.38
538.51	122.38
538.724	131.38
538.938	123.38
539.153	127.38
539.367	148.38
539.581	119.38
539.795	123.38
540.009	139.38
540.222	133.38
540.436	117.38
540.65	114.38
540.864	131.38
541.078	128.38
541.292	142.38
541.506	127.38
541.72	136.38
541.934	135.38
542.147	131.38
542.361	133.38
542.575	115.38
542.789	105.38
543.002	128.38
543.216	123.38
543.43	112.38
543.644	120.38
543.857	125.38
544.071	118.38
544.285	125.38
544.498	139.38
544.712	108.38
544.925	127.38
545.139	112.38
545.352	115.38
545.566	132.38
545.779	135.38
545.993	122.38
546.206	117.38
546.42	115.38
546.633	127.38
546.847	112.38
547.06	117.38
547.274	121.38
547.487	117.38
547.7	128.38
547.914	120.38
548.127	127.38
548.34	127.38
548.554	121.38
548.767	133.38
548.98	117.38
549.193	131.38
549.407	123.38
549.62	128.38
549.833	129.38
550.046	140.38
550.259	108.38
550.473	124.38
550.686	117.38
550.899	131.38
551.112	133.38
551.325	120.38
551.538	120.38
551.751	130.38
551.964	113.38
552.177	119.38
552.39	108.38
552.603	123.38
552.816	117.38
553.029	116.38
553.242	114.38
553.455	134.38
553.667	135.38
553.88	138.38
554.093	121.38
554.306	125.38
554.519	124.38
554.732	120.38
554.944	108.38
555.157	104.38
555.37	105.38
555.583	109.38
555.795	101.38
556.008	113.38
556.221	121.38
556.433	103.38
556.646	124.38
556.859	125.38
557.071	113.38
557.284	114.38
557.496	121.38
557.709	103.38
557.921	102.38
558.134	121.38
558.346	113.38
558.559	121.38
558.771	108.38
558.984	106.38
559.196	112.38
559.409	118.38
559.621	112.38
559.833	104.38
560.046	125.38
560.258	115.38
560.47	108.38
560.683	111.38
560.895	122.38
561.107	111.38
561.32	122.38
561.532	124.38
561.744	107.38
561.956	113.38
562.168	114.38
562.381	108.38
562.593	110.38
562.805	106.38
563.017	113.38
563.229	117.38
563.441	109.38
563.653	104.38
563.865	109.38
564.077	100.38
564.289	94.38
564.501	110.38
564.713	116.38
564.925	115.38
565.137	101.38
565.349	131.38
565.561	125.38
565.773	117.38
565.985	113.38
566.197	108.38
566.408	119.38
566.62	131.38
566.832	119.38
567.044	127.38
567.255	113.38
567.467	126.38
567.679	125.38
567.891	129.38
568.102	128.38
568.314	117.38
568.526	101.38
568.737	100.38
568.949	107.38
569.161	115.38
569.372	111.38
569.584	116.38
569.795	115.38
570.007	112.38
570.218	101.38
570.43	97.38
570.641	113.38
570.853	108.38
571.064	119.38
571.276	105.38
571.487	119.38
571.698	125.38
571.91	119.38
572.121	122.38
572.333	100.38
572.544	95.38
572.755	116.38
572.966	103.38
573.178	116.38
573.389	102.38
573.6	115.38
573.811	103.38
574.023	113.38
574.234	102.38
574.445	118.38
574.656	106.38
574.867	103.38
575.078	105.38
575.289	101.38
575.501	103.38
575.712	95.38
575.923	121.38
576.134	103.38
576.345	103.38
576.556	100.38
576.767	106.38
576.978	104.38
577.188	113.38
577.399	100.38
577.61	90.38
577.821	119.38
578.032	108.38
578.243	103.38
578.454	104.38
578.665	101.38
578.875	97.38
579.086	120.38
579.297	105.38
579.508	110.38
579.718	103.38
579.929	91.38
580.14	90.38
580.35	100.38
580.561	98.38
580.772	92.38
580.982	92.38
581.193	103.38
581.403	103.38
581.614	83.38
581.825	103.38
582.035	112.38
582.246	97.38
582.456	104.38
582.667	99.38
582.877	108.38
583.087	96.38
583.298	92.38
583.508	96.38
583.719	103.38
583.929	104.38
584.139	97.38
584.35	108.38
584.56	107.38
584.77	101.38
584.981	102.38
585.191	85.38
585.401	90.38
585.611	91.38
585.821	104.38
586.032	97.38
586.242	96.38
586.452	107.38
586.662	104.38
586.872	105.38
587.082	104.38
587.292	98.38
587.502	93.38
587.713	91.38
587.923	92.38
588.133	111.38
588.343	103.38
588.553	105.38
588.762	106.38
588.972	108.38
589.182	99.38
589.392	121.38
589.602	98.38
589.812	117.38
590.022	107.38
590.232	100.38
590.441	101.38
590.651	100.38
590.861	108.38
591.071	109.38
591.281	92.38
591.49	103.38
591.7	91.38
591.91	101.38
592.119	97.38
592.329	102.38
592.539	106.38
592.748	91.38
592.958	112.38
593.167	117.38
593.377	86.38
593.587	113.38
593.796	97.38
594.006	108.38
594.215	95.38
594.424	102.38
594.634	103.38
594.843	103.38
595.053	102.38
595.262	102.38
595.472	93.38
595.681	104.38
595.89	95.38
596.1	104.38
596.309	106.38
596.518	91.38
596.727	95.38
596.937	105.38
597.146	95.38
597.355	96.38
597.564	92.38
597.774	101.38
597.983	83.38
598.192	89.38
598.401	95.38
598.61	112.38
598.819	105.38
599.028	110.38
599.237	90.38
599.446	100.38
599.655	95.38
599.864	105.38
600.073	91.38
600.282	92.38
600.491	106.38
600.7	101.38
600.909	99.38
601.118	89.38
601.327	106.38
601.536	89.38
601.745	86.38
601.953	89.38
602.162	108.38
602.371	104.38
602.58	100.38
602.789	94.38
602.997	104.38
603.206	97.38
603.415	92.38
603.623	98.38
603.832	96.38
604.041	91.38
604.249	101.38
604.458	111.38
604.666	90.38
604.875	98.38
605.084	90.38
605.292	97.38
605.501	82.38
605.709	113.38
605.918	104.38
606.126	92.38
606.334	103.38
606.543	99.38
606.751	101.38
606.96	102.38
607.168	87.38
607.376	89.38
607.585	104.38
607.793	106.38
608.001	91.38
608.21	83.38
608.418	97.38
608.626	105.38
608.834	91.38
609.043	96.38
609.251	104.38
609.459	97.38
609.667	88.38
609.875	102.38
610.083	104.38
610.291	100.38
610.499	109.38
610.707	98.38
610.916	88.38
611.124	77.38
611.332	100.38
611.54	101.38
611.748	97.38
611.955	95.38
612.163	89.38
612.371	97.38
612.579	77.38
612.787	113.38
612.995	93.38
613.203	103.38
613.411	106.38
613.618	103.38
613.826	100.38
614.034	89.38
614.242	101.38
614.449	89.38
614.657	94.38
614.865	88.38
615.072	100.38
615.28	102.38
615.488	88.38
615.695	86.38
615.903	99.38
616.111	88.38
616.318	95.38
616.526	103.38
616.733	92.38
616.941	88.38
617.148	103.38
617.356	75.38
617.563	92.38
617.771	95.38
617.978	81.38
618.185	93.38
618.393	106.38
618.6	96.38
618.807	90.38
619.015	111.38
619.222	100.38
619.429	99.38
619.637	107.38
619.844	97.38
620.051	95.38
620.258	98.38
620.466	93.38
620.673	90.38
620.88	89.38
621.087	113.38
621.294	88.38
621.501	77.38
621.708	95.38
621.915	101.38
622.122	91.38
622.329	88.38
622.536	102.38
622.743	97.38
622.95	91.38
623.157	82.38
623.364	97.38
623.571	96.38
623.778	85.38
623.985	95.38
624.192	84.38
624.399	93.38
624.606	99.38
624.812	103.38
625.019	98.38
625.226	100.38
625.433	86.38
625.639	99.38
625.846	86.38
626.053	88.38
626.259	91.38
626.466	99.38
626.673	92.38
626.879	90.38
627.086	84.38
627.293	85.38
627.499	89.38
627.706	87.38
627.912	87.38
628.119	92.38
628.325	94.38
628.532	99.38
628.738	91.38
628.945	94.38
629.151	92.38
629.357	85.38
629.564	99.38
629.77	96.38
629.976	115.38
630.183	106.38
630.389	84.38
630.595	80.38
630.802	93.38
631.008	95.38
631.214	80.38
631.42	95.38
631.627	96.38
631.833	96.38
632.039	93.38
632.245	97.38
632.451	104.38
632.657	106.38
632.863	89.38
633.069	92.38
633.275	92.38
633.481	93.38
633.688	91.38
633.893	83.38
634.099	104.38
634.305	97.38
634.511	98.38
634.717	96.38
634.923	88.38
635.129	97.38
635.335	94.38
635.541	104.38
635.747	85.38
635.952	99.38
636.158	100.38
636.364	80.38
636.57	82.38
636.775	84.38
636.981	84.38
637.187	85.38
637.392	94.38
637.598	100.38
637.804	95.38
638.009	88.38
638.215	87.38
638.421	80.38
638.626	97.38
638.832	85.38
639.037	87.38
639.243	77.38
639.448	95.38
639.654	91.38
639.859	78.38
640.065	83.38
640.27	103.38
640.475	95.38
640.681	102.38
640.886	84.38
641.091	99.38
641.297	77.38
641.502	89.38
641.707	93.38
641.913	96.38
642.118	87.38
642.323	82.38
642.528	107.38
642.733	97.38
642.939	93.38
643.144	66.38
643.349	103.38
643.554	102.38
643.759	98.38
643.964	98.38
644.169	103.38
644.374	90.38
644.579	92.38
644.784	88.38
644.989	78.38
645.194	107.38
645.399	81.38
645.604	93.38
645.809	82.38
646.014	79.38
646.219	87.38
646.423	94.38
646.628	88.38
646.833	92.38
647.038	92.38
647.243	94.38
647.447	75.38
647.652	95.38
647.857	96.38
648.062	83.38
648.266	88.38
648.471	93.38
648.676	96.38
648.88	98.38
649.085	81.38
649.289	80.38
649.494	88.38
649.698	96.38
649.903	98.38
650.107	84.38
650.312	76.38
650.516	91.38
650.721	90.38
650.925	89.38
651.13	92.38
651.334	100.38
651.539	79.38
651.743	93.38
651.947	80.38
652.152	90.38
652.356	87.38
652.56	88.38
652.764	76.38
652.969	78.38
653.173	83.38
653.377	91.38
653.581	91.38
653.785	79.38
653.99	96.38
654.194	80.38
654.398	89.38
654.602	90.38
654.806	96.38
655.01	88.38
655.214	94.38
655.418	72.38
655.622	89.38
655.826	88.38
656.03	100.38
656.234	83.38
656.438	75.38
656.642	86.38
656.846	89.38
657.049	86.38
657.253	96.38
657.457	91.38
657.661	76.38
657.865	82.38
658.068	76.38
658.272	71.38
658.476	81.38
658.68	88.38
658.883	72.38
659.087	81.38
659.291	90.38
659.494	86.38
659.698	82.38
659.901	94.38
660.105	98.38
660.309	73.38
660.512	85.38
660.716	91.38
660.919	92.38
661.123	91.38
661.326	82.38
661.53	81.38
661.733	78.38
661.936	84.38
662.14	90.38
662.343	87.38
662.546	95.38
662.75	89.38
662.953	93.38
663.156	81.38
663.36	98.38
663.563	79.38
663.766	81.38
663.969	70.38
664.173	81.38
664.376	90.38
664.579	85.38
664.782	81.38
664.985	88.38
665.188	82.38
665.391	89.38
665.594	90.38
665.797	81.38
666	84.38
666.203	82.38
666.406	71.38
666.609	71.38
666.812	91.38
667.015	74.38
667.218	81.38
667.421	80.38
667.624	71.38
667.827	85.38
668.03	84.38
668.232	82.38
668.435	70.38
668.638	76.38
668.841	84.38
669.043	80.38
669.246	74.38
669.449	78.38
669.651	80.38
669.854	95.38
670.057	94.38
670.259	87.38
670.462	96.38
670.665	83.38
670.867	87.38
671.07	83.38
671.272	81.38
671.475	82.38
671.677	84.38
671.88	83.38
672.082	78.38
672.284	103.38
672.487	84.38
672.689	73.38
672.892	91.38
