Data from NickelSpatula.Lamp.E10.P2_HRD10591_11-57-32-532.txt Node
Date: Tue Jul 23 11:57:32 EDT 2019
User: cochatt
Spectrometer: HR+D1059
Trigger mode: 1
Integration Time (sec): 1.000000E-1
Scans to average: 1
Electric dark correction enabled: true
Nonlinearity correction enabled: false
Boxcar width: 0
XAxis mode: Wavelengths
Number of Pixels in Spectrum: 2048
>>>>>Begin Spectral Data<<<<<
223.165	-8.44
223.4	-8.44
223.635	-8.44
223.869	3.56
224.104	-3.44
224.338	-16.44
224.573	3.56
224.808	-19.44
225.042	-13.44
225.277	-13.44
225.511	-4.44
225.746	3.56
225.98	5.56
226.215	-13.44
226.449	28.56
226.683	25.56
226.918	12.56
227.152	9.56
227.387	33.56
227.621	40.56
227.856	48.56
228.09	38.56
228.324	64.56
228.559	54.56
228.793	80.56
229.027	148.56
229.262	165.56
229.496	140.56
229.73	160.56
229.964	178.56
230.199	212.56
230.433	196.56
230.667	199.56
230.901	203.56
231.136	208.56
231.37	203.56
231.604	230.56
231.838	235.56
232.072	244.56
232.306	256.56
232.541	240.56
232.775	252.56
233.009	260.56
233.243	289.56
233.477	289.56
233.711	334.56
233.945	324.56
234.179	327.56
234.413	336.56
234.647	370.56
234.881	435.56
235.115	422.56
235.349	389.56
235.583	342.56
235.817	344.56
236.051	359.56
236.285	385.56
236.519	422.56
236.753	427.56
236.987	429.56
237.221	384.56
237.455	417.56
237.689	414.56
237.922	466.56
238.156	457.56
238.39	556.56
238.624	649.56
238.858	568.56
239.091	471.56
239.325	483.56
239.559	467.56
239.793	529.56
240.027	619.56
240.26	596.56
240.494	576.56
240.728	576.56
240.961	675.56
241.195	647.56
241.429	615.56
241.662	607.56
241.896	525.56
242.13	467.56
242.363	443.56
242.597	469.56
242.83	535.56
243.064	550.56
243.298	569.56
243.531	615.56
243.765	631.56
243.998	606.56
244.232	570.56
244.465	577.56
244.699	554.56
244.932	656.56
245.166	636.56
245.399	554.56
245.633	520.56
245.866	561.56
246.099	573.56
246.333	648.56
246.566	738.56
246.8	723.56
247.033	730.56
247.266	660.56
247.5	686.56
247.733	658.56
247.966	642.56
248.2	653.56
248.433	756.56
248.666	809.56
248.899	815.56
249.133	843.56
249.366	969.56
249.599	1007.56
249.832	930.56
250.066	790.56
250.299	816.56
250.532	790.56
250.765	808.56
250.998	712.56
251.231	709.56
251.465	768.56
251.698	818.56
251.931	791.56
252.164	800.56
252.397	922.56
252.63	1040.56
252.863	1146.56
253.096	1162.56
253.329	1117.56
253.562	1087.56
253.795	1245.56
254.028	1315.56
254.261	1332.56
254.494	1194.56
254.727	1096.56
254.96	1107.56
255.193	1136.56
255.426	1056.56
255.659	833.56
255.892	758.56
256.124	846.56
256.357	990.56
256.59	1169.56
256.823	1108.56
257.056	948.56
257.289	904.56
257.521	951.56
257.754	1090.56
257.987	1250.56
258.22	1103.56
258.452	966.56
258.685	1092.56
258.918	1222.56
259.151	1178.56
259.383	1296.56
259.616	1446.56
259.849	1491.56
260.081	1676.56
260.314	1855.56
260.547	1427.56
260.779	1447.56
261.012	1681.56
261.244	1546.56
261.477	1616.56
261.71	1462.56
261.942	1253.56
262.175	1253.56
262.407	1196.56
262.64	1227.56
262.872	1468.56
263.105	1583.56
263.337	1679.56
263.57	1518.56
263.802	1024.56
264.035	859.56
264.267	865.56
264.499	757.56
264.732	692.56
264.964	682.56
265.197	710.56
265.429	785.56
265.661	820.56
265.894	846.56
266.126	900.56
266.358	1005.56
266.591	1211.56
266.823	1443.56
267.055	1341.56
267.287	1218.56
267.52	1200.56
267.752	1301.56
267.984	1414.56
268.216	1362.56
268.448	1098.56
268.681	1103.56
268.913	1191.56
269.145	1259.56
269.377	1251.56
269.609	1261.56
269.841	1166.56
270.073	1286.56
270.306	1322.56
270.538	1355.56
270.77	1366.56
271.002	1347.56
271.234	1434.56
271.466	1444.56
271.698	1405.56
271.93	1386.56
272.162	1379.56
272.394	1390.56
272.626	1346.56
272.858	1425.56
273.09	1442.56
273.322	1275.56
273.553	1198.56
273.785	1468.56
274.017	1917.56
274.249	2344.56
274.481	2444.56
274.713	2621.56
274.945	3020.56
275.176	3111.56
275.408	2720.56
275.64	2533.56
275.872	2531.56
276.104	2163.56
276.335	1847.56
276.567	1834.56
276.799	1931.56
277.031	1976.56
277.262	1564.56
277.494	1247.56
277.726	1187.56
277.957	1261.56
278.189	1451.56
278.421	1444.56
278.652	1380.56
278.884	1304.56
279.115	1229.56
279.347	1173.56
279.579	1180.56
279.81	1161.56
280.042	1153.56
280.273	1253.56
280.505	1102.56
280.736	974.56
280.968	1002.56
281.199	1087.56
281.431	1224.56
281.662	1197.56
281.894	1190.56
282.125	1214.56
282.356	1348.56
282.588	1372.56
282.819	1246.56
283.051	1330.56
283.282	1659.56
283.513	1860.56
283.745	2108.56
283.976	2094.56
284.207	1961.56
284.439	2021.56
284.67	1966.56
284.901	1722.56
285.132	1872.56
285.364	1936.56
285.595	1835.56
285.826	1934.56
286.057	2002.56
286.288	1901.56
286.52	1954.56
286.751	2042.56
286.982	2013.56
287.213	1770.56
287.444	1651.56
287.675	1787.56
287.906	1771.56
288.138	1513.56
288.369	1319.56
288.6	1250.56
288.831	1281.56
289.062	1519.56
289.293	1682.56
289.524	1597.56
289.755	1523.56
289.986	1599.56
290.217	1414.56
290.448	1099.56
290.679	969.56
290.91	906.56
291.141	890.56
291.371	947.56
291.602	940.56
291.833	936.56
292.064	1022.56
292.295	1188.56
292.526	1358.56
292.757	1386.56
292.987	1542.56
293.218	1538.56
293.449	1579.56
293.68	1635.56
293.91	1555.56
294.141	1622.56
294.372	1490.56
294.603	1368.56
294.833	1522.56
295.064	1801.56
295.295	1697.56
295.525	1262.56
295.756	1127.56
295.987	964.56
296.217	1027.56
296.448	979.56
296.679	1039.56
296.909	1183.56
297.14	1262.56
297.37	1387.56
297.601	1322.56
297.831	1138.56
298.062	1239.56
298.292	1373.56
298.523	1499.56
298.753	1693.56
298.984	1563.56
299.214	1233.56
299.445	1036.56
299.675	996.56
299.905	988.56
300.136	1046.56
300.366	1109.56
300.597	1104.56
300.827	983.56
301.057	940.56
301.288	967.56
301.518	1050.56
301.748	1186.56
301.979	1271.56
302.209	1346.56
302.439	1366.56
302.669	1204.56
302.9	1201.56
303.13	1148.56
303.36	1038.56
303.59	1042.56
303.82	1069.56
304.051	1174.56
304.281	1280.56
304.511	1266.56
304.741	1081.56
304.971	1202.56
305.201	1237.56
305.431	1151.56
305.661	1035.56
305.891	1040.56
306.121	1025.56
306.352	928.56
306.582	839.56
306.812	818.56
307.042	838.56
307.272	783.56
307.502	802.56
307.731	853.56
307.961	884.56
308.191	839.56
308.421	790.56
308.651	784.56
308.881	742.56
309.111	732.56
309.341	801.56
309.571	865.56
309.8	912.56
310.03	895.56
310.26	938.56
310.49	930.56
310.72	839.56
310.949	833.56
311.179	839.56
311.409	898.56
311.639	1076.56
311.868	1329.56
312.098	1729.56
312.328	1866.56
312.557	1799.56
312.787	1798.56
313.017	1602.56
313.246	1754.56
313.476	1900.56
313.706	1565.56
313.935	1275.56
314.165	1026.56
314.394	924.56
314.624	945.56
314.853	967.56
315.083	1002.56
315.312	976.56
315.542	994.56
315.771	926.56
316.001	840.56
316.23	814.56
316.46	824.56
316.689	824.56
316.919	839.56
317.148	877.56
317.377	838.56
317.607	834.56
317.836	928.56
318.065	1086.56
318.295	1180.56
318.524	1078.56
318.753	961.56
318.983	913.56
319.212	903.56
319.441	948.56
319.67	1082.56
319.9	1182.56
320.129	1111.56
320.358	910.56
320.587	935.56
320.816	997.56
321.046	1142.56
321.275	1237.56
321.504	1274.56
321.733	1204.56
321.962	1162.56
322.191	1111.56
322.42	1036.56
322.649	1091.56
322.878	1169.56
323.108	1136.56
323.337	1088.56
323.566	1030.56
323.795	1019.56
324.024	990.56
324.253	944.56
324.482	927.56
324.71	1035.56
324.939	1170.56
325.168	1099.56
325.397	886.56
325.626	877.56
325.855	884.56
326.084	892.56
326.313	854.56
326.542	830.56
326.77	865.56
326.999	888.56
327.228	940.56
327.457	964.56
327.686	981.56
327.914	851.56
328.143	808.56
328.372	775.56
328.6	817.56
328.829	850.56
329.058	855.56
329.287	844.56
329.515	894.56
329.744	854.56
329.972	817.56
330.201	774.56
330.43	796.56
330.658	890.56
330.887	1026.56
331.115	997.56
331.344	962.56
331.572	946.56
331.801	867.56
332.03	810.56
332.258	851.56
332.486	966.56
332.715	953.56
332.943	894.56
333.172	892.56
333.4	903.56
333.629	1028.56
333.857	1098.56
334.085	1078.56
334.314	1073.56
334.542	1027.56
334.771	946.56
334.999	927.56
335.227	902.56
335.455	917.56
335.684	998.56
335.912	1155.56
336.14	1265.56
336.369	1206.56
336.597	1160.56
336.825	1347.56
337.053	1488.56
337.281	1192.56
337.51	972.56
337.738	944.56
337.966	1027.56
338.194	1125.56
338.422	1081.56
338.65	923.56
338.878	843.56
339.106	904.56
339.334	997.56
339.562	1045.56
339.79	964.56
340.018	940.56
340.246	1014.56
340.474	1149.56
340.702	1225.56
340.93	1269.56
341.158	1262.56
341.386	1053.56
341.614	1072.56
341.842	1062.56
342.07	1125.56
342.298	1284.56
342.526	1348.56
342.754	1136.56
342.981	1059.56
343.209	1044.56
343.437	1090.56
343.665	1132.56
343.893	1132.56
344.12	1308.56
344.348	1486.56
344.576	1368.56
344.804	1144.56
345.031	997.56
345.259	927.56
345.487	975.56
345.714	980.56
345.942	1033.56
346.17	1134.56
346.397	1082.56
346.625	968.56
346.853	933.56
347.08	900.56
347.308	940.56
347.535	1071.56
347.763	1097.56
347.99	963.56
348.218	894.56
348.445	949.56
348.673	954.56
348.9	947.56
349.128	990.56
349.355	1068.56
349.583	1022.56
349.81	987.56
350.037	930.56
350.265	819.56
350.492	758.56
350.72	750.56
350.947	818.56
351.174	880.56
351.402	896.56
351.629	943.56
351.856	893.56
352.083	884.56
352.311	927.56
352.538	1027.56
352.765	1104.56
352.992	1015.56
353.22	927.56
353.447	951.56
353.674	904.56
353.901	931.56
354.128	943.56
354.355	955.56
354.583	936.56
354.81	948.56
355.037	971.56
355.264	946.56
355.491	1031.56
355.718	1096.56
355.945	1050.56
356.172	1020.56
356.399	1074.56
356.626	1237.56
356.853	1539.56
357.08	1602.56
357.307	1649.56
357.534	1294.56
357.761	1317.56
357.988	1665.56
358.215	1950.56
358.441	1833.56
358.668	1536.56
358.895	1444.56
359.122	1138.56
359.349	1154.56
359.576	1249.56
359.802	1052.56
360.029	935.56
360.256	995.56
360.483	1191.56
360.709	1480.56
360.936	1584.56
361.163	1382.56
361.39	1105.56
361.616	1040.56
361.843	1173.56
362.07	1414.56
362.296	1288.56
362.523	1031.56
362.749	896.56
362.976	959.56
363.203	1112.56
363.429	1270.56
363.656	1028.56
363.882	963.56
364.109	976.56
364.335	969.56
364.562	943.56
364.788	1050.56
365.015	1202.56
365.241	1105.56
365.468	915.56
365.694	776.56
365.92	799.56
366.147	757.56
366.373	774.56
366.599	759.56
366.826	782.56
367.052	806.56
367.278	795.56
367.505	790.56
367.731	863.56
367.957	979.56
368.184	993.56
368.41	956.56
368.636	960.56
368.862	998.56
369.089	975.56
369.315	871.56
369.541	865.56
369.767	835.56
369.993	802.56
370.219	835.56
370.445	872.56
370.672	952.56
370.898	1018.56
371.124	1066.56
371.35	908.56
371.576	871.56
371.802	935.56
372.028	1095.56
372.254	1259.56
372.48	1094.56
372.706	972.56
372.932	1054.56
373.158	1106.56
373.384	1299.56
373.61	1642.56
373.835	1694.56
374.061	1286.56
374.287	1104.56
374.513	1258.56
374.739	1566.56
374.965	1601.56
375.191	1575.56
375.416	1104.56
375.642	982.56
375.868	1097.56
376.094	1271.56
376.319	1151.56
376.545	1211.56
376.771	1283.56
376.997	1108.56
377.222	831.56
377.448	757.56
377.674	733.56
377.899	724.56
378.125	734.56
378.35	736.56
378.576	789.56
378.802	819.56
379.027	860.56
379.253	849.56
379.478	878.56
379.704	998.56
379.929	1027.56
380.155	1038.56
380.38	947.56
380.606	908.56
380.831	1054.56
381.057	994.56
381.282	955.56
381.507	1116.56
381.733	1370.56
381.958	1418.56
382.184	1470.56
382.409	1579.56
382.634	1557.56
382.86	1632.56
383.085	1344.56
383.31	1060.56
383.535	1148.56
383.761	1180.56
383.986	1106.56
384.211	1343.56
384.436	1279.56
384.662	995.56
384.887	964.56
385.112	1007.56
385.337	1024.56
385.562	961.56
385.787	1047.56
386.013	1136.56
386.238	1158.56
386.463	1002.56
386.688	937.56
386.913	901.56
387.138	882.56
387.363	917.56
387.588	939.56
387.813	956.56
388.038	1042.56
388.263	968.56
388.488	912.56
388.713	1029.56
388.938	1150.56
389.163	969.56
389.387	881.56
389.612	901.56
389.837	920.56
390.062	911.56
390.287	938.56
390.512	945.56
390.736	907.56
390.961	864.56
391.186	832.56
391.411	841.56
391.636	859.56
391.86	913.56
392.085	960.56
392.31	996.56
392.534	905.56
392.759	864.56
392.984	938.56
393.208	930.56
393.433	879.56
393.658	826.56
393.882	782.56
394.107	781.56
394.331	774.56
394.556	777.56
394.78	782.56
395.005	824.56
395.229	852.56
395.454	849.56
395.678	886.56
395.903	857.56
396.127	830.56
396.352	861.56
396.576	944.56
396.801	974.56
397.025	1063.56
397.249	1094.56
397.474	906.56
397.698	898.56
397.922	941.56
398.147	912.56
398.371	894.56
398.595	933.56
398.82	908.56
399.044	940.56
399.268	972.56
399.492	1030.56
399.717	1045.56
399.941	1072.56
400.165	1018.56
400.389	1026.56
400.613	1019.56
400.837	1032.56
401.062	902.56
401.286	872.56
401.51	898.56
401.734	883.56
401.958	909.56
402.182	888.56
402.406	888.56
402.63	899.56
402.854	945.56
403.078	1028.56
403.302	1262.56
403.526	1269.56
403.75	1195.56
403.974	1067.56
404.198	1068.56
404.422	1207.56
404.645	1352.56
404.869	1489.56
405.093	1159.56
405.317	974.56
405.541	957.56
405.765	992.56
405.988	1028.56
406.212	1077.56
406.436	1268.56
406.66	1338.56
406.883	1127.56
407.107	1141.56
407.331	1323.56
407.555	1266.56
407.778	1089.56
408.002	1020.56
408.226	1031.56
408.449	1045.56
408.673	1004.56
408.896	920.56
409.12	881.56
409.344	894.56
409.567	870.56
409.791	892.56
410.014	865.56
410.238	852.56
410.461	893.56
410.685	904.56
410.908	892.56
411.132	900.56
411.355	901.56
411.578	931.56
411.802	886.56
412.025	946.56
412.249	973.56
412.472	972.56
412.695	948.56
412.919	933.56
413.142	927.56
413.365	1000.56
413.589	1019.56
413.812	935.56
414.035	930.56
414.258	908.56
414.482	1000.56
414.705	1036.56
414.928	895.56
415.151	847.56
415.374	874.56
415.597	863.56
415.821	890.56
416.044	870.56
416.267	861.56
416.49	846.56
416.713	828.56
416.936	829.56
417.159	847.56
417.382	851.56
417.605	878.56
417.828	910.56
418.051	868.56
418.274	890.56
418.497	913.56
418.72	917.56
418.943	913.56
419.166	963.56
419.389	1016.56
419.611	1009.56
419.834	1021.56
420.057	1078.56
420.28	1078.56
420.503	996.56
420.726	891.56
420.948	864.56
421.171	879.56
421.394	860.56
421.617	838.56
421.839	887.56
422.062	916.56
422.285	894.56
422.507	916.56
422.73	952.56
422.953	958.56
423.175	929.56
423.398	919.56
423.621	968.56
423.843	1038.56
424.066	956.56
424.288	902.56
424.511	897.56
424.733	896.56
424.956	930.56
425.178	1062.56
425.401	1163.56
425.623	1300.56
425.846	1090.56
426.068	987.56
426.291	1069.56
426.513	1022.56
426.735	908.56
426.958	977.56
427.18	1129.56
427.402	1438.56
427.625	1390.56
427.847	1170.56
428.069	892.56
428.292	854.56
428.514	858.56
428.736	861.56
428.958	936.56
429.181	1082.56
429.403	947.56
429.625	847.56
429.847	855.56
430.069	869.56
430.292	887.56
430.514	843.56
430.736	938.56
430.958	1146.56
431.18	1063.56
431.402	832.56
431.624	814.56
431.846	797.56
432.068	767.56
432.29	806.56
432.512	889.56
432.734	1121.56
432.956	1103.56
433.178	845.56
433.4	845.56
433.622	817.56
433.844	862.56
434.066	899.56
434.287	871.56
434.509	883.56
434.731	901.56
434.953	880.56
435.175	910.56
435.397	978.56
435.618	876.56
435.84	806.56
436.062	802.56
436.284	846.56
436.505	800.56
436.727	793.56
436.949	782.56
437.17	824.56
437.392	840.56
437.614	812.56
437.835	824.56
438.057	814.56
438.278	956.56
438.5	1338.56
438.721	1323.56
438.943	932.56
439.165	775.56
439.386	774.56
439.608	789.56
439.829	779.56
440.05	801.56
440.272	832.56
440.493	972.56
440.715	1195.56
440.936	982.56
441.158	836.56
441.379	858.56
441.6	954.56
441.822	993.56
442.043	885.56
442.264	863.56
442.486	869.56
442.707	857.56
442.928	853.56
443.149	848.56
443.371	882.56
443.592	920.56
443.813	888.56
444.034	885.56
444.255	920.56
444.476	925.56
444.698	918.56
444.919	911.56
445.14	1032.56
445.361	990.56
445.582	947.56
445.803	920.56
446.024	941.56
446.245	901.56
446.466	892.56
446.687	863.56
446.908	871.56
447.129	820.56
447.35	777.56
447.571	802.56
447.792	783.56
448.013	797.56
448.234	764.56
448.455	770.56
448.675	775.56
448.896	802.56
449.117	789.56
449.338	790.56
449.559	831.56
449.779	862.56
450	836.56
450.221	811.56
450.442	811.56
450.662	786.56
450.883	762.56
451.104	789.56
451.324	783.56
451.545	789.56
451.766	800.56
451.986	794.56
452.207	767.56
452.428	762.56
452.648	741.56
452.869	796.56
453.089	812.56
453.31	831.56
453.53	725.56
453.751	716.56
453.971	722.56
454.192	783.56
454.412	808.56
454.633	770.56
454.853	747.56
455.073	732.56
455.294	721.56
455.514	731.56
455.734	767.56
455.955	794.56
456.175	837.56
456.395	733.56
456.616	687.56
456.836	692.56
457.056	686.56
457.276	663.56
457.497	686.56
457.717	704.56
457.937	709.56
458.157	694.56
458.377	725.56
458.598	731.56
458.818	734.56
459.038	789.56
459.258	807.56
459.478	836.56
459.698	888.56
459.918	883.56
460.138	851.56
460.358	860.56
460.578	858.56
460.798	875.56
461.018	883.56
461.238	837.56
461.458	845.56
461.678	882.56
461.898	911.56
462.118	925.56
462.338	925.56
462.558	939.56
462.777	944.56
462.997	978.56
463.217	1014.56
463.437	1009.56
463.657	1020.56
463.876	948.56
464.096	957.56
464.316	958.56
464.536	971.56
464.755	998.56
464.975	986.56
465.195	965.56
465.414	983.56
465.634	945.56
465.854	907.56
466.073	859.56
466.293	863.56
466.512	921.56
466.732	1020.56
466.951	1008.56
467.171	915.56
467.391	879.56
467.61	844.56
467.829	894.56
468.049	915.56
468.268	841.56
468.488	847.56
468.707	900.56
468.927	1026.56
469.146	1144.56
469.365	1004.56
469.585	948.56
469.804	997.56
470.023	1096.56
470.243	967.56
470.462	891.56
470.681	909.56
470.901	935.56
471.12	952.56
471.339	943.56
471.558	935.56
471.777	919.56
471.997	987.56
472.216	1070.56
472.435	1054.56
472.654	964.56
472.873	931.56
473.092	988.56
473.311	996.56
473.53	935.56
473.749	887.56
473.968	969.56
474.187	959.56
474.406	913.56
474.625	897.56
474.844	913.56
475.063	1011.56
475.282	1023.56
475.501	1039.56
475.72	1108.56
475.939	1097.56
476.158	1053.56
476.377	1228.56
476.596	1370.56
476.814	1425.56
477.033	1200.56
477.252	1030.56
477.471	975.56
477.69	1007.56
477.908	1079.56
478.127	1133.56
478.346	1059.56
478.564	1141.56
478.783	1052.56
479.002	1084.56
479.22	1272.56
479.439	1382.56
479.658	1202.56
479.876	1112.56
480.095	1167.56
480.313	1218.56
480.532	1101.56
480.751	1096.56
480.969	1102.56
481.188	1239.56
481.406	1265.56
481.624	1206.56
481.843	1118.56
482.061	1044.56
482.28	1176.56
482.498	1412.56
482.717	1326.56
482.935	1170.56
483.153	1118.56
483.372	1058.56
483.59	1050.56
483.808	1020.56
484.027	1035.56
484.245	990.56
484.463	962.56
484.681	1023.56
484.9	1106.56
485.118	1176.56
485.336	1110.56
485.554	1013.56
485.772	1074.56
485.99	1124.56
486.209	1181.56
486.427	1218.56
486.645	1194.56
486.863	1221.56
487.081	1190.56
487.299	1329.56
487.517	1294.56
487.735	1186.56
487.953	1228.56
488.171	1236.56
488.389	1160.56
488.607	1100.56
488.825	1154.56
489.043	1230.56
489.261	1402.56
489.479	1471.56
489.696	1263.56
489.914	1176.56
490.132	1104.56
490.35	1124.56
490.568	1097.56
490.786	1093.56
491.003	1137.56
491.221	1169.56
491.439	1090.56
491.657	1140.56
491.874	1188.56
492.092	1397.56
492.31	1686.56
492.527	1693.56
492.745	1439.56
492.963	1278.56
493.18	1280.56
493.398	1263.56
493.615	1287.56
493.833	1236.56
494.05	1212.56
494.268	1228.56
494.485	1215.56
494.703	1188.56
494.92	1220.56
495.138	1201.56
495.355	1176.56
495.573	1233.56
495.79	1328.56
496.008	1696.56
496.225	1477.56
496.442	1336.56
496.66	1295.56
496.877	1381.56
497.094	1376.56
497.312	1290.56
497.529	1252.56
497.746	1242.56
497.963	1324.56
498.181	1447.56
498.398	1556.56
498.615	1604.56
498.832	1658.56
499.049	1705.56
499.267	1507.56
499.484	1552.56
499.701	1618.56
499.918	1714.56
500.135	1850.56
500.352	1887.56
500.569	1939.56
500.786	2012.56
501.003	1986.56
501.22	1808.56
501.437	1688.56
501.654	1637.56
501.871	1576.56
502.088	1638.56
502.305	1528.56
502.522	1496.56
502.739	1494.56
502.956	1341.56
503.172	1330.56
503.389	1294.56
503.606	1282.56
503.823	1263.56
504.04	1285.56
504.256	1304.56
504.473	1298.56
504.69	1360.56
504.907	1373.56
505.123	1328.56
505.34	1430.56
505.557	1388.56
505.773	1289.56
505.99	1265.56
506.207	1295.56
506.423	1216.56
506.64	1171.56
506.856	1242.56
507.073	1352.56
507.289	1310.56
507.506	1313.56
507.722	1377.56
507.939	1423.56
508.155	1423.56
508.372	1306.56
508.588	1253.56
508.805	1228.56
509.021	1189.56
509.238	1160.56
509.454	1152.56
509.67	1145.56
509.887	1183.56
510.103	1307.56
510.319	1277.56
510.536	1153.56
510.752	1112.56
510.968	1009.56
511.184	1014.56
511.401	1018.56
511.617	1044.56
511.833	1041.56
512.049	1050.56
512.265	1085.56
512.481	1092.56
512.698	1158.56
512.914	1324.56
513.13	1202.56
513.346	1143.56
513.562	1161.56
513.778	1141.56
513.994	1118.56
514.21	1168.56
514.426	1150.56
514.642	1125.56
514.858	1123.56
515.074	1163.56
515.29	1246.56
515.506	1383.56
515.721	1335.56
515.937	1230.56
516.153	1136.56
516.369	1143.56
516.585	1182.56
516.801	1360.56
517.016	1528.56
517.232	1479.56
517.448	1496.56
517.664	1356.56
517.879	1254.56
518.095	1228.56
518.311	1275.56
518.527	1302.56
518.742	1344.56
518.958	1447.56
519.173	1342.56
519.389	1363.56
519.605	1380.56
519.82	1454.56
520.036	1650.56
520.251	1668.56
520.467	1520.56
520.682	2258.56
520.898	2724.56
521.113	2522.56
521.329	1646.56
521.544	1470.56
521.76	1462.56
521.975	1331.56
522.19	1216.56
522.406	1294.56
522.621	1442.56
522.836	1468.56
523.052	1512.56
523.267	1251.56
523.482	1240.56
523.698	1327.56
523.913	1332.56
524.128	1212.56
524.343	1161.56
524.559	1156.56
524.774	1122.56
524.989	1129.56
525.204	1156.56
525.419	1290.56
525.634	1182.56
525.849	1229.56
526.064	1241.56
526.28	1233.56
526.495	1443.56
526.71	1466.56
526.925	1300.56
527.14	1335.56
527.355	1307.56
527.57	1107.56
527.785	1174.56
527.999	1117.56
528.214	1068.56
528.429	1036.56
528.644	1050.56
528.859	997.56
529.074	963.56
529.289	973.56
529.503	974.56
529.718	983.56
529.933	1164.56
530.148	1176.56
530.363	1024.56
530.577	989.56
530.792	1008.56
531.007	963.56
531.221	946.56
531.436	967.56
531.651	983.56
531.865	986.56
532.08	1010.56
532.295	973.56
532.509	1018.56
532.724	1138.56
532.938	1242.56
533.153	1437.56
533.367	1183.56
533.582	1175.56
533.796	1068.56
534.011	992.56
534.225	1010.56
534.44	1010.56
534.654	1069.56
534.868	1208.56
535.083	1087.56
535.297	1026.56
535.511	978.56
535.726	1123.56
535.94	1032.56
536.154	1006.56
536.369	982.56
536.583	976.56
536.797	987.56
537.011	981.56
537.225	1079.56
537.44	1124.56
537.654	1014.56
537.868	986.56
538.082	982.56
538.296	994.56
538.51	1074.56
538.724	1038.56
538.938	1015.56
539.153	956.56
539.367	963.56
539.581	968.56
539.795	1015.56
540.009	1120.56
540.222	1029.56
540.436	1034.56
540.65	1121.56
540.864	1112.56
541.078	1135.56
541.292	1322.56
541.506	1081.56
541.72	1040.56
541.934	1026.56
542.147	1010.56
542.361	1032.56
542.575	1030.56
542.789	971.56
543.002	908.56
543.216	1015.56
543.43	914.56
543.644	940.56
543.857	895.56
544.071	918.56
544.285	939.56
544.498	910.56
544.712	883.56
544.925	963.56
545.139	934.56
545.352	903.56
545.566	900.56
545.779	1035.56
545.993	952.56
546.206	874.56
546.42	882.56
546.633	874.56
546.847	844.56
547.06	862.56
547.274	851.56
547.487	867.56
547.7	927.56
547.914	953.56
548.127	1080.56
548.34	1055.56
548.554	946.56
548.767	975.56
548.98	1024.56
549.193	989.56
549.407	981.56
549.62	1148.56
549.833	1078.56
550.046	1090.56
550.259	1136.56
550.473	996.56
550.686	998.56
550.899	986.56
551.112	967.56
551.325	1018.56
551.538	1052.56
551.751	928.56
551.964	903.56
552.177	881.56
552.39	863.56
552.603	876.56
552.816	926.56
553.029	883.56
553.242	851.56
553.455	938.56
553.667	1008.56
553.88	963.56
554.093	899.56
554.306	836.56
554.519	798.56
554.732	794.56
554.944	777.56
555.157	739.56
555.37	765.56
555.583	782.56
555.795	763.56
556.008	798.56
556.221	807.56
556.433	790.56
556.646	780.56
556.859	779.56
557.071	795.56
557.284	801.56
557.496	814.56
557.709	799.56
557.921	789.56
558.134	740.56
558.346	714.56
558.559	729.56
558.771	770.56
558.984	806.56
559.196	752.56
559.409	711.56
559.621	730.56
559.833	714.56
560.046	733.56
560.258	709.56
560.47	732.56
560.683	734.56
560.895	679.56
561.107	686.56
561.32	685.56
561.532	664.56
561.744	717.56
561.956	748.56
562.168	712.56
562.381	677.56
562.593	718.56
562.805	714.56
563.017	702.56
563.229	682.56
563.441	660.56
563.653	652.56
563.865	685.56
564.077	694.56
564.289	674.56
564.501	678.56
564.713	736.56
564.925	716.56
565.137	688.56
565.349	703.56
565.561	704.56
565.773	719.56
565.985	706.56
566.197	774.56
566.408	839.56
566.62	834.56
566.832	820.56
567.044	826.56
567.255	888.56
567.467	951.56
567.679	878.56
567.891	875.56
568.102	897.56
568.314	881.56
568.526	859.56
568.737	857.56
568.949	837.56
569.161	738.56
569.372	683.56
569.584	700.56
569.795	643.56
570.007	687.56
570.218	754.56
570.43	707.56
570.641	676.56
570.853	663.56
571.064	652.56
571.276	660.56
571.487	702.56
571.698	666.56
571.91	666.56
572.121	645.56
572.333	612.56
572.544	611.56
572.755	628.56
572.966	611.56
573.178	593.56
573.389	613.56
573.6	635.56
573.811	611.56
574.023	558.56
574.234	562.56
574.445	565.56
574.656	546.56
574.867	567.56
575.078	582.56
575.289	605.56
575.501	621.56
575.712	572.56
575.923	531.56
576.134	551.56
576.345	551.56
576.556	542.56
576.767	546.56
576.978	532.56
577.188	539.56
577.399	528.56
577.61	511.56
577.821	504.56
578.032	535.56
578.243	565.56
578.454	549.56
578.665	565.56
578.875	551.56
579.086	525.56
579.297	558.56
579.508	580.56
579.718	545.56
579.929	572.56
580.14	525.56
580.35	492.56
580.561	490.56
580.772	490.56
580.982	476.56
581.193	463.56
581.403	459.56
581.614	468.56
581.825	441.56
582.035	460.56
582.246	485.56
582.456	452.56
582.667	471.56
582.877	455.56
583.087	445.56
583.298	456.56
583.508	456.56
583.719	443.56
583.929	452.56
584.139	438.56
584.35	450.56
584.56	469.56
584.77	485.56
584.981	468.56
585.191	460.56
585.401	460.56
585.611	468.56
585.821	484.56
586.032	494.56
586.242	444.56
586.452	482.56
586.662	460.56
586.872	474.56
587.082	475.56
587.292	481.56
587.502	480.56
587.713	454.56
587.923	486.56
588.133	481.56
588.343	477.56
588.553	474.56
588.762	440.56
588.972	459.56
589.182	479.56
589.392	438.56
589.602	446.56
589.812	461.56
590.022	518.56
590.232	488.56
590.441	444.56
590.651	457.56
590.861	456.56
591.071	434.56
591.281	451.56
591.49	441.56
591.7	458.56
591.91	433.56
592.119	435.56
592.329	440.56
592.539	449.56
592.748	468.56
592.958	460.56
593.167	468.56
593.377	469.56
593.587	487.56
593.796	476.56
594.006	482.56
594.215	468.56
594.424	477.56
594.634	486.56
594.843	480.56
595.053	446.56
595.262	456.56
595.472	450.56
595.681	439.56
595.89	442.56
596.1	412.56
596.309	455.56
596.518	418.56
596.727	404.56
596.937	420.56
597.146	432.56
597.355	446.56
597.564	432.56
597.774	395.56
597.983	390.56
598.192	380.56
598.401	404.56
598.61	373.56
598.819	385.56
599.028	397.56
599.237	384.56
599.446	366.56
599.655	388.56
599.864	378.56
600.073	373.56
600.282	391.56
600.491	367.56
600.7	379.56
600.909	372.56
601.118	382.56
601.327	372.56
601.536	373.56
601.745	359.56
601.953	394.56
602.162	400.56
602.371	382.56
602.58	397.56
602.789	386.56
602.997	380.56
603.206	366.56
603.415	376.56
603.623	347.56
603.832	358.56
604.041	359.56
604.249	363.56
604.458	384.56
604.666	354.56
604.875	341.56
605.084	359.56
605.292	335.56
605.501	348.56
605.709	368.56
605.918	338.56
606.126	347.56
606.334	357.56
606.543	336.56
606.751	357.56
606.96	339.56
607.168	362.56
607.376	342.56
607.585	337.56
607.793	357.56
608.001	335.56
608.21	364.56
608.418	354.56
608.626	349.56
608.834	354.56
609.043	340.56
609.251	338.56
609.459	327.56
609.667	333.56
609.875	333.56
610.083	348.56
610.291	367.56
610.499	367.56
610.707	324.56
610.916	344.56
611.124	337.56
611.332	332.56
611.54	328.56
611.748	335.56
611.955	339.56
612.163	325.56
612.371	328.56
612.579	330.56
612.787	331.56
612.995	349.56
613.203	334.56
613.411	321.56
613.618	330.56
613.826	338.56
614.034	357.56
614.242	338.56
614.449	321.56
614.657	316.56
614.865	336.56
615.072	323.56
615.28	335.56
615.488	341.56
615.695	316.56
615.903	322.56
616.111	325.56
616.318	340.56
616.526	327.56
616.733	312.56
616.941	324.56
617.148	301.56
617.356	320.56
617.563	331.56
617.771	320.56
617.978	310.56
618.185	312.56
618.393	282.56
618.6	303.56
618.807	319.56
619.015	304.56
619.222	323.56
619.429	309.56
619.637	293.56
619.844	304.56
620.051	302.56
620.258	293.56
620.466	295.56
620.673	303.56
620.88	284.56
621.087	279.56
621.294	293.56
621.501	296.56
621.708	296.56
621.915	288.56
622.122	303.56
622.329	294.56
622.536	310.56
622.743	284.56
622.95	274.56
623.157	287.56
623.364	288.56
623.571	303.56
623.778	303.56
623.985	287.56
624.192	300.56
624.399	303.56
624.606	301.56
624.812	311.56
625.019	290.56
625.226	312.56
625.433	317.56
625.639	298.56
625.846	280.56
626.053	273.56
626.259	279.56
626.466	279.56
626.673	301.56
626.879	275.56
627.086	247.56
627.293	279.56
627.499	259.56
627.706	278.56
627.912	274.56
628.119	271.56
628.325	268.56
628.532	271.56
628.738	280.56
628.945	272.56
629.151	262.56
629.357	250.56
629.564	248.56
629.77	250.56
629.976	252.56
630.183	258.56
630.389	271.56
630.595	258.56
630.802	259.56
631.008	256.56
631.214	264.56
631.42	252.56
631.627	240.56
631.833	253.56
632.039	250.56
632.245	239.56
632.451	250.56
632.657	238.56
632.863	241.56
633.069	256.56
633.275	235.56
633.481	233.56
633.688	258.56
633.893	244.56
634.099	260.56
634.305	244.56
634.511	234.56
634.717	237.56
634.923	237.56
635.129	238.56
635.335	231.56
635.541	226.56
635.747	229.56
635.952	250.56
636.158	227.56
636.364	232.56
636.57	232.56
636.775	227.56
636.981	234.56
637.187	233.56
637.392	222.56
637.598	230.56
637.804	236.56
638.009	242.56
638.215	217.56
638.421	212.56
638.626	214.56
638.832	214.56
639.037	204.56
639.243	213.56
639.448	230.56
639.654	242.56
639.859	252.56
640.065	222.56
640.27	229.56
640.475	230.56
640.681	222.56
640.886	222.56
641.091	223.56
641.297	221.56
641.502	207.56
641.707	225.56
641.913	225.56
642.118	212.56
642.323	212.56
642.528	224.56
642.733	220.56
642.939	226.56
643.144	207.56
643.349	210.56
643.554	216.56
643.759	207.56
643.964	208.56
644.169	216.56
644.374	220.56
644.579	208.56
644.784	216.56
644.989	202.56
645.194	208.56
645.399	219.56
645.604	198.56
645.809	229.56
646.014	202.56
646.219	197.56
646.423	211.56
646.628	215.56
646.833	209.56
647.038	203.56
647.243	205.56
647.447	191.56
647.652	206.56
647.857	206.56
648.062	198.56
648.266	210.56
648.471	209.56
648.676	192.56
648.88	212.56
649.085	202.56
649.289	213.56
649.494	205.56
649.698	219.56
649.903	196.56
650.107	197.56
650.312	202.56
650.516	184.56
650.721	204.56
650.925	205.56
651.13	182.56
651.334	184.56
651.539	194.56
651.743	174.56
651.947	170.56
652.152	178.56
652.356	181.56
652.56	173.56
652.764	182.56
652.969	171.56
653.173	163.56
653.377	164.56
653.581	162.56
653.785	160.56
653.99	167.56
654.194	165.56
654.398	174.56
654.602	162.56
654.806	143.56
655.01	155.56
655.214	173.56
655.418	164.56
655.622	169.56
655.826	158.56
656.03	168.56
656.234	163.56
656.438	164.56
656.642	146.56
656.846	160.56
657.049	148.56
657.253	134.56
657.457	150.56
657.661	145.56
657.865	124.56
658.068	120.56
658.272	122.56
658.476	112.56
658.68	122.56
658.883	104.56
659.087	115.56
659.291	118.56
659.494	108.56
659.698	120.56
659.901	117.56
660.105	106.56
660.309	115.56
660.512	97.56
660.716	108.56
660.919	116.56
661.123	103.56
661.326	93.56
661.53	84.56
661.733	87.56
661.936	100.56
662.14	92.56
662.343	80.56
662.546	80.56
662.75	86.56
662.953	90.56
663.156	72.56
663.36	80.56
663.563	97.56
663.766	93.56
663.969	90.56
664.173	89.56
664.376	71.56
664.579	86.56
664.782	80.56
664.985	83.56
665.188	78.56
665.391	80.56
665.594	76.56
665.797	79.56
666	62.56
666.203	90.56
666.406	87.56
666.609	72.56
666.812	88.56
667.015	80.56
667.218	67.56
667.421	84.56
667.624	75.56
667.827	85.56
668.03	73.56
668.232	64.56
668.435	91.56
668.638	86.56
668.841	87.56
669.043	80.56
669.246	99.56
669.449	90.56
669.651	88.56
669.854	90.56
670.057	73.56
670.259	69.56
670.462	81.56
670.665	95.56
670.867	80.56
671.07	77.56
671.272	96.56
671.475	83.56
671.677	85.56
671.88	81.56
672.082	73.56
672.284	87.56
672.487	80.56
672.689	80.56
672.892	94.56
