Data from NickelSpatula_HRD10591_16-36-36-126.txt Node
Date: Mon Jul 22 16:36:36 EDT 2019
User: cochatt
Spectrometer: HR+D1059
Trigger mode: 1
Integration Time (sec): 1.000000E-1
Scans to average: 1
Electric dark correction enabled: true
Nonlinearity correction enabled: false
Boxcar width: 0
XAxis mode: Wavelengths
Number of Pixels in Spectrum: 2048
>>>>>Begin Spectral Data<<<<<
223.165	-11.25
223.4	-11.25
223.635	-11.25
223.869	-14.25
224.104	-21.25
224.338	-23.25
224.573	-21.25
224.808	-26.25
225.042	-8.25
225.277	-8.25
225.511	-9.25
225.746	18.75
225.98	10.75
226.215	10.75
226.449	11.75
226.683	18.75
226.918	35.75
227.152	36.75
227.387	46.75
227.621	41.75
227.856	36.75
228.09	40.75
228.324	60.75
228.559	48.75
228.793	50.75
229.027	72.75
229.262	85.75
229.496	65.75
229.73	80.75
229.964	82.75
230.199	79.75
230.433	79.75
230.667	93.75
230.901	91.75
231.136	64.75
231.37	93.75
231.604	77.75
231.838	90.75
232.072	81.75
232.306	100.75
232.541	86.75
232.775	82.75
233.009	88.75
233.243	94.75
233.477	100.75
233.711	95.75
233.945	92.75
234.179	89.75
234.413	94.75
234.647	93.75
234.881	94.75
235.115	96.75
235.349	93.75
235.583	91.75
235.817	97.75
236.051	83.75
236.285	93.75
236.519	88.75
236.753	99.75
236.987	90.75
237.221	101.75
237.455	93.75
237.689	92.75
237.922	96.75
238.156	104.75
238.39	99.75
238.624	97.75
238.858	98.75
239.091	104.75
239.325	105.75
239.559	103.75
239.793	106.75
240.027	102.75
240.26	98.75
240.494	98.75
240.728	96.75
240.961	101.75
241.195	101.75
241.429	102.75
241.662	104.75
241.896	104.75
242.13	104.75
242.363	97.75
242.597	97.75
242.83	105.75
243.064	108.75
243.298	104.75
243.531	106.75
243.765	97.75
243.998	95.75
244.232	117.75
244.465	111.75
244.699	101.75
244.932	115.75
245.166	92.75
245.399	111.75
245.633	105.75
245.866	102.75
246.099	112.75
246.333	114.75
246.566	104.75
246.8	112.75
247.033	111.75
247.266	115.75
247.5	98.75
247.733	99.75
247.966	96.75
248.2	109.75
248.433	107.75
248.666	104.75
248.899	112.75
249.133	126.75
249.366	112.75
249.599	119.75
249.832	125.75
250.066	129.75
250.299	113.75
250.532	115.75
250.765	120.75
250.998	112.75
251.231	115.75
251.465	104.75
251.698	112.75
251.931	115.75
252.164	108.75
252.397	123.75
252.63	110.75
252.863	130.75
253.096	137.75
253.329	120.75
253.562	120.75
253.795	135.75
254.028	139.75
254.261	131.75
254.494	137.75
254.727	125.75
254.96	122.75
255.193	130.75
255.426	120.75
255.659	106.75
255.892	126.75
256.124	131.75
256.357	112.75
256.59	122.75
256.823	133.75
257.056	116.75
257.289	123.75
257.521	122.75
257.754	122.75
257.987	130.75
258.22	131.75
258.452	114.75
258.685	130.75
258.918	122.75
259.151	127.75
259.383	142.75
259.616	127.75
259.849	145.75
260.081	148.75
260.314	163.75
260.547	160.75
260.779	137.75
261.012	152.75
261.244	142.75
261.477	147.75
261.71	136.75
261.942	126.75
262.175	138.75
262.407	122.75
262.64	137.75
262.872	140.75
263.105	147.75
263.337	157.75
263.57	140.75
263.802	122.75
264.035	122.75
264.267	104.75
264.499	102.75
264.732	99.75
264.964	90.75
265.197	117.75
265.429	95.75
265.661	115.75
265.894	118.75
266.126	126.75
266.358	134.75
266.591	121.75
266.823	127.75
267.055	126.75
267.287	135.75
267.52	128.75
267.752	147.75
267.984	131.75
268.216	136.75
268.448	138.75
268.681	140.75
268.913	130.75
269.145	128.75
269.377	149.75
269.609	132.75
269.841	150.75
270.073	126.75
270.306	132.75
270.538	129.75
270.77	146.75
271.002	135.75
271.234	130.75
271.466	138.75
271.698	145.75
271.93	134.75
272.162	128.75
272.394	138.75
272.626	134.75
272.858	160.75
273.09	140.75
273.322	124.75
273.553	130.75
273.785	136.75
274.017	158.75
274.249	183.75
274.481	198.75
274.713	199.75
274.945	202.75
275.176	203.75
275.408	187.75
275.64	195.75
275.872	179.75
276.104	175.75
276.335	169.75
276.567	168.75
276.799	167.75
277.031	152.75
277.262	152.75
277.494	130.75
277.726	132.75
277.957	124.75
278.189	150.75
278.421	131.75
278.652	145.75
278.884	135.75
279.115	140.75
279.347	121.75
279.579	117.75
279.81	117.75
280.042	127.75
280.273	127.75
280.505	116.75
280.736	125.75
280.968	111.75
281.199	128.75
281.431	129.75
281.662	120.75
281.894	122.75
282.125	128.75
282.356	151.75
282.588	137.75
282.819	126.75
283.051	134.75
283.282	155.75
283.513	160.75
283.745	170.75
283.976	171.75
284.207	175.75
284.439	168.75
284.67	174.75
284.901	136.75
285.132	168.75
285.364	156.75
285.595	170.75
285.826	160.75
286.057	170.75
286.288	168.75
286.52	163.75
286.751	159.75
286.982	168.75
287.213	161.75
287.444	150.75
287.675	141.75
287.906	155.75
288.138	158.75
288.369	138.75
288.6	144.75
288.831	146.75
289.062	129.75
289.293	153.75
289.524	144.75
289.755	146.75
289.986	148.75
290.217	138.75
290.448	134.75
290.679	115.75
290.91	113.75
291.141	107.75
291.371	115.75
291.602	114.75
291.833	116.75
292.064	137.75
292.295	121.75
292.526	137.75
292.757	139.75
292.987	132.75
293.218	132.75
293.449	140.75
293.68	151.75
293.91	142.75
294.141	132.75
294.372	150.75
294.603	146.75
294.833	155.75
295.064	165.75
295.295	163.75
295.525	127.75
295.756	122.75
295.987	115.75
296.217	107.75
296.448	124.75
296.679	124.75
296.909	139.75
297.14	118.75
297.37	140.75
297.601	127.75
297.831	137.75
298.062	122.75
298.292	135.75
298.523	144.75
298.753	149.75
298.984	131.75
299.214	128.75
299.445	123.75
299.675	112.75
299.905	112.75
300.136	113.75
300.366	107.75
300.597	115.75
300.827	135.75
301.057	118.75
301.288	110.75
301.518	125.75
301.748	125.75
301.979	119.75
302.209	126.75
302.439	120.75
302.669	123.75
302.9	127.75
303.13	138.75
303.36	131.75
303.59	131.75
303.82	106.75
304.051	124.75
304.281	134.75
304.511	128.75
304.741	120.75
304.971	123.75
305.201	126.75
305.431	128.75
305.661	119.75
305.891	108.75
306.121	110.75
306.352	110.75
306.582	101.75
306.812	113.75
307.042	103.75
307.272	115.75
307.502	93.75
307.731	105.75
307.961	121.75
308.191	110.75
308.421	114.75
308.651	100.75
308.881	119.75
309.111	103.75
309.341	113.75
309.571	130.75
309.8	106.75
310.03	110.75
310.26	110.75
310.49	108.75
310.72	99.75
310.949	106.75
311.179	108.75
311.409	123.75
311.639	128.75
311.868	141.75
312.098	164.75
312.328	148.75
312.557	159.75
312.787	145.75
313.017	127.75
313.246	136.75
313.476	152.75
313.706	154.75
313.935	127.75
314.165	122.75
314.394	122.75
314.624	114.75
314.853	114.75
315.083	102.75
315.312	118.75
315.542	118.75
315.771	106.75
316.001	110.75
316.23	112.75
316.46	103.75
316.689	99.75
316.919	111.75
317.148	98.75
317.377	108.75
317.607	110.75
317.836	109.75
318.065	103.75
318.295	122.75
318.524	112.75
318.753	122.75
318.983	114.75
319.212	99.75
319.441	98.75
319.67	108.75
319.9	117.75
320.129	130.75
320.358	103.75
320.587	119.75
320.816	110.75
321.046	122.75
321.275	138.75
321.504	124.75
321.733	112.75
321.962	133.75
322.191	113.75
322.42	128.75
322.649	123.75
322.878	111.75
323.108	121.75
323.337	103.75
323.566	107.75
323.795	99.75
324.024	102.75
324.253	111.75
324.482	112.75
324.71	107.75
324.939	105.75
325.168	116.75
325.397	101.75
325.626	109.75
325.855	119.75
326.084	111.75
326.313	118.75
326.542	111.75
326.77	118.75
326.999	127.75
327.228	124.75
327.457	119.75
327.686	116.75
327.914	107.75
328.143	109.75
328.372	103.75
328.6	100.75
328.829	91.75
329.058	90.75
329.287	119.75
329.515	100.75
329.744	112.75
329.972	114.75
330.201	111.75
330.43	119.75
330.658	111.75
330.887	99.75
331.115	106.75
331.344	105.75
331.572	115.75
331.801	112.75
332.03	118.75
332.258	98.75
332.486	106.75
332.715	100.75
332.943	111.75
333.172	96.75
333.4	106.75
333.629	104.75
333.857	112.75
334.085	111.75
334.314	114.75
334.542	122.75
334.771	114.75
334.999	110.75
335.227	106.75
335.455	120.75
335.684	111.75
335.912	130.75
336.14	134.75
336.369	122.75
336.597	127.75
336.825	131.75
337.053	127.75
337.281	126.75
337.51	115.75
337.738	103.75
337.966	114.75
338.194	116.75
338.422	120.75
338.65	115.75
338.878	105.75
339.106	112.75
339.334	121.75
339.562	116.75
339.79	120.75
340.018	126.75
340.246	117.75
340.474	119.75
340.702	131.75
340.93	107.75
341.158	122.75
341.386	113.75
341.614	113.75
341.842	117.75
342.07	117.75
342.298	134.75
342.526	121.75
342.754	116.75
342.981	115.75
343.209	122.75
343.437	111.75
343.665	123.75
343.893	126.75
344.12	136.75
344.348	133.75
344.576	120.75
344.804	106.75
345.031	122.75
345.259	98.75
345.487	120.75
345.714	104.75
345.942	101.75
346.17	106.75
346.397	136.75
346.625	121.75
346.853	103.75
347.08	112.75
347.308	116.75
347.535	116.75
347.763	123.75
347.99	134.75
348.218	106.75
348.445	120.75
348.673	128.75
348.9	105.75
349.128	118.75
349.355	105.75
349.583	116.75
349.81	99.75
350.037	94.75
350.265	103.75
350.492	98.75
350.72	108.75
350.947	98.75
351.174	104.75
351.402	110.75
351.629	101.75
351.856	115.75
352.083	102.75
352.311	108.75
352.538	118.75
352.765	107.75
352.992	106.75
353.22	113.75
353.447	120.75
353.674	106.75
353.901	105.75
354.128	120.75
354.355	106.75
354.583	109.75
354.81	122.75
355.037	119.75
355.264	111.75
355.491	112.75
355.718	115.75
355.945	119.75
356.172	123.75
356.399	134.75
356.626	123.75
356.853	150.75
357.08	134.75
357.307	134.75
357.534	120.75
357.761	130.75
357.988	146.75
358.215	137.75
358.441	138.75
358.668	136.75
358.895	118.75
359.122	135.75
359.349	129.75
359.576	119.75
359.802	133.75
360.029	104.75
360.256	119.75
360.483	123.75
360.709	144.75
360.936	124.75
361.163	131.75
361.39	123.75
361.616	118.75
361.843	126.75
362.07	132.75
362.296	120.75
362.523	105.75
362.749	120.75
362.976	116.75
363.203	121.75
363.429	122.75
363.656	107.75
363.882	109.75
364.109	106.75
364.335	104.75
364.562	106.75
364.788	113.75
365.015	112.75
365.241	126.75
365.468	107.75
365.694	103.75
365.92	115.75
366.147	108.75
366.373	106.75
366.599	105.75
366.826	101.75
367.052	106.75
367.278	106.75
367.505	113.75
367.731	102.75
367.957	110.75
368.184	121.75
368.41	105.75
368.636	117.75
368.862	126.75
369.089	118.75
369.315	114.75
369.541	112.75
369.767	112.75
369.993	98.75
370.219	123.75
370.445	119.75
370.672	122.75
370.898	117.75
371.124	105.75
371.35	113.75
371.576	112.75
371.802	113.75
372.028	111.75
372.254	124.75
372.48	111.75
372.706	115.75
372.932	112.75
373.158	117.75
373.384	126.75
373.61	139.75
373.835	140.75
374.061	113.75
374.287	115.75
374.513	128.75
374.739	130.75
374.965	121.75
375.191	118.75
375.416	100.75
375.642	118.75
375.868	120.75
376.094	136.75
376.319	121.75
376.545	102.75
376.771	111.75
376.997	110.75
377.222	95.75
377.448	114.75
377.674	97.75
377.899	107.75
378.125	105.75
378.35	111.75
378.576	113.75
378.802	105.75
379.027	113.75
379.253	113.75
379.478	112.75
379.704	114.75
379.929	123.75
380.155	103.75
380.38	106.75
380.606	104.75
380.831	106.75
381.057	126.75
381.282	117.75
381.507	122.75
381.733	123.75
381.958	136.75
382.184	122.75
382.409	151.75
382.634	145.75
382.86	134.75
383.085	144.75
383.31	110.75
383.535	118.75
383.761	116.75
383.986	121.75
384.211	125.75
384.436	123.75
384.662	115.75
384.887	102.75
385.112	110.75
385.337	113.75
385.562	118.75
385.787	132.75
386.013	147.75
386.238	126.75
386.463	100.75
386.688	103.75
386.913	113.75
387.138	103.75
387.363	114.75
387.588	128.75
387.813	115.75
388.038	115.75
388.263	111.75
388.488	118.75
388.713	124.75
388.938	125.75
389.163	112.75
389.387	108.75
389.612	120.75
389.837	125.75
390.062	114.75
390.287	124.75
390.512	119.75
390.736	110.75
390.961	106.75
391.186	108.75
391.411	97.75
391.636	115.75
391.86	99.75
392.085	105.75
392.31	124.75
392.534	114.75
392.759	106.75
392.984	107.75
393.208	106.75
393.433	102.75
393.658	126.75
393.882	90.75
394.107	112.75
394.331	110.75
394.556	99.75
394.78	107.75
395.005	123.75
395.229	103.75
395.454	121.75
395.678	112.75
395.903	122.75
396.127	118.75
396.352	127.75
396.576	110.75
396.801	123.75
397.025	130.75
397.249	126.75
397.474	123.75
397.698	116.75
397.922	117.75
398.147	114.75
398.371	118.75
398.595	120.75
398.82	122.75
399.044	118.75
399.268	107.75
399.492	112.75
399.717	119.75
399.941	125.75
400.165	108.75
400.389	120.75
400.613	122.75
400.837	123.75
401.062	119.75
401.286	101.75
401.51	120.75
401.734	105.75
401.958	105.75
402.182	108.75
402.406	104.75
402.63	119.75
402.854	120.75
403.078	122.75
403.302	139.75
403.526	132.75
403.75	143.75
403.974	133.75
404.198	134.75
404.422	132.75
404.645	125.75
404.869	136.75
405.093	132.75
405.317	123.75
405.541	114.75
405.765	118.75
405.988	123.75
406.212	120.75
406.436	136.75
406.66	128.75
406.883	139.75
407.107	138.75
407.331	122.75
407.555	129.75
407.778	122.75
408.002	122.75
408.226	123.75
408.449	119.75
408.673	105.75
408.896	123.75
409.12	113.75
409.344	122.75
409.567	98.75
409.791	121.75
410.014	124.75
410.238	107.75
410.461	114.75
410.685	119.75
410.908	100.75
411.132	114.75
411.355	116.75
411.578	120.75
411.802	128.75
412.025	115.75
412.249	126.75
412.472	119.75
412.695	105.75
412.919	120.75
413.142	124.75
413.365	98.75
413.589	122.75
413.812	114.75
414.035	100.75
414.258	119.75
414.482	110.75
414.705	109.75
414.928	122.75
415.151	114.75
415.374	123.75
415.597	114.75
415.821	122.75
416.044	123.75
416.267	116.75
416.49	107.75
416.713	115.75
416.936	128.75
417.159	118.75
417.382	104.75
417.605	128.75
417.828	116.75
418.051	99.75
418.274	115.75
418.497	113.75
418.72	117.75
418.943	110.75
419.166	106.75
419.389	108.75
419.611	127.75
419.834	128.75
420.057	133.75
420.28	128.75
420.503	126.75
420.726	105.75
420.948	105.75
421.171	128.75
421.394	108.75
421.617	111.75
421.839	118.75
422.062	104.75
422.285	95.75
422.507	111.75
422.73	112.75
422.953	119.75
423.175	112.75
423.398	119.75
423.621	118.75
423.843	125.75
424.066	116.75
424.288	126.75
424.511	117.75
424.733	123.75
424.956	110.75
425.178	134.75
425.401	129.75
425.623	133.75
425.846	113.75
426.068	110.75
426.291	116.75
426.513	115.75
426.735	111.75
426.958	104.75
427.18	120.75
427.402	148.75
427.625	138.75
427.847	111.75
428.069	114.75
428.292	116.75
428.514	102.75
428.736	110.75
428.958	114.75
429.181	115.75
429.403	116.75
429.625	121.75
429.847	109.75
430.069	115.75
430.292	129.75
430.514	115.75
430.736	121.75
430.958	128.75
431.18	112.75
431.402	120.75
431.624	107.75
431.846	107.75
432.068	100.75
432.29	109.75
432.512	127.75
432.734	138.75
432.956	108.75
433.178	124.75
433.4	127.75
433.622	115.75
433.844	120.75
434.066	128.75
434.287	104.75
434.509	114.75
434.731	114.75
434.953	111.75
435.175	107.75
435.397	114.75
435.618	110.75
435.84	99.75
436.062	134.75
436.284	97.75
436.505	97.75
436.727	116.75
436.949	120.75
437.17	113.75
437.392	103.75
437.614	119.75
437.835	106.75
438.057	122.75
438.278	122.75
438.5	125.75
438.721	124.75
438.943	121.75
439.165	108.75
439.386	109.75
439.608	103.75
439.829	113.75
440.05	110.75
440.272	113.75
440.493	111.75
440.715	115.75
440.936	114.75
441.158	111.75
441.379	105.75
441.6	118.75
441.822	122.75
442.043	119.75
442.264	115.75
442.486	118.75
442.707	121.75
442.928	120.75
443.149	111.75
443.371	116.75
443.592	120.75
443.813	118.75
444.034	111.75
444.255	115.75
444.476	121.75
444.698	103.75
444.919	106.75
445.14	247.75
445.361	178.75
445.582	122.75
445.803	105.75
446.024	121.75
446.245	119.75
446.466	112.75
446.687	107.75
446.908	122.75
447.129	105.75
447.35	117.75
447.571	113.75
447.792	94.75
448.013	112.75
448.234	108.75
448.455	114.75
448.675	106.75
448.896	104.75
449.117	115.75
449.338	120.75
449.559	111.75
449.779	124.75
450	116.75
450.221	119.75
450.442	120.75
450.662	100.75
450.883	101.75
451.104	102.75
451.324	113.75
451.545	112.75
451.766	124.75
451.986	115.75
452.207	104.75
452.428	110.75
452.648	114.75
452.869	122.75
453.089	115.75
453.31	113.75
453.53	102.75
453.751	118.75
453.971	106.75
454.192	96.75
454.412	97.75
454.633	111.75
454.853	96.75
455.073	106.75
455.294	97.75
455.514	102.75
455.734	107.75
455.955	112.75
456.175	110.75
456.395	117.75
456.616	94.75
456.836	111.75
457.056	106.75
457.276	102.75
457.497	110.75
457.717	97.75
457.937	113.75
458.157	94.75
458.377	112.75
458.598	111.75
458.818	97.75
459.038	103.75
459.258	111.75
459.478	106.75
459.698	102.75
459.918	118.75
460.138	119.75
460.358	117.75
460.578	126.75
460.798	131.75
461.018	115.75
461.238	117.75
461.458	117.75
461.678	122.75
461.898	122.75
462.118	110.75
462.338	104.75
462.558	134.75
462.777	122.75
462.997	122.75
463.217	120.75
463.437	126.75
463.657	108.75
463.876	100.75
464.096	130.75
464.316	125.75
464.536	126.75
464.755	134.75
464.975	124.75
465.195	128.75
465.414	133.75
465.634	113.75
465.854	117.75
466.073	118.75
466.293	107.75
466.512	105.75
466.732	127.75
466.951	123.75
467.171	128.75
467.391	116.75
467.61	115.75
467.829	121.75
468.049	126.75
468.268	114.75
468.488	105.75
468.707	132.75
468.927	116.75
469.146	130.75
469.365	119.75
469.585	128.75
469.804	123.75
470.023	130.75
470.243	132.75
470.462	122.75
470.681	103.75
470.901	118.75
471.12	122.75
471.339	115.75
471.558	119.75
471.777	112.75
471.997	123.75
472.216	118.75
472.435	122.75
472.654	106.75
472.873	119.75
473.092	118.75
473.311	127.75
473.53	111.75
473.749	120.75
473.968	123.75
474.187	135.75
474.406	104.75
474.625	105.75
474.844	137.75
475.063	124.75
475.282	128.75
475.501	122.75
475.72	136.75
475.939	128.75
476.158	133.75
476.377	122.75
476.596	151.75
476.814	133.75
477.033	144.75
477.252	113.75
477.471	120.75
477.69	122.75
477.908	138.75
478.127	121.75
478.346	118.75
478.564	145.75
478.783	114.75
479.002	124.75
479.22	138.75
479.439	134.75
479.658	119.75
479.876	134.75
480.095	126.75
480.313	138.75
480.532	122.75
480.751	118.75
480.969	134.75
481.188	132.75
481.406	131.75
481.624	131.75
481.843	117.75
482.061	131.75
482.28	135.75
482.498	161.75
482.717	133.75
482.935	130.75
483.153	123.75
483.372	130.75
483.59	117.75
483.808	122.75
484.027	113.75
484.245	120.75
484.463	121.75
484.681	135.75
484.9	119.75
485.118	130.75
485.336	132.75
485.554	122.75
485.772	125.75
485.99	120.75
486.209	128.75
486.427	121.75
486.645	118.75
486.863	129.75
487.081	139.75
487.299	130.75
487.517	130.75
487.735	118.75
487.953	118.75
488.171	134.75
488.389	128.75
488.607	122.75
488.825	131.75
489.043	132.75
489.261	145.75
489.479	141.75
489.696	123.75
489.914	126.75
490.132	123.75
490.35	124.75
490.568	124.75
490.786	116.75
491.003	100.75
491.221	129.75
491.439	123.75
491.657	126.75
491.874	141.75
492.092	158.75
492.31	152.75
492.527	155.75
492.745	140.75
492.963	138.75
493.18	130.75
493.398	136.75
493.615	131.75
493.833	126.75
494.05	123.75
494.268	130.75
494.485	134.75
494.703	120.75
494.92	120.75
495.138	125.75
495.355	125.75
495.573	134.75
495.79	134.75
496.008	155.75
496.225	144.75
496.442	121.75
496.66	136.75
496.877	129.75
497.094	142.75
497.312	122.75
497.529	137.75
497.746	122.75
497.963	127.75
498.181	140.75
498.398	151.75
498.615	141.75
498.832	139.75
499.049	146.75
499.267	139.75
499.484	152.75
499.701	153.75
499.918	173.75
500.135	166.75
500.352	156.75
500.569	155.75
500.786	179.75
501.003	157.75
501.22	174.75
501.437	148.75
501.654	159.75
501.871	131.75
502.088	138.75
502.305	154.75
502.522	134.75
502.739	145.75
502.956	143.75
503.172	139.75
503.389	120.75
503.606	145.75
503.823	125.75
504.04	142.75
504.256	142.75
504.473	141.75
504.69	137.75
504.907	135.75
505.123	130.75
505.34	153.75
505.557	144.75
505.773	138.75
505.99	127.75
506.207	125.75
506.423	128.75
506.64	139.75
506.856	136.75
507.073	136.75
507.289	139.75
507.506	147.75
507.722	154.75
507.939	149.75
508.155	144.75
508.372	132.75
508.588	142.75
508.805	151.75
509.021	136.75
509.238	136.75
509.454	127.75
509.67	140.75
509.887	128.75
510.103	129.75
510.319	141.75
510.536	132.75
510.752	122.75
510.968	123.75
511.184	113.75
511.401	145.75
511.617	133.75
511.833	142.75
512.049	136.75
512.265	120.75
512.481	144.75
512.698	126.75
512.914	122.75
513.13	118.75
513.346	130.75
513.562	124.75
513.778	118.75
513.994	129.75
514.21	129.75
514.426	131.75
514.642	120.75
514.858	128.75
515.074	124.75
515.29	144.75
515.506	147.75
515.721	134.75
515.937	134.75
516.153	146.75
516.369	138.75
516.585	125.75
516.801	131.75
517.016	140.75
517.232	149.75
517.448	150.75
517.664	131.75
517.879	146.75
518.095	136.75
518.311	137.75
518.527	154.75
518.742	144.75
518.958	122.75
519.173	131.75
519.389	144.75
519.605	132.75
519.82	167.75
520.036	151.75
520.251	147.75
520.467	149.75
520.682	204.75
520.898	226.75
521.113	209.75
521.329	169.75
521.544	154.75
521.76	146.75
521.975	138.75
522.19	158.75
522.406	147.75
522.621	150.75
522.836	155.75
523.052	153.75
523.267	143.75
523.482	130.75
523.698	130.75
523.913	138.75
524.128	131.75
524.343	129.75
524.559	133.75
524.774	123.75
524.989	136.75
525.204	147.75
525.419	141.75
525.634	134.75
525.849	143.75
526.064	149.75
526.28	162.75
526.495	147.75
526.71	144.75
526.925	146.75
527.14	144.75
527.355	142.75
527.57	124.75
527.785	136.75
527.999	130.75
528.214	127.75
528.429	131.75
528.644	144.75
528.859	118.75
529.074	133.75
529.289	122.75
529.503	132.75
529.718	132.75
529.933	153.75
530.148	142.75
530.363	140.75
530.577	126.75
530.792	113.75
531.007	143.75
531.221	114.75
531.436	120.75
531.651	125.75
531.865	132.75
532.08	130.75
532.295	117.75
532.509	126.75
532.724	139.75
532.938	146.75
533.153	157.75
533.367	134.75
533.582	132.75
533.796	124.75
534.011	137.75
534.225	119.75
534.44	124.75
534.654	126.75
534.868	143.75
535.083	123.75
535.297	129.75
535.511	140.75
535.726	146.75
535.94	135.75
536.154	119.75
536.369	123.75
536.583	128.75
536.797	126.75
537.011	121.75
537.225	123.75
537.44	136.75
537.654	123.75
537.868	113.75
538.082	136.75
538.296	136.75
538.51	122.75
538.724	134.75
538.938	123.75
539.153	130.75
539.367	130.75
539.581	117.75
539.795	146.75
540.009	138.75
540.222	121.75
540.436	122.75
540.65	131.75
540.864	142.75
541.078	128.75
541.292	152.75
541.506	122.75
541.72	126.75
541.934	128.75
542.147	113.75
542.361	124.75
542.575	117.75
542.789	128.75
543.002	123.75
543.216	127.75
543.43	124.75
543.644	113.75
543.857	120.75
544.071	130.75
544.285	127.75
544.498	125.75
544.712	115.75
544.925	112.75
545.139	103.75
545.352	121.75
545.566	119.75
545.779	115.75
545.993	122.75
546.206	116.75
546.42	125.75
546.633	116.75
546.847	118.75
547.06	104.75
547.274	123.75
547.487	119.75
547.7	131.75
547.914	129.75
548.127	117.75
548.34	119.75
548.554	124.75
548.767	133.75
548.98	128.75
549.193	133.75
549.407	117.75
549.62	134.75
549.833	124.75
550.046	136.75
550.259	126.75
550.473	127.75
550.686	134.75
550.899	128.75
551.112	122.75
551.325	123.75
551.538	121.75
551.751	118.75
551.964	134.75
552.177	129.75
552.39	124.75
552.603	118.75
552.816	112.75
553.029	120.75
553.242	122.75
553.455	137.75
553.667	128.75
553.88	126.75
554.093	130.75
554.306	131.75
554.519	122.75
554.732	114.75
554.944	124.75
555.157	116.75
555.37	116.75
555.583	110.75
555.795	119.75
556.008	124.75
556.221	122.75
556.433	104.75
556.646	116.75
556.859	125.75
557.071	121.75
557.284	108.75
557.496	128.75
557.709	111.75
557.921	118.75
558.134	130.75
558.346	110.75
558.559	109.75
558.771	122.75
558.984	117.75
559.196	114.75
559.409	114.75
559.621	98.75
559.833	122.75
560.046	132.75
560.258	122.75
560.47	107.75
560.683	114.75
560.895	113.75
561.107	107.75
561.32	110.75
561.532	110.75
561.744	119.75
561.956	111.75
562.168	129.75
562.381	105.75
562.593	110.75
562.805	122.75
563.017	107.75
563.229	116.75
563.441	115.75
563.653	125.75
563.865	114.75
564.077	113.75
564.289	102.75
564.501	114.75
564.713	118.75
564.925	112.75
565.137	98.75
565.349	120.75
565.561	106.75
565.773	121.75
565.985	104.75
566.197	118.75
566.408	124.75
566.62	125.75
566.832	124.75
567.044	116.75
567.255	132.75
567.467	129.75
567.679	116.75
567.891	129.75
568.102	116.75
568.314	115.75
568.526	113.75
568.737	133.75
568.949	110.75
569.161	110.75
569.372	114.75
569.584	115.75
569.795	102.75
570.007	116.75
570.218	111.75
570.43	101.75
570.641	112.75
570.853	106.75
571.064	112.75
571.276	108.75
571.487	114.75
571.698	104.75
571.91	111.75
572.121	110.75
572.333	108.75
572.544	77.75
572.755	105.75
572.966	110.75
573.178	109.75
573.389	96.75
573.6	112.75
573.811	110.75
574.023	110.75
574.234	102.75
574.445	108.75
574.656	87.75
574.867	102.75
575.078	95.75
575.289	93.75
575.501	107.75
575.712	104.75
575.923	112.75
576.134	100.75
576.345	95.75
576.556	120.75
576.767	88.75
576.978	107.75
577.188	94.75
577.399	97.75
577.61	101.75
577.821	93.75
578.032	112.75
578.243	123.75
578.454	105.75
578.665	119.75
578.875	103.75
579.086	119.75
579.297	95.75
579.508	106.75
579.718	118.75
579.929	107.75
580.14	108.75
580.35	103.75
580.561	107.75
580.772	101.75
580.982	112.75
581.193	96.75
581.403	90.75
581.614	95.75
581.825	95.75
582.035	89.75
582.246	115.75
582.456	95.75
582.667	99.75
582.877	98.75
583.087	99.75
583.298	101.75
583.508	94.75
583.719	82.75
583.929	106.75
584.139	102.75
584.35	98.75
584.56	86.75
584.77	99.75
584.981	104.75
585.191	93.75
585.401	93.75
585.611	112.75
585.821	88.75
586.032	98.75
586.242	81.75
586.452	81.75
586.662	94.75
586.872	106.75
587.082	114.75
587.292	93.75
587.502	88.75
587.713	100.75
587.923	109.75
588.133	107.75
588.343	88.75
588.553	104.75
588.762	113.75
588.972	95.75
589.182	115.75
589.392	107.75
589.602	111.75
589.812	112.75
590.022	104.75
590.232	90.75
590.441	105.75
590.651	103.75
590.861	101.75
591.071	99.75
591.281	112.75
591.49	101.75
591.7	95.75
591.91	95.75
592.119	95.75
592.329	97.75
592.539	98.75
592.748	89.75
592.958	101.75
593.167	101.75
593.377	108.75
593.587	106.75
593.796	99.75
594.006	91.75
594.215	87.75
594.424	112.75
594.634	94.75
594.843	100.75
595.053	86.75
595.262	95.75
595.472	100.75
595.681	90.75
595.89	92.75
596.1	101.75
596.309	102.75
596.518	95.75
596.727	99.75
596.937	102.75
597.146	100.75
597.355	82.75
597.564	97.75
597.774	108.75
597.983	96.75
598.192	99.75
598.401	90.75
598.61	82.75
598.819	97.75
599.028	86.75
599.237	95.75
599.446	90.75
599.655	102.75
599.864	88.75
600.073	106.75
600.282	94.75
600.491	99.75
600.7	109.75
600.909	97.75
601.118	92.75
601.327	91.75
601.536	87.75
601.745	94.75
601.953	106.75
602.162	97.75
602.371	85.75
602.58	113.75
602.789	92.75
602.997	95.75
603.206	103.75
603.415	102.75
603.623	88.75
603.832	98.75
604.041	95.75
604.249	94.75
604.458	98.75
604.666	116.75
604.875	100.75
605.084	86.75
605.292	99.75
605.501	94.75
605.709	93.75
605.918	101.75
606.126	86.75
606.334	102.75
606.543	84.75
606.751	97.75
606.96	119.75
607.168	95.75
607.376	102.75
607.585	102.75
607.793	89.75
608.001	87.75
608.21	82.75
608.418	94.75
608.626	89.75
608.834	93.75
609.043	82.75
609.251	89.75
609.459	102.75
609.667	85.75
609.875	106.75
610.083	97.75
610.291	95.75
610.499	91.75
610.707	89.75
610.916	95.75
611.124	99.75
611.332	90.75
611.54	98.75
611.748	89.75
611.955	91.75
612.163	88.75
612.371	88.75
612.579	89.75
612.787	99.75
612.995	92.75
613.203	90.75
613.411	85.75
613.618	87.75
613.826	94.75
614.034	110.75
614.242	86.75
614.449	104.75
614.657	111.75
614.865	87.75
615.072	82.75
615.28	93.75
615.488	105.75
615.695	92.75
615.903	97.75
616.111	98.75
616.318	110.75
616.526	92.75
616.733	89.75
616.941	89.75
617.148	86.75
617.356	89.75
617.563	77.75
617.771	104.75
617.978	82.75
618.185	105.75
618.393	107.75
618.6	103.75
618.807	83.75
619.015	91.75
619.222	93.75
619.429	99.75
619.637	96.75
619.844	96.75
620.051	95.75
620.258	92.75
620.466	95.75
620.673	101.75
620.88	94.75
621.087	106.75
621.294	85.75
621.501	96.75
621.708	87.75
621.915	105.75
622.122	100.75
622.329	105.75
622.536	99.75
622.743	116.75
622.95	92.75
623.157	97.75
623.364	94.75
623.571	87.75
623.778	93.75
623.985	84.75
624.192	80.75
624.399	79.75
624.606	100.75
624.812	109.75
625.019	85.75
625.226	82.75
625.433	97.75
625.639	83.75
625.846	89.75
626.053	85.75
626.259	90.75
626.466	84.75
626.673	89.75
626.879	86.75
627.086	93.75
627.293	88.75
627.499	80.75
627.706	81.75
627.912	86.75
628.119	91.75
628.325	91.75
628.532	88.75
628.738	80.75
628.945	92.75
629.151	92.75
629.357	78.75
629.564	92.75
629.77	89.75
629.976	69.75
630.183	82.75
630.389	84.75
630.595	103.75
630.802	98.75
631.008	82.75
631.214	88.75
631.42	79.75
631.627	99.75
631.833	95.75
632.039	88.75
632.245	97.75
632.451	81.75
632.657	91.75
632.863	80.75
633.069	100.75
633.275	84.75
633.481	91.75
633.688	93.75
633.893	86.75
634.099	91.75
634.305	93.75
634.511	105.75
634.717	77.75
634.923	79.75
635.129	95.75
635.335	100.75
635.541	92.75
635.747	86.75
635.952	87.75
636.158	75.75
636.364	90.75
636.57	86.75
636.775	95.75
636.981	84.75
637.187	93.75
637.392	102.75
637.598	102.75
637.804	94.75
638.009	93.75
638.215	104.75
638.421	90.75
638.626	98.75
638.832	90.75
639.037	96.75
639.243	87.75
639.448	89.75
639.654	96.75
639.859	82.75
640.065	90.75
640.27	83.75
640.475	88.75
640.681	92.75
640.886	94.75
641.091	83.75
641.297	96.75
641.502	92.75
641.707	68.75
641.913	84.75
642.118	75.75
642.323	89.75
642.528	80.75
642.733	94.75
642.939	94.75
643.144	93.75
643.349	77.75
643.554	82.75
643.759	76.75
643.964	83.75
644.169	93.75
644.374	72.75
644.579	87.75
644.784	87.75
644.989	87.75
645.194	80.75
645.399	97.75
645.604	80.75
645.809	90.75
646.014	82.75
646.219	88.75
646.423	80.75
646.628	95.75
646.833	76.75
647.038	90.75
647.243	84.75
647.447	88.75
647.652	99.75
647.857	88.75
648.062	82.75
648.266	78.75
648.471	81.75
648.676	86.75
648.88	83.75
649.085	91.75
649.289	94.75
649.494	84.75
649.698	77.75
649.903	74.75
650.107	87.75
650.312	94.75
650.516	85.75
650.721	77.75
650.925	96.75
651.13	88.75
651.334	103.75
651.539	86.75
651.743	90.75
651.947	90.75
652.152	76.75
652.356	85.75
652.56	83.75
652.764	87.75
652.969	90.75
653.173	87.75
653.377	83.75
653.581	95.75
653.785	92.75
653.99	81.75
654.194	83.75
654.398	100.75
654.602	71.75
654.806	85.75
655.01	95.75
655.214	99.75
655.418	97.75
655.622	79.75
655.826	101.75
656.03	76.75
656.234	87.75
656.438	81.75
656.642	76.75
656.846	89.75
657.049	84.75
657.253	91.75
657.457	79.75
657.661	90.75
657.865	78.75
658.068	81.75
658.272	90.75
658.476	81.75
658.68	80.75
658.883	97.75
659.087	88.75
659.291	73.75
659.494	84.75
659.698	79.75
659.901	84.75
660.105	83.75
660.309	89.75
660.512	79.75
660.716	84.75
660.919	85.75
661.123	89.75
661.326	82.75
661.53	84.75
661.733	73.75
661.936	81.75
662.14	89.75
662.343	86.75
662.546	88.75
662.75	78.75
662.953	79.75
663.156	87.75
663.36	70.75
663.563	80.75
663.766	79.75
663.969	71.75
664.173	94.75
664.376	89.75
664.579	93.75
664.782	93.75
664.985	71.75
665.188	77.75
665.391	82.75
665.594	90.75
665.797	86.75
666	91.75
666.203	87.75
666.406	83.75
666.609	82.75
666.812	90.75
667.015	72.75
667.218	70.75
667.421	78.75
667.624	71.75
667.827	81.75
668.03	92.75
668.232	80.75
668.435	88.75
668.638	83.75
668.841	72.75
669.043	85.75
669.246	81.75
669.449	86.75
669.651	88.75
669.854	85.75
670.057	78.75
670.259	69.75
670.462	72.75
670.665	70.75
670.867	70.75
671.07	84.75
671.272	94.75
671.475	93.75
671.677	83.75
671.88	74.75
672.082	88.75
672.284	83.75
672.487	88.75
672.689	76.75
672.892	89.75
