Data from NickelSpatula.Lamp.E10.P2_HRD10591_11-57-03-534.txt Node
Date: Tue Jul 23 11:57:03 EDT 2019
User: cochatt
Spectrometer: HR+D1059
Trigger mode: 1
Integration Time (sec): 1.000000E-1
Scans to average: 1
Electric dark correction enabled: true
Nonlinearity correction enabled: false
Boxcar width: 0
XAxis mode: Wavelengths
Number of Pixels in Spectrum: 2048
>>>>>Begin Spectral Data<<<<<
223.165	-20.12
223.4	-20.12
223.635	-20.12
223.869	-26.12
224.104	-17.12
224.338	-14.12
224.573	-34.12
224.808	-10.12
225.042	-11.12
225.277	-7.12
225.511	1.88
225.746	20.88
225.98	12.88
226.215	6.88
226.449	19.88
226.683	9.88
226.918	33.88
227.152	33.88
227.387	26.88
227.621	47.88
227.856	63.88
228.09	45.88
228.324	49.88
228.559	41.88
228.793	74.88
229.027	138.88
229.262	132.88
229.496	162.88
229.73	175.88
229.964	170.88
230.199	221.88
230.433	213.88
230.667	200.88
230.901	196.88
231.136	200.88
231.37	223.88
231.604	219.88
231.838	248.88
232.072	241.88
232.306	241.88
232.541	239.88
232.775	233.88
233.009	269.88
233.243	289.88
233.477	306.88
233.711	343.88
233.945	300.88
234.179	327.88
234.413	326.88
234.647	380.88
234.881	425.88
235.115	409.88
235.349	366.88
235.583	337.88
235.817	343.88
236.051	353.88
236.285	418.88
236.519	443.88
236.753	422.88
236.987	419.88
237.221	373.88
237.455	403.88
237.689	429.88
237.922	431.88
238.156	443.88
238.39	541.88
238.624	614.88
238.858	562.88
239.091	457.88
239.325	483.88
239.559	475.88
239.793	507.88
240.027	639.88
240.26	561.88
240.494	561.88
240.728	584.88
240.961	652.88
241.195	607.88
241.429	587.88
241.662	580.88
241.896	498.88
242.13	479.88
242.363	443.88
242.597	464.88
242.83	525.88
243.064	527.88
243.298	552.88
243.531	610.88
243.765	618.88
243.998	608.88
244.232	565.88
244.465	584.88
244.699	554.88
244.932	634.88
245.166	642.88
245.399	541.88
245.633	511.88
245.866	555.88
246.099	584.88
246.333	676.88
246.566	729.88
246.8	706.88
247.033	713.88
247.266	677.88
247.5	667.88
247.733	655.88
247.966	637.88
248.2	649.88
248.433	721.88
248.666	787.88
248.899	783.88
249.133	816.88
249.366	952.88
249.599	1000.88
249.832	885.88
250.066	784.88
250.299	809.88
250.532	780.88
250.765	773.88
250.998	714.88
251.231	682.88
251.465	757.88
251.698	771.88
251.931	783.88
252.164	818.88
252.397	908.88
252.63	1011.88
252.863	1085.88
253.096	1137.88
253.329	1118.88
253.562	1025.88
253.795	1169.88
254.028	1285.88
254.261	1322.88
254.494	1205.88
254.727	1109.88
254.96	1049.88
255.193	1139.88
255.426	1088.88
255.659	815.88
255.892	793.88
256.124	867.88
256.357	979.88
256.59	1155.88
256.823	1092.88
257.056	955.88
257.289	868.88
257.521	975.88
257.754	1094.88
257.987	1270.88
258.22	1080.88
258.452	976.88
258.685	1101.88
258.918	1248.88
259.151	1208.88
259.383	1292.88
259.616	1467.88
259.849	1514.88
260.081	1671.88
260.314	1849.88
260.547	1406.88
260.779	1461.88
261.012	1656.88
261.244	1517.88
261.477	1531.88
261.71	1463.88
261.942	1244.88
262.175	1222.88
262.407	1171.88
262.64	1211.88
262.872	1440.88
263.105	1571.88
263.337	1650.88
263.57	1461.88
263.802	1021.88
264.035	885.88
264.267	874.88
264.499	773.88
264.732	729.88
264.964	688.88
265.197	704.88
265.429	762.88
265.661	795.88
265.894	829.88
266.126	901.88
266.358	1029.88
266.591	1239.88
266.823	1418.88
267.055	1360.88
267.287	1217.88
267.52	1237.88
267.752	1295.88
267.984	1425.88
268.216	1365.88
268.448	1111.88
268.681	1107.88
268.913	1181.88
269.145	1225.88
269.377	1290.88
269.609	1281.88
269.841	1172.88
270.073	1235.88
270.306	1317.88
270.538	1325.88
270.77	1354.88
271.002	1367.88
271.234	1422.88
271.466	1439.88
271.698	1344.88
271.93	1366.88
272.162	1418.88
272.394	1348.88
272.626	1335.88
272.858	1405.88
273.09	1377.88
273.322	1239.88
273.553	1205.88
273.785	1432.88
274.017	1864.88
274.249	2258.88
274.481	2357.88
274.713	2565.88
274.945	3000.88
275.176	3077.88
275.408	2706.88
275.64	2483.88
275.872	2473.88
276.104	2136.88
276.335	1835.88
276.567	1824.88
276.799	1888.88
277.031	2021.88
277.262	1521.88
277.494	1229.88
277.726	1179.88
277.957	1281.88
278.189	1466.88
278.421	1413.88
278.652	1366.88
278.884	1331.88
279.115	1231.88
279.347	1159.88
279.579	1177.88
279.81	1159.88
280.042	1158.88
280.273	1208.88
280.505	1107.88
280.736	998.88
280.968	996.88
281.199	1078.88
281.431	1238.88
281.662	1172.88
281.894	1146.88
282.125	1243.88
282.356	1331.88
282.588	1340.88
282.819	1207.88
283.051	1303.88
283.282	1665.88
283.513	1901.88
283.745	2109.88
283.976	2082.88
284.207	1935.88
284.439	2041.88
284.67	1922.88
284.901	1711.88
285.132	1859.88
285.364	1942.88
285.595	1827.88
285.826	1914.88
286.057	1926.88
286.288	1878.88
286.52	1896.88
286.751	2018.88
286.982	2014.88
287.213	1713.88
287.444	1689.88
287.675	1752.88
287.906	1735.88
288.138	1477.88
288.369	1328.88
288.6	1259.88
288.831	1298.88
289.062	1509.88
289.293	1661.88
289.524	1582.88
289.755	1555.88
289.986	1640.88
290.217	1408.88
290.448	1097.88
290.679	931.88
290.91	895.88
291.141	885.88
291.371	937.88
291.602	945.88
291.833	947.88
292.064	1029.88
292.295	1205.88
292.526	1346.88
292.757	1371.88
292.987	1502.88
293.218	1525.88
293.449	1549.88
293.68	1703.88
293.91	1599.88
294.141	1593.88
294.372	1507.88
294.603	1384.88
294.833	1500.88
295.064	1827.88
295.295	1693.88
295.525	1269.88
295.756	1114.88
295.987	960.88
296.217	981.88
296.448	988.88
296.679	1026.88
296.909	1160.88
297.14	1173.88
297.37	1364.88
297.601	1289.88
297.831	1127.88
298.062	1179.88
298.292	1359.88
298.523	1460.88
298.753	1677.88
298.984	1502.88
299.214	1195.88
299.445	1053.88
299.675	990.88
299.905	986.88
300.136	984.88
300.366	1086.88
300.597	1065.88
300.827	977.88
301.057	930.88
301.288	965.88
301.518	1052.88
301.748	1131.88
301.979	1202.88
302.209	1299.88
302.439	1337.88
302.669	1152.88
302.9	1174.88
303.13	1099.88
303.36	1065.88
303.59	1008.88
303.82	1036.88
304.051	1173.88
304.281	1314.88
304.511	1229.88
304.741	1081.88
304.971	1161.88
305.201	1213.88
305.431	1155.88
305.661	1021.88
305.891	1000.88
306.121	996.88
306.352	899.88
306.582	835.88
306.812	814.88
307.042	814.88
307.272	786.88
307.502	774.88
307.731	846.88
307.961	885.88
308.191	827.88
308.421	781.88
308.651	799.88
308.881	745.88
309.111	759.88
309.341	805.88
309.571	848.88
309.8	924.88
310.03	893.88
310.26	932.88
310.49	916.88
310.72	835.88
310.949	829.88
311.179	859.88
311.409	884.88
311.639	1055.88
311.868	1348.88
312.098	1705.88
312.328	1865.88
312.557	1776.88
312.787	1809.88
313.017	1602.88
313.246	1717.88
313.476	1830.88
313.706	1573.88
313.935	1237.88
314.165	1013.88
314.394	928.88
314.624	929.88
314.853	976.88
315.083	1040.88
315.312	968.88
315.542	978.88
315.771	873.88
316.001	813.88
316.23	799.88
316.46	794.88
316.689	853.88
316.919	856.88
317.148	851.88
317.377	858.88
317.607	874.88
317.836	922.88
318.065	1038.88
318.295	1156.88
318.524	1097.88
318.753	964.88
318.983	897.88
319.212	890.88
319.441	952.88
319.67	1059.88
319.9	1149.88
320.129	1084.88
320.358	919.88
320.587	876.88
320.816	949.88
321.046	1094.88
321.275	1215.88
321.504	1224.88
321.733	1215.88
321.962	1139.88
322.191	1075.88
322.42	1021.88
322.649	1063.88
322.878	1121.88
323.108	1118.88
323.337	1047.88
323.566	1047.88
323.795	1023.88
324.024	977.88
324.253	934.88
324.482	913.88
324.71	1013.88
324.939	1126.88
325.168	1075.88
325.397	882.88
325.626	870.88
325.855	881.88
326.084	911.88
326.313	839.88
326.542	815.88
326.77	826.88
326.999	884.88
327.228	899.88
327.457	978.88
327.686	956.88
327.914	855.88
328.143	806.88
328.372	798.88
328.6	811.88
328.829	826.88
329.058	831.88
329.287	859.88
329.515	863.88
329.744	848.88
329.972	841.88
330.201	787.88
330.43	800.88
330.658	930.88
330.887	1011.88
331.115	1010.88
331.344	966.88
331.572	932.88
331.801	897.88
332.03	850.88
332.258	851.88
332.486	911.88
332.715	963.88
332.943	880.88
333.172	891.88
333.4	910.88
333.629	986.88
333.857	1097.88
334.085	1076.88
334.314	1083.88
334.542	1049.88
334.771	924.88
334.999	935.88
335.227	925.88
335.455	922.88
335.684	982.88
335.912	1155.88
336.14	1278.88
336.369	1203.88
336.597	1178.88
336.825	1297.88
337.053	1443.88
337.281	1161.88
337.51	954.88
337.738	971.88
337.966	1021.88
338.194	1111.88
338.422	1051.88
338.65	930.88
338.878	855.88
339.106	889.88
339.334	985.88
339.562	1026.88
339.79	973.88
340.018	939.88
340.246	984.88
340.474	1142.88
340.702	1182.88
340.93	1232.88
341.158	1265.88
341.386	1028.88
341.614	1032.88
341.842	1042.88
342.07	1070.88
342.298	1263.88
342.526	1296.88
342.754	1107.88
342.981	1029.88
343.209	997.88
343.437	1073.88
343.665	1134.88
343.893	1147.88
344.12	1268.88
344.348	1479.88
344.576	1355.88
344.804	1133.88
345.031	998.88
345.259	926.88
345.487	922.88
345.714	962.88
345.942	1051.88
346.17	1145.88
346.397	1107.88
346.625	954.88
346.853	920.88
347.08	923.88
347.308	952.88
347.535	1062.88
347.763	1089.88
347.99	955.88
348.218	895.88
348.445	917.88
348.673	939.88
348.9	934.88
349.128	986.88
349.355	992.88
349.583	993.88
349.81	961.88
350.037	860.88
350.265	835.88
350.492	749.88
350.72	765.88
350.947	802.88
351.174	852.88
351.402	899.88
351.629	906.88
351.856	881.88
352.083	861.88
352.311	899.88
352.538	997.88
352.765	1040.88
352.992	964.88
353.22	925.88
353.447	915.88
353.674	917.88
353.901	924.88
354.128	917.88
354.355	907.88
354.583	906.88
354.81	931.88
355.037	970.88
355.264	915.88
355.491	1013.88
355.718	1072.88
355.945	1034.88
356.172	1016.88
356.399	1030.88
356.626	1175.88
356.853	1439.88
357.08	1496.88
357.307	1553.88
357.534	1226.88
357.761	1245.88
357.988	1535.88
358.215	1805.88
358.441	1739.88
358.668	1463.88
358.895	1351.88
359.122	1101.88
359.349	1107.88
359.576	1203.88
359.802	1024.88
360.029	890.88
360.256	950.88
360.483	1172.88
360.709	1439.88
360.936	1448.88
361.163	1304.88
361.39	1016.88
361.616	954.88
361.843	1109.88
362.07	1353.88
362.296	1226.88
362.523	992.88
362.749	874.88
362.976	931.88
363.203	1101.88
363.429	1228.88
363.656	983.88
363.882	895.88
364.109	929.88
364.335	906.88
364.562	934.88
364.788	1045.88
365.015	1179.88
365.241	1048.88
365.468	896.88
365.694	801.88
365.92	800.88
366.147	737.88
366.373	738.88
366.599	740.88
366.826	755.88
367.052	783.88
367.278	773.88
367.505	808.88
367.731	861.88
367.957	922.88
368.184	957.88
368.41	945.88
368.636	963.88
368.862	978.88
369.089	931.88
369.315	884.88
369.541	836.88
369.767	834.88
369.993	776.88
370.219	821.88
370.445	860.88
370.672	946.88
370.898	998.88
371.124	1010.88
371.35	929.88
371.576	854.88
371.802	925.88
372.028	1055.88
372.254	1195.88
372.48	1037.88
372.706	946.88
372.932	1003.88
373.158	1043.88
373.384	1209.88
373.61	1569.88
373.835	1641.88
374.061	1217.88
374.287	1071.88
374.513	1252.88
374.739	1434.88
374.965	1519.88
375.191	1510.88
375.416	1083.88
375.642	942.88
375.868	1129.88
376.094	1211.88
376.319	1073.88
376.545	1120.88
376.771	1246.88
376.997	1063.88
377.222	819.88
377.448	718.88
377.674	734.88
377.899	736.88
378.125	735.88
378.35	733.88
378.576	789.88
378.802	814.88
379.027	880.88
379.253	855.88
379.478	860.88
379.704	957.88
379.929	997.88
380.155	995.88
380.38	888.88
380.606	906.88
380.831	1047.88
381.057	960.88
381.282	907.88
381.507	1070.88
381.733	1333.88
381.958	1374.88
382.184	1451.88
382.409	1525.88
382.634	1473.88
382.86	1545.88
383.085	1289.88
383.31	1054.88
383.535	1142.88
383.761	1095.88
383.986	1074.88
384.211	1291.88
384.436	1225.88
384.662	996.88
384.887	962.88
385.112	975.88
385.337	973.88
385.562	953.88
385.787	1040.88
386.013	1133.88
386.238	1154.88
386.463	969.88
386.688	943.88
386.913	915.88
387.138	873.88
387.363	902.88
387.588	963.88
387.813	934.88
388.038	1034.88
388.263	942.88
388.488	907.88
388.713	1039.88
388.938	1123.88
389.163	961.88
389.387	881.88
389.612	861.88
389.837	904.88
390.062	907.88
390.287	943.88
390.512	983.88
390.736	916.88
390.961	865.88
391.186	838.88
391.411	834.88
391.636	813.88
391.86	917.88
392.085	935.88
392.31	958.88
392.534	935.88
392.759	884.88
392.984	914.88
393.208	913.88
393.433	835.88
393.658	799.88
393.882	798.88
394.107	759.88
394.331	806.88
394.556	793.88
394.78	802.88
395.005	837.88
395.229	831.88
395.454	852.88
395.678	875.88
395.903	875.88
396.127	846.88
396.352	831.88
396.576	926.88
396.801	927.88
397.025	1045.88
397.249	1072.88
397.474	901.88
397.698	899.88
397.922	944.88
398.147	890.88
398.371	898.88
398.595	961.88
398.82	931.88
399.044	954.88
399.268	993.88
399.492	1027.88
399.717	1039.88
399.941	1068.88
400.165	1055.88
400.389	1014.88
400.613	1026.88
400.837	992.88
401.062	890.88
401.286	886.88
401.51	886.88
401.734	866.88
401.958	912.88
402.182	908.88
402.406	911.88
402.63	879.88
402.854	930.88
403.078	1039.88
403.302	1249.88
403.526	1293.88
403.75	1160.88
403.974	1000.88
404.198	1075.88
404.422	1169.88
404.645	1333.88
404.869	1454.88
405.093	1133.88
405.317	978.88
405.541	960.88
405.765	1007.88
405.988	977.88
406.212	1077.88
406.436	1205.88
406.66	1324.88
406.883	1093.88
407.107	1097.88
407.331	1257.88
407.555	1243.88
407.778	1058.88
408.002	1015.88
408.226	1031.88
408.449	1048.88
408.673	1025.88
408.896	925.88
409.12	868.88
409.344	891.88
409.567	835.88
409.791	895.88
410.014	905.88
410.238	879.88
410.461	887.88
410.685	883.88
410.908	906.88
411.132	908.88
411.355	919.88
411.578	923.88
411.802	922.88
412.025	953.88
412.249	983.88
412.472	936.88
412.695	930.88
412.919	949.88
413.142	965.88
413.365	1056.88
413.589	1022.88
413.812	920.88
414.035	906.88
414.258	917.88
414.482	1023.88
414.705	1000.88
414.928	905.88
415.151	891.88
415.374	862.88
415.597	883.88
415.821	919.88
416.044	883.88
416.267	878.88
416.49	882.88
416.713	854.88
416.936	823.88
417.159	829.88
417.382	876.88
417.605	893.88
417.828	879.88
418.051	878.88
418.274	897.88
418.497	925.88
418.72	930.88
418.943	944.88
419.166	968.88
419.389	1015.88
419.611	990.88
419.834	991.88
420.057	1078.88
420.28	1059.88
420.503	973.88
420.726	884.88
420.948	866.88
421.171	864.88
421.394	861.88
421.617	869.88
421.839	888.88
422.062	923.88
422.285	889.88
422.507	916.88
422.73	931.88
422.953	916.88
423.175	928.88
423.398	930.88
423.621	992.88
423.843	1043.88
424.066	989.88
424.288	909.88
424.511	917.88
424.733	898.88
424.956	907.88
425.178	1034.88
425.401	1178.88
425.623	1267.88
425.846	1093.88
426.068	1015.88
426.291	1059.88
426.513	983.88
426.735	919.88
426.958	978.88
427.18	1104.88
427.402	1365.88
427.625	1350.88
427.847	1116.88
428.069	900.88
428.292	881.88
428.514	877.88
428.736	857.88
428.958	932.88
429.181	1070.88
429.403	946.88
429.625	862.88
429.847	841.88
430.069	889.88
430.292	884.88
430.514	832.88
430.736	925.88
430.958	1095.88
431.18	1000.88
431.402	827.88
431.624	811.88
431.846	807.88
432.068	790.88
432.29	818.88
432.512	892.88
432.734	1160.88
432.956	1039.88
433.178	846.88
433.4	842.88
433.622	831.88
433.844	856.88
434.066	907.88
434.287	909.88
434.509	857.88
434.731	943.88
434.953	866.88
435.175	892.88
435.397	1010.88
435.618	889.88
435.84	817.88
436.062	806.88
436.284	835.88
436.505	802.88
436.727	767.88
436.949	804.88
437.17	824.88
437.392	850.88
437.614	843.88
437.835	798.88
438.057	837.88
438.278	951.88
438.5	1279.88
438.721	1255.88
438.943	912.88
439.165	803.88
439.386	782.88
439.608	776.88
439.829	804.88
440.05	788.88
440.272	845.88
440.493	951.88
440.715	1145.88
440.936	960.88
441.158	856.88
441.379	875.88
441.6	939.88
441.822	989.88
442.043	869.88
442.264	859.88
442.486	866.88
442.707	856.88
442.928	845.88
443.149	886.88
443.371	880.88
443.592	920.88
443.813	926.88
444.034	885.88
444.255	914.88
444.476	954.88
444.698	918.88
444.919	939.88
445.14	1000.88
445.361	1001.88
445.582	966.88
445.803	905.88
446.024	921.88
446.245	932.88
446.466	912.88
446.687	878.88
446.908	854.88
447.129	852.88
447.35	814.88
447.571	798.88
447.792	785.88
448.013	777.88
448.234	784.88
448.455	775.88
448.675	794.88
448.896	803.88
449.117	797.88
449.338	807.88
449.559	839.88
449.779	839.88
450	867.88
450.221	841.88
450.442	803.88
450.662	768.88
450.883	806.88
451.104	813.88
451.324	783.88
451.545	803.88
451.766	790.88
451.986	786.88
452.207	759.88
452.428	795.88
452.648	772.88
452.869	797.88
453.089	833.88
453.31	813.88
453.53	744.88
453.751	755.88
453.971	742.88
454.192	777.88
454.412	773.88
454.633	729.88
454.853	759.88
455.073	723.88
455.294	734.88
455.514	734.88
455.734	762.88
455.955	820.88
456.175	803.88
456.395	762.88
456.616	699.88
456.836	689.88
457.056	705.88
457.276	685.88
457.497	704.88
457.717	725.88
457.937	722.88
458.157	714.88
458.377	724.88
458.598	739.88
458.818	738.88
459.038	775.88
459.258	819.88
459.478	841.88
459.698	888.88
459.918	880.88
460.138	869.88
460.358	887.88
460.578	853.88
460.798	881.88
461.018	879.88
461.238	851.88
461.458	871.88
461.678	881.88
461.898	913.88
462.118	915.88
462.338	911.88
462.558	931.88
462.777	978.88
462.997	997.88
463.217	989.88
463.437	1059.88
463.657	1038.88
463.876	945.88
464.096	957.88
464.316	976.88
464.536	948.88
464.755	998.88
464.975	982.88
465.195	951.88
465.414	964.88
465.634	967.88
465.854	911.88
466.073	867.88
466.293	870.88
466.512	932.88
466.732	1003.88
466.951	1009.88
467.171	911.88
467.391	861.88
467.61	856.88
467.829	923.88
468.049	927.88
468.268	890.88
468.488	877.88
468.707	885.88
468.927	1040.88
469.146	1123.88
469.365	1010.88
469.585	910.88
469.804	965.88
470.023	1098.88
470.243	951.88
470.462	914.88
470.681	915.88
470.901	907.88
471.12	922.88
471.339	923.88
471.558	891.88
471.777	904.88
471.997	988.88
472.216	1085.88
472.435	1040.88
472.654	985.88
472.873	929.88
473.092	989.88
473.311	998.88
473.53	927.88
473.749	927.88
473.968	957.88
474.187	969.88
474.406	909.88
474.625	878.88
474.844	921.88
475.063	1007.88
475.282	999.88
475.501	1069.88
475.72	1100.88
475.939	1032.88
476.158	1081.88
476.377	1221.88
476.596	1441.88
476.814	1481.88
477.033	1201.88
477.252	1036.88
477.471	994.88
477.69	1029.88
477.908	1089.88
478.127	1145.88
478.346	1059.88
478.564	1137.88
478.783	1075.88
479.002	1124.88
479.22	1259.88
479.439	1401.88
479.658	1217.88
479.876	1102.88
480.095	1149.88
480.313	1194.88
480.532	1124.88
480.751	1096.88
480.969	1109.88
481.188	1256.88
481.406	1276.88
481.624	1213.88
481.843	1089.88
482.061	1050.88
482.28	1183.88
482.498	1402.88
482.717	1339.88
482.935	1169.88
483.153	1085.88
483.372	1036.88
483.59	1062.88
483.808	1063.88
484.027	1029.88
484.245	967.88
484.463	976.88
484.681	1032.88
484.9	1105.88
485.118	1159.88
485.336	1096.88
485.554	1056.88
485.772	1078.88
485.99	1124.88
486.209	1177.88
486.427	1188.88
486.645	1166.88
486.863	1203.88
487.081	1209.88
487.299	1329.88
487.517	1271.88
487.735	1169.88
487.953	1233.88
488.171	1233.88
488.389	1204.88
488.607	1116.88
488.825	1142.88
489.043	1229.88
489.261	1347.88
489.479	1415.88
489.696	1277.88
489.914	1152.88
490.132	1113.88
490.35	1111.88
490.568	1103.88
490.786	1101.88
491.003	1093.88
491.221	1144.88
491.439	1114.88
491.657	1135.88
491.874	1171.88
492.092	1413.88
492.31	1608.88
492.527	1653.88
492.745	1455.88
492.963	1270.88
493.18	1247.88
493.398	1275.88
493.615	1281.88
493.833	1267.88
494.05	1221.88
494.268	1215.88
494.485	1212.88
494.703	1215.88
494.92	1203.88
495.138	1202.88
495.355	1206.88
495.573	1233.88
495.79	1332.88
496.008	1647.88
496.225	1498.88
496.442	1309.88
496.66	1332.88
496.877	1384.88
497.094	1359.88
497.312	1289.88
497.529	1314.88
497.746	1303.88
497.963	1332.88
498.181	1458.88
498.398	1553.88
498.615	1597.88
498.832	1658.88
499.049	1626.88
499.267	1527.88
499.484	1509.88
499.701	1584.88
499.918	1733.88
500.135	1830.88
500.352	1898.88
500.569	1955.88
500.786	1994.88
501.003	1951.88
501.22	1807.88
501.437	1676.88
501.654	1589.88
501.871	1574.88
502.088	1603.88
502.305	1497.88
502.522	1494.88
502.739	1480.88
502.956	1362.88
503.172	1352.88
503.389	1253.88
503.606	1289.88
503.823	1257.88
504.04	1309.88
504.256	1313.88
504.473	1337.88
504.69	1313.88
504.907	1344.88
505.123	1368.88
505.34	1442.88
505.557	1383.88
505.773	1291.88
505.99	1285.88
506.207	1321.88
506.423	1221.88
506.64	1185.88
506.856	1253.88
507.073	1338.88
507.289	1309.88
507.506	1302.88
507.722	1342.88
507.939	1375.88
508.155	1399.88
508.372	1287.88
508.588	1264.88
508.805	1229.88
509.021	1175.88
509.238	1150.88
509.454	1142.88
509.67	1138.88
509.887	1179.88
510.103	1291.88
510.319	1229.88
510.536	1144.88
510.752	1085.88
510.968	1075.88
511.184	1025.88
511.401	1025.88
511.617	1029.88
511.833	1035.88
512.049	1076.88
512.265	1077.88
512.481	1123.88
512.698	1199.88
512.914	1345.88
513.13	1199.88
513.346	1108.88
513.562	1126.88
513.778	1125.88
513.994	1129.88
514.21	1173.88
514.426	1168.88
514.642	1098.88
514.858	1111.88
515.074	1156.88
515.29	1256.88
515.506	1359.88
515.721	1323.88
515.937	1207.88
516.153	1148.88
516.369	1150.88
516.585	1186.88
516.801	1341.88
517.016	1505.88
517.232	1485.88
517.448	1445.88
517.664	1345.88
517.879	1239.88
518.095	1238.88
518.311	1283.88
518.527	1289.88
518.742	1380.88
518.958	1448.88
519.173	1394.88
519.389	1342.88
519.605	1344.88
519.82	1430.88
520.036	1661.88
520.251	1649.88
520.467	1504.88
520.682	2192.88
520.898	2674.88
521.113	2486.88
521.329	1643.88
521.544	1478.88
521.76	1424.88
521.975	1289.88
522.19	1223.88
522.406	1247.88
522.621	1379.88
522.836	1399.88
523.052	1471.88
523.267	1227.88
523.482	1242.88
523.698	1330.88
523.913	1311.88
524.128	1189.88
524.343	1151.88
524.559	1144.88
524.774	1111.88
524.989	1127.88
525.204	1164.88
525.419	1291.88
525.634	1190.88
525.849	1208.88
526.064	1205.88
526.28	1234.88
526.495	1428.88
526.71	1436.88
526.925	1250.88
527.14	1335.88
527.355	1243.88
527.57	1097.88
527.785	1173.88
527.999	1107.88
528.214	1048.88
528.429	1054.88
528.644	1049.88
528.859	991.88
529.074	997.88
529.289	981.88
529.503	957.88
529.718	995.88
529.933	1143.88
530.148	1182.88
530.363	1016.88
530.577	985.88
530.792	998.88
531.007	980.88
531.221	918.88
531.436	998.88
531.651	972.88
531.865	1021.88
532.08	1024.88
532.295	988.88
532.509	1030.88
532.724	1111.88
532.938	1227.88
533.153	1440.88
533.367	1185.88
533.582	1133.88
533.796	1065.88
534.011	1040.88
534.225	1016.88
534.44	1056.88
534.654	1055.88
534.868	1245.88
535.083	1110.88
535.297	985.88
535.511	996.88
535.726	1126.88
535.94	1071.88
536.154	1032.88
536.369	971.88
536.583	990.88
536.797	989.88
537.011	988.88
537.225	1066.88
537.44	1137.88
537.654	977.88
537.868	998.88
538.082	997.88
538.296	957.88
538.51	1039.88
538.724	1084.88
538.938	1044.88
539.153	991.88
539.367	976.88
539.581	968.88
539.795	1019.88
540.009	1096.88
540.222	1028.88
540.436	1016.88
540.65	1097.88
540.864	1134.88
541.078	1157.88
541.292	1285.88
541.506	1084.88
541.72	1009.88
541.934	1013.88
542.147	1006.88
542.361	1003.88
542.575	1028.88
542.789	986.88
543.002	944.88
543.216	1036.88
543.43	949.88
543.644	934.88
543.857	892.88
544.071	922.88
544.285	943.88
544.498	903.88
544.712	907.88
544.925	959.88
545.139	918.88
545.352	897.88
545.566	905.88
545.779	1038.88
545.993	959.88
546.206	869.88
546.42	890.88
546.633	869.88
546.847	869.88
547.06	856.88
547.274	838.88
547.487	898.88
547.7	952.88
547.914	969.88
548.127	1065.88
548.34	1056.88
548.554	950.88
548.767	976.88
548.98	1047.88
549.193	969.88
549.407	997.88
549.62	1120.88
549.833	1066.88
550.046	1125.88
550.259	1130.88
550.473	997.88
550.686	977.88
550.899	991.88
551.112	957.88
551.325	1015.88
551.538	1061.88
551.751	946.88
551.964	873.88
552.177	890.88
552.39	857.88
552.603	878.88
552.816	945.88
553.029	886.88
553.242	866.88
553.455	930.88
553.667	1029.88
553.88	954.88
554.093	890.88
554.306	822.88
554.519	820.88
554.732	798.88
554.944	777.88
555.157	782.88
555.37	775.88
555.583	759.88
555.795	791.88
556.008	808.88
556.221	813.88
556.433	797.88
556.646	749.88
556.859	772.88
557.071	798.88
557.284	807.88
557.496	816.88
557.709	785.88
557.921	767.88
558.134	739.88
558.346	705.88
558.559	719.88
558.771	746.88
558.984	779.88
559.196	739.88
559.409	735.88
559.621	711.88
559.833	716.88
560.046	725.88
560.258	737.88
560.47	742.88
560.683	674.88
560.895	668.88
561.107	688.88
561.32	672.88
561.532	703.88
561.744	744.88
561.956	751.88
562.168	699.88
562.381	709.88
562.593	721.88
562.805	733.88
563.017	672.88
563.229	656.88
563.441	666.88
563.653	687.88
563.865	674.88
564.077	688.88
564.289	671.88
564.501	709.88
564.713	738.88
564.925	735.88
565.137	696.88
565.349	689.88
565.561	696.88
565.773	728.88
565.985	727.88
566.197	804.88
566.408	871.88
566.62	847.88
566.832	836.88
567.044	833.88
567.255	929.88
567.467	995.88
567.679	903.88
567.891	900.88
568.102	906.88
568.314	905.88
568.526	846.88
568.737	847.88
568.949	840.88
569.161	751.88
569.372	701.88
569.584	695.88
569.795	669.88
570.007	689.88
570.218	735.88
570.43	717.88
570.641	710.88
570.853	650.88
571.064	650.88
571.276	678.88
571.487	692.88
571.698	653.88
571.91	648.88
572.121	672.88
572.333	610.88
572.544	610.88
572.755	630.88
572.966	597.88
573.178	607.88
573.389	635.88
573.6	613.88
573.811	615.88
574.023	585.88
574.234	547.88
574.445	596.88
574.656	574.88
574.867	578.88
575.078	607.88
575.289	577.88
575.501	626.88
575.712	590.88
575.923	546.88
576.134	528.88
576.345	546.88
576.556	551.88
576.767	533.88
576.978	536.88
577.188	530.88
577.399	505.88
577.61	535.88
577.821	523.88
578.032	546.88
578.243	584.88
578.454	575.88
578.665	561.88
578.875	539.88
579.086	546.88
579.297	576.88
579.508	561.88
579.718	557.88
579.929	534.88
580.14	534.88
580.35	501.88
580.561	498.88
580.772	485.88
580.982	491.88
581.193	484.88
581.403	493.88
581.614	495.88
581.825	453.88
582.035	480.88
582.246	484.88
582.456	455.88
582.667	475.88
582.877	465.88
583.087	469.88
583.298	458.88
583.508	449.88
583.719	467.88
583.929	458.88
584.139	469.88
584.35	458.88
584.56	473.88
584.77	478.88
584.981	497.88
585.191	464.88
585.401	465.88
585.611	469.88
585.821	494.88
586.032	504.88
586.242	467.88
586.452	478.88
586.662	471.88
586.872	478.88
587.082	501.88
587.292	462.88
587.502	463.88
587.713	450.88
587.923	479.88
588.133	519.88
588.343	476.88
588.553	450.88
588.762	464.88
588.972	455.88
589.182	446.88
589.392	449.88
589.602	449.88
589.812	478.88
590.022	529.88
590.232	503.88
590.441	475.88
590.651	460.88
590.861	465.88
591.071	485.88
591.281	463.88
591.49	455.88
591.7	451.88
591.91	467.88
592.119	448.88
592.329	459.88
592.539	444.88
592.748	473.88
592.958	463.88
593.167	471.88
593.377	484.88
593.587	498.88
593.796	485.88
594.006	459.88
594.215	458.88
594.424	494.88
594.634	488.88
594.843	488.88
595.053	462.88
595.262	434.88
595.472	407.88
595.681	426.88
595.89	423.88
596.1	432.88
596.309	463.88
596.518	438.88
596.727	429.88
596.937	421.88
597.146	450.88
597.355	458.88
597.564	448.88
597.774	432.88
597.983	405.88
598.192	388.88
598.401	391.88
598.61	397.88
598.819	387.88
599.028	390.88
599.237	366.88
599.446	360.88
599.655	375.88
599.864	381.88
600.073	383.88
600.282	373.88
600.491	374.88
600.7	372.88
600.909	398.88
601.118	396.88
601.327	384.88
601.536	392.88
601.745	391.88
601.953	409.88
602.162	362.88
602.371	396.88
602.58	396.88
602.789	368.88
602.997	358.88
603.206	385.88
603.415	375.88
603.623	370.88
603.832	361.88
604.041	376.88
604.249	375.88
604.458	379.88
604.666	362.88
604.875	365.88
605.084	376.88
605.292	366.88
605.501	359.88
605.709	361.88
605.918	357.88
606.126	357.88
606.334	361.88
606.543	370.88
606.751	356.88
606.96	356.88
607.168	352.88
607.376	350.88
607.585	338.88
607.793	359.88
608.001	351.88
608.21	343.88
608.418	376.88
608.626	358.88
608.834	362.88
609.043	353.88
609.251	347.88
609.459	350.88
609.667	342.88
609.875	350.88
610.083	343.88
610.291	354.88
610.499	352.88
610.707	333.88
610.916	334.88
611.124	342.88
611.332	338.88
611.54	338.88
611.748	345.88
611.955	344.88
612.163	349.88
612.371	351.88
612.579	347.88
612.787	330.88
612.995	324.88
613.203	333.88
613.411	318.88
613.618	339.88
613.826	332.88
614.034	324.88
614.242	327.88
614.449	328.88
614.657	328.88
614.865	326.88
615.072	308.88
615.28	336.88
615.488	329.88
615.695	347.88
615.903	331.88
616.111	344.88
616.318	326.88
616.526	321.88
616.733	323.88
616.941	331.88
617.148	336.88
617.356	331.88
617.563	325.88
617.771	307.88
617.978	304.88
618.185	314.88
618.393	320.88
618.6	316.88
618.807	328.88
619.015	328.88
619.222	334.88
619.429	337.88
619.637	321.88
619.844	304.88
620.051	310.88
620.258	320.88
620.466	309.88
620.673	295.88
620.88	303.88
621.087	294.88
621.294	285.88
621.501	285.88
621.708	288.88
621.915	285.88
622.122	286.88
622.329	299.88
622.536	299.88
622.743	296.88
622.95	288.88
623.157	291.88
623.364	294.88
623.571	310.88
623.778	307.88
623.985	294.88
624.192	328.88
624.399	318.88
624.606	310.88
624.812	302.88
625.019	305.88
625.226	309.88
625.433	295.88
625.639	295.88
625.846	293.88
626.053	274.88
626.259	264.88
626.466	281.88
626.673	310.88
626.879	295.88
627.086	293.88
627.293	295.88
627.499	275.88
627.706	282.88
627.912	260.88
628.119	276.88
628.325	278.88
628.532	270.88
628.738	266.88
628.945	265.88
629.151	271.88
629.357	263.88
629.564	291.88
629.77	273.88
629.976	249.88
630.183	242.88
630.389	256.88
630.595	255.88
630.802	270.88
631.008	273.88
631.214	252.88
631.42	249.88
631.627	255.88
631.833	244.88
632.039	239.88
632.245	241.88
632.451	238.88
632.657	235.88
632.863	237.88
633.069	239.88
633.275	253.88
633.481	248.88
633.688	246.88
633.893	245.88
634.099	242.88
634.305	240.88
634.511	244.88
634.717	233.88
634.923	232.88
635.129	223.88
635.335	238.88
635.541	238.88
635.747	234.88
635.952	250.88
636.158	227.88
636.364	233.88
636.57	239.88
636.775	255.88
636.981	243.88
637.187	225.88
637.392	230.88
637.598	222.88
637.804	242.88
638.009	243.88
638.215	238.88
638.421	231.88
638.626	233.88
638.832	222.88
639.037	222.88
639.243	218.88
639.448	241.88
639.654	231.88
639.859	226.88
640.065	240.88
640.27	237.88
640.475	225.88
640.681	223.88
640.886	219.88
641.091	219.88
641.297	215.88
641.502	228.88
641.707	196.88
641.913	223.88
642.118	215.88
642.323	229.88
642.528	232.88
642.733	219.88
642.939	224.88
643.144	217.88
643.349	207.88
643.554	218.88
643.759	209.88
643.964	198.88
644.169	219.88
644.374	213.88
644.579	216.88
644.784	219.88
644.989	200.88
645.194	209.88
645.399	220.88
645.604	200.88
645.809	219.88
646.014	225.88
646.219	220.88
646.423	209.88
646.628	212.88
646.833	211.88
647.038	201.88
647.243	204.88
647.447	217.88
647.652	221.88
647.857	213.88
648.062	213.88
648.266	215.88
648.471	206.88
648.676	203.88
648.88	218.88
649.085	208.88
649.289	193.88
649.494	208.88
649.698	218.88
649.903	215.88
650.107	182.88
650.312	195.88
650.516	194.88
650.721	179.88
650.925	198.88
651.13	183.88
651.334	179.88
651.539	205.88
651.743	189.88
651.947	207.88
652.152	199.88
652.356	186.88
652.56	166.88
652.764	183.88
652.969	170.88
653.173	172.88
653.377	163.88
653.581	170.88
653.785	173.88
653.99	183.88
654.194	170.88
654.398	165.88
654.602	155.88
654.806	167.88
655.01	151.88
655.214	162.88
655.418	165.88
655.622	137.88
655.826	144.88
656.03	157.88
656.234	166.88
656.438	167.88
656.642	163.88
656.846	157.88
657.049	140.88
657.253	143.88
657.457	140.88
657.661	133.88
657.865	137.88
658.068	123.88
658.272	125.88
658.476	125.88
658.68	124.88
658.883	117.88
659.087	112.88
659.291	111.88
659.494	117.88
659.698	96.88
659.901	114.88
660.105	112.88
660.309	115.88
660.512	100.88
660.716	93.88
660.919	89.88
661.123	99.88
661.326	86.88
661.53	93.88
661.733	103.88
661.936	94.88
662.14	95.88
662.343	99.88
662.546	88.88
662.75	79.88
662.953	92.88
663.156	101.88
663.36	78.88
663.563	83.88
663.766	76.88
663.969	87.88
664.173	91.88
664.376	85.88
664.579	78.88
664.782	86.88
664.985	68.88
665.188	82.88
665.391	77.88
665.594	84.88
665.797	82.88
666	85.88
666.203	86.88
666.406	80.88
666.609	83.88
666.812	73.88
667.015	88.88
667.218	92.88
667.421	84.88
667.624	80.88
667.827	71.88
668.03	93.88
668.232	82.88
668.435	82.88
668.638	89.88
668.841	90.88
669.043	85.88
669.246	85.88
669.449	97.88
669.651	91.88
669.854	72.88
670.057	79.88
670.259	81.88
670.462	88.88
670.665	83.88
670.867	83.88
671.07	97.88
671.272	95.88
671.475	74.88
671.677	86.88
671.88	81.88
672.082	79.88
672.284	81.88
672.487	82.88
672.689	95.88
672.892	103.88
