Data from NickelSpatula.Lamp.E5.5.P2_HRD10591_11-53-18-549.txt Node
Date: Tue Jul 23 11:53:18 EDT 2019
User: cochatt
Spectrometer: HR+D1059
Trigger mode: 1
Integration Time (sec): 1.000000E-1
Scans to average: 1
Electric dark correction enabled: true
Nonlinearity correction enabled: false
Boxcar width: 0
XAxis mode: Wavelengths
Number of Pixels in Spectrum: 2048
>>>>>Begin Spectral Data<<<<<
223.165	-4.12
223.4	-4.12
223.635	-4.12
223.869	-8.12
224.104	-17.12
224.338	-14.12
224.573	-23.12
224.808	-23.12
225.042	7.88
225.277	-1.12
225.511	-20.12
225.746	0.88
225.98	3.88
226.215	9.88
226.449	4.88
226.683	18.88
226.918	40.88
227.152	23.88
227.387	37.88
227.621	43.88
227.856	53.88
228.09	65.88
228.324	42.88
228.559	48.88
228.793	63.88
229.027	69.88
229.262	92.88
229.496	78.88
229.73	81.88
229.964	104.88
230.199	92.88
230.433	90.88
230.667	103.88
230.901	91.88
231.136	91.88
231.37	93.88
231.604	103.88
231.838	114.88
232.072	116.88
232.306	104.88
232.541	122.88
232.775	108.88
233.009	114.88
233.243	130.88
233.477	122.88
233.711	127.88
233.945	121.88
234.179	125.88
234.413	125.88
234.647	124.88
234.881	137.88
235.115	126.88
235.349	130.88
235.583	115.88
235.817	120.88
236.051	120.88
236.285	143.88
236.519	162.88
236.753	126.88
236.987	123.88
237.221	137.88
237.455	152.88
237.689	156.88
237.922	151.88
238.156	139.88
238.39	174.88
238.624	181.88
238.858	168.88
239.091	147.88
239.325	152.88
239.559	153.88
239.793	160.88
240.027	176.88
240.26	173.88
240.494	182.88
240.728	159.88
240.961	179.88
241.195	178.88
241.429	172.88
241.662	165.88
241.896	155.88
242.13	160.88
242.363	133.88
242.597	137.88
242.83	158.88
243.064	159.88
243.298	166.88
243.531	174.88
243.765	171.88
243.998	180.88
244.232	158.88
244.465	182.88
244.699	174.88
244.932	193.88
245.166	178.88
245.399	165.88
245.633	168.88
245.866	164.88
246.099	158.88
246.333	196.88
246.566	207.88
246.8	196.88
247.033	186.88
247.266	192.88
247.5	169.88
247.733	180.88
247.966	156.88
248.2	184.88
248.433	190.88
248.666	214.88
248.899	201.88
249.133	219.88
249.366	242.88
249.599	263.88
249.832	218.88
250.066	216.88
250.299	215.88
250.532	218.88
250.765	210.88
250.998	180.88
251.231	197.88
251.465	216.88
251.698	195.88
251.931	206.88
252.164	215.88
252.397	239.88
252.63	259.88
252.863	278.88
253.096	286.88
253.329	275.88
253.562	254.88
253.795	295.88
254.028	334.88
254.261	334.88
254.494	269.88
254.727	273.88
254.96	250.88
255.193	267.88
255.426	267.88
255.659	205.88
255.892	205.88
256.124	211.88
256.357	254.88
256.59	289.88
256.823	261.88
257.056	216.88
257.289	225.88
257.521	230.88
257.754	256.88
257.987	303.88
258.22	279.88
258.452	243.88
258.685	281.88
258.918	294.88
259.151	293.88
259.383	296.88
259.616	361.88
259.849	378.88
260.081	384.88
260.314	406.88
260.547	349.88
260.779	346.88
261.012	402.88
261.244	371.88
261.477	363.88
261.71	351.88
261.942	298.88
262.175	297.88
262.407	279.88
262.64	295.88
262.872	333.88
263.105	372.88
263.337	372.88
263.57	337.88
263.802	258.88
264.035	227.88
264.267	217.88
264.499	206.88
264.732	196.88
264.964	188.88
265.197	193.88
265.429	192.88
265.661	197.88
265.894	218.88
266.126	228.88
266.358	251.88
266.591	280.88
266.823	362.88
267.055	316.88
267.287	298.88
267.52	309.88
267.752	312.88
267.984	356.88
268.216	304.88
268.448	267.88
268.681	278.88
268.913	267.88
269.145	294.88
269.377	318.88
269.609	294.88
269.841	291.88
270.073	288.88
270.306	313.88
270.538	340.88
270.77	336.88
271.002	319.88
271.234	346.88
271.466	357.88
271.698	326.88
271.93	324.88
272.162	329.88
272.394	322.88
272.626	317.88
272.858	323.88
273.09	332.88
273.322	288.88
273.553	274.88
273.785	310.88
274.017	390.88
274.249	502.88
274.481	502.88
274.713	577.88
274.945	629.88
275.176	684.88
275.408	607.88
275.64	568.88
275.872	550.88
276.104	463.88
276.335	434.88
276.567	404.88
276.799	419.88
277.031	455.88
277.262	356.88
277.494	286.88
277.726	270.88
277.957	278.88
278.189	335.88
278.421	322.88
278.652	308.88
278.884	309.88
279.115	297.88
279.347	272.88
279.579	280.88
279.81	293.88
280.042	281.88
280.273	280.88
280.505	273.88
280.736	244.88
280.968	243.88
281.199	244.88
281.431	292.88
281.662	279.88
281.894	266.88
282.125	297.88
282.356	287.88
282.588	322.88
282.819	278.88
283.051	291.88
283.282	355.88
283.513	417.88
283.745	468.88
283.976	461.88
284.207	415.88
284.439	437.88
284.67	444.88
284.901	381.88
285.132	417.88
285.364	437.88
285.595	394.88
285.826	419.88
286.057	448.88
286.288	433.88
286.52	414.88
286.751	434.88
286.982	453.88
287.213	388.88
287.444	364.88
287.675	401.88
287.906	394.88
288.138	339.88
288.369	303.88
288.6	302.88
288.831	311.88
289.062	359.88
289.293	376.88
289.524	352.88
289.755	360.88
289.986	356.88
290.217	347.88
290.448	255.88
290.679	222.88
290.91	211.88
291.141	217.88
291.371	248.88
291.602	254.88
291.833	233.88
292.064	238.88
292.295	258.88
292.526	315.88
292.757	322.88
292.987	340.88
293.218	359.88
293.449	381.88
293.68	397.88
293.91	381.88
294.141	377.88
294.372	379.88
294.603	307.88
294.833	349.88
295.064	432.88
295.295	410.88
295.525	313.88
295.756	262.88
295.987	225.88
296.217	246.88
296.448	244.88
296.679	263.88
296.909	271.88
297.14	283.88
297.37	311.88
297.601	319.88
297.831	272.88
298.062	293.88
298.292	320.88
298.523	324.88
298.753	388.88
298.984	342.88
299.214	286.88
299.445	268.88
299.675	246.88
299.905	240.88
300.136	242.88
300.366	272.88
300.597	269.88
300.827	243.88
301.057	246.88
301.288	256.88
301.518	261.88
301.748	302.88
301.979	302.88
302.209	327.88
302.439	342.88
302.669	282.88
302.9	291.88
303.13	281.88
303.36	267.88
303.59	259.88
303.82	284.88
304.051	293.88
304.281	299.88
304.511	294.88
304.741	257.88
304.971	292.88
305.201	293.88
305.431	268.88
305.661	264.88
305.891	244.88
306.121	247.88
306.352	240.88
306.582	209.88
306.812	210.88
307.042	200.88
307.272	211.88
307.502	204.88
307.731	211.88
307.961	217.88
308.191	210.88
308.421	195.88
308.651	210.88
308.881	198.88
309.111	209.88
309.341	190.88
309.571	215.88
309.8	231.88
310.03	225.88
310.26	233.88
310.49	227.88
310.72	223.88
310.949	214.88
311.179	206.88
311.409	209.88
311.639	240.88
311.868	295.88
312.098	392.88
312.328	427.88
312.557	389.88
312.787	403.88
313.017	362.88
313.246	388.88
313.476	412.88
313.706	347.88
313.935	296.88
314.165	251.88
314.394	199.88
314.624	218.88
314.853	227.88
315.083	236.88
315.312	238.88
315.542	248.88
315.771	226.88
316.001	193.88
316.23	216.88
316.46	210.88
316.689	198.88
316.919	228.88
317.148	215.88
317.377	204.88
317.607	220.88
317.836	210.88
318.065	244.88
318.295	284.88
318.524	260.88
318.753	228.88
318.983	230.88
319.212	206.88
319.441	218.88
319.67	244.88
319.9	284.88
320.129	250.88
320.358	220.88
320.587	232.88
320.816	241.88
321.046	256.88
321.275	281.88
321.504	286.88
321.733	260.88
321.962	268.88
322.191	264.88
322.42	236.88
322.649	265.88
322.878	287.88
323.108	276.88
323.337	244.88
323.566	247.88
323.795	261.88
324.024	248.88
324.253	222.88
324.482	233.88
324.71	224.88
324.939	274.88
325.168	251.88
325.397	218.88
325.626	219.88
325.855	222.88
326.084	241.88
326.313	224.88
326.542	198.88
326.77	202.88
326.999	229.88
327.228	221.88
327.457	240.88
327.686	228.88
327.914	196.88
328.143	204.88
328.372	209.88
328.6	208.88
328.829	201.88
329.058	213.88
329.287	218.88
329.515	210.88
329.744	211.88
329.972	198.88
330.201	199.88
330.43	204.88
330.658	225.88
330.887	232.88
331.115	250.88
331.344	231.88
331.572	230.88
331.801	210.88
332.03	220.88
332.258	227.88
332.486	235.88
332.715	249.88
332.943	227.88
333.172	225.88
333.4	234.88
333.629	252.88
333.857	279.88
334.085	246.88
334.314	269.88
334.542	251.88
334.771	225.88
334.999	218.88
335.227	189.88
335.455	229.88
335.684	252.88
335.912	266.88
336.14	312.88
336.369	299.88
336.597	274.88
336.825	287.88
337.053	328.88
337.281	289.88
337.51	240.88
337.738	231.88
337.966	233.88
338.194	258.88
338.422	257.88
338.65	221.88
338.878	208.88
339.106	218.88
339.334	251.88
339.562	247.88
339.79	226.88
340.018	247.88
340.246	243.88
340.474	260.88
340.702	265.88
340.93	287.88
341.158	296.88
341.386	249.88
341.614	263.88
341.842	251.88
342.07	257.88
342.298	289.88
342.526	305.88
342.754	277.88
342.981	255.88
343.209	242.88
343.437	251.88
343.665	278.88
343.893	272.88
344.12	340.88
344.348	355.88
344.576	332.88
344.804	278.88
345.031	242.88
345.259	239.88
345.487	247.88
345.714	212.88
345.942	248.88
346.17	278.88
346.397	271.88
346.625	244.88
346.853	218.88
347.08	233.88
347.308	248.88
347.535	268.88
347.763	279.88
347.99	251.88
348.218	239.88
348.445	241.88
348.673	228.88
348.9	232.88
349.128	251.88
349.355	264.88
349.583	257.88
349.81	250.88
350.037	255.88
350.265	203.88
350.492	196.88
350.72	204.88
350.947	191.88
351.174	213.88
351.402	219.88
351.629	231.88
351.856	231.88
352.083	197.88
352.311	222.88
352.538	245.88
352.765	255.88
352.992	227.88
353.22	244.88
353.447	248.88
353.674	228.88
353.901	211.88
354.128	224.88
354.355	219.88
354.583	229.88
354.81	231.88
355.037	250.88
355.264	235.88
355.491	238.88
355.718	273.88
355.945	249.88
356.172	242.88
356.399	264.88
356.626	290.88
356.853	350.88
357.08	372.88
357.307	376.88
357.534	311.88
357.761	302.88
357.988	368.88
358.215	420.88
358.441	401.88
358.668	329.88
358.895	345.88
359.122	272.88
359.349	303.88
359.576	311.88
359.802	274.88
360.029	232.88
360.256	250.88
360.483	264.88
360.709	350.88
360.936	361.88
361.163	319.88
361.39	248.88
361.616	246.88
361.843	256.88
362.07	317.88
362.296	288.88
362.523	235.88
362.749	231.88
362.976	220.88
363.203	274.88
363.429	293.88
363.656	245.88
363.882	249.88
364.109	224.88
364.335	232.88
364.562	215.88
364.788	240.88
365.015	280.88
365.241	263.88
365.468	220.88
365.694	210.88
365.92	206.88
366.147	185.88
366.373	195.88
366.599	193.88
366.826	199.88
367.052	194.88
367.278	218.88
367.505	209.88
367.731	201.88
367.957	248.88
368.184	241.88
368.41	242.88
368.636	247.88
368.862	249.88
369.089	253.88
369.315	212.88
369.541	199.88
369.767	206.88
369.993	213.88
370.219	192.88
370.445	216.88
370.672	238.88
370.898	262.88
371.124	244.88
371.35	221.88
371.576	209.88
371.802	227.88
372.028	254.88
372.254	304.88
372.48	262.88
372.706	252.88
372.932	273.88
373.158	248.88
373.384	304.88
373.61	359.88
373.835	411.88
374.061	321.88
374.287	276.88
374.513	312.88
374.739	369.88
374.965	380.88
375.191	382.88
375.416	268.88
375.642	251.88
375.868	281.88
376.094	299.88
376.319	287.88
376.545	293.88
376.771	292.88
376.997	250.88
377.222	204.88
377.448	198.88
377.674	184.88
377.899	182.88
378.125	185.88
378.35	205.88
378.576	195.88
378.802	217.88
379.027	228.88
379.253	226.88
379.478	232.88
379.704	242.88
379.929	263.88
380.155	262.88
380.38	232.88
380.606	234.88
380.831	273.88
381.057	259.88
381.282	238.88
381.507	249.88
381.733	320.88
381.958	328.88
382.184	348.88
382.409	370.88
382.634	342.88
382.86	364.88
383.085	321.88
383.31	273.88
383.535	283.88
383.761	303.88
383.986	287.88
384.211	307.88
384.436	299.88
384.662	266.88
384.887	245.88
385.112	261.88
385.337	255.88
385.562	253.88
385.787	275.88
386.013	298.88
386.238	302.88
386.463	247.88
386.688	240.88
386.913	245.88
387.138	215.88
387.363	236.88
387.588	257.88
387.813	246.88
388.038	285.88
388.263	249.88
388.488	243.88
388.713	290.88
388.938	286.88
389.163	252.88
389.387	223.88
389.612	216.88
389.837	240.88
390.062	241.88
390.287	252.88
390.512	233.88
390.736	225.88
390.961	234.88
391.186	211.88
391.411	201.88
391.636	218.88
391.86	228.88
392.085	258.88
392.31	247.88
392.534	260.88
392.759	241.88
392.984	249.88
393.208	251.88
393.433	227.88
393.658	216.88
393.882	202.88
394.107	210.88
394.331	225.88
394.556	200.88
394.78	209.88
395.005	216.88
395.229	210.88
395.454	207.88
395.678	214.88
395.903	223.88
396.127	225.88
396.352	213.88
396.576	241.88
396.801	236.88
397.025	273.88
397.249	262.88
397.474	231.88
397.698	227.88
397.922	267.88
398.147	213.88
398.371	232.88
398.595	254.88
398.82	236.88
399.044	245.88
399.268	273.88
399.492	255.88
399.717	290.88
399.941	291.88
400.165	274.88
400.389	279.88
400.613	246.88
400.837	254.88
401.062	227.88
401.286	220.88
401.51	220.88
401.734	215.88
401.958	253.88
402.182	246.88
402.406	233.88
402.63	247.88
402.854	272.88
403.078	280.88
403.302	382.88
403.526	376.88
403.75	338.88
403.974	291.88
404.198	305.88
404.422	302.88
404.645	324.88
404.869	353.88
405.093	299.88
405.317	250.88
405.541	240.88
405.765	271.88
405.988	273.88
406.212	275.88
406.436	300.88
406.66	328.88
406.883	279.88
407.107	286.88
407.331	322.88
407.555	315.88
407.778	282.88
408.002	274.88
408.226	271.88
408.449	288.88
408.673	281.88
408.896	245.88
409.12	235.88
409.344	241.88
409.567	222.88
409.791	227.88
410.014	245.88
410.238	250.88
410.461	243.88
410.685	226.88
410.908	248.88
411.132	238.88
411.355	247.88
411.578	250.88
411.802	233.88
412.025	248.88
412.249	242.88
412.472	240.88
412.695	257.88
412.919	245.88
413.142	257.88
413.365	249.88
413.589	267.88
413.812	242.88
414.035	240.88
414.258	248.88
414.482	256.88
414.705	265.88
414.928	231.88
415.151	227.88
415.374	235.88
415.597	234.88
415.821	215.88
416.044	234.88
416.267	232.88
416.49	220.88
416.713	235.88
416.936	234.88
417.159	255.88
417.382	228.88
417.605	232.88
417.828	229.88
418.051	205.88
418.274	251.88
418.497	228.88
418.72	232.88
418.943	254.88
419.166	267.88
419.389	281.88
419.611	241.88
419.834	245.88
420.057	264.88
420.28	282.88
420.503	269.88
420.726	233.88
420.948	230.88
421.171	230.88
421.394	235.88
421.617	243.88
421.839	242.88
422.062	220.88
422.285	258.88
422.507	248.88
422.73	255.88
422.953	259.88
423.175	243.88
423.398	251.88
423.621	272.88
423.843	281.88
424.066	266.88
424.288	248.88
424.511	238.88
424.733	236.88
424.956	245.88
425.178	273.88
425.401	301.88
425.623	358.88
425.846	303.88
426.068	283.88
426.291	255.88
426.513	259.88
426.735	240.88
426.958	252.88
427.18	269.88
427.402	347.88
427.625	356.88
427.847	314.88
428.069	247.88
428.292	232.88
428.514	236.88
428.736	244.88
428.958	263.88
429.181	291.88
429.403	256.88
429.625	232.88
429.847	214.88
430.069	221.88
430.292	221.88
430.514	231.88
430.736	240.88
430.958	279.88
431.18	261.88
431.402	212.88
431.624	210.88
431.846	215.88
432.068	222.88
432.29	218.88
432.512	245.88
432.734	296.88
432.956	277.88
433.178	213.88
433.4	235.88
433.622	218.88
433.844	217.88
434.066	247.88
434.287	233.88
434.509	236.88
434.731	231.88
434.953	241.88
435.175	245.88
435.397	280.88
435.618	256.88
435.84	241.88
436.062	215.88
436.284	239.88
436.505	208.88
436.727	213.88
436.949	215.88
437.17	218.88
437.392	212.88
437.614	215.88
437.835	210.88
438.057	222.88
438.278	248.88
438.5	325.88
438.721	331.88
438.943	249.88
439.165	215.88
439.386	210.88
439.608	201.88
439.829	212.88
440.05	211.88
440.272	213.88
440.493	257.88
440.715	284.88
440.936	250.88
441.158	229.88
441.379	249.88
441.6	264.88
441.822	278.88
442.043	225.88
442.264	229.88
442.486	212.88
442.707	234.88
442.928	237.88
443.149	225.88
443.371	235.88
443.592	240.88
443.813	232.88
444.034	244.88
444.255	238.88
444.476	260.88
444.698	256.88
444.919	253.88
445.14	361.88
445.361	295.88
445.582	242.88
445.803	246.88
446.024	235.88
446.245	257.88
446.466	250.88
446.687	227.88
446.908	241.88
447.129	228.88
447.35	210.88
447.571	217.88
447.792	200.88
448.013	207.88
448.234	199.88
448.455	227.88
448.675	199.88
448.896	222.88
449.117	228.88
449.338	227.88
449.559	212.88
449.779	222.88
450	238.88
450.221	231.88
450.442	213.88
450.662	216.88
450.883	215.88
451.104	220.88
451.324	220.88
451.545	229.88
451.766	220.88
451.986	222.88
452.207	214.88
452.428	207.88
452.648	231.88
452.869	225.88
453.089	256.88
453.31	220.88
453.53	225.88
453.751	223.88
453.971	214.88
454.192	224.88
454.412	226.88
454.633	196.88
454.853	223.88
455.073	195.88
455.294	204.88
455.514	204.88
455.734	208.88
455.955	204.88
456.175	204.88
456.395	208.88
456.616	200.88
456.836	217.88
457.056	195.88
457.276	191.88
457.497	210.88
457.717	209.88
457.937	195.88
458.157	199.88
458.377	199.88
458.598	200.88
458.818	211.88
459.038	211.88
459.258	211.88
459.478	220.88
459.698	224.88
459.918	256.88
460.138	236.88
460.358	256.88
460.578	244.88
460.798	243.88
461.018	255.88
461.238	244.88
461.458	231.88
461.678	234.88
461.898	264.88
462.118	243.88
462.338	255.88
462.558	252.88
462.777	258.88
462.997	286.88
463.217	283.88
463.437	302.88
463.657	279.88
463.876	262.88
464.096	275.88
464.316	260.88
464.536	275.88
464.755	292.88
464.975	278.88
465.195	261.88
465.414	279.88
465.634	260.88
465.854	245.88
466.073	238.88
466.293	234.88
466.512	232.88
466.732	262.88
466.951	248.88
467.171	239.88
467.391	236.88
467.61	245.88
467.829	242.88
468.049	230.88
468.268	224.88
468.488	231.88
468.707	224.88
468.927	270.88
469.146	278.88
469.365	243.88
469.585	243.88
469.804	253.88
470.023	300.88
470.243	247.88
470.462	226.88
470.681	239.88
470.901	235.88
471.12	248.88
471.339	244.88
471.558	230.88
471.777	244.88
471.997	241.88
472.216	258.88
472.435	272.88
472.654	252.88
472.873	227.88
473.092	250.88
473.311	248.88
473.53	233.88
473.749	217.88
473.968	259.88
474.187	262.88
474.406	238.88
474.625	252.88
474.844	242.88
475.063	244.88
475.282	259.88
475.501	257.88
475.72	281.88
475.939	261.88
476.158	272.88
476.377	294.88
476.596	352.88
476.814	364.88
477.033	308.88
477.252	286.88
477.471	254.88
477.69	247.88
477.908	278.88
478.127	296.88
478.346	260.88
478.564	299.88
478.783	264.88
479.002	260.88
479.22	322.88
479.439	347.88
479.658	304.88
479.876	248.88
480.095	289.88
480.313	295.88
480.532	293.88
480.751	299.88
480.969	289.88
481.188	309.88
481.406	319.88
481.624	299.88
481.843	267.88
482.061	269.88
482.28	298.88
482.498	350.88
482.717	331.88
482.935	288.88
483.153	283.88
483.372	254.88
483.59	264.88
483.808	250.88
484.027	257.88
484.245	245.88
484.463	248.88
484.681	262.88
484.9	274.88
485.118	312.88
485.336	271.88
485.554	247.88
485.772	261.88
485.99	294.88
486.209	298.88
486.427	282.88
486.645	292.88
486.863	283.88
487.081	295.88
487.299	333.88
487.517	302.88
487.735	288.88
487.953	299.88
488.171	281.88
488.389	277.88
488.607	258.88
488.825	272.88
489.043	279.88
489.261	324.88
489.479	335.88
489.696	282.88
489.914	263.88
490.132	276.88
490.35	250.88
490.568	268.88
490.786	280.88
491.003	278.88
491.221	272.88
491.439	262.88
491.657	271.88
491.874	278.88
492.092	326.88
492.31	355.88
492.527	378.88
492.745	347.88
492.963	282.88
493.18	292.88
493.398	313.88
493.615	299.88
493.833	296.88
494.05	285.88
494.268	274.88
494.485	280.88
494.703	279.88
494.92	297.88
495.138	298.88
495.355	284.88
495.573	296.88
495.79	302.88
496.008	382.88
496.225	343.88
496.442	283.88
496.66	330.88
496.877	314.88
497.094	318.88
497.312	306.88
497.529	322.88
497.746	305.88
497.963	311.88
498.181	347.88
498.398	353.88
498.615	360.88
498.832	378.88
499.049	396.88
499.267	372.88
499.484	383.88
499.701	391.88
499.918	459.88
500.135	500.88
500.352	523.88
500.569	541.88
500.786	547.88
501.003	517.88
501.22	470.88
501.437	440.88
501.654	389.88
501.871	378.88
502.088	363.88
502.305	352.88
502.522	348.88
502.739	352.88
502.956	319.88
503.172	308.88
503.389	316.88
503.606	303.88
503.823	312.88
504.04	319.88
504.256	320.88
504.473	322.88
504.69	330.88
504.907	331.88
505.123	319.88
505.34	334.88
505.557	338.88
505.773	313.88
505.99	289.88
506.207	304.88
506.423	290.88
506.64	276.88
506.856	287.88
507.073	329.88
507.289	306.88
507.506	310.88
507.722	327.88
507.939	320.88
508.155	327.88
508.372	307.88
508.588	302.88
508.805	277.88
509.021	281.88
509.238	274.88
509.454	269.88
509.67	289.88
509.887	283.88
510.103	331.88
510.319	305.88
510.536	268.88
510.752	254.88
510.968	263.88
511.184	252.88
511.401	256.88
511.617	256.88
511.833	235.88
512.049	267.88
512.265	257.88
512.481	264.88
512.698	279.88
512.914	331.88
513.13	274.88
513.346	270.88
513.562	282.88
513.778	262.88
513.994	248.88
514.21	308.88
514.426	279.88
514.642	264.88
514.858	259.88
515.074	280.88
515.29	322.88
515.506	340.88
515.721	324.88
515.937	301.88
516.153	273.88
516.369	257.88
516.585	289.88
516.801	291.88
517.016	355.88
517.232	366.88
517.448	368.88
517.664	344.88
517.879	321.88
518.095	330.88
518.311	322.88
518.527	314.88
518.742	338.88
518.958	348.88
519.173	355.88
519.389	336.88
519.605	308.88
519.82	348.88
520.036	402.88
520.251	375.88
520.467	382.88
520.682	577.88
520.898	730.88
521.113	700.88
521.329	425.88
521.544	360.88
521.76	328.88
521.975	289.88
522.19	304.88
522.406	326.88
522.621	359.88
522.836	346.88
523.052	346.88
523.267	307.88
523.482	297.88
523.698	303.88
523.913	307.88
524.128	310.88
524.343	290.88
524.559	282.88
524.774	260.88
524.989	283.88
525.204	286.88
525.419	323.88
525.634	284.88
525.849	296.88
526.064	282.88
526.28	294.88
526.495	323.88
526.71	363.88
526.925	319.88
527.14	328.88
527.355	325.88
527.57	283.88
527.785	308.88
527.999	267.88
528.214	280.88
528.429	262.88
528.644	228.88
528.859	239.88
529.074	246.88
529.289	248.88
529.503	247.88
529.718	259.88
529.933	302.88
530.148	320.88
530.363	275.88
530.577	248.88
530.792	261.88
531.007	266.88
531.221	233.88
531.436	252.88
531.651	246.88
531.865	244.88
532.08	256.88
532.295	259.88
532.509	269.88
532.724	283.88
532.938	311.88
533.153	351.88
533.367	281.88
533.582	288.88
533.796	263.88
534.011	264.88
534.225	280.88
534.44	288.88
534.654	289.88
534.868	327.88
535.083	280.88
535.297	258.88
535.511	250.88
535.726	288.88
535.94	258.88
536.154	259.88
536.369	240.88
536.583	243.88
536.797	258.88
537.011	268.88
537.225	258.88
537.44	291.88
537.654	264.88
537.868	262.88
538.082	254.88
538.296	254.88
538.51	259.88
538.724	260.88
538.938	263.88
539.153	251.88
539.367	242.88
539.581	232.88
539.795	258.88
540.009	269.88
540.222	246.88
540.436	252.88
540.65	273.88
540.864	283.88
541.078	291.88
541.292	308.88
541.506	272.88
541.72	252.88
541.934	254.88
542.147	260.88
542.361	257.88
542.575	249.88
542.789	253.88
543.002	249.88
543.216	262.88
543.43	249.88
543.644	239.88
543.857	256.88
544.071	229.88
544.285	234.88
544.498	217.88
544.712	217.88
544.925	243.88
545.139	258.88
545.352	229.88
545.566	240.88
545.779	274.88
545.993	247.88
546.206	226.88
546.42	233.88
546.633	241.88
546.847	222.88
547.06	223.88
547.274	222.88
547.487	214.88
547.7	252.88
547.914	252.88
548.127	272.88
548.34	281.88
548.554	231.88
548.767	265.88
548.98	269.88
549.193	252.88
549.407	258.88
549.62	296.88
549.833	273.88
550.046	272.88
550.259	288.88
550.473	260.88
550.686	251.88
550.899	252.88
551.112	245.88
551.325	262.88
551.538	285.88
551.751	246.88
551.964	245.88
552.177	235.88
552.39	235.88
552.603	240.88
552.816	262.88
553.029	225.88
553.242	227.88
553.455	251.88
553.667	278.88
553.88	256.88
554.093	241.88
554.306	247.88
554.519	220.88
554.732	226.88
554.944	214.88
555.157	214.88
555.37	210.88
555.583	206.88
555.795	202.88
556.008	203.88
556.221	225.88
556.433	219.88
556.646	215.88
556.859	203.88
557.071	220.88
557.284	218.88
557.496	201.88
557.709	217.88
557.921	217.88
558.134	190.88
558.346	201.88
558.559	209.88
558.771	209.88
558.984	211.88
559.196	202.88
559.409	186.88
559.621	191.88
559.833	194.88
560.046	215.88
560.258	212.88
560.47	208.88
560.683	196.88
560.895	210.88
561.107	182.88
561.32	184.88
561.532	204.88
561.744	206.88
561.956	203.88
562.168	198.88
562.381	195.88
562.593	207.88
562.805	207.88
563.017	199.88
563.229	195.88
563.441	199.88
563.653	206.88
563.865	199.88
564.077	192.88
564.289	192.88
564.501	202.88
564.713	220.88
564.925	204.88
565.137	216.88
565.349	180.88
565.561	201.88
565.773	205.88
565.985	220.88
566.197	201.88
566.408	216.88
566.62	236.88
566.832	257.88
567.044	243.88
567.255	247.88
567.467	290.88
567.679	272.88
567.891	285.88
568.102	296.88
568.314	299.88
568.526	237.88
568.737	263.88
568.949	258.88
569.161	238.88
569.372	202.88
569.584	210.88
569.795	195.88
570.007	211.88
570.218	203.88
570.43	201.88
570.641	203.88
570.853	209.88
571.064	203.88
571.276	210.88
571.487	202.88
571.698	190.88
571.91	191.88
572.121	191.88
572.333	182.88
572.544	180.88
572.755	191.88
572.966	191.88
573.178	195.88
573.389	203.88
573.6	196.88
573.811	191.88
574.023	189.88
574.234	194.88
574.445	187.88
574.656	180.88
574.867	177.88
575.078	186.88
575.289	192.88
575.501	192.88
575.712	191.88
575.923	161.88
576.134	156.88
576.345	176.88
576.556	178.88
576.767	152.88
576.978	166.88
577.188	174.88
577.399	189.88
577.61	173.88
577.821	167.88
578.032	180.88
578.243	194.88
578.454	183.88
578.665	186.88
578.875	165.88
579.086	171.88
579.297	177.88
579.508	191.88
579.718	196.88
579.929	177.88
580.14	188.88
580.35	169.88
580.561	153.88
580.772	169.88
580.982	163.88
581.193	166.88
581.403	155.88
581.614	158.88
581.825	162.88
582.035	167.88
582.246	148.88
582.456	152.88
582.667	185.88
582.877	162.88
583.087	175.88
583.298	149.88
583.508	154.88
583.719	165.88
583.929	160.88
584.139	154.88
584.35	158.88
584.56	149.88
584.77	166.88
584.981	170.88
585.191	150.88
585.401	166.88
585.611	166.88
585.821	170.88
586.032	183.88
586.242	168.88
586.452	161.88
586.662	153.88
586.872	174.88
587.082	182.88
587.292	155.88
587.502	164.88
587.713	173.88
587.923	165.88
588.133	171.88
588.343	170.88
588.553	167.88
588.762	159.88
588.972	170.88
589.182	159.88
589.392	158.88
589.602	171.88
589.812	181.88
590.022	162.88
590.232	187.88
590.441	162.88
590.651	169.88
590.861	149.88
591.071	163.88
591.281	150.88
591.49	165.88
591.7	162.88
591.91	170.88
592.119	166.88
592.329	161.88
592.539	171.88
592.748	174.88
592.958	163.88
593.167	164.88
593.377	176.88
593.587	176.88
593.796	170.88
594.006	178.88
594.215	169.88
594.424	178.88
594.634	195.88
594.843	181.88
595.053	161.88
595.262	181.88
595.472	155.88
595.681	154.88
595.89	165.88
596.1	177.88
596.309	158.88
596.518	167.88
596.727	157.88
596.937	155.88
597.146	154.88
597.355	164.88
597.564	157.88
597.774	158.88
597.983	155.88
598.192	153.88
598.401	154.88
598.61	143.88
598.819	161.88
599.028	147.88
599.237	152.88
599.446	147.88
599.655	131.88
599.864	158.88
600.073	132.88
600.282	148.88
600.491	150.88
600.7	147.88
600.909	136.88
601.118	154.88
601.327	145.88
601.536	138.88
601.745	161.88
601.953	155.88
602.162	154.88
602.371	161.88
602.58	162.88
602.789	146.88
602.997	153.88
603.206	146.88
603.415	143.88
603.623	152.88
603.832	141.88
604.041	146.88
604.249	135.88
604.458	138.88
604.666	140.88
604.875	144.88
605.084	136.88
605.292	153.88
605.501	137.88
605.709	141.88
605.918	128.88
606.126	141.88
606.334	144.88
606.543	139.88
606.751	139.88
606.96	145.88
607.168	151.88
607.376	126.88
607.585	136.88
607.793	145.88
608.001	134.88
608.21	124.88
608.418	133.88
608.626	135.88
608.834	133.88
609.043	147.88
609.251	145.88
609.459	157.88
609.667	126.88
609.875	148.88
610.083	127.88
610.291	138.88
610.499	129.88
610.707	135.88
610.916	136.88
611.124	130.88
611.332	144.88
611.54	141.88
611.748	148.88
611.955	139.88
612.163	134.88
612.371	130.88
612.579	150.88
612.787	132.88
612.995	139.88
613.203	159.88
613.411	148.88
613.618	136.88
613.826	126.88
614.034	137.88
614.242	135.88
614.449	133.88
614.657	134.88
614.865	128.88
615.072	130.88
615.28	140.88
615.488	137.88
615.695	130.88
615.903	143.88
616.111	148.88
616.318	167.88
616.526	128.88
616.733	135.88
616.941	137.88
617.148	143.88
617.356	137.88
617.563	136.88
617.771	120.88
617.978	136.88
618.185	133.88
618.393	140.88
618.6	124.88
618.807	134.88
619.015	127.88
619.222	152.88
619.429	146.88
619.637	132.88
619.844	131.88
620.051	132.88
620.258	136.88
620.466	138.88
620.673	126.88
620.88	134.88
621.087	146.88
621.294	154.88
621.501	136.88
621.708	130.88
621.915	122.88
622.122	115.88
622.329	135.88
622.536	120.88
622.743	122.88
622.95	130.88
623.157	136.88
623.364	133.88
623.571	122.88
623.778	119.88
623.985	129.88
624.192	132.88
624.399	120.88
624.606	120.88
624.812	127.88
625.019	121.88
625.226	129.88
625.433	125.88
625.639	124.88
625.846	123.88
626.053	137.88
626.259	127.88
626.466	126.88
626.673	131.88
626.879	118.88
627.086	125.88
627.293	128.88
627.499	121.88
627.706	116.88
627.912	136.88
628.119	128.88
628.325	129.88
628.532	127.88
628.738	123.88
628.945	123.88
629.151	122.88
629.357	128.88
629.564	124.88
629.77	121.88
629.976	118.88
630.183	131.88
630.389	144.88
630.595	126.88
630.802	134.88
631.008	121.88
631.214	113.88
631.42	120.88
631.627	116.88
631.833	115.88
632.039	130.88
632.245	130.88
632.451	140.88
632.657	105.88
632.863	120.88
633.069	119.88
633.275	118.88
633.481	104.88
633.688	117.88
633.893	121.88
634.099	122.88
634.305	118.88
634.511	119.88
634.717	126.88
634.923	113.88
635.129	110.88
635.335	114.88
635.541	115.88
635.747	114.88
635.952	117.88
636.158	118.88
636.364	122.88
636.57	97.88
636.775	110.88
636.981	118.88
637.187	121.88
637.392	124.88
637.598	116.88
637.804	120.88
638.009	105.88
638.215	122.88
638.421	114.88
638.626	113.88
638.832	114.88
639.037	103.88
639.243	118.88
639.448	115.88
639.654	120.88
639.859	115.88
640.065	103.88
640.27	116.88
640.475	121.88
640.681	113.88
640.886	107.88
641.091	111.88
641.297	111.88
641.502	118.88
641.707	116.88
641.913	98.88
642.118	105.88
642.323	114.88
642.528	107.88
642.733	104.88
642.939	121.88
643.144	120.88
643.349	119.88
643.554	115.88
643.759	122.88
643.964	107.88
644.169	112.88
644.374	112.88
644.579	113.88
644.784	101.88
644.989	112.88
645.194	104.88
645.399	117.88
645.604	123.88
645.809	111.88
646.014	111.88
646.219	111.88
646.423	114.88
646.628	118.88
646.833	104.88
647.038	110.88
647.243	99.88
647.447	128.88
647.652	116.88
647.857	116.88
648.062	116.88
648.266	107.88
648.471	101.88
648.676	113.88
648.88	113.88
649.085	119.88
649.289	117.88
649.494	105.88
649.698	134.88
649.903	132.88
650.107	109.88
650.312	107.88
650.516	101.88
650.721	104.88
650.925	86.88
651.13	105.88
651.334	81.88
651.539	111.88
651.743	111.88
651.947	105.88
652.152	105.88
652.356	100.88
652.56	107.88
652.764	104.88
652.969	102.88
653.173	100.88
653.377	117.88
653.581	124.88
653.785	109.88
653.99	92.88
654.194	102.88
654.398	81.88
654.602	103.88
654.806	94.88
655.01	109.88
655.214	86.88
655.418	94.88
655.622	98.88
655.826	97.88
656.03	96.88
656.234	88.88
656.438	88.88
656.642	98.88
656.846	117.88
657.049	88.88
657.253	106.88
657.457	90.88
657.661	90.88
657.865	84.88
658.068	88.88
658.272	90.88
658.476	91.88
658.68	91.88
658.883	83.88
659.087	96.88
659.291	96.88
659.494	95.88
659.698	100.88
659.901	82.88
660.105	88.88
660.309	98.88
660.512	106.88
660.716	95.88
660.919	90.88
661.123	90.88
661.326	89.88
661.53	84.88
661.733	94.88
661.936	98.88
662.14	88.88
662.343	96.88
662.546	89.88
662.75	89.88
662.953	89.88
663.156	76.88
663.36	89.88
663.563	95.88
663.766	79.88
663.969	88.88
664.173	85.88
664.376	83.88
664.579	85.88
664.782	94.88
664.985	91.88
665.188	76.88
665.391	83.88
665.594	77.88
665.797	89.88
666	80.88
666.203	79.88
666.406	86.88
666.609	89.88
666.812	82.88
667.015	80.88
667.218	82.88
667.421	82.88
667.624	89.88
667.827	78.88
668.03	70.88
668.232	82.88
668.435	97.88
668.638	84.88
668.841	89.88
669.043	84.88
669.246	85.88
669.449	86.88
669.651	82.88
669.854	81.88
670.057	81.88
670.259	79.88
670.462	87.88
670.665	80.88
670.867	86.88
671.07	86.88
671.272	96.88
671.475	87.88
671.677	77.88
671.88	85.88
672.082	79.88
672.284	80.88
672.487	83.88
672.689	90.88
672.892	60.88
