Data from NickelSpatula.Lamp.E10.P2_HRD10591_11-56-50-535.txt Node
Date: Tue Jul 23 11:56:50 EDT 2019
User: cochatt
Spectrometer: HR+D1059
Trigger mode: 1
Integration Time (sec): 1.000000E-1
Scans to average: 1
Electric dark correction enabled: true
Nonlinearity correction enabled: false
Boxcar width: 0
XAxis mode: Wavelengths
Number of Pixels in Spectrum: 2048
>>>>>Begin Spectral Data<<<<<
223.165	-16.62
223.4	-16.62
223.635	-16.62
223.869	-10.62
224.104	-26.62
224.338	-0.62
224.573	-11.62
224.808	-2.62
225.042	-2.62
225.277	-5.62
225.511	-9.62
225.746	0.38
225.98	-8.62
226.215	5.38
226.449	23.38
226.683	15.38
226.918	27.38
227.152	23.38
227.387	20.38
227.621	42.38
227.856	32.38
228.09	32.38
228.324	40.38
228.559	61.38
228.793	77.38
229.027	133.38
229.262	135.38
229.496	146.38
229.73	159.38
229.964	167.38
230.199	204.38
230.433	202.38
230.667	200.38
230.901	191.38
231.136	196.38
231.37	199.38
231.604	207.38
231.838	237.38
232.072	220.38
232.306	226.38
232.541	219.38
232.775	215.38
233.009	242.38
233.243	270.38
233.477	284.38
233.711	314.38
233.945	308.38
234.179	297.38
234.413	318.38
234.647	332.38
234.881	417.38
235.115	378.38
235.349	342.38
235.583	326.38
235.817	303.38
236.051	323.38
236.285	379.38
236.519	400.38
236.753	398.38
236.987	355.38
237.221	359.38
237.455	367.38
237.689	389.38
237.922	412.38
238.156	415.38
238.39	464.38
238.624	571.38
238.858	524.38
239.091	434.38
239.325	451.38
239.559	416.38
239.793	476.38
240.027	567.38
240.26	525.38
240.494	525.38
240.728	513.38
240.961	611.38
241.195	561.38
241.429	569.38
241.662	538.38
241.896	455.38
242.13	442.38
242.363	393.38
242.597	412.38
242.83	497.38
243.064	460.38
243.298	531.38
243.531	545.38
243.765	571.38
243.998	560.38
244.232	535.38
244.465	536.38
244.699	510.38
244.932	581.38
245.166	552.38
245.399	499.38
245.633	502.38
245.866	515.38
246.099	564.38
246.333	648.38
246.566	668.38
246.8	654.38
247.033	640.38
247.266	601.38
247.5	603.38
247.733	566.38
247.966	586.38
248.2	588.38
248.433	671.38
248.666	728.38
248.899	715.38
249.133	728.38
249.366	815.38
249.599	906.38
249.832	818.38
250.066	698.38
250.299	735.38
250.532	716.38
250.765	688.38
250.998	648.38
251.231	652.38
251.465	701.38
251.698	743.38
251.931	730.38
252.164	735.38
252.397	829.38
252.63	900.38
252.863	989.38
253.096	1015.38
253.329	960.38
253.562	970.38
253.795	1093.38
254.028	1166.38
254.261	1172.38
254.494	1095.38
254.727	995.38
254.96	947.38
255.193	1002.38
255.426	940.38
255.659	758.38
255.892	734.38
256.124	803.38
256.357	903.38
256.59	1043.38
256.823	1007.38
257.056	867.38
257.289	831.38
257.521	875.38
257.754	1035.38
257.987	1199.38
258.22	1011.38
258.452	911.38
258.685	1021.38
258.918	1124.38
259.151	1131.38
259.383	1205.38
259.616	1400.38
259.849	1434.38
260.081	1506.38
260.314	1632.38
260.547	1315.38
260.779	1358.38
261.012	1559.38
261.244	1443.38
261.477	1460.38
261.71	1348.38
261.942	1167.38
262.175	1130.38
262.407	1088.38
262.64	1136.38
262.872	1330.38
263.105	1452.38
263.337	1502.38
263.57	1371.38
263.802	961.38
264.035	856.38
264.267	840.38
264.499	738.38
264.732	650.38
264.964	626.38
265.197	662.38
265.429	731.38
265.661	761.38
265.894	796.38
266.126	843.38
266.358	947.38
266.591	1114.38
266.823	1343.38
267.055	1242.38
267.287	1154.38
267.52	1208.38
267.752	1245.38
267.984	1367.38
268.216	1296.38
268.448	1096.38
268.681	1010.38
268.913	1089.38
269.145	1170.38
269.377	1211.38
269.609	1230.38
269.841	1120.38
270.073	1190.38
270.306	1273.38
270.538	1294.38
270.77	1312.38
271.002	1307.38
271.234	1379.38
271.466	1363.38
271.698	1296.38
271.93	1269.38
272.162	1262.38
272.394	1219.38
272.626	1224.38
272.858	1260.38
273.09	1303.38
273.322	1112.38
273.553	1066.38
273.785	1248.38
274.017	1606.38
274.249	1992.38
274.481	2110.38
274.713	2293.38
274.945	2627.38
275.176	2777.38
275.408	2431.38
275.64	2282.38
275.872	2273.38
276.104	1977.38
276.335	1735.38
276.567	1697.38
276.799	1774.38
277.031	1856.38
277.262	1434.38
277.494	1111.38
277.726	1082.38
277.957	1186.38
278.189	1334.38
278.421	1324.38
278.652	1300.38
278.884	1222.38
279.115	1121.38
279.347	1081.38
279.579	1115.38
279.81	1096.38
280.042	1080.38
280.273	1122.38
280.505	1078.38
280.736	920.38
280.968	970.38
281.199	1034.38
281.431	1184.38
281.662	1151.38
281.894	1097.38
282.125	1194.38
282.356	1259.38
282.588	1267.38
282.819	1182.38
283.051	1280.38
283.282	1535.38
283.513	1786.38
283.745	1964.38
283.976	1962.38
284.207	1818.38
284.439	1857.38
284.67	1823.38
284.901	1591.38
285.132	1781.38
285.364	1870.38
285.595	1700.38
285.826	1766.38
286.057	1812.38
286.288	1765.38
286.52	1821.38
286.751	1897.38
286.982	1913.38
287.213	1659.38
287.444	1603.38
287.675	1664.38
287.906	1673.38
288.138	1425.38
288.369	1267.38
288.6	1196.38
288.831	1258.38
289.062	1500.38
289.293	1623.38
289.524	1492.38
289.755	1471.38
289.986	1498.38
290.217	1359.38
290.448	1074.38
290.679	896.38
290.91	845.38
291.141	876.38
291.371	876.38
291.602	904.38
291.833	910.38
292.064	938.38
292.295	1141.38
292.526	1283.38
292.757	1296.38
292.987	1390.38
293.218	1430.38
293.449	1526.38
293.68	1602.38
293.91	1518.38
294.141	1558.38
294.372	1466.38
294.603	1306.38
294.833	1435.38
295.064	1699.38
295.295	1639.38
295.525	1220.38
295.756	1039.38
295.987	886.38
296.217	904.38
296.448	925.38
296.679	942.38
296.909	1040.38
297.14	1114.38
297.37	1237.38
297.601	1179.38
297.831	1061.38
298.062	1138.38
298.292	1253.38
298.523	1335.38
298.753	1467.38
298.984	1350.38
299.214	1102.38
299.445	932.38
299.675	897.38
299.905	853.38
300.136	840.38
300.366	955.38
300.597	972.38
300.827	879.38
301.057	835.38
301.288	848.38
301.518	912.38
301.748	1014.38
301.979	1074.38
302.209	1119.38
302.439	1140.38
302.669	1052.38
302.9	1068.38
303.13	1022.38
303.36	961.38
303.59	964.38
303.82	963.38
304.051	1074.38
304.281	1166.38
304.511	1138.38
304.741	1026.38
304.971	1062.38
305.201	1134.38
305.431	1060.38
305.661	927.38
305.891	886.38
306.121	890.38
306.352	832.38
306.582	756.38
306.812	731.38
307.042	783.38
307.272	719.38
307.502	728.38
307.731	762.38
307.961	822.38
308.191	775.38
308.421	742.38
308.651	709.38
308.881	709.38
309.111	712.38
309.341	743.38
309.571	801.38
309.8	806.38
310.03	787.38
310.26	831.38
310.49	795.38
310.72	762.38
310.949	763.38
311.179	804.38
311.409	853.38
311.639	954.38
311.868	1270.38
312.098	1604.38
312.328	1718.38
312.557	1653.38
312.787	1699.38
313.017	1480.38
313.246	1574.38
313.476	1723.38
313.706	1462.38
313.935	1150.38
314.165	960.38
314.394	844.38
314.624	850.38
314.853	901.38
315.083	941.38
315.312	913.38
315.542	903.38
315.771	822.38
316.001	768.38
316.23	748.38
316.46	750.38
316.689	775.38
316.919	792.38
317.148	781.38
317.377	772.38
317.607	782.38
317.836	830.38
318.065	964.38
318.295	1077.38
318.524	974.38
318.753	863.38
318.983	828.38
319.212	839.38
319.441	859.38
319.67	949.38
319.9	1008.38
320.129	957.38
320.358	854.38
320.587	834.38
320.816	855.38
321.046	970.38
321.275	1058.38
321.504	1074.38
321.733	1055.38
321.962	1023.38
322.191	958.38
322.42	907.38
322.649	911.38
322.878	965.38
323.108	966.38
323.337	948.38
323.566	918.38
323.795	932.38
324.024	885.38
324.253	828.38
324.482	850.38
324.71	878.38
324.939	961.38
325.168	885.38
325.397	800.38
325.626	800.38
325.855	832.38
326.084	863.38
326.313	805.38
326.542	762.38
326.77	766.38
326.999	800.38
327.228	843.38
327.457	858.38
327.686	890.38
327.914	778.38
328.143	736.38
328.372	760.38
328.6	734.38
328.829	762.38
329.058	789.38
329.287	782.38
329.515	824.38
329.744	806.38
329.972	740.38
330.201	758.38
330.43	764.38
330.658	861.38
330.887	925.38
331.115	928.38
331.344	906.38
331.572	866.38
331.801	811.38
332.03	768.38
332.258	793.38
332.486	884.38
332.715	880.38
332.943	842.38
333.172	830.38
333.4	844.38
333.629	965.38
333.857	1004.38
334.085	1003.38
334.314	991.38
334.542	943.38
334.771	895.38
334.999	877.38
335.227	833.38
335.455	870.38
335.684	925.38
335.912	1125.38
336.14	1174.38
336.369	1148.38
336.597	1091.38
336.825	1224.38
337.053	1310.38
337.281	1071.38
337.51	893.38
337.738	870.38
337.966	934.38
338.194	1025.38
338.422	956.38
338.65	871.38
338.878	795.38
339.106	807.38
339.334	897.38
339.562	964.38
339.79	888.38
340.018	878.38
340.246	925.38
340.474	1001.38
340.702	1055.38
340.93	1105.38
341.158	1111.38
341.386	946.38
341.614	898.38
341.842	897.38
342.07	1000.38
342.298	1130.38
342.526	1181.38
342.754	953.38
342.981	902.38
343.209	890.38
343.437	958.38
343.665	1015.38
343.893	987.38
344.12	1138.38
344.348	1274.38
344.576	1183.38
344.804	985.38
345.031	864.38
345.259	830.38
345.487	852.38
345.714	906.38
345.942	942.38
346.17	996.38
346.397	967.38
346.625	837.38
346.853	841.38
347.08	830.38
347.308	862.38
347.535	942.38
347.763	958.38
347.99	847.38
348.218	828.38
348.445	862.38
348.673	867.38
348.9	828.38
349.128	908.38
349.355	891.38
349.583	887.38
349.81	848.38
350.037	837.38
350.265	762.38
350.492	721.38
350.72	713.38
350.947	734.38
351.174	775.38
351.402	798.38
351.629	799.38
351.856	771.38
352.083	782.38
352.311	783.38
352.538	858.38
352.765	868.38
352.992	818.38
353.22	807.38
353.447	804.38
353.674	814.38
353.901	801.38
354.128	778.38
354.355	807.38
354.583	822.38
354.81	842.38
355.037	855.38
355.264	805.38
355.491	888.38
355.718	887.38
355.945	875.38
356.172	852.38
356.399	877.38
356.626	1014.38
356.853	1182.38
357.08	1243.38
357.307	1240.38
357.534	1053.38
357.761	1076.38
357.988	1278.38
358.215	1443.38
358.441	1366.38
358.668	1210.38
358.895	1112.38
359.122	960.38
359.349	982.38
359.576	1050.38
359.802	874.38
360.029	794.38
360.256	829.38
360.483	967.38
360.709	1175.38
360.936	1205.38
361.163	1059.38
361.39	852.38
361.616	855.38
361.843	918.38
362.07	1093.38
362.296	1034.38
362.523	854.38
362.749	776.38
362.976	804.38
363.203	914.38
363.429	1003.38
363.656	887.38
363.882	817.38
364.109	817.38
364.335	815.38
364.562	788.38
364.788	870.38
365.015	978.38
365.241	893.38
365.468	795.38
365.694	747.38
365.92	699.38
366.147	701.38
366.373	684.38
366.599	701.38
366.826	684.38
367.052	679.38
367.278	698.38
367.505	701.38
367.731	763.38
367.957	836.38
368.184	851.38
368.41	795.38
368.636	843.38
368.862	846.38
369.089	818.38
369.315	763.38
369.541	748.38
369.767	791.38
369.993	735.38
370.219	715.38
370.445	760.38
370.672	818.38
370.898	843.38
371.124	859.38
371.35	796.38
371.576	783.38
371.802	812.38
372.028	936.38
372.254	997.38
372.48	916.38
372.706	836.38
372.932	865.38
373.158	883.38
373.384	1019.38
373.61	1256.38
373.835	1299.38
374.061	1015.38
374.287	928.38
374.513	1049.38
374.739	1173.38
374.965	1213.38
375.191	1200.38
375.416	926.38
375.642	874.38
375.868	935.38
376.094	995.38
376.319	909.38
376.545	1005.38
376.771	988.38
376.997	880.38
377.222	752.38
377.448	698.38
377.674	672.38
377.899	694.38
378.125	690.38
378.35	692.38
378.576	662.38
378.802	725.38
379.027	770.38
379.253	767.38
379.478	762.38
379.704	845.38
379.929	858.38
380.155	875.38
380.38	775.38
380.606	814.38
380.831	893.38
381.057	854.38
381.282	823.38
381.507	895.38
381.733	1046.38
381.958	1141.38
382.184	1172.38
382.409	1280.38
382.634	1244.38
382.86	1232.38
383.085	1056.38
383.31	910.38
383.535	953.38
383.761	951.38
383.986	925.38
384.211	1061.38
384.436	1063.38
384.662	855.38
384.887	844.38
385.112	848.38
385.337	874.38
385.562	843.38
385.787	922.38
386.013	974.38
386.238	997.38
386.463	860.38
386.688	835.38
386.913	830.38
387.138	800.38
387.363	833.38
387.588	836.38
387.813	865.38
388.038	912.38
388.263	842.38
388.488	837.38
388.713	893.38
388.938	922.38
389.163	848.38
389.387	786.38
389.612	810.38
389.837	832.38
390.062	843.38
390.287	851.38
390.512	866.38
390.736	808.38
390.961	830.38
391.186	805.38
391.411	776.38
391.636	766.38
391.86	820.38
392.085	877.38
392.31	892.38
392.534	840.38
392.759	819.38
392.984	853.38
393.208	817.38
393.433	804.38
393.658	768.38
393.882	692.38
394.107	717.38
394.331	762.38
394.556	737.38
394.78	760.38
395.005	780.38
395.229	776.38
395.454	794.38
395.678	831.38
395.903	802.38
396.127	805.38
396.352	799.38
396.576	855.38
396.801	860.38
397.025	904.38
397.249	948.38
397.474	852.38
397.698	823.38
397.922	858.38
398.147	839.38
398.371	839.38
398.595	896.38
398.82	858.38
399.044	885.38
399.268	930.38
399.492	998.38
399.717	995.38
399.941	1010.38
400.165	999.38
400.389	945.38
400.613	928.38
400.837	919.38
401.062	858.38
401.286	869.38
401.51	850.38
401.734	865.38
401.958	859.38
402.182	866.38
402.406	842.38
402.63	864.38
402.854	893.38
403.078	980.38
403.302	1178.38
403.526	1159.38
403.75	1077.38
403.974	961.38
404.198	1007.38
404.422	1098.38
404.645	1165.38
404.869	1222.38
405.093	1024.38
405.317	929.38
405.541	925.38
405.765	934.38
405.988	927.38
406.212	995.38
406.436	1069.38
406.66	1118.38
406.883	993.38
407.107	1023.38
407.331	1119.38
407.555	1117.38
407.778	1008.38
408.002	990.38
408.226	986.38
408.449	997.38
408.673	943.38
408.896	853.38
409.12	858.38
409.344	887.38
409.567	862.38
409.791	877.38
410.014	850.38
410.238	819.38
410.461	844.38
410.685	841.38
410.908	870.38
411.132	894.38
411.355	880.38
411.578	884.38
411.802	862.38
412.025	894.38
412.249	916.38
412.472	914.38
412.695	896.38
412.919	877.38
413.142	895.38
413.365	926.38
413.589	944.38
413.812	888.38
414.035	869.38
414.258	873.38
414.482	910.38
414.705	923.38
414.928	859.38
415.151	811.38
415.374	830.38
415.597	844.38
415.821	837.38
416.044	840.38
416.267	832.38
416.49	807.38
416.713	838.38
416.936	790.38
417.159	825.38
417.382	821.38
417.605	837.38
417.828	844.38
418.051	872.38
418.274	844.38
418.497	849.38
418.72	862.38
418.943	864.38
419.166	893.38
419.389	944.38
419.611	942.38
419.834	902.38
420.057	967.38
420.28	931.38
420.503	876.38
420.726	820.38
420.948	816.38
421.171	847.38
421.394	828.38
421.617	813.38
421.839	823.38
422.062	845.38
422.285	836.38
422.507	868.38
422.73	867.38
422.953	864.38
423.175	855.38
423.398	880.38
423.621	914.38
423.843	935.38
424.066	882.38
424.288	880.38
424.511	833.38
424.733	838.38
424.956	883.38
425.178	918.38
425.401	1037.38
425.623	1172.38
425.846	994.38
426.068	923.38
426.291	911.38
426.513	877.38
426.735	885.38
426.958	876.38
427.18	1000.38
427.402	1154.38
427.625	1212.38
427.847	1009.38
428.069	844.38
428.292	844.38
428.514	828.38
428.736	834.38
428.958	895.38
429.181	968.38
429.403	865.38
429.625	814.38
429.847	810.38
430.069	817.38
430.292	832.38
430.514	781.38
430.736	846.38
430.958	1008.38
431.18	913.38
431.402	817.38
431.624	752.38
431.846	751.38
432.068	755.38
432.29	791.38
432.512	818.38
432.734	1008.38
432.956	957.38
433.178	795.38
433.4	790.38
433.622	796.38
433.844	821.38
434.066	867.38
434.287	838.38
434.509	824.38
434.731	870.38
434.953	829.38
435.175	863.38
435.397	957.38
435.618	852.38
435.84	802.38
436.062	786.38
436.284	828.38
436.505	741.38
436.727	758.38
436.949	749.38
437.17	765.38
437.392	770.38
437.614	769.38
437.835	770.38
438.057	777.38
438.278	861.38
438.5	1091.38
438.721	1102.38
438.943	824.38
439.165	751.38
439.386	772.38
439.608	753.38
439.829	766.38
440.05	744.38
440.272	804.38
440.493	862.38
440.715	980.38
440.936	882.38
441.158	798.38
441.379	823.38
441.6	893.38
441.822	893.38
442.043	812.38
442.264	831.38
442.486	802.38
442.707	825.38
442.928	826.38
443.149	856.38
443.371	848.38
443.592	866.38
443.813	910.38
444.034	865.38
444.255	856.38
444.476	894.38
444.698	879.38
444.919	918.38
445.14	1030.38
445.361	972.38
445.582	903.38
445.803	891.38
446.024	903.38
446.245	872.38
446.466	871.38
446.687	826.38
446.908	828.38
447.129	795.38
447.35	784.38
447.571	749.38
447.792	775.38
448.013	748.38
448.234	739.38
448.455	741.38
448.675	773.38
448.896	772.38
449.117	752.38
449.338	777.38
449.559	774.38
449.779	787.38
450	798.38
450.221	782.38
450.442	797.38
450.662	746.38
450.883	760.38
451.104	775.38
451.324	771.38
451.545	776.38
451.766	772.38
451.986	759.38
452.207	720.38
452.428	733.38
452.648	712.38
452.869	742.38
453.089	780.38
453.31	753.38
453.53	702.38
453.751	708.38
453.971	692.38
454.192	724.38
454.412	731.38
454.633	738.38
454.853	723.38
455.073	709.38
455.294	691.38
455.514	701.38
455.734	713.38
455.955	779.38
456.175	765.38
456.395	717.38
456.616	708.38
456.836	686.38
457.056	669.38
457.276	663.38
457.497	676.38
457.717	685.38
457.937	696.38
458.157	679.38
458.377	686.38
458.598	722.38
458.818	732.38
459.038	751.38
459.258	787.38
459.478	809.38
459.698	844.38
459.918	864.38
460.138	817.38
460.358	838.38
460.578	814.38
460.798	852.38
461.018	845.38
461.238	809.38
461.458	812.38
461.678	838.38
461.898	880.38
462.118	884.38
462.338	863.38
462.558	889.38
462.777	921.38
462.997	968.38
463.217	946.38
463.437	999.38
463.657	974.38
463.876	932.38
464.096	918.38
464.316	926.38
464.536	926.38
464.755	934.38
464.975	948.38
465.195	908.38
465.414	928.38
465.634	897.38
465.854	877.38
466.073	795.38
466.293	830.38
466.512	846.38
466.732	942.38
466.951	943.38
467.171	877.38
467.391	814.38
467.61	817.38
467.829	871.38
468.049	880.38
468.268	802.38
468.488	808.38
468.707	841.38
468.927	978.38
469.146	1032.38
469.365	945.38
469.585	874.38
469.804	930.38
470.023	980.38
470.243	878.38
470.462	874.38
470.681	875.38
470.901	861.38
471.12	899.38
471.339	902.38
471.558	837.38
471.777	860.38
471.997	928.38
472.216	1004.38
472.435	990.38
472.654	886.38
472.873	858.38
473.092	916.38
473.311	969.38
473.53	886.38
473.749	880.38
473.968	891.38
474.187	880.38
474.406	887.38
474.625	876.38
474.844	879.38
475.063	933.38
475.282	929.38
475.501	958.38
475.72	1043.38
475.939	1018.38
476.158	994.38
476.377	1144.38
476.596	1313.38
476.814	1359.38
477.033	1118.38
477.252	974.38
477.471	949.38
477.69	959.38
477.908	1036.38
478.127	1073.38
478.346	1006.38
478.564	1111.38
478.783	1044.38
479.002	1020.38
479.22	1166.38
479.439	1299.38
479.658	1123.38
479.876	1071.38
480.095	1166.38
480.313	1134.38
480.532	1060.38
480.751	1037.38
480.969	1062.38
481.188	1170.38
481.406	1203.38
481.624	1153.38
481.843	1032.38
482.061	1009.38
482.28	1106.38
482.498	1349.38
482.717	1245.38
482.935	1103.38
483.153	1045.38
483.372	980.38
483.59	1014.38
483.808	1005.38
484.027	978.38
484.245	944.38
484.463	918.38
484.681	946.38
484.9	1024.38
485.118	1103.38
485.336	1006.38
485.554	967.38
485.772	998.38
485.99	1059.38
486.209	1105.38
486.427	1110.38
486.645	1099.38
486.863	1157.38
487.081	1126.38
487.299	1213.38
487.517	1140.38
487.735	1086.38
487.953	1130.38
488.171	1166.38
488.389	1097.38
488.607	1044.38
488.825	1063.38
489.043	1093.38
489.261	1217.38
489.479	1265.38
489.696	1171.38
489.914	1111.38
490.132	1043.38
490.35	1032.38
490.568	1059.38
490.786	1071.38
491.003	1085.38
491.221	1074.38
491.439	1076.38
491.657	1068.38
491.874	1102.38
492.092	1272.38
492.31	1414.38
492.527	1454.38
492.745	1337.38
492.963	1210.38
493.18	1187.38
493.398	1183.38
493.615	1180.38
493.833	1148.38
494.05	1138.38
494.268	1156.38
494.485	1159.38
494.703	1107.38
494.92	1131.38
495.138	1095.38
495.355	1106.38
495.573	1132.38
495.79	1173.38
496.008	1370.38
496.225	1282.38
496.442	1225.38
496.66	1230.38
496.877	1297.38
497.094	1267.38
497.312	1189.38
497.529	1204.38
497.746	1212.38
497.963	1239.38
498.181	1375.38
498.398	1439.38
498.615	1495.38
498.832	1498.38
499.049	1593.38
499.267	1471.38
499.484	1449.38
499.701	1518.38
499.918	1699.38
500.135	1792.38
500.352	1773.38
500.569	1854.38
500.786	1871.38
501.003	1877.38
501.22	1701.38
501.437	1644.38
501.654	1505.38
501.871	1470.38
502.088	1494.38
502.305	1396.38
502.522	1418.38
502.739	1386.38
502.956	1275.38
503.172	1265.38
503.389	1223.38
503.606	1218.38
503.823	1195.38
504.04	1216.38
504.256	1243.38
504.473	1256.38
504.69	1255.38
504.907	1281.38
505.123	1230.38
505.34	1296.38
505.557	1309.38
505.773	1229.38
505.99	1186.38
506.207	1246.38
506.423	1157.38
506.64	1134.38
506.856	1121.38
507.073	1212.38
507.289	1227.38
507.506	1215.38
507.722	1269.38
507.939	1266.38
508.155	1287.38
508.372	1171.38
508.588	1125.38
508.805	1134.38
509.021	1110.38
509.238	1080.38
509.454	1059.38
509.67	1055.38
509.887	1131.38
510.103	1177.38
510.319	1177.38
510.536	1084.38
510.752	1009.38
510.968	979.38
511.184	964.38
511.401	1004.38
511.617	983.38
511.833	948.38
512.049	1003.38
512.265	1053.38
512.481	1039.38
512.698	1139.38
512.914	1219.38
513.13	1125.38
513.346	1010.38
513.562	1102.38
513.778	1052.38
513.994	1047.38
514.21	1076.38
514.426	1090.38
514.642	1026.38
514.858	1048.38
515.074	1094.38
515.29	1169.38
515.506	1328.38
515.721	1226.38
515.937	1126.38
516.153	1090.38
516.369	1107.38
516.585	1125.38
516.801	1223.38
517.016	1334.38
517.232	1354.38
517.448	1385.38
517.664	1287.38
517.879	1186.38
518.095	1221.38
518.311	1216.38
518.527	1237.38
518.742	1292.38
518.958	1380.38
519.173	1299.38
519.389	1222.38
519.605	1213.38
519.82	1282.38
520.036	1521.38
520.251	1523.38
520.467	1404.38
520.682	1954.38
520.898	2313.38
521.113	2181.38
521.329	1554.38
521.544	1411.38
521.76	1326.38
521.975	1190.38
522.19	1151.38
522.406	1210.38
522.621	1335.38
522.836	1287.38
523.052	1293.38
523.267	1111.38
523.482	1143.38
523.698	1210.38
523.913	1189.38
524.128	1148.38
524.343	1098.38
524.559	1076.38
524.774	1039.38
524.989	1056.38
525.204	1112.38
525.419	1214.38
525.634	1124.38
525.849	1154.38
526.064	1164.38
526.28	1142.38
526.495	1309.38
526.71	1343.38
526.925	1161.38
527.14	1162.38
527.355	1093.38
527.57	1004.38
527.785	1082.38
527.999	1038.38
528.214	1021.38
528.429	954.38
528.644	942.38
528.859	953.38
529.074	945.38
529.289	934.38
529.503	926.38
529.718	922.38
529.933	1072.38
530.148	1099.38
530.363	954.38
530.577	916.38
530.792	942.38
531.007	949.38
531.221	923.38
531.436	932.38
531.651	947.38
531.865	916.38
532.08	952.38
532.295	956.38
532.509	923.38
532.724	1012.38
532.938	1117.38
533.153	1242.38
533.367	1087.38
533.582	1063.38
533.796	1008.38
534.011	965.38
534.225	988.38
534.44	959.38
534.654	1021.38
534.868	1126.38
535.083	1027.38
535.297	973.38
535.511	962.38
535.726	1078.38
535.94	980.38
536.154	959.38
536.369	898.38
536.583	892.38
536.797	902.38
537.011	939.38
537.225	946.38
537.44	1030.38
537.654	938.38
537.868	956.38
538.082	946.38
538.296	918.38
538.51	953.38
538.724	946.38
538.938	947.38
539.153	932.38
539.367	895.38
539.581	900.38
539.795	941.38
540.009	1005.38
540.222	947.38
540.436	918.38
540.65	994.38
540.864	1008.38
541.078	1058.38
541.292	1157.38
541.506	982.38
541.72	923.38
541.934	938.38
542.147	976.38
542.361	962.38
542.575	964.38
542.789	934.38
543.002	866.38
543.216	930.38
543.43	862.38
543.644	880.38
543.857	859.38
544.071	870.38
544.285	863.38
544.498	840.38
544.712	866.38
544.925	865.38
545.139	891.38
545.352	838.38
545.566	872.38
545.779	943.38
545.993	876.38
546.206	815.38
546.42	814.38
546.633	821.38
546.847	767.38
547.06	810.38
547.274	813.38
547.487	833.38
547.7	899.38
547.914	901.38
548.127	997.38
548.34	991.38
548.554	895.38
548.767	902.38
548.98	947.38
549.193	880.38
549.407	951.38
549.62	1084.38
549.833	977.38
550.046	1045.38
550.259	1064.38
550.473	940.38
550.686	912.38
550.899	926.38
551.112	909.38
551.325	989.38
551.538	1020.38
551.751	873.38
551.964	867.38
552.177	844.38
552.39	837.38
552.603	854.38
552.816	870.38
553.029	831.38
553.242	852.38
553.455	895.38
553.667	967.38
553.88	908.38
554.093	830.38
554.306	816.38
554.519	763.38
554.732	750.38
554.944	726.38
555.157	749.38
555.37	741.38
555.583	746.38
555.795	728.38
556.008	752.38
556.221	766.38
556.433	737.38
556.646	722.38
556.859	731.38
557.071	747.38
557.284	747.38
557.496	755.38
557.709	757.38
557.921	712.38
558.134	668.38
558.346	677.38
558.559	710.38
558.771	706.38
558.984	743.38
559.196	701.38
559.409	695.38
559.621	682.38
559.833	688.38
560.046	669.38
560.258	659.38
560.47	695.38
560.683	672.38
560.895	640.38
561.107	637.38
561.32	657.38
561.532	656.38
561.744	699.38
561.956	682.38
562.168	677.38
562.381	659.38
562.593	688.38
562.805	665.38
563.017	652.38
563.229	643.38
563.441	638.38
563.653	634.38
563.865	639.38
564.077	666.38
564.289	650.38
564.501	660.38
564.713	720.38
564.925	697.38
565.137	666.38
565.349	668.38
565.561	655.38
565.773	639.38
565.985	711.38
566.197	743.38
566.408	815.38
566.62	797.38
566.832	818.38
567.044	813.38
567.255	854.38
567.467	923.38
567.679	834.38
567.891	872.38
568.102	854.38
568.314	861.38
568.526	835.38
568.737	822.38
568.949	830.38
569.161	727.38
569.372	665.38
569.584	673.38
569.795	653.38
570.007	672.38
570.218	724.38
570.43	703.38
570.641	672.38
570.853	624.38
571.064	615.38
571.276	648.38
571.487	690.38
571.698	635.38
571.91	629.38
572.121	637.38
572.333	607.38
572.544	609.38
572.755	595.38
572.966	572.38
573.178	589.38
573.389	613.38
573.6	610.38
573.811	599.38
574.023	568.38
574.234	572.38
574.445	578.38
574.656	560.38
574.867	567.38
575.078	559.38
575.289	542.38
575.501	590.38
575.712	544.38
575.923	511.38
576.134	523.38
576.345	535.38
576.556	542.38
576.767	528.38
576.978	514.38
577.188	516.38
577.399	509.38
577.61	523.38
577.821	523.38
578.032	528.38
578.243	550.38
578.454	545.38
578.665	536.38
578.875	533.38
579.086	524.38
579.297	544.38
579.508	543.38
579.718	527.38
579.929	530.38
580.14	513.38
580.35	494.38
580.561	479.38
580.772	462.38
580.982	467.38
581.193	452.38
581.403	477.38
581.614	446.38
581.825	450.38
582.035	436.38
582.246	442.38
582.456	468.38
582.667	474.38
582.877	466.38
583.087	446.38
583.298	468.38
583.508	456.38
583.719	425.38
583.929	458.38
584.139	434.38
584.35	439.38
584.56	476.38
584.77	471.38
584.981	442.38
585.191	453.38
585.401	443.38
585.611	463.38
585.821	479.38
586.032	477.38
586.242	456.38
586.452	474.38
586.662	452.38
586.872	487.38
587.082	474.38
587.292	446.38
587.502	448.38
587.713	420.38
587.923	444.38
588.133	499.38
588.343	474.38
588.553	470.38
588.762	435.38
588.972	429.38
589.182	431.38
589.392	431.38
589.602	447.38
589.812	464.38
590.022	498.38
590.232	511.38
590.441	457.38
590.651	455.38
590.861	460.38
591.071	440.38
591.281	446.38
591.49	428.38
591.7	429.38
591.91	446.38
592.119	428.38
592.329	447.38
592.539	439.38
592.748	432.38
592.958	439.38
593.167	465.38
593.377	480.38
593.587	470.38
593.796	469.38
594.006	455.38
594.215	429.38
594.424	470.38
594.634	479.38
594.843	464.38
595.053	424.38
595.262	418.38
595.472	430.38
595.681	428.38
595.89	429.38
596.1	437.38
596.309	423.38
596.518	394.38
596.727	428.38
596.937	404.38
597.146	436.38
597.355	424.38
597.564	421.38
597.774	399.38
597.983	386.38
598.192	382.38
598.401	373.38
598.61	376.38
598.819	382.38
599.028	371.38
599.237	375.38
599.446	358.38
599.655	365.38
599.864	365.38
600.073	366.38
600.282	372.38
600.491	364.38
600.7	363.38
600.909	366.38
601.118	368.38
601.327	359.38
601.536	379.38
601.745	365.38
601.953	383.38
602.162	366.38
602.371	371.38
602.58	364.38
602.789	364.38
602.997	359.38
603.206	382.38
603.415	366.38
603.623	353.38
603.832	354.38
604.041	360.38
604.249	349.38
604.458	378.38
604.666	366.38
604.875	334.38
605.084	335.38
605.292	347.38
605.501	372.38
605.709	350.38
605.918	343.38
606.126	339.38
606.334	337.38
606.543	367.38
606.751	341.38
606.96	340.38
607.168	346.38
607.376	348.38
607.585	330.38
607.793	331.38
608.001	345.38
608.21	335.38
608.418	346.38
608.626	359.38
608.834	336.38
609.043	329.38
609.251	326.38
609.459	327.38
609.667	326.38
609.875	333.38
610.083	348.38
610.291	349.38
610.499	352.38
610.707	333.38
610.916	306.38
611.124	322.38
611.332	324.38
611.54	306.38
611.748	334.38
611.955	327.38
612.163	308.38
612.371	304.38
612.579	301.38
612.787	317.38
612.995	325.38
613.203	338.38
613.411	309.38
613.618	323.38
613.826	321.38
614.034	338.38
614.242	327.38
614.449	335.38
614.657	311.38
614.865	325.38
615.072	328.38
615.28	310.38
615.488	316.38
615.695	294.38
615.903	302.38
616.111	335.38
616.318	320.38
616.526	325.38
616.733	340.38
616.941	322.38
617.148	315.38
617.356	307.38
617.563	326.38
617.771	304.38
617.978	310.38
618.185	306.38
618.393	307.38
618.6	317.38
618.807	302.38
619.015	303.38
619.222	305.38
619.429	311.38
619.637	314.38
619.844	308.38
620.051	285.38
620.258	290.38
620.466	283.38
620.673	284.38
620.88	293.38
621.087	281.38
621.294	289.38
621.501	290.38
621.708	311.38
621.915	296.38
622.122	289.38
622.329	287.38
622.536	290.38
622.743	274.38
622.95	291.38
623.157	273.38
623.364	282.38
623.571	296.38
623.778	282.38
623.985	294.38
624.192	292.38
624.399	310.38
624.606	287.38
624.812	262.38
625.019	282.38
625.226	298.38
625.433	286.38
625.639	292.38
625.846	278.38
626.053	282.38
626.259	270.38
626.466	264.38
626.673	287.38
626.879	272.38
627.086	263.38
627.293	264.38
627.499	291.38
627.706	254.38
627.912	287.38
628.119	259.38
628.325	264.38
628.532	264.38
628.738	251.38
628.945	234.38
629.151	254.38
629.357	260.38
629.564	263.38
629.77	256.38
629.976	251.38
630.183	244.38
630.389	247.38
630.595	266.38
630.802	243.38
631.008	250.38
631.214	251.38
631.42	242.38
631.627	243.38
631.833	240.38
632.039	231.38
632.245	239.38
632.451	254.38
632.657	241.38
632.863	225.38
633.069	237.38
633.275	241.38
633.481	254.38
633.688	248.38
633.893	235.38
634.099	226.38
634.305	212.38
634.511	240.38
634.717	231.38
634.923	221.38
635.129	226.38
635.335	234.38
635.541	220.38
635.747	228.38
635.952	223.38
636.158	218.38
636.364	229.38
636.57	246.38
636.775	236.38
636.981	220.38
637.187	226.38
637.392	226.38
637.598	235.38
637.804	218.38
638.009	212.38
638.215	237.38
638.421	223.38
638.626	247.38
638.832	221.38
639.037	208.38
639.243	203.38
639.448	212.38
639.654	225.38
639.859	216.38
640.065	206.38
640.27	234.38
640.475	224.38
640.681	215.38
640.886	220.38
641.091	214.38
641.297	218.38
641.502	224.38
641.707	207.38
641.913	199.38
642.118	219.38
642.323	219.38
642.528	224.38
642.733	204.38
642.939	206.38
643.144	209.38
643.349	212.38
643.554	218.38
643.759	222.38
643.964	192.38
644.169	199.38
644.374	210.38
644.579	212.38
644.784	210.38
644.989	207.38
645.194	214.38
645.399	205.38
645.604	210.38
645.809	188.38
646.014	192.38
646.219	218.38
646.423	206.38
646.628	198.38
646.833	200.38
647.038	211.38
647.243	198.38
647.447	213.38
647.652	213.38
647.857	196.38
648.062	202.38
648.266	203.38
648.471	200.38
648.676	201.38
648.88	221.38
649.085	198.38
649.289	192.38
649.494	200.38
649.698	205.38
649.903	210.38
650.107	193.38
650.312	195.38
650.516	194.38
650.721	185.38
650.925	181.38
651.13	190.38
651.334	177.38
651.539	182.38
651.743	180.38
651.947	172.38
652.152	186.38
652.356	161.38
652.56	163.38
652.764	160.38
652.969	187.38
653.173	181.38
653.377	155.38
653.581	156.38
653.785	162.38
653.99	161.38
654.194	159.38
654.398	158.38
654.602	148.38
654.806	163.38
655.01	144.38
655.214	147.38
655.418	150.38
655.622	148.38
655.826	163.38
656.03	154.38
656.234	167.38
656.438	154.38
656.642	150.38
656.846	149.38
657.049	149.38
657.253	152.38
657.457	136.38
657.661	126.38
657.865	127.38
658.068	114.38
658.272	112.38
658.476	119.38
658.68	119.38
658.883	118.38
659.087	103.38
659.291	106.38
659.494	107.38
659.698	117.38
659.901	113.38
660.105	110.38
660.309	99.38
660.512	91.38
660.716	99.38
660.919	93.38
661.123	93.38
661.326	94.38
661.53	91.38
661.733	90.38
661.936	98.38
662.14	90.38
662.343	83.38
662.546	75.38
662.75	84.38
662.953	77.38
663.156	81.38
663.36	87.38
663.563	85.38
663.766	85.38
663.969	78.38
664.173	85.38
664.376	79.38
664.579	59.38
664.782	86.38
664.985	87.38
665.188	75.38
665.391	87.38
665.594	101.38
665.797	76.38
666	79.38
666.203	82.38
666.406	70.38
666.609	87.38
666.812	68.38
667.015	71.38
667.218	69.38
667.421	82.38
667.624	96.38
667.827	86.38
668.03	84.38
668.232	73.38
668.435	86.38
668.638	78.38
668.841	82.38
669.043	98.38
669.246	88.38
669.449	81.38
669.651	75.38
669.854	89.38
670.057	81.38
670.259	71.38
670.462	73.38
670.665	72.38
670.867	72.38
671.07	71.38
671.272	83.38
671.475	78.38
671.677	69.38
671.88	71.38
672.082	86.38
672.284	96.38
672.487	103.38
672.689	73.38
672.892	86.38
