Data from NickelSpatula.Lamp.E10.P2_HRD10591_11-59-04-526.txt Node
Date: Tue Jul 23 11:59:04 EDT 2019
User: cochatt
Spectrometer: HR+D1059
Trigger mode: 1
Integration Time (sec): 1.000000E-1
Scans to average: 1
Electric dark correction enabled: true
Nonlinearity correction enabled: false
Boxcar width: 0
XAxis mode: Wavelengths
Number of Pixels in Spectrum: 2048
>>>>>Begin Spectral Data<<<<<
223.165	-24.62
223.4	-24.62
223.635	-24.62
223.869	-20.62
224.104	-16.62
224.338	-21.62
224.573	-9.62
224.808	-5.62
225.042	-8.62
225.277	-5.62
225.511	3.38
225.746	3.38
225.98	-3.62
226.215	18.38
226.449	18.38
226.683	32.38
226.918	20.38
227.152	20.38
227.387	28.38
227.621	46.38
227.856	42.38
228.09	39.38
228.324	44.38
228.559	59.38
228.793	87.38
229.027	135.38
229.262	160.38
229.496	147.38
229.73	160.38
229.964	190.38
230.199	219.38
230.433	214.38
230.667	210.38
230.901	222.38
231.136	206.38
231.37	202.38
231.604	230.38
231.838	242.38
232.072	259.38
232.306	248.38
232.541	256.38
232.775	248.38
233.009	267.38
233.243	302.38
233.477	312.38
233.711	332.38
233.945	329.38
234.179	332.38
234.413	334.38
234.647	396.38
234.881	486.38
235.115	428.38
235.349	403.38
235.583	363.38
235.817	341.38
236.051	367.38
236.285	418.38
236.519	463.38
236.753	452.38
236.987	430.38
237.221	420.38
237.455	401.38
237.689	423.38
237.922	453.38
238.156	479.38
238.39	544.38
238.624	671.38
238.858	586.38
239.091	512.38
239.325	490.38
239.559	478.38
239.793	572.38
240.027	662.38
240.26	649.38
240.494	602.38
240.728	594.38
240.961	709.38
241.195	654.38
241.429	622.38
241.662	629.38
241.896	537.38
242.13	483.38
242.363	452.38
242.597	477.38
242.83	567.38
243.064	554.38
243.298	590.38
243.531	616.38
243.765	648.38
243.998	646.38
244.232	615.38
244.465	618.38
244.699	614.38
244.932	676.38
245.166	609.38
245.399	554.38
245.633	549.38
245.866	578.38
246.099	619.38
246.333	713.38
246.566	777.38
246.8	760.38
247.033	750.38
247.266	696.38
247.5	692.38
247.733	691.38
247.966	672.38
248.2	713.38
248.433	793.38
248.666	856.38
248.899	838.38
249.133	880.38
249.366	998.38
249.599	1089.38
249.832	950.38
250.066	826.38
250.299	843.38
250.532	817.38
250.765	837.38
250.998	743.38
251.231	712.38
251.465	793.38
251.698	819.38
251.931	815.38
252.164	858.38
252.397	926.38
252.63	1054.38
252.863	1156.38
253.096	1223.38
253.329	1178.38
253.562	1110.38
253.795	1239.38
254.028	1361.38
254.261	1391.38
254.494	1254.38
254.727	1154.38
254.96	1115.38
255.193	1216.38
255.426	1158.38
255.659	872.38
255.892	818.38
256.124	850.38
256.357	1021.38
256.59	1208.38
256.823	1150.38
257.056	972.38
257.289	906.38
257.521	976.38
257.754	1154.38
257.987	1278.38
258.22	1104.38
258.452	1008.38
258.685	1151.38
258.918	1258.38
259.151	1245.38
259.383	1342.38
259.616	1481.38
259.849	1580.38
260.081	1735.38
260.314	1898.38
260.547	1477.38
260.779	1513.38
261.012	1733.38
261.244	1630.38
261.477	1630.38
261.71	1534.38
261.942	1306.38
262.175	1305.38
262.407	1220.38
262.64	1267.38
262.872	1498.38
263.105	1658.38
263.337	1748.38
263.57	1541.38
263.802	1036.38
264.035	904.38
264.267	878.38
264.499	781.38
264.732	704.38
264.964	686.38
265.197	722.38
265.429	772.38
265.661	838.38
265.894	849.38
266.126	894.38
266.358	1053.38
266.591	1247.38
266.823	1496.38
267.055	1419.38
267.287	1269.38
267.52	1240.38
267.752	1326.38
267.984	1474.38
268.216	1400.38
268.448	1156.38
268.681	1096.38
268.913	1177.38
269.145	1258.38
269.377	1286.38
269.609	1312.38
269.841	1217.38
270.073	1315.38
270.306	1346.38
270.538	1388.38
270.77	1430.38
271.002	1404.38
271.234	1467.38
271.466	1506.38
271.698	1467.38
271.93	1466.38
272.162	1447.38
272.394	1417.38
272.626	1404.38
272.858	1506.38
273.09	1492.38
273.322	1308.38
273.553	1298.38
273.785	1523.38
274.017	2027.38
274.249	2456.38
274.481	2515.38
274.713	2771.38
274.945	3205.38
275.176	3320.38
275.408	2859.38
275.64	2638.38
275.872	2664.38
276.104	2255.38
276.335	1961.38
276.567	1928.38
276.799	1974.38
277.031	2109.38
277.262	1592.38
277.494	1255.38
277.726	1218.38
277.957	1326.38
278.189	1502.38
278.421	1480.38
278.652	1418.38
278.884	1369.38
279.115	1267.38
279.347	1210.38
279.579	1152.38
279.81	1187.38
280.042	1232.38
280.273	1227.38
280.505	1113.38
280.736	1017.38
280.968	1007.38
281.199	1072.38
281.431	1231.38
281.662	1221.38
281.894	1201.38
282.125	1252.38
282.356	1373.38
282.588	1402.38
282.819	1259.38
283.051	1370.38
283.282	1691.38
283.513	1986.38
283.745	2162.38
283.976	2124.38
284.207	2019.38
284.439	2103.38
284.67	2020.38
284.901	1780.38
285.132	1962.38
285.364	1998.38
285.595	1846.38
285.826	1975.38
286.057	2054.38
286.288	1988.38
286.52	1973.38
286.751	2135.38
286.982	2091.38
287.213	1825.38
287.444	1769.38
287.675	1849.38
287.906	1840.38
288.138	1566.38
288.369	1352.38
288.6	1287.38
288.831	1311.38
289.062	1563.38
289.293	1684.38
289.524	1602.38
289.755	1618.38
289.986	1622.38
290.217	1434.38
290.448	1112.38
290.679	972.38
290.91	944.38
291.141	942.38
291.371	956.38
291.602	938.38
291.833	961.38
292.064	1061.38
292.295	1236.38
292.526	1408.38
292.757	1449.38
292.987	1570.38
293.218	1563.38
293.449	1578.38
293.68	1715.38
293.91	1568.38
294.141	1616.38
294.372	1523.38
294.603	1417.38
294.833	1604.38
295.064	1823.38
295.295	1681.38
295.525	1338.38
295.756	1150.38
295.987	1015.38
296.217	994.38
296.448	1034.38
296.679	1097.38
296.909	1243.38
297.14	1305.38
297.37	1423.38
297.601	1377.38
297.831	1163.38
298.062	1266.38
298.292	1435.38
298.523	1609.38
298.753	1800.38
298.984	1597.38
299.214	1261.38
299.445	1092.38
299.675	1040.38
299.905	1023.38
300.136	1091.38
300.366	1173.38
300.597	1178.38
300.827	1028.38
301.057	985.38
301.288	1035.38
301.518	1090.38
301.748	1272.38
301.979	1341.38
302.209	1446.38
302.439	1446.38
302.669	1248.38
302.9	1239.38
303.13	1180.38
303.36	1101.38
303.59	1065.38
303.82	1101.38
304.051	1256.38
304.281	1367.38
304.511	1306.38
304.741	1143.38
304.971	1192.38
305.201	1259.38
305.431	1200.38
305.661	1060.38
305.891	1070.38
306.121	1066.38
306.352	942.38
306.582	875.38
306.812	878.38
307.042	862.38
307.272	824.38
307.502	811.38
307.731	885.38
307.961	890.38
308.191	874.38
308.421	816.38
308.651	800.38
308.881	782.38
309.111	778.38
309.341	803.38
309.571	928.38
309.8	918.38
310.03	967.38
310.26	1028.38
310.49	991.38
310.72	879.38
310.949	882.38
311.179	905.38
311.409	920.38
311.639	1108.38
311.868	1404.38
312.098	1803.38
312.328	1931.38
312.557	1838.38
312.787	1939.38
313.017	1666.38
313.246	1781.38
313.476	1986.38
313.706	1642.38
313.935	1280.38
314.165	1070.38
314.394	950.38
314.624	964.38
314.853	1034.38
315.083	1018.38
315.312	1031.38
315.542	1028.38
315.771	960.38
316.001	858.38
316.23	832.38
316.46	840.38
316.689	859.38
316.919	894.38
317.148	938.38
317.377	914.38
317.607	881.38
317.836	957.38
318.065	1083.38
318.295	1254.38
318.524	1166.38
318.753	990.38
318.983	928.38
319.212	916.38
319.441	990.38
319.67	1126.38
319.9	1224.38
320.129	1132.38
320.358	965.38
320.587	983.38
320.816	1021.38
321.046	1222.38
321.275	1350.38
321.504	1353.38
321.733	1289.38
321.962	1215.38
322.191	1181.38
322.42	1088.38
322.649	1154.38
322.878	1214.38
323.108	1209.38
323.337	1111.38
323.566	1079.38
323.795	1068.38
324.024	990.38
324.253	1007.38
324.482	982.38
324.71	1054.38
324.939	1224.38
325.168	1110.38
325.397	950.38
325.626	900.38
325.855	906.38
326.084	935.38
326.313	906.38
326.542	825.38
326.77	892.38
326.999	914.38
327.228	988.38
327.457	1009.38
327.686	1011.38
327.914	913.38
328.143	823.38
328.372	844.38
328.6	887.38
328.829	902.38
329.058	890.38
329.287	916.38
329.515	902.38
329.744	878.38
329.972	832.38
330.201	782.38
330.43	831.38
330.658	961.38
330.887	1084.38
331.115	1011.38
331.344	1006.38
331.572	940.38
331.801	897.38
332.03	859.38
332.258	898.38
332.486	966.38
332.715	969.38
332.943	904.38
333.172	920.38
333.4	931.38
333.629	1028.38
333.857	1101.38
334.085	1135.38
334.314	1074.38
334.542	1034.38
334.771	974.38
334.999	947.38
335.227	919.38
335.455	937.38
335.684	1045.38
335.912	1176.38
336.14	1315.38
336.369	1270.38
336.597	1236.38
336.825	1374.38
337.053	1556.38
337.281	1243.38
337.51	1012.38
337.738	974.38
337.966	1056.38
338.194	1196.38
338.422	1124.38
338.65	961.38
338.878	896.38
339.106	906.38
339.334	1018.38
339.562	1080.38
339.79	987.38
340.018	956.38
340.246	1031.38
340.474	1188.38
340.702	1272.38
340.93	1317.38
341.158	1316.38
341.386	1123.38
341.614	1107.38
341.842	1082.38
342.07	1148.38
342.298	1316.38
342.526	1387.38
342.754	1219.38
342.981	1122.38
343.209	1081.38
343.437	1124.38
343.665	1192.38
343.893	1190.38
344.12	1381.38
344.348	1605.38
344.576	1416.38
344.804	1210.38
345.031	1082.38
345.259	1028.38
345.487	1008.38
345.714	1034.38
345.942	1113.38
346.17	1215.38
346.397	1126.38
346.625	990.38
346.853	964.38
347.08	945.38
347.308	1010.38
347.535	1124.38
347.763	1152.38
347.99	999.38
348.218	934.38
348.445	973.38
348.673	974.38
348.9	994.38
349.128	1061.38
349.355	1113.38
349.583	1080.38
349.81	1041.38
350.037	959.38
350.265	837.38
350.492	815.38
350.72	794.38
350.947	851.38
351.174	913.38
351.402	937.38
351.629	989.38
351.856	954.38
352.083	887.38
352.311	968.38
352.538	1062.38
352.765	1152.38
352.992	1034.38
353.22	990.38
353.447	1018.38
353.674	986.38
353.901	982.38
354.128	978.38
354.355	1002.38
354.583	1010.38
354.81	946.38
355.037	1007.38
355.264	1016.38
355.491	1091.38
355.718	1186.38
355.945	1146.38
356.172	1106.38
356.399	1136.38
356.626	1355.38
356.853	1592.38
357.08	1753.38
357.307	1749.38
357.534	1371.38
357.761	1404.38
357.988	1777.38
358.215	2043.38
358.441	1922.38
358.668	1658.38
358.895	1509.38
359.122	1210.38
359.349	1229.38
359.576	1330.38
359.802	1100.38
360.029	955.38
360.256	1017.38
360.483	1266.38
360.709	1621.38
360.936	1666.38
361.163	1452.38
361.39	1135.38
361.616	1049.38
361.843	1235.38
362.07	1521.38
362.296	1374.38
362.523	1063.38
362.749	962.38
362.976	982.38
363.203	1196.38
363.429	1347.38
363.656	1088.38
363.882	1003.38
364.109	1018.38
364.335	1010.38
364.562	974.38
364.788	1158.38
365.015	1344.38
365.241	1204.38
365.468	947.38
365.694	852.38
365.92	813.38
366.147	801.38
366.373	778.38
366.599	804.38
366.826	800.38
367.052	860.38
367.278	866.38
367.505	834.38
367.731	908.38
367.957	1034.38
368.184	1044.38
368.41	1041.38
368.636	1025.38
368.862	1057.38
369.089	1029.38
369.315	913.38
369.541	894.38
369.767	896.38
369.993	876.38
370.219	862.38
370.445	922.38
370.672	985.38
370.898	1087.38
371.124	1094.38
371.35	933.38
371.576	891.38
371.802	959.38
372.028	1193.38
372.254	1318.38
372.48	1134.38
372.706	1046.38
372.932	1077.38
373.158	1148.38
373.384	1370.38
373.61	1833.38
373.835	1887.38
374.061	1383.38
374.287	1202.38
374.513	1383.38
374.739	1712.38
374.965	1756.38
375.191	1715.38
375.416	1164.38
375.642	998.38
375.868	1204.38
376.094	1390.38
376.319	1172.38
376.545	1320.38
376.771	1371.38
376.997	1156.38
377.222	855.38
377.448	750.38
377.674	788.38
377.899	760.38
378.125	722.38
378.35	750.38
378.576	800.38
378.802	866.38
379.027	920.38
379.253	885.38
379.478	932.38
379.704	1046.38
379.929	1087.38
380.155	1088.38
380.38	966.38
380.606	1022.38
380.831	1097.38
381.057	997.38
381.282	982.38
381.507	1196.38
381.733	1470.38
381.958	1542.38
382.184	1607.38
382.409	1736.38
382.634	1702.38
382.86	1766.38
383.085	1446.38
383.31	1145.38
383.535	1216.38
383.761	1250.38
383.986	1182.38
384.211	1449.38
384.436	1356.38
384.662	1061.38
384.887	1036.38
385.112	1049.38
385.337	1083.38
385.562	1015.38
385.787	1099.38
386.013	1224.38
386.238	1258.38
386.463	1006.38
386.688	1000.38
386.913	947.38
387.138	921.38
387.363	973.38
387.588	983.38
387.813	1030.38
388.038	1140.38
388.263	959.38
388.488	965.38
388.713	1112.38
388.938	1207.38
389.163	1024.38
389.387	942.38
389.612	912.38
389.837	963.38
390.062	967.38
390.287	1023.38
390.512	1018.38
390.736	957.38
390.961	886.38
391.186	858.38
391.411	848.38
391.636	862.38
391.86	955.38
392.085	1045.38
392.31	1026.38
392.534	971.38
392.759	947.38
392.984	994.38
393.208	933.38
393.433	886.38
393.658	834.38
393.882	828.38
394.107	788.38
394.331	823.38
394.556	818.38
394.78	820.38
395.005	848.38
395.229	883.38
395.454	878.38
395.678	884.38
395.903	904.38
396.127	879.38
396.352	890.38
396.576	997.38
396.801	1028.38
397.025	1101.38
397.249	1152.38
397.474	931.38
397.698	929.38
397.922	967.38
398.147	887.38
398.371	926.38
398.595	983.38
398.82	952.38
399.044	966.38
399.268	1026.38
399.492	1078.38
399.717	1082.38
399.941	1135.38
400.165	1054.38
400.389	1058.38
400.613	1062.38
400.837	1031.38
401.062	933.38
401.286	926.38
401.51	898.38
401.734	916.38
401.958	909.38
402.182	890.38
402.406	912.38
402.63	936.38
402.854	953.38
403.078	1075.38
403.302	1313.38
403.526	1344.38
403.75	1205.38
403.974	1030.38
404.198	1083.38
404.422	1246.38
404.645	1478.38
404.869	1606.38
405.093	1179.38
405.317	1008.38
405.541	994.38
405.765	1028.38
405.988	1044.38
406.212	1094.38
406.436	1305.38
406.66	1437.38
406.883	1138.38
407.107	1160.38
407.331	1403.38
407.555	1344.38
407.778	1081.38
408.002	1081.38
408.226	1048.38
408.449	1055.38
408.673	1014.38
408.896	918.38
409.12	922.38
409.344	874.38
409.567	888.38
409.791	918.38
410.014	891.38
410.238	874.38
410.461	892.38
410.685	898.38
410.908	914.38
411.132	926.38
411.355	931.38
411.578	969.38
411.802	935.38
412.025	966.38
412.249	1009.38
412.472	945.38
412.695	967.38
412.919	972.38
413.142	993.38
413.365	1050.38
413.589	1042.38
413.812	980.38
414.035	919.38
414.258	945.38
414.482	1064.38
414.705	1072.38
414.928	935.38
415.151	868.38
415.374	886.38
415.597	923.38
415.821	945.38
416.044	904.38
416.267	861.38
416.49	875.38
416.713	866.38
416.936	866.38
417.159	881.38
417.382	877.38
417.605	888.38
417.828	946.38
418.051	930.38
418.274	961.38
418.497	906.38
418.72	936.38
418.943	991.38
419.166	1011.38
419.389	1048.38
419.611	1014.38
419.834	998.38
420.057	1118.38
420.28	1110.38
420.503	982.38
420.726	929.38
420.948	880.38
421.171	894.38
421.394	871.38
421.617	848.38
421.839	884.38
422.062	958.38
422.285	912.38
422.507	948.38
422.73	935.38
422.953	999.38
423.175	955.38
423.398	969.38
423.621	1042.38
423.843	1046.38
424.066	960.38
424.288	964.38
424.511	932.38
424.733	915.38
424.956	996.38
425.178	1095.38
425.401	1236.38
425.623	1345.38
425.846	1182.38
426.068	1039.38
426.291	1107.38
426.513	1043.38
426.735	950.38
426.958	1007.38
427.18	1177.38
427.402	1505.38
427.625	1472.38
427.847	1202.38
428.069	909.38
428.292	892.38
428.514	912.38
428.736	878.38
428.958	950.38
429.181	1103.38
429.403	972.38
429.625	878.38
429.847	860.38
430.069	921.38
430.292	942.38
430.514	881.38
430.736	988.38
430.958	1219.38
431.18	1089.38
431.402	812.38
431.624	798.38
431.846	801.38
432.068	815.38
432.29	830.38
432.512	926.38
432.734	1218.38
432.956	1164.38
433.178	854.38
433.4	860.38
433.622	847.38
433.844	894.38
434.066	960.38
434.287	902.38
434.509	902.38
434.731	908.38
434.953	874.38
435.175	935.38
435.397	1052.38
435.618	894.38
435.84	832.38
436.062	830.38
436.284	839.38
436.505	824.38
436.727	807.38
436.949	814.38
437.17	838.38
437.392	880.38
437.614	852.38
437.835	844.38
438.057	840.38
438.278	976.38
438.5	1398.38
438.721	1389.38
438.943	945.38
439.165	806.38
439.386	785.38
439.608	825.38
439.829	800.38
440.05	803.38
440.272	850.38
440.493	1024.38
440.715	1270.38
440.936	991.38
441.158	828.38
441.379	866.38
441.6	991.38
441.822	996.38
442.043	897.38
442.264	884.38
442.486	893.38
442.707	884.38
442.928	866.38
443.149	903.38
443.371	885.38
443.592	972.38
443.813	923.38
444.034	904.38
444.255	896.38
444.476	978.38
444.698	938.38
444.919	928.38
445.14	1108.38
445.361	1034.38
445.582	953.38
445.803	944.38
446.024	940.38
446.245	930.38
446.466	921.38
446.687	887.38
446.908	917.38
447.129	832.38
447.35	816.38
447.571	788.38
447.792	804.38
448.013	820.38
448.234	792.38
448.455	775.38
448.675	807.38
448.896	821.38
449.117	820.38
449.338	820.38
449.559	821.38
449.779	874.38
450	847.38
450.221	874.38
450.442	821.38
450.662	783.38
450.883	808.38
451.104	838.38
451.324	818.38
451.545	810.38
451.766	795.38
451.986	778.38
452.207	763.38
452.428	766.38
452.648	769.38
452.869	831.38
453.089	852.38
453.31	856.38
453.53	762.38
453.751	743.38
453.971	743.38
454.192	786.38
454.412	819.38
454.633	772.38
454.853	753.38
455.073	737.38
455.294	736.38
455.514	725.38
455.734	745.38
455.955	799.38
456.175	854.38
456.395	759.38
456.616	710.38
456.836	726.38
457.056	724.38
457.276	702.38
457.497	728.38
457.717	698.38
457.937	740.38
458.157	742.38
458.377	731.38
458.598	744.38
458.818	756.38
459.038	825.38
459.258	847.38
459.478	867.38
459.698	879.38
459.918	922.38
460.138	886.38
460.358	891.38
460.578	850.38
460.798	890.38
461.018	901.38
461.238	841.38
461.458	883.38
461.678	886.38
461.898	948.38
462.118	921.38
462.338	922.38
462.558	957.38
462.777	962.38
462.997	977.38
463.217	1000.38
463.437	1038.38
463.657	999.38
463.876	987.38
464.096	954.38
464.316	968.38
464.536	978.38
464.755	1045.38
464.975	1030.38
465.195	964.38
465.414	1024.38
465.634	967.38
465.854	940.38
466.073	887.38
466.293	871.38
466.512	944.38
466.732	1042.38
466.951	1060.38
467.171	935.38
467.391	879.38
467.61	866.38
467.829	924.38
468.049	928.38
468.268	893.38
468.488	889.38
468.707	924.38
468.927	1070.38
469.146	1178.38
469.365	1026.38
469.585	976.38
469.804	1034.38
470.023	1127.38
470.243	977.38
470.462	922.38
470.681	929.38
470.901	927.38
471.12	1010.38
471.339	982.38
471.558	936.38
471.777	965.38
471.997	1024.38
472.216	1120.38
472.435	1099.38
472.654	999.38
472.873	935.38
473.092	1013.38
473.311	1063.38
473.53	959.38
473.749	946.38
473.968	1044.38
474.187	964.38
474.406	945.38
474.625	927.38
474.844	969.38
475.063	999.38
475.282	1053.38
475.501	1086.38
475.72	1127.38
475.939	1104.38
476.158	1120.38
476.377	1267.38
476.596	1462.38
476.814	1542.38
477.033	1247.38
477.252	1070.38
477.471	996.38
477.69	1022.38
477.908	1107.38
478.127	1159.38
478.346	1045.38
478.564	1162.38
478.783	1103.38
479.002	1106.38
479.22	1247.38
479.439	1442.38
479.658	1239.38
479.876	1163.38
480.095	1202.38
480.313	1236.38
480.532	1124.38
480.751	1100.38
480.969	1132.38
481.188	1309.38
481.406	1310.38
481.624	1246.38
481.843	1141.38
482.061	1062.38
482.28	1215.38
482.498	1455.38
482.717	1362.38
482.935	1220.38
483.153	1125.38
483.372	1080.38
483.59	1070.38
483.808	1061.38
484.027	1084.38
484.245	1021.38
484.463	1000.38
484.681	1056.38
484.9	1130.38
485.118	1193.38
485.336	1132.38
485.554	1064.38
485.772	1097.38
485.99	1172.38
486.209	1231.38
486.427	1216.38
486.645	1210.38
486.863	1255.38
487.081	1198.38
487.299	1376.38
487.517	1331.38
487.735	1268.38
487.953	1249.38
488.171	1247.38
488.389	1185.38
488.607	1097.38
488.825	1176.38
489.043	1268.38
489.261	1467.38
489.479	1569.38
489.696	1357.38
489.914	1183.38
490.132	1106.38
490.35	1118.38
490.568	1163.38
490.786	1130.38
491.003	1154.38
491.221	1163.38
491.439	1163.38
491.657	1156.38
491.874	1259.38
492.092	1526.38
492.31	1824.38
492.527	1771.38
492.745	1527.38
492.963	1310.38
493.18	1318.38
493.398	1303.38
493.615	1294.38
493.833	1263.38
494.05	1256.38
494.268	1247.38
494.485	1274.38
494.703	1215.38
494.92	1266.38
495.138	1222.38
495.355	1203.38
495.573	1262.38
495.79	1402.38
496.008	1854.38
496.225	1596.38
496.442	1360.38
496.66	1390.38
496.877	1444.38
497.094	1398.38
497.312	1306.38
497.529	1326.38
497.746	1336.38
497.963	1394.38
498.181	1474.38
498.398	1597.38
498.615	1638.38
498.832	1665.38
499.049	1713.38
499.267	1542.38
499.484	1557.38
499.701	1626.38
499.918	1732.38
500.135	1889.38
500.352	1899.38
500.569	1989.38
500.786	2030.38
501.003	2034.38
501.22	1819.38
501.437	1768.38
501.654	1694.38
501.871	1618.38
502.088	1607.38
502.305	1522.38
502.522	1552.38
502.739	1524.38
502.956	1394.38
503.172	1359.38
503.389	1306.38
503.606	1302.38
503.823	1276.38
504.04	1303.38
504.256	1333.38
504.473	1389.38
504.69	1367.38
504.907	1409.38
505.123	1387.38
505.34	1466.38
505.557	1433.38
505.773	1355.38
505.99	1323.38
506.207	1390.38
506.423	1280.38
506.64	1201.38
506.856	1270.38
507.073	1398.38
507.289	1339.38
507.506	1361.38
507.722	1429.38
507.939	1455.38
508.155	1475.38
508.372	1329.38
508.588	1261.38
508.805	1209.38
509.021	1228.38
509.238	1183.38
509.454	1149.38
509.67	1163.38
509.887	1213.38
510.103	1369.38
510.319	1293.38
510.536	1198.38
510.752	1090.38
510.968	1050.38
511.184	1024.38
511.401	1053.38
511.617	1049.38
511.833	1067.38
512.049	1099.38
512.265	1096.38
512.481	1127.38
512.698	1257.38
512.914	1377.38
513.13	1244.38
513.346	1150.38
513.562	1191.38
513.778	1162.38
513.994	1168.38
514.21	1224.38
514.426	1205.38
514.642	1196.38
514.858	1142.38
515.074	1193.38
515.29	1276.38
515.506	1410.38
515.721	1340.38
515.937	1250.38
516.153	1196.38
516.369	1174.38
516.585	1216.38
516.801	1334.38
517.016	1594.38
517.232	1595.38
517.448	1570.38
517.664	1395.38
517.879	1307.38
518.095	1281.38
518.311	1275.38
518.527	1357.38
518.742	1401.38
518.958	1460.38
519.173	1420.38
519.389	1371.38
519.605	1384.38
519.82	1515.38
520.036	1710.38
520.251	1730.38
520.467	1607.38
520.682	2392.38
520.898	2904.38
521.113	2720.38
521.329	1701.38
521.544	1522.38
521.76	1530.38
521.975	1381.38
522.19	1265.38
522.406	1362.38
522.621	1505.38
522.836	1534.38
523.052	1561.38
523.267	1311.38
523.482	1314.38
523.698	1418.38
523.913	1342.38
524.128	1228.38
524.343	1165.38
524.559	1208.38
524.774	1121.38
524.989	1185.38
525.204	1205.38
525.419	1392.38
525.634	1225.38
525.849	1233.38
526.064	1247.38
526.28	1270.38
526.495	1492.38
526.71	1554.38
526.925	1384.38
527.14	1428.38
527.355	1357.38
527.57	1142.38
527.785	1223.38
527.999	1138.38
528.214	1068.38
528.429	1070.38
528.644	1088.38
528.859	1014.38
529.074	1009.38
529.289	991.38
529.503	989.38
529.718	1013.38
529.933	1149.38
530.148	1206.38
530.363	1040.38
530.577	1042.38
530.792	1024.38
531.007	1021.38
531.221	995.38
531.436	970.38
531.651	1014.38
531.865	1015.38
532.08	1029.38
532.295	987.38
532.509	1032.38
532.724	1163.38
532.938	1328.38
533.153	1507.38
533.367	1250.38
533.582	1193.38
533.796	1079.38
534.011	1053.38
534.225	1051.38
534.44	1082.38
534.654	1119.38
534.868	1252.38
535.083	1100.38
535.297	1047.38
535.511	1029.38
535.726	1159.38
535.94	1085.38
536.154	1018.38
536.369	1000.38
536.583	969.38
536.797	1032.38
537.011	1050.38
537.225	1106.38
537.44	1203.38
537.654	1032.38
537.868	1035.38
538.082	1028.38
538.296	1027.38
538.51	1076.38
538.724	1094.38
538.938	1040.38
539.153	950.38
539.367	966.38
539.581	994.38
539.795	1066.38
540.009	1136.38
540.222	1080.38
540.436	1028.38
540.65	1160.38
540.864	1194.38
541.078	1196.38
541.292	1324.38
541.506	1138.38
541.72	1058.38
541.934	1062.38
542.147	1059.38
542.361	1066.38
542.575	1072.38
542.789	1031.38
543.002	987.38
543.216	1089.38
543.43	972.38
543.644	939.38
543.857	931.38
544.071	967.38
544.285	928.38
544.498	928.38
544.712	956.38
544.925	1006.38
545.139	961.38
545.352	934.38
545.566	935.38
545.779	1048.38
545.993	972.38
546.206	895.38
546.42	900.38
546.633	913.38
546.847	873.38
547.06	883.38
547.274	856.38
547.487	927.38
547.7	948.38
547.914	1006.38
548.127	1146.38
548.34	1074.38
548.554	963.38
548.767	1002.38
548.98	1076.38
549.193	980.38
549.407	1032.38
549.62	1211.38
549.833	1088.38
550.046	1163.38
550.259	1149.38
550.473	1033.38
550.686	988.38
550.899	1021.38
551.112	1001.38
551.325	1052.38
551.538	1098.38
551.751	970.38
551.964	898.38
552.177	884.38
552.39	860.38
552.603	898.38
552.816	936.38
553.029	900.38
553.242	861.38
553.455	968.38
553.667	1037.38
553.88	976.38
554.093	913.38
554.306	862.38
554.519	795.38
554.732	806.38
554.944	792.38
555.157	770.38
555.37	753.38
555.583	785.38
555.795	778.38
556.008	806.38
556.221	827.38
556.433	778.38
556.646	782.38
556.859	776.38
557.071	820.38
557.284	836.38
557.496	855.38
557.709	816.38
557.921	791.38
558.134	778.38
558.346	746.38
558.559	744.38
558.771	803.38
558.984	804.38
559.196	780.38
559.409	743.38
559.621	722.38
559.833	732.38
560.046	704.38
560.258	715.38
560.47	776.38
560.683	729.38
560.895	681.38
561.107	681.38
561.32	685.38
561.532	683.38
561.744	777.38
561.956	761.38
562.168	732.38
562.381	708.38
562.593	716.38
562.805	717.38
563.017	713.38
563.229	668.38
563.441	663.38
563.653	705.38
563.865	722.38
564.077	726.38
564.289	681.38
564.501	690.38
564.713	744.38
564.925	726.38
565.137	710.38
565.349	700.38
565.561	700.38
565.773	729.38
565.985	756.38
566.197	808.38
566.408	827.38
566.62	853.38
566.832	826.38
567.044	860.38
567.255	900.38
567.467	988.38
567.679	898.38
567.891	886.38
568.102	897.38
568.314	889.38
568.526	853.38
568.737	827.38
568.949	857.38
569.161	777.38
569.372	707.38
569.584	701.38
569.795	664.38
570.007	718.38
570.218	768.38
570.43	720.38
570.641	709.38
570.853	670.38
571.064	688.38
571.276	706.38
571.487	706.38
571.698	688.38
571.91	675.38
572.121	692.38
572.333	618.38
572.544	606.38
572.755	649.38
572.966	622.38
573.178	617.38
573.389	647.38
573.6	655.38
573.811	624.38
574.023	551.38
574.234	584.38
574.445	586.38
574.656	559.38
574.867	570.38
575.078	606.38
575.289	588.38
575.501	635.38
575.712	593.38
575.923	565.38
576.134	532.38
576.345	532.38
576.556	547.38
576.767	535.38
576.978	525.38
577.188	532.38
577.399	506.38
577.61	520.38
577.821	531.38
578.032	543.38
578.243	581.38
578.454	592.38
578.665	561.38
578.875	564.38
579.086	540.38
579.297	572.38
579.508	561.38
579.718	552.38
579.929	565.38
580.14	538.38
580.35	521.38
580.561	481.38
580.772	469.38
580.982	492.38
581.193	483.38
581.403	489.38
581.614	479.38
581.825	468.38
582.035	446.38
582.246	478.38
582.456	479.38
582.667	489.38
582.877	460.38
583.087	439.38
583.298	466.38
583.508	462.38
583.719	450.38
583.929	480.38
584.139	444.38
584.35	467.38
584.56	475.38
584.77	466.38
584.981	488.38
585.191	468.38
585.401	460.38
585.611	477.38
585.821	512.38
586.032	499.38
586.242	477.38
586.452	464.38
586.662	464.38
586.872	490.38
587.082	505.38
587.292	494.38
587.502	473.38
587.713	470.38
587.923	473.38
588.133	508.38
588.343	468.38
588.553	439.38
588.762	480.38
588.972	450.38
589.182	466.38
589.392	441.38
589.602	458.38
589.812	475.38
590.022	521.38
590.232	499.38
590.441	474.38
590.651	470.38
590.861	461.38
591.071	486.38
591.281	453.38
591.49	459.38
591.7	446.38
591.91	448.38
592.119	458.38
592.329	447.38
592.539	474.38
592.748	452.38
592.958	474.38
593.167	465.38
593.377	466.38
593.587	505.38
593.796	504.38
594.006	477.38
594.215	491.38
594.424	490.38
594.634	491.38
594.843	493.38
595.053	463.38
595.262	440.38
595.472	468.38
595.681	456.38
595.89	418.38
596.1	441.38
596.309	433.38
596.518	431.38
596.727	427.38
596.937	418.38
597.146	461.38
597.355	466.38
597.564	438.38
597.774	441.38
597.983	408.38
598.192	410.38
598.401	401.38
598.61	400.38
598.819	407.38
599.028	384.38
599.237	399.38
599.446	372.38
599.655	387.38
599.864	384.38
600.073	385.38
600.282	382.38
600.491	383.38
600.7	371.38
600.909	395.38
601.118	391.38
601.327	386.38
601.536	385.38
601.745	420.38
601.953	418.38
602.162	400.38
602.371	402.38
602.58	409.38
602.789	379.38
602.997	384.38
603.206	385.38
603.415	386.38
603.623	371.38
603.832	362.38
604.041	371.38
604.249	361.38
604.458	398.38
604.666	370.38
604.875	334.38
605.084	349.38
605.292	352.38
605.501	368.38
605.709	382.38
605.918	372.38
606.126	356.38
606.334	355.38
606.543	363.38
606.751	346.38
606.96	360.38
607.168	350.38
607.376	339.38
607.585	326.38
607.793	356.38
608.001	366.38
608.21	361.38
608.418	374.38
608.626	357.38
608.834	344.38
609.043	342.38
609.251	325.38
609.459	341.38
609.667	352.38
609.875	338.38
610.083	345.38
610.291	370.38
610.499	354.38
610.707	347.38
610.916	347.38
611.124	346.38
611.332	343.38
611.54	319.38
611.748	350.38
611.955	331.38
612.163	347.38
612.371	321.38
612.579	331.38
612.787	348.38
612.995	338.38
613.203	332.38
613.411	327.38
613.618	333.38
613.826	358.38
614.034	360.38
614.242	333.38
614.449	302.38
614.657	337.38
614.865	331.38
615.072	309.38
615.28	333.38
615.488	348.38
615.695	345.38
615.903	324.38
616.111	340.38
616.318	303.38
616.526	329.38
616.733	331.38
616.941	310.38
617.148	322.38
617.356	303.38
617.563	309.38
617.771	323.38
617.978	323.38
618.185	319.38
618.393	322.38
618.6	306.38
618.807	308.38
619.015	303.38
619.222	306.38
619.429	336.38
619.637	309.38
619.844	296.38
620.051	304.38
620.258	313.38
620.466	308.38
620.673	315.38
620.88	290.38
621.087	293.38
621.294	300.38
621.501	306.38
621.708	308.38
621.915	308.38
622.122	304.38
622.329	303.38
622.536	297.38
622.743	293.38
622.95	287.38
623.157	294.38
623.364	302.38
623.571	295.38
623.778	299.38
623.985	310.38
624.192	306.38
624.399	294.38
624.606	298.38
624.812	311.38
625.019	306.38
625.226	319.38
625.433	312.38
625.639	284.38
625.846	282.38
626.053	297.38
626.259	287.38
626.466	295.38
626.673	307.38
626.879	273.38
627.086	291.38
627.293	289.38
627.499	281.38
627.706	286.38
627.912	274.38
628.119	256.38
628.325	278.38
628.532	277.38
628.738	265.38
628.945	286.38
629.151	274.38
629.357	266.38
629.564	273.38
629.77	272.38
629.976	263.38
630.183	254.38
630.389	256.38
630.595	276.38
630.802	236.38
631.008	268.38
631.214	263.38
631.42	247.38
631.627	240.38
631.833	233.38
632.039	256.38
632.245	222.38
632.451	236.38
632.657	261.38
632.863	249.38
633.069	262.38
633.275	245.38
633.481	250.38
633.688	243.38
633.893	240.38
634.099	249.38
634.305	226.38
634.511	243.38
634.717	232.38
634.923	244.38
635.129	239.38
635.335	243.38
635.541	226.38
635.747	238.38
635.952	242.38
636.158	238.38
636.364	241.38
636.57	230.38
636.775	223.38
636.981	210.38
637.187	213.38
637.392	214.38
637.598	223.38
637.804	227.38
638.009	241.38
638.215	235.38
638.421	240.38
638.626	236.38
638.832	231.38
639.037	222.38
639.243	225.38
639.448	230.38
639.654	250.38
639.859	230.38
640.065	235.38
640.27	246.38
640.475	213.38
640.681	211.38
640.886	218.38
641.091	236.38
641.297	229.38
641.502	223.38
641.707	206.38
641.913	234.38
642.118	218.38
642.323	231.38
642.528	211.38
642.733	223.38
642.939	216.38
643.144	219.38
643.349	224.38
643.554	240.38
643.759	228.38
643.964	223.38
644.169	216.38
644.374	222.38
644.579	204.38
644.784	210.38
644.989	210.38
645.194	199.38
645.399	203.38
645.604	210.38
645.809	228.38
646.014	217.38
646.219	212.38
646.423	202.38
646.628	209.38
646.833	222.38
647.038	203.38
647.243	226.38
647.447	202.38
647.652	219.38
647.857	210.38
648.062	217.38
648.266	205.38
648.471	213.38
648.676	211.38
648.88	219.38
649.085	211.38
649.289	216.38
649.494	207.38
649.698	226.38
649.903	218.38
650.107	202.38
650.312	199.38
650.516	211.38
650.721	187.38
650.925	182.38
651.13	192.38
651.334	196.38
651.539	183.38
651.743	196.38
651.947	186.38
652.152	194.38
652.356	200.38
652.56	178.38
652.764	182.38
652.969	168.38
653.173	182.38
653.377	165.38
653.581	172.38
653.785	171.38
653.99	164.38
654.194	174.38
654.398	155.38
654.602	174.38
654.806	177.38
655.01	168.38
655.214	168.38
655.418	154.38
655.622	155.38
655.826	155.38
656.03	167.38
656.234	151.38
656.438	167.38
656.642	152.38
656.846	159.38
657.049	155.38
657.253	152.38
657.457	154.38
657.661	145.38
657.865	122.38
658.068	121.38
658.272	135.38
658.476	130.38
658.68	126.38
658.883	114.38
659.087	130.38
659.291	116.38
659.494	119.38
659.698	120.38
659.901	125.38
660.105	108.38
660.309	100.38
660.512	105.38
660.716	101.38
660.919	112.38
661.123	117.38
661.326	105.38
661.53	92.38
661.733	93.38
661.936	104.38
662.14	97.38
662.343	91.38
662.546	101.38
662.75	76.38
662.953	86.38
663.156	89.38
663.36	77.38
663.563	96.38
663.766	82.38
663.969	86.38
664.173	71.38
664.376	81.38
664.579	70.38
664.782	97.38
664.985	75.38
665.188	87.38
665.391	93.38
665.594	91.38
665.797	79.38
666	81.38
666.203	83.38
666.406	76.38
666.609	88.38
666.812	92.38
667.015	94.38
667.218	85.38
667.421	83.38
667.624	92.38
667.827	76.38
668.03	101.38
668.232	76.38
668.435	74.38
668.638	84.38
668.841	83.38
669.043	63.38
669.246	93.38
669.449	88.38
669.651	97.38
669.854	82.38
670.057	82.38
670.259	76.38
670.462	92.38
670.665	86.38
670.867	81.38
671.07	100.38
671.272	91.38
671.475	92.38
671.677	66.38
671.88	85.38
672.082	101.38
672.284	94.38
672.487	83.38
672.689	73.38
672.892	84.38
