Data from NickelSpatula.Lamp.E10.P2_HRD10591_11-59-47-524.txt Node
Date: Tue Jul 23 11:59:47 EDT 2019
User: cochatt
Spectrometer: HR+D1059
Trigger mode: 1
Integration Time (sec): 1.000000E-1
Scans to average: 1
Electric dark correction enabled: true
Nonlinearity correction enabled: false
Boxcar width: 0
XAxis mode: Wavelengths
Number of Pixels in Spectrum: 2048
>>>>>Begin Spectral Data<<<<<
223.165	-24.44
223.4	-24.44
223.635	-24.44
223.869	-13.44
224.104	-16.44
224.338	-11.44
224.573	-22.44
224.808	-8.44
225.042	-7.44
225.277	-6.44
225.511	1.56
225.746	5.56
225.98	6.56
226.215	9.56
226.449	17.56
226.683	14.56
226.918	25.56
227.152	29.56
227.387	43.56
227.621	38.56
227.856	44.56
228.09	48.56
228.324	43.56
228.559	68.56
228.793	81.56
229.027	135.56
229.262	151.56
229.496	178.56
229.73	174.56
229.964	197.56
230.199	212.56
230.433	231.56
230.667	209.56
230.901	233.56
231.136	214.56
231.37	212.56
231.604	233.56
231.838	237.56
232.072	239.56
232.306	256.56
232.541	244.56
232.775	242.56
233.009	266.56
233.243	313.56
233.477	321.56
233.711	350.56
233.945	341.56
234.179	332.56
234.413	368.56
234.647	397.56
234.881	472.56
235.115	438.56
235.349	411.56
235.583	360.56
235.817	363.56
236.051	393.56
236.285	445.56
236.519	468.56
236.753	424.56
236.987	441.56
237.221	412.56
237.455	443.56
237.689	423.56
237.922	473.56
238.156	490.56
238.39	567.56
238.624	694.56
238.858	616.56
239.091	502.56
239.325	515.56
239.559	493.56
239.793	570.56
240.027	647.56
240.26	609.56
240.494	587.56
240.728	601.56
240.961	689.56
241.195	659.56
241.429	653.56
241.662	613.56
241.896	520.56
242.13	500.56
242.363	472.56
242.597	470.56
242.83	544.56
243.064	539.56
243.298	602.56
243.531	635.56
243.765	676.56
243.998	643.56
244.232	602.56
244.465	607.56
244.699	608.56
244.932	653.56
245.166	641.56
245.399	538.56
245.633	531.56
245.866	560.56
246.099	626.56
246.333	724.56
246.566	780.56
246.8	820.56
247.033	753.56
247.266	682.56
247.5	715.56
247.733	682.56
247.966	673.56
248.2	713.56
248.433	803.56
248.666	883.56
248.899	880.56
249.133	874.56
249.366	1021.56
249.599	1069.56
249.832	949.56
250.066	854.56
250.299	847.56
250.532	836.56
250.765	827.56
250.998	753.56
251.231	720.56
251.465	795.56
251.698	843.56
251.931	819.56
252.164	858.56
252.397	953.56
252.63	1076.56
252.863	1191.56
253.096	1215.56
253.329	1172.56
253.562	1095.56
253.795	1266.56
254.028	1421.56
254.261	1429.56
254.494	1280.56
254.727	1158.56
254.96	1147.56
255.193	1233.56
255.426	1155.56
255.659	879.56
255.892	807.56
256.124	868.56
256.357	1025.56
256.59	1219.56
256.823	1179.56
257.056	966.56
257.289	907.56
257.521	1009.56
257.754	1187.56
257.987	1297.56
258.22	1126.56
258.452	1051.56
258.685	1185.56
258.918	1313.56
259.151	1293.56
259.383	1335.56
259.616	1536.56
259.849	1579.56
260.081	1724.56
260.314	1915.56
260.547	1492.56
260.779	1491.56
261.012	1756.56
261.244	1621.56
261.477	1681.56
261.71	1613.56
261.942	1300.56
262.175	1287.56
262.407	1254.56
262.64	1320.56
262.872	1541.56
263.105	1675.56
263.337	1787.56
263.57	1583.56
263.802	1062.56
264.035	929.56
264.267	901.56
264.499	748.56
264.732	696.56
264.964	714.56
265.197	714.56
265.429	793.56
265.661	815.56
265.894	846.56
266.126	934.56
266.358	1007.56
266.591	1294.56
266.823	1519.56
267.055	1447.56
267.287	1270.56
267.52	1237.56
267.752	1322.56
267.984	1473.56
268.216	1382.56
268.448	1135.56
268.681	1149.56
268.913	1218.56
269.145	1300.56
269.377	1303.56
269.609	1316.56
269.841	1206.56
270.073	1285.56
270.306	1397.56
270.538	1376.56
270.77	1413.56
271.002	1439.56
271.234	1470.56
271.466	1522.56
271.698	1490.56
271.93	1412.56
272.162	1477.56
272.394	1459.56
272.626	1413.56
272.858	1504.56
273.09	1523.56
273.322	1338.56
273.553	1302.56
273.785	1523.56
274.017	2045.56
274.249	2469.56
274.481	2574.56
274.713	2853.56
274.945	3292.56
275.176	3321.56
275.408	2937.56
275.64	2711.56
275.872	2656.56
276.104	2259.56
276.335	1903.56
276.567	1899.56
276.799	2031.56
277.031	2140.56
277.262	1668.56
277.494	1240.56
277.726	1212.56
277.957	1337.56
278.189	1498.56
278.421	1508.56
278.652	1491.56
278.884	1416.56
279.115	1299.56
279.347	1206.56
279.579	1213.56
279.81	1224.56
280.042	1183.56
280.273	1267.56
280.505	1129.56
280.736	1019.56
280.968	1023.56
281.199	1120.56
281.431	1265.56
281.662	1207.56
281.894	1219.56
282.125	1255.56
282.356	1360.56
282.588	1441.56
282.819	1281.56
283.051	1387.56
283.282	1702.56
283.513	1967.56
283.745	2239.56
283.976	2189.56
284.207	2045.56
284.439	2161.56
284.67	2052.56
284.901	1792.56
285.132	1914.56
285.364	2064.56
285.595	1863.56
285.826	1954.56
286.057	2088.56
286.288	1976.56
286.52	2011.56
286.751	2116.56
286.982	2135.56
287.213	1811.56
287.444	1803.56
287.675	1881.56
287.906	1867.56
288.138	1565.56
288.369	1353.56
288.6	1283.56
288.831	1328.56
289.062	1605.56
289.293	1708.56
289.524	1612.56
289.755	1618.56
289.986	1617.56
290.217	1440.56
290.448	1107.56
290.679	959.56
290.91	897.56
291.141	962.56
291.371	975.56
291.602	996.56
291.833	1015.56
292.064	1063.56
292.295	1204.56
292.526	1381.56
292.757	1452.56
292.987	1585.56
293.218	1579.56
293.449	1610.56
293.68	1689.56
293.91	1601.56
294.141	1640.56
294.372	1535.56
294.603	1429.56
294.833	1589.56
295.064	1850.56
295.295	1702.56
295.525	1337.56
295.756	1177.56
295.987	1031.56
296.217	1055.56
296.448	1068.56
296.679	1118.56
296.909	1269.56
297.14	1363.56
297.37	1447.56
297.601	1403.56
297.831	1173.56
298.062	1299.56
298.292	1481.56
298.523	1592.56
298.753	1829.56
298.984	1610.56
299.214	1284.56
299.445	1057.56
299.675	1043.56
299.905	1033.56
300.136	1100.56
300.366	1221.56
300.597	1163.56
300.827	1059.56
301.057	982.56
301.288	1001.56
301.518	1100.56
301.748	1271.56
301.979	1333.56
302.209	1497.56
302.439	1465.56
302.669	1309.56
302.9	1299.56
303.13	1182.56
303.36	1119.56
303.59	1047.56
303.82	1088.56
304.051	1257.56
304.281	1355.56
304.511	1298.56
304.741	1159.56
304.971	1246.56
305.201	1331.56
305.431	1215.56
305.661	1100.56
305.891	1062.56
306.121	1095.56
306.352	976.56
306.582	857.56
306.812	866.56
307.042	871.56
307.272	815.56
307.502	805.56
307.731	895.56
307.961	929.56
308.191	861.56
308.421	823.56
308.651	791.56
308.881	790.56
309.111	789.56
309.341	843.56
309.571	906.56
309.8	937.56
310.03	909.56
310.26	1002.56
310.49	987.56
310.72	890.56
310.949	865.56
311.179	883.56
311.409	949.56
311.639	1103.56
311.868	1427.56
312.098	1831.56
312.328	1962.56
312.557	1886.56
312.787	1881.56
313.017	1690.56
313.246	1809.56
313.476	1993.56
313.706	1636.56
313.935	1296.56
314.165	1071.56
314.394	958.56
314.624	985.56
314.853	1018.56
315.083	1066.56
315.312	1004.56
315.542	1014.56
315.771	957.56
316.001	871.56
316.23	843.56
316.46	859.56
316.689	875.56
316.919	871.56
317.148	918.56
317.377	885.56
317.607	899.56
317.836	975.56
318.065	1123.56
318.295	1263.56
318.524	1179.56
318.753	987.56
318.983	947.56
319.212	932.56
319.441	1025.56
319.67	1150.56
319.9	1269.56
320.129	1139.56
320.358	991.56
320.587	949.56
320.816	1028.56
321.046	1187.56
321.275	1333.56
321.504	1378.56
321.733	1307.56
321.962	1235.56
322.191	1206.56
322.42	1091.56
322.649	1148.56
322.878	1219.56
323.108	1204.56
323.337	1161.56
323.566	1120.56
323.795	1053.56
324.024	1035.56
324.253	1013.56
324.482	999.56
324.71	1080.56
324.939	1255.56
325.168	1147.56
325.397	965.56
325.626	913.56
325.855	905.56
326.084	913.56
326.313	868.56
326.542	854.56
326.77	891.56
326.999	929.56
327.228	977.56
327.457	1020.56
327.686	1037.56
327.914	892.56
328.143	864.56
328.372	827.56
328.6	837.56
328.829	859.56
329.058	899.56
329.287	868.56
329.515	930.56
329.744	901.56
329.972	837.56
330.201	796.56
330.43	848.56
330.658	983.56
330.887	1084.56
331.115	1043.56
331.344	1023.56
331.572	965.56
331.801	903.56
332.03	847.56
332.258	883.56
332.486	993.56
332.715	1008.56
332.943	913.56
333.172	921.56
333.4	923.56
333.629	1037.56
333.857	1120.56
334.085	1109.56
334.314	1108.56
334.542	1032.56
334.771	995.56
334.999	957.56
335.227	928.56
335.455	953.56
335.684	1032.56
335.912	1201.56
336.14	1315.56
336.369	1273.56
336.597	1247.56
336.825	1403.56
337.053	1557.56
337.281	1239.56
337.51	980.56
337.738	985.56
337.966	1075.56
338.194	1174.56
338.422	1119.56
338.65	966.56
338.878	902.56
339.106	934.56
339.334	1013.56
339.562	1091.56
339.79	983.56
340.018	959.56
340.246	1067.56
340.474	1194.56
340.702	1271.56
340.93	1346.56
341.158	1359.56
341.386	1147.56
341.614	1137.56
341.842	1128.56
342.07	1196.56
342.298	1379.56
342.526	1455.56
342.754	1230.56
342.981	1133.56
343.209	1095.56
343.437	1144.56
343.665	1224.56
343.893	1205.56
344.12	1404.56
344.348	1652.56
344.576	1471.56
344.804	1223.56
345.031	1059.56
345.259	1008.56
345.487	1016.56
345.714	1053.56
345.942	1111.56
346.17	1231.56
346.397	1143.56
346.625	1027.56
346.853	1010.56
347.08	955.56
347.308	1043.56
347.535	1139.56
347.763	1129.56
347.99	1015.56
348.218	927.56
348.445	964.56
348.673	969.56
348.9	1016.56
349.128	1078.56
349.355	1084.56
349.583	1098.56
349.81	996.56
350.037	962.56
350.265	842.56
350.492	769.56
350.72	801.56
350.947	834.56
351.174	894.56
351.402	958.56
351.629	1012.56
351.856	965.56
352.083	924.56
352.311	982.56
352.538	1085.56
352.765	1176.56
352.992	1079.56
353.22	985.56
353.447	1045.56
353.674	987.56
353.901	972.56
354.128	1028.56
354.355	1022.56
354.583	984.56
354.81	997.56
355.037	1002.56
355.264	1007.56
355.491	1105.56
355.718	1232.56
355.945	1123.56
356.172	1112.56
356.399	1137.56
356.626	1372.56
356.853	1645.56
357.08	1761.56
357.307	1794.56
357.534	1399.56
357.761	1455.56
357.988	1840.56
358.215	2149.56
358.441	2010.56
358.668	1673.56
358.895	1543.56
359.122	1236.56
359.349	1262.56
359.576	1360.56
359.802	1111.56
360.029	977.56
360.256	1036.56
360.483	1297.56
360.709	1663.56
360.936	1739.56
361.163	1515.56
361.39	1138.56
361.616	1077.56
361.843	1275.56
362.07	1551.56
362.296	1426.56
362.523	1095.56
362.749	963.56
362.976	1032.56
363.203	1267.56
363.429	1423.56
363.656	1077.56
363.882	1045.56
364.109	1035.56
364.335	1018.56
364.562	1001.56
364.788	1147.56
365.015	1307.56
365.241	1179.56
365.468	950.56
365.694	844.56
365.92	819.56
366.147	789.56
366.373	776.56
366.599	819.56
366.826	807.56
367.052	817.56
367.278	828.56
367.505	840.56
367.731	928.56
367.957	1033.56
368.184	1055.56
368.41	1023.56
368.636	1043.56
368.862	1067.56
369.089	1057.56
369.315	916.56
369.541	943.56
369.767	895.56
369.993	859.56
370.219	874.56
370.445	925.56
370.672	1013.56
370.898	1129.56
371.124	1099.56
371.35	955.56
371.576	889.56
371.802	1045.56
372.028	1191.56
372.254	1401.56
372.48	1167.56
372.706	1050.56
372.932	1120.56
373.158	1185.56
373.384	1374.56
373.61	1884.56
373.835	1937.56
374.061	1404.56
374.287	1193.56
374.513	1451.56
374.739	1703.56
374.965	1786.56
375.191	1743.56
375.416	1199.56
375.642	1049.56
375.868	1237.56
376.094	1417.56
376.319	1228.56
376.545	1352.56
376.771	1407.56
376.997	1181.56
377.222	851.56
377.448	767.56
377.674	773.56
377.899	756.56
378.125	772.56
378.35	795.56
378.576	815.56
378.802	891.56
379.027	914.56
379.253	933.56
379.478	933.56
379.704	1065.56
379.929	1111.56
380.155	1105.56
380.38	956.56
380.606	1008.56
380.831	1129.56
381.057	1025.56
381.282	1013.56
381.507	1218.56
381.733	1498.56
381.958	1621.56
382.184	1718.56
382.409	1784.56
382.634	1728.56
382.86	1786.56
383.085	1455.56
383.31	1155.56
383.535	1241.56
383.761	1257.56
383.986	1208.56
384.211	1449.56
384.436	1380.56
384.662	1051.56
384.887	1013.56
385.112	1094.56
385.337	1095.56
385.562	1031.56
385.787	1128.56
386.013	1257.56
386.238	1282.56
386.463	1018.56
386.688	997.56
386.913	965.56
387.138	919.56
387.363	967.56
387.588	1001.56
387.813	1011.56
388.038	1136.56
388.263	997.56
388.488	955.56
388.713	1149.56
388.938	1238.56
389.163	1059.56
389.387	923.56
389.612	955.56
389.837	959.56
390.062	1011.56
390.287	1012.56
390.512	1036.56
390.736	970.56
390.961	880.56
391.186	866.56
391.411	831.56
391.636	865.56
391.86	936.56
392.085	1057.56
392.31	1026.56
392.534	960.56
392.759	915.56
392.984	1001.56
393.208	975.56
393.433	871.56
393.658	828.56
393.882	825.56
394.107	799.56
394.331	828.56
394.556	812.56
394.78	811.56
395.005	852.56
395.229	857.56
395.454	879.56
395.678	890.56
395.903	910.56
396.127	891.56
396.352	886.56
396.576	992.56
396.801	1004.56
397.025	1123.56
397.249	1140.56
397.474	945.56
397.698	915.56
397.922	964.56
398.147	924.56
398.371	941.56
398.595	980.56
398.82	951.56
399.044	939.56
399.268	1009.56
399.492	1058.56
399.717	1074.56
399.941	1092.56
400.165	1085.56
400.389	1033.56
400.613	1082.56
400.837	1060.56
401.062	943.56
401.286	905.56
401.51	931.56
401.734	922.56
401.958	921.56
402.182	918.56
402.406	914.56
402.63	970.56
402.854	963.56
403.078	1097.56
403.302	1334.56
403.526	1371.56
403.75	1201.56
403.974	1045.56
404.198	1103.56
404.422	1256.56
404.645	1488.56
404.869	1602.56
405.093	1204.56
405.317	1029.56
405.541	975.56
405.765	1018.56
405.988	1027.56
406.212	1113.56
406.436	1331.56
406.66	1502.56
406.883	1144.56
407.107	1202.56
407.331	1384.56
407.555	1321.56
407.778	1121.56
408.002	1036.56
408.226	1075.56
408.449	1060.56
408.673	1040.56
408.896	972.56
409.12	917.56
409.344	936.56
409.567	898.56
409.791	892.56
410.014	887.56
410.238	903.56
410.461	927.56
410.685	896.56
410.908	919.56
411.132	946.56
411.355	924.56
411.578	958.56
411.802	959.56
412.025	986.56
412.249	981.56
412.472	953.56
412.695	962.56
412.919	930.56
413.142	969.56
413.365	1049.56
413.589	1075.56
413.812	979.56
414.035	949.56
414.258	937.56
414.482	1060.56
414.705	1101.56
414.928	904.56
415.151	881.56
415.374	886.56
415.597	951.56
415.821	908.56
416.044	903.56
416.267	890.56
416.49	888.56
416.713	882.56
416.936	867.56
417.159	895.56
417.382	881.56
417.605	919.56
417.828	941.56
418.051	933.56
418.274	924.56
418.497	919.56
418.72	954.56
418.943	980.56
419.166	1018.56
419.389	1036.56
419.611	1012.56
419.834	1032.56
420.057	1142.56
420.28	1124.56
420.503	1044.56
420.726	923.56
420.948	852.56
421.171	909.56
421.394	852.56
421.617	853.56
421.839	922.56
422.062	931.56
422.285	947.56
422.507	939.56
422.73	954.56
422.953	968.56
423.175	950.56
423.398	951.56
423.621	1048.56
423.843	1064.56
424.066	992.56
424.288	973.56
424.511	947.56
424.733	898.56
424.956	988.56
425.178	1107.56
425.401	1245.56
425.623	1384.56
425.846	1172.56
426.068	1033.56
426.291	1151.56
426.513	1025.56
426.735	964.56
426.958	996.56
427.18	1178.56
427.402	1542.56
427.625	1512.56
427.847	1238.56
428.069	925.56
428.292	932.56
428.514	907.56
428.736	875.56
428.958	934.56
429.181	1133.56
429.403	981.56
429.625	887.56
429.847	870.56
430.069	905.56
430.292	905.56
430.514	899.56
430.736	987.56
430.958	1244.56
431.18	1106.56
431.402	862.56
431.624	815.56
431.846	806.56
432.068	796.56
432.29	817.56
432.512	951.56
432.734	1249.56
432.956	1147.56
433.178	883.56
433.4	841.56
433.622	860.56
433.844	902.56
434.066	939.56
434.287	916.56
434.509	889.56
434.731	942.56
434.953	887.56
435.175	929.56
435.397	1059.56
435.618	907.56
435.84	810.56
436.062	844.56
436.284	860.56
436.505	796.56
436.727	784.56
436.949	807.56
437.17	838.56
437.392	873.56
437.614	816.56
437.835	831.56
438.057	869.56
438.278	971.56
438.5	1467.56
438.721	1399.56
438.943	968.56
439.165	810.56
439.386	791.56
439.608	779.56
439.829	795.56
440.05	791.56
440.272	858.56
440.493	1031.56
440.715	1247.56
440.936	1014.56
441.158	863.56
441.379	856.56
441.6	984.56
441.822	1055.56
442.043	917.56
442.264	891.56
442.486	911.56
442.707	858.56
442.928	865.56
443.149	903.56
443.371	921.56
443.592	967.56
443.813	937.56
444.034	883.56
444.255	929.56
444.476	972.56
444.698	953.56
444.919	911.56
445.14	1026.56
445.361	1015.56
445.582	972.56
445.803	916.56
446.024	935.56
446.245	933.56
446.466	911.56
446.687	875.56
446.908	895.56
447.129	843.56
447.35	833.56
447.571	827.56
447.792	815.56
448.013	829.56
448.234	791.56
448.455	782.56
448.675	801.56
448.896	793.56
449.117	831.56
449.338	826.56
449.559	837.56
449.779	889.56
450	871.56
450.221	856.56
450.442	823.56
450.662	810.56
450.883	805.56
451.104	811.56
451.324	810.56
451.545	828.56
451.766	812.56
451.986	791.56
452.207	753.56
452.428	770.56
452.648	777.56
452.869	821.56
453.089	842.56
453.31	861.56
453.53	747.56
453.751	744.56
453.971	756.56
454.192	765.56
454.412	816.56
454.633	757.56
454.853	773.56
455.073	736.56
455.294	746.56
455.514	755.56
455.734	763.56
455.955	820.56
456.175	823.56
456.395	759.56
456.616	699.56
456.836	724.56
457.056	728.56
457.276	683.56
457.497	708.56
457.717	713.56
457.937	728.56
458.157	734.56
458.377	741.56
458.598	753.56
458.818	759.56
459.038	836.56
459.258	823.56
459.478	854.56
459.698	911.56
459.918	893.56
460.138	889.56
460.358	886.56
460.578	870.56
460.798	874.56
461.018	897.56
461.238	889.56
461.458	858.56
461.678	910.56
461.898	908.56
462.118	934.56
462.338	912.56
462.558	951.56
462.777	987.56
462.997	1013.56
463.217	1007.56
463.437	1055.56
463.657	1025.56
463.876	981.56
464.096	940.56
464.316	979.56
464.536	971.56
464.755	1023.56
464.975	1052.56
465.195	974.56
465.414	1009.56
465.634	963.56
465.854	947.56
466.073	889.56
466.293	847.56
466.512	941.56
466.732	1053.56
466.951	1075.56
467.171	939.56
467.391	922.56
467.61	853.56
467.829	937.56
468.049	941.56
468.268	890.56
468.488	867.56
468.707	923.56
468.927	1090.56
469.146	1143.56
469.365	1027.56
469.585	981.56
469.804	995.56
470.023	1094.56
470.243	996.56
470.462	893.56
470.681	890.56
470.901	924.56
471.12	973.56
471.339	969.56
471.558	917.56
471.777	924.56
471.997	1022.56
472.216	1114.56
472.435	1080.56
472.654	993.56
472.873	933.56
473.092	1046.56
473.311	1091.56
473.53	984.56
473.749	962.56
473.968	996.56
474.187	995.56
474.406	973.56
474.625	957.56
474.844	1006.56
475.063	1026.56
475.282	1042.56
475.501	1089.56
475.72	1147.56
475.939	1071.56
476.158	1108.56
476.377	1288.56
476.596	1457.56
476.814	1537.56
477.033	1282.56
477.252	1060.56
477.471	980.56
477.69	1030.56
477.908	1132.56
478.127	1139.56
478.346	1055.56
478.564	1148.56
478.783	1105.56
479.002	1146.56
479.22	1297.56
479.439	1402.56
479.658	1235.56
479.876	1132.56
480.095	1207.56
480.313	1237.56
480.532	1137.56
480.751	1109.56
480.969	1131.56
481.188	1303.56
481.406	1343.56
481.624	1205.56
481.843	1129.56
482.061	1097.56
482.28	1256.56
482.498	1500.56
482.717	1386.56
482.935	1209.56
483.153	1141.56
483.372	1094.56
483.59	1067.56
483.808	1102.56
484.027	1037.56
484.245	979.56
484.463	968.56
484.681	1033.56
484.9	1109.56
485.118	1207.56
485.336	1125.56
485.554	1066.56
485.772	1083.56
485.99	1168.56
486.209	1253.56
486.427	1227.56
486.645	1224.56
486.863	1267.56
487.081	1229.56
487.299	1423.56
487.517	1384.56
487.735	1249.56
487.953	1232.56
488.171	1292.56
488.389	1203.56
488.607	1128.56
488.825	1183.56
489.043	1265.56
489.261	1488.56
489.479	1565.56
489.696	1304.56
489.914	1173.56
490.132	1129.56
490.35	1149.56
490.568	1131.56
490.786	1113.56
491.003	1133.56
491.221	1179.56
491.439	1141.56
491.657	1172.56
491.874	1221.56
492.092	1542.56
492.31	1829.56
492.527	1797.56
492.745	1503.56
492.963	1352.56
493.18	1311.56
493.398	1327.56
493.615	1267.56
493.833	1274.56
494.05	1297.56
494.268	1277.56
494.485	1254.56
494.703	1227.56
494.92	1220.56
495.138	1233.56
495.355	1228.56
495.573	1267.56
495.79	1401.56
496.008	1887.56
496.225	1585.56
496.442	1389.56
496.66	1379.56
496.877	1431.56
497.094	1405.56
497.312	1338.56
497.529	1308.56
497.746	1324.56
497.963	1385.56
498.181	1514.56
498.398	1612.56
498.615	1694.56
498.832	1749.56
499.049	1749.56
499.267	1545.56
499.484	1561.56
499.701	1594.56
499.918	1792.56
500.135	1884.56
500.352	1944.56
500.569	1991.56
500.786	2036.56
501.003	2040.56
501.22	1852.56
501.437	1761.56
501.654	1680.56
501.871	1650.56
502.088	1672.56
502.305	1557.56
502.522	1537.56
502.739	1520.56
502.956	1384.56
503.172	1359.56
503.389	1336.56
503.606	1306.56
503.823	1304.56
504.04	1355.56
504.256	1307.56
504.473	1355.56
504.69	1365.56
504.907	1400.56
505.123	1349.56
505.34	1452.56
505.557	1443.56
505.773	1376.56
505.99	1304.56
506.207	1363.56
506.423	1279.56
506.64	1195.56
506.856	1248.56
507.073	1378.56
507.289	1352.56
507.506	1359.56
507.722	1420.56
507.939	1423.56
508.155	1487.56
508.372	1331.56
508.588	1291.56
508.805	1263.56
509.021	1226.56
509.238	1155.56
509.454	1185.56
509.67	1196.56
509.887	1220.56
510.103	1356.56
510.319	1327.56
510.536	1204.56
510.752	1136.56
510.968	1071.56
511.184	1047.56
511.401	1033.56
511.617	1027.56
511.833	1036.56
512.049	1056.56
512.265	1098.56
512.481	1162.56
512.698	1236.56
512.914	1383.56
513.13	1232.56
513.346	1148.56
513.562	1219.56
513.778	1217.56
513.994	1164.56
514.21	1255.56
514.426	1223.56
514.642	1164.56
514.858	1125.56
515.074	1193.56
515.29	1309.56
515.506	1423.56
515.721	1348.56
515.937	1233.56
516.153	1203.56
516.369	1177.56
516.585	1240.56
516.801	1407.56
517.016	1660.56
517.232	1545.56
517.448	1531.56
517.664	1407.56
517.879	1289.56
518.095	1259.56
518.311	1294.56
518.527	1301.56
518.742	1398.56
518.958	1484.56
519.173	1419.56
519.389	1409.56
519.605	1392.56
519.82	1541.56
520.036	1789.56
520.251	1731.56
520.467	1633.56
520.682	2462.56
520.898	2992.56
521.113	2789.56
521.329	1743.56
521.544	1555.56
521.76	1516.56
521.975	1354.56
522.19	1313.56
522.406	1352.56
522.621	1477.56
522.836	1559.56
523.052	1612.56
523.267	1355.56
523.482	1314.56
523.698	1395.56
523.913	1355.56
524.128	1230.56
524.343	1151.56
524.559	1207.56
524.774	1137.56
524.989	1221.56
525.204	1233.56
525.419	1364.56
525.634	1271.56
525.849	1279.56
526.064	1287.56
526.28	1272.56
526.495	1503.56
526.71	1514.56
526.925	1369.56
527.14	1454.56
527.355	1361.56
527.57	1169.56
527.785	1216.56
527.999	1132.56
528.214	1055.56
528.429	1067.56
528.644	1051.56
528.859	1052.56
529.074	998.56
529.289	995.56
529.503	975.56
529.718	1061.56
529.933	1182.56
530.148	1223.56
530.363	1041.56
530.577	1020.56
530.792	977.56
531.007	985.56
531.221	969.56
531.436	976.56
531.651	1019.56
531.865	999.56
532.08	1033.56
532.295	1021.56
532.509	1068.56
532.724	1196.56
532.938	1314.56
533.153	1517.56
533.367	1239.56
533.582	1189.56
533.796	1111.56
534.011	1052.56
534.225	1075.56
534.44	1075.56
534.654	1094.56
534.868	1223.56
535.083	1143.56
535.297	1026.56
535.511	1054.56
535.726	1173.56
535.94	1102.56
536.154	1036.56
536.369	1022.56
536.583	1015.56
536.797	1016.56
537.011	1049.56
537.225	1118.56
537.44	1204.56
537.654	1052.56
537.868	1027.56
538.082	1016.56
538.296	1011.56
538.51	1077.56
538.724	1091.56
538.938	1047.56
539.153	963.56
539.367	984.56
539.581	996.56
539.795	1051.56
540.009	1167.56
540.222	1073.56
540.436	1090.56
540.65	1147.56
540.864	1214.56
541.078	1220.56
541.292	1339.56
541.506	1116.56
541.72	1094.56
541.934	1019.56
542.147	1051.56
542.361	1063.56
542.575	1085.56
542.789	1043.56
543.002	965.56
543.216	1105.56
543.43	959.56
543.644	945.56
543.857	917.56
544.071	937.56
544.285	970.56
544.498	934.56
544.712	942.56
544.925	1040.56
545.139	949.56
545.352	904.56
545.566	898.56
545.779	1050.56
545.993	935.56
546.206	860.56
546.42	921.56
546.633	866.56
546.847	853.56
547.06	853.56
547.274	872.56
547.487	910.56
547.7	982.56
547.914	1027.56
548.127	1135.56
548.34	1088.56
548.554	968.56
548.767	1025.56
548.98	1053.56
549.193	979.56
549.407	1030.56
549.62	1180.56
549.833	1126.56
550.046	1179.56
550.259	1185.56
550.473	1019.56
550.686	979.56
550.899	1008.56
551.112	1003.56
551.325	1084.56
551.538	1099.56
551.751	955.56
551.964	919.56
552.177	904.56
552.39	891.56
552.603	886.56
552.816	955.56
553.029	892.56
553.242	866.56
553.455	923.56
553.667	1025.56
553.88	1002.56
554.093	915.56
554.306	843.56
554.519	828.56
554.732	794.56
554.944	784.56
555.157	782.56
555.37	798.56
555.583	785.56
555.795	808.56
556.008	800.56
556.221	831.56
556.433	794.56
556.646	802.56
556.859	802.56
557.071	829.56
557.284	818.56
557.496	846.56
557.709	794.56
557.921	801.56
558.134	753.56
558.346	719.56
558.559	748.56
558.771	776.56
558.984	826.56
559.196	787.56
559.409	794.56
559.621	714.56
559.833	706.56
560.046	717.56
560.258	713.56
560.47	732.56
560.683	721.56
560.895	695.56
561.107	686.56
561.32	685.56
561.532	699.56
561.744	759.56
561.956	778.56
562.168	715.56
562.381	693.56
562.593	718.56
562.805	765.56
563.017	701.56
563.229	667.56
563.441	665.56
563.653	690.56
563.865	684.56
564.077	691.56
564.289	677.56
564.501	693.56
564.713	780.56
564.925	747.56
565.137	681.56
565.349	696.56
565.561	705.56
565.773	715.56
565.985	748.56
566.197	796.56
566.408	842.56
566.62	865.56
566.832	844.56
567.044	855.56
567.255	926.56
567.467	970.56
567.679	887.56
567.891	879.56
568.102	876.56
568.314	897.56
568.526	863.56
568.737	821.56
568.949	890.56
569.161	756.56
569.372	710.56
569.584	681.56
569.795	658.56
570.007	697.56
570.218	744.56
570.43	744.56
570.641	672.56
570.853	672.56
571.064	671.56
571.276	692.56
571.487	740.56
571.698	693.56
571.91	668.56
572.121	676.56
572.333	677.56
572.544	629.56
572.755	634.56
572.966	633.56
573.178	617.56
573.389	639.56
573.6	659.56
573.811	637.56
574.023	574.56
574.234	581.56
574.445	580.56
574.656	588.56
574.867	590.56
575.078	577.56
575.289	610.56
575.501	637.56
575.712	573.56
575.923	556.56
576.134	556.56
576.345	545.56
576.556	551.56
576.767	535.56
576.978	522.56
577.188	518.56
577.399	535.56
577.61	504.56
577.821	541.56
578.032	557.56
578.243	578.56
578.454	583.56
578.665	570.56
578.875	548.56
579.086	575.56
579.297	591.56
579.508	573.56
579.718	577.56
579.929	549.56
580.14	541.56
580.35	496.56
580.561	503.56
580.772	491.56
580.982	475.56
581.193	482.56
581.403	477.56
581.614	477.56
581.825	486.56
582.035	468.56
582.246	464.56
582.456	484.56
582.667	484.56
582.877	458.56
583.087	462.56
583.298	468.56
583.508	479.56
583.719	466.56
583.929	451.56
584.139	443.56
584.35	437.56
584.56	475.56
584.77	473.56
584.981	496.56
585.191	449.56
585.401	467.56
585.611	478.56
585.821	515.56
586.032	485.56
586.242	478.56
586.452	473.56
586.662	455.56
586.872	514.56
587.082	477.56
587.292	475.56
587.502	472.56
587.713	456.56
587.923	478.56
588.133	483.56
588.343	490.56
588.553	480.56
588.762	466.56
588.972	454.56
589.182	450.56
589.392	459.56
589.602	450.56
589.812	473.56
590.022	524.56
590.232	509.56
590.441	482.56
590.651	435.56
590.861	455.56
591.071	486.56
591.281	467.56
591.49	436.56
591.7	464.56
591.91	458.56
592.119	437.56
592.329	465.56
592.539	467.56
592.748	475.56
592.958	457.56
593.167	483.56
593.377	504.56
593.587	505.56
593.796	509.56
594.006	484.56
594.215	483.56
594.424	487.56
594.634	514.56
594.843	506.56
595.053	462.56
595.262	441.56
595.472	439.56
595.681	444.56
595.89	447.56
596.1	428.56
596.309	459.56
596.518	453.56
596.727	412.56
596.937	418.56
597.146	429.56
597.355	472.56
597.564	458.56
597.774	420.56
597.983	388.56
598.192	397.56
598.401	398.56
598.61	392.56
598.819	395.56
599.028	400.56
599.237	391.56
599.446	404.56
599.655	378.56
599.864	375.56
600.073	365.56
600.282	391.56
600.491	394.56
600.7	377.56
600.909	393.56
601.118	386.56
601.327	375.56
601.536	373.56
601.745	390.56
601.953	387.56
602.162	411.56
602.371	410.56
602.58	394.56
602.789	387.56
602.997	389.56
603.206	369.56
603.415	387.56
603.623	359.56
603.832	354.56
604.041	378.56
604.249	361.56
604.458	386.56
604.666	363.56
604.875	344.56
605.084	363.56
605.292	334.56
605.501	373.56
605.709	368.56
605.918	367.56
606.126	361.56
606.334	361.56
606.543	350.56
606.751	371.56
606.96	339.56
607.168	358.56
607.376	361.56
607.585	343.56
607.793	358.56
608.001	352.56
608.21	352.56
608.418	374.56
608.626	356.56
608.834	359.56
609.043	340.56
609.251	349.56
609.459	347.56
609.667	333.56
609.875	346.56
610.083	332.56
610.291	342.56
610.499	364.56
610.707	345.56
610.916	333.56
611.124	330.56
611.332	331.56
611.54	348.56
611.748	350.56
611.955	329.56
612.163	339.56
612.371	356.56
612.579	361.56
612.787	333.56
612.995	335.56
613.203	345.56
613.411	346.56
613.618	331.56
613.826	346.56
614.034	368.56
614.242	338.56
614.449	323.56
614.657	332.56
614.865	340.56
615.072	345.56
615.28	333.56
615.488	331.56
615.695	340.56
615.903	340.56
616.111	309.56
616.318	328.56
616.526	333.56
616.733	337.56
616.941	329.56
617.148	316.56
617.356	323.56
617.563	321.56
617.771	321.56
617.978	327.56
618.185	300.56
618.393	317.56
618.6	303.56
618.807	317.56
619.015	335.56
619.222	329.56
619.429	321.56
619.637	315.56
619.844	308.56
620.051	322.56
620.258	307.56
620.466	315.56
620.673	286.56
620.88	295.56
621.087	298.56
621.294	291.56
621.501	279.56
621.708	320.56
621.915	278.56
622.122	281.56
622.329	314.56
622.536	300.56
622.743	289.56
622.95	303.56
623.157	307.56
623.364	317.56
623.571	304.56
623.778	296.56
623.985	320.56
624.192	341.56
624.399	313.56
624.606	298.56
624.812	308.56
625.019	310.56
625.226	323.56
625.433	316.56
625.639	300.56
625.846	301.56
626.053	271.56
626.259	298.56
626.466	280.56
626.673	325.56
626.879	289.56
627.086	264.56
627.293	287.56
627.499	287.56
627.706	267.56
627.912	278.56
628.119	276.56
628.325	276.56
628.532	275.56
628.738	260.56
628.945	279.56
629.151	267.56
629.357	261.56
629.564	262.56
629.77	256.56
629.976	269.56
630.183	280.56
630.389	277.56
630.595	269.56
630.802	258.56
631.008	266.56
631.214	252.56
631.42	258.56
631.627	253.56
631.833	257.56
632.039	244.56
632.245	246.56
632.451	262.56
632.657	249.56
632.863	255.56
633.069	234.56
633.275	252.56
633.481	271.56
633.688	247.56
633.893	259.56
634.099	244.56
634.305	246.56
634.511	243.56
634.717	243.56
634.923	220.56
635.129	236.56
635.335	232.56
635.541	223.56
635.747	236.56
635.952	229.56
636.158	239.56
636.364	249.56
636.57	247.56
636.775	258.56
636.981	257.56
637.187	243.56
637.392	236.56
637.598	216.56
637.804	223.56
638.009	242.56
638.215	243.56
638.421	231.56
638.626	243.56
638.832	244.56
639.037	221.56
639.243	239.56
639.448	216.56
639.654	235.56
639.859	232.56
640.065	241.56
640.27	247.56
640.475	235.56
640.681	226.56
640.886	217.56
641.091	233.56
641.297	234.56
641.502	217.56
641.707	220.56
641.913	225.56
642.118	216.56
642.323	252.56
642.528	219.56
642.733	234.56
642.939	226.56
643.144	217.56
643.349	208.56
643.554	230.56
643.759	220.56
643.964	215.56
644.169	219.56
644.374	208.56
644.579	201.56
644.784	222.56
644.989	211.56
645.194	221.56
645.399	215.56
645.604	226.56
645.809	211.56
646.014	228.56
646.219	207.56
646.423	209.56
646.628	216.56
646.833	217.56
647.038	212.56
647.243	213.56
647.447	226.56
647.652	205.56
647.857	230.56
648.062	205.56
648.266	212.56
648.471	216.56
648.676	224.56
648.88	221.56
649.085	211.56
649.289	205.56
649.494	198.56
649.698	205.56
649.903	214.56
650.107	209.56
650.312	207.56
650.516	196.56
650.721	194.56
650.925	188.56
651.13	193.56
651.334	182.56
651.539	183.56
651.743	179.56
651.947	184.56
652.152	197.56
652.356	168.56
652.56	175.56
652.764	160.56
652.969	192.56
653.173	192.56
653.377	173.56
653.581	187.56
653.785	162.56
653.99	163.56
654.194	169.56
654.398	188.56
654.602	166.56
654.806	166.56
655.01	181.56
655.214	175.56
655.418	163.56
655.622	155.56
655.826	178.56
656.03	158.56
656.234	177.56
656.438	157.56
656.642	157.56
656.846	162.56
657.049	149.56
657.253	153.56
657.457	134.56
657.661	139.56
657.865	149.56
658.068	130.56
658.272	127.56
658.476	121.56
658.68	120.56
658.883	123.56
659.087	112.56
659.291	116.56
659.494	112.56
659.698	106.56
659.901	103.56
660.105	107.56
660.309	112.56
660.512	99.56
660.716	118.56
660.919	100.56
661.123	104.56
661.326	96.56
661.53	108.56
661.733	111.56
661.936	115.56
662.14	97.56
662.343	118.56
662.546	99.56
662.75	97.56
662.953	88.56
663.156	95.56
663.36	82.56
663.563	93.56
663.766	90.56
663.969	83.56
664.173	85.56
664.376	77.56
664.579	93.56
664.782	87.56
664.985	84.56
665.188	98.56
665.391	81.56
665.594	91.56
665.797	95.56
666	87.56
666.203	78.56
666.406	76.56
666.609	74.56
666.812	84.56
667.015	84.56
667.218	83.56
667.421	82.56
667.624	75.56
667.827	72.56
668.03	82.56
668.232	101.56
668.435	81.56
668.638	89.56
668.841	88.56
669.043	96.56
669.246	76.56
669.449	82.56
669.651	93.56
669.854	94.56
670.057	105.56
670.259	73.56
670.462	89.56
670.665	71.56
670.867	80.56
671.07	93.56
671.272	89.56
671.475	86.56
671.677	74.56
671.88	81.56
672.082	85.56
672.284	98.56
672.487	94.56
672.689	82.56
672.892	99.56
