Data from NickelSpatula.Lamp.E10.P2_HRD10591_11-59-24-525.txt Node
Date: Tue Jul 23 11:59:24 EDT 2019
User: cochatt
Spectrometer: HR+D1059
Trigger mode: 1
Integration Time (sec): 1.000000E-1
Scans to average: 1
Electric dark correction enabled: true
Nonlinearity correction enabled: false
Boxcar width: 0
XAxis mode: Wavelengths
Number of Pixels in Spectrum: 2048
>>>>>Begin Spectral Data<<<<<
223.165	0.06
223.4	0.06
223.635	0.06
223.869	-20.94
224.104	-12.94
224.338	-13.94
224.573	-16.94
224.808	-6.94
225.042	-8.94
225.277	-12.94
225.511	-2.94
225.746	6.06
225.98	14.06
226.215	-5.94
226.449	10.06
226.683	16.06
226.918	26.06
227.152	30.06
227.387	49.06
227.621	27.06
227.856	54.06
228.09	60.06
228.324	67.06
228.559	63.06
228.793	91.06
229.027	142.06
229.262	167.06
229.496	181.06
229.73	180.06
229.964	196.06
230.199	220.06
230.433	213.06
230.667	220.06
230.901	212.06
231.136	213.06
231.37	228.06
231.604	248.06
231.838	252.06
232.072	270.06
232.306	237.06
232.541	262.06
232.775	245.06
233.009	282.06
233.243	303.06
233.477	307.06
233.711	345.06
233.945	333.06
234.179	318.06
234.413	359.06
234.647	393.06
234.881	471.06
235.115	429.06
235.349	402.06
235.583	356.06
235.817	358.06
236.051	379.06
236.285	423.06
236.519	472.06
236.753	440.06
236.987	446.06
237.221	402.06
237.455	436.06
237.689	441.06
237.922	462.06
238.156	486.06
238.39	582.06
238.624	654.06
238.858	602.06
239.091	494.06
239.325	521.06
239.559	469.06
239.793	553.06
240.027	651.06
240.26	616.06
240.494	585.06
240.728	593.06
240.961	697.06
241.195	647.06
241.429	653.06
241.662	605.06
241.896	536.06
242.13	478.06
242.363	462.06
242.597	465.06
242.83	529.06
243.064	540.06
243.298	579.06
243.531	633.06
243.765	657.06
243.998	669.06
244.232	629.06
244.465	621.06
244.699	577.06
244.932	667.06
245.166	651.06
245.399	545.06
245.633	537.06
245.866	590.06
246.099	612.06
246.333	732.06
246.566	773.06
246.8	761.06
247.033	737.06
247.266	693.06
247.5	689.06
247.733	696.06
247.966	649.06
248.2	691.06
248.433	777.06
248.666	838.06
248.899	843.06
249.133	858.06
249.366	1010.06
249.599	1063.06
249.832	953.06
250.066	835.06
250.299	861.06
250.532	850.06
250.765	802.06
250.998	733.06
251.231	741.06
251.465	780.06
251.698	830.06
251.931	805.06
252.164	836.06
252.397	955.06
252.63	1065.06
252.863	1162.06
253.096	1244.06
253.329	1164.06
253.562	1118.06
253.795	1236.06
254.028	1393.06
254.261	1397.06
254.494	1237.06
254.727	1168.06
254.96	1122.06
255.193	1183.06
255.426	1130.06
255.659	841.06
255.892	777.06
256.124	889.06
256.357	1073.06
256.59	1209.06
256.823	1135.06
257.056	957.06
257.289	915.06
257.521	975.06
257.754	1150.06
257.987	1289.06
258.22	1119.06
258.452	1003.06
258.685	1173.06
258.918	1274.06
259.151	1227.06
259.383	1308.06
259.616	1496.06
259.849	1563.06
260.081	1733.06
260.314	1917.06
260.547	1473.06
260.779	1460.06
261.012	1714.06
261.244	1644.06
261.477	1635.06
261.71	1486.06
261.942	1300.06
262.175	1296.06
262.407	1234.06
262.64	1296.06
262.872	1524.06
263.105	1671.06
263.337	1738.06
263.57	1512.06
263.802	1022.06
264.035	921.06
264.267	874.06
264.499	786.06
264.732	722.06
264.964	691.06
265.197	702.06
265.429	775.06
265.661	845.06
265.894	874.06
266.126	931.06
266.358	1043.06
266.591	1246.06
266.823	1502.06
267.055	1406.06
267.287	1229.06
267.52	1238.06
267.752	1319.06
267.984	1445.06
268.216	1392.06
268.448	1118.06
268.681	1128.06
268.913	1173.06
269.145	1303.06
269.377	1285.06
269.609	1296.06
269.841	1236.06
270.073	1307.06
270.306	1336.06
270.538	1371.06
270.77	1422.06
271.002	1393.06
271.234	1472.06
271.466	1507.06
271.698	1468.06
271.93	1389.06
272.162	1461.06
272.394	1443.06
272.626	1414.06
272.858	1441.06
273.09	1475.06
273.322	1329.06
273.553	1295.06
273.785	1535.06
274.017	1985.06
274.249	2458.06
274.481	2502.06
274.713	2749.06
274.945	3158.06
275.176	3267.06
275.408	2892.06
275.64	2608.06
275.872	2631.06
276.104	2192.06
276.335	1923.06
276.567	1907.06
276.799	1961.06
277.031	2059.06
277.262	1619.06
277.494	1266.06
277.726	1198.06
277.957	1306.06
278.189	1507.06
278.421	1477.06
278.652	1442.06
278.884	1382.06
279.115	1282.06
279.347	1221.06
279.579	1213.06
279.81	1219.06
280.042	1225.06
280.273	1254.06
280.505	1154.06
280.736	997.06
280.968	994.06
281.199	1078.06
281.431	1251.06
281.662	1211.06
281.894	1150.06
282.125	1235.06
282.356	1359.06
282.588	1367.06
282.819	1251.06
283.051	1382.06
283.282	1685.06
283.513	1920.06
283.745	2177.06
283.976	2159.06
284.207	1977.06
284.439	2063.06
284.67	2034.06
284.901	1777.06
285.132	1945.06
285.364	2045.06
285.595	1862.06
285.826	2003.06
286.057	2045.06
286.288	1960.06
286.52	1943.06
286.751	2093.06
286.982	2103.06
287.213	1826.06
287.444	1739.06
287.675	1812.06
287.906	1813.06
288.138	1532.06
288.369	1356.06
288.6	1288.06
288.831	1323.06
289.062	1566.06
289.293	1697.06
289.524	1614.06
289.755	1595.06
289.986	1639.06
290.217	1426.06
290.448	1125.06
290.679	949.06
290.91	903.06
291.141	928.06
291.371	988.06
291.602	979.06
291.833	991.06
292.064	1062.06
292.295	1231.06
292.526	1413.06
292.757	1447.06
292.987	1539.06
293.218	1548.06
293.449	1627.06
293.68	1663.06
293.91	1609.06
294.141	1590.06
294.372	1521.06
294.603	1446.06
294.833	1582.06
295.064	1846.06
295.295	1711.06
295.525	1319.06
295.756	1152.06
295.987	1032.06
296.217	998.06
296.448	1083.06
296.679	1107.06
296.909	1253.06
297.14	1322.06
297.37	1411.06
297.601	1358.06
297.831	1128.06
298.062	1276.06
298.292	1447.06
298.523	1567.06
298.753	1821.06
298.984	1590.06
299.214	1245.06
299.445	1089.06
299.675	1048.06
299.905	1050.06
300.136	1082.06
300.366	1184.06
300.597	1158.06
300.827	1039.06
301.057	988.06
301.288	1027.06
301.518	1108.06
301.748	1253.06
301.979	1318.06
302.209	1448.06
302.439	1464.06
302.669	1225.06
302.9	1243.06
303.13	1144.06
303.36	1115.06
303.59	1070.06
303.82	1121.06
304.051	1256.06
304.281	1346.06
304.511	1282.06
304.741	1106.06
304.971	1182.06
305.201	1302.06
305.431	1211.06
305.661	1080.06
305.891	1057.06
306.121	1070.06
306.352	964.06
306.582	895.06
306.812	845.06
307.042	881.06
307.272	815.06
307.502	805.06
307.731	891.06
307.961	926.06
308.191	875.06
308.421	815.06
308.651	810.06
308.881	777.06
309.111	770.06
309.341	822.06
309.571	897.06
309.8	959.06
310.03	956.06
310.26	1025.06
310.49	971.06
310.72	859.06
310.949	869.06
311.179	909.06
311.409	933.06
311.639	1074.06
311.868	1357.06
312.098	1797.06
312.328	1944.06
312.557	1897.06
312.787	1895.06
313.017	1634.06
313.246	1803.06
313.476	1973.06
313.706	1605.06
313.935	1286.06
314.165	1045.06
314.394	949.06
314.624	960.06
314.853	1039.06
315.083	1043.06
315.312	1032.06
315.542	1029.06
315.771	943.06
316.001	873.06
316.23	860.06
316.46	856.06
316.689	893.06
316.919	891.06
317.148	911.06
317.377	846.06
317.607	890.06
317.836	961.06
318.065	1144.06
318.295	1246.06
318.524	1155.06
318.753	992.06
318.983	899.06
319.212	924.06
319.441	1023.06
319.67	1155.06
319.9	1213.06
320.129	1151.06
320.358	990.06
320.587	967.06
320.816	1012.06
321.046	1198.06
321.275	1335.06
321.504	1365.06
321.733	1286.06
321.962	1249.06
322.191	1147.06
322.42	1119.06
322.649	1142.06
322.878	1244.06
323.108	1237.06
323.337	1106.06
323.566	1088.06
323.795	1086.06
324.024	996.06
324.253	1013.06
324.482	993.06
324.71	1084.06
324.939	1246.06
325.168	1169.06
325.397	931.06
325.626	926.06
325.855	956.06
326.084	948.06
326.313	890.06
326.542	837.06
326.77	866.06
326.999	907.06
327.228	954.06
327.457	1036.06
327.686	1045.06
327.914	892.06
328.143	854.06
328.372	829.06
328.6	843.06
328.829	904.06
329.058	905.06
329.287	900.06
329.515	902.06
329.744	890.06
329.972	840.06
330.201	805.06
330.43	866.06
330.658	981.06
330.887	1068.06
331.115	1030.06
331.344	998.06
331.572	964.06
331.801	876.06
332.03	866.06
332.258	912.06
332.486	961.06
332.715	969.06
332.943	906.06
333.172	897.06
333.4	954.06
333.629	1021.06
333.857	1140.06
334.085	1089.06
334.314	1109.06
334.542	1064.06
334.771	989.06
334.999	955.06
335.227	951.06
335.455	925.06
335.684	1045.06
335.912	1185.06
336.14	1304.06
336.369	1274.06
336.597	1224.06
336.825	1374.06
337.053	1543.06
337.281	1244.06
337.51	1002.06
337.738	988.06
337.966	1068.06
338.194	1208.06
338.422	1099.06
338.65	951.06
338.878	852.06
339.106	912.06
339.334	1031.06
339.562	1114.06
339.79	1009.06
340.018	957.06
340.246	1086.06
340.474	1230.06
340.702	1288.06
340.93	1342.06
341.158	1317.06
341.386	1099.06
341.614	1156.06
341.842	1132.06
342.07	1171.06
342.298	1335.06
342.526	1419.06
342.754	1168.06
342.981	1128.06
343.209	1051.06
343.437	1129.06
343.665	1205.06
343.893	1192.06
344.12	1370.06
344.348	1644.06
344.576	1403.06
344.804	1205.06
345.031	1059.06
345.259	1003.06
345.487	1010.06
345.714	1033.06
345.942	1109.06
346.17	1212.06
346.397	1144.06
346.625	991.06
346.853	1012.06
347.08	941.06
347.308	1001.06
347.535	1132.06
347.763	1167.06
347.99	981.06
348.218	923.06
348.445	963.06
348.673	985.06
348.9	968.06
349.128	1064.06
349.355	1097.06
349.583	1068.06
349.81	994.06
350.037	958.06
350.265	864.06
350.492	797.06
350.72	796.06
350.947	853.06
351.174	883.06
351.402	972.06
351.629	1015.06
351.856	941.06
352.083	907.06
352.311	997.06
352.538	1110.06
352.765	1186.06
352.992	1068.06
353.22	966.06
353.447	1019.06
353.674	979.06
353.901	971.06
354.128	1000.06
354.355	1020.06
354.583	996.06
354.81	986.06
355.037	1004.06
355.264	998.06
355.491	1102.06
355.718	1165.06
355.945	1152.06
356.172	1110.06
356.399	1108.06
356.626	1358.06
356.853	1688.06
357.08	1763.06
357.307	1773.06
357.534	1403.06
357.761	1400.06
357.988	1805.06
358.215	2080.06
358.441	1955.06
358.668	1682.06
358.895	1535.06
359.122	1233.06
359.349	1277.06
359.576	1333.06
359.802	1137.06
360.029	970.06
360.256	1035.06
360.483	1296.06
360.709	1660.06
360.936	1705.06
361.163	1482.06
361.39	1133.06
361.616	1049.06
361.843	1239.06
362.07	1543.06
362.296	1415.06
362.523	1084.06
362.749	958.06
362.976	997.06
363.203	1183.06
363.429	1367.06
363.656	1112.06
363.882	999.06
364.109	1030.06
364.335	1003.06
364.562	971.06
364.788	1127.06
365.015	1333.06
365.241	1203.06
365.468	980.06
365.694	862.06
365.92	830.06
366.147	792.06
366.373	782.06
366.599	811.06
366.826	820.06
367.052	838.06
367.278	839.06
367.505	791.06
367.731	939.06
367.957	1024.06
368.184	1055.06
368.41	1013.06
368.636	1031.06
368.862	1056.06
369.089	1034.06
369.315	932.06
369.541	903.06
369.767	874.06
369.993	877.06
370.219	886.06
370.445	945.06
370.672	1036.06
370.898	1122.06
371.124	1089.06
371.35	955.06
371.576	920.06
371.802	1002.06
372.028	1208.06
372.254	1361.06
372.48	1175.06
372.706	1063.06
372.932	1071.06
373.158	1168.06
373.384	1381.06
373.61	1845.06
373.835	1857.06
374.061	1386.06
374.287	1166.06
374.513	1408.06
374.739	1656.06
374.965	1747.06
375.191	1708.06
375.416	1184.06
375.642	1014.06
375.868	1199.06
376.094	1341.06
376.319	1187.06
376.545	1351.06
376.771	1367.06
376.997	1127.06
377.222	873.06
377.448	778.06
377.674	749.06
377.899	765.06
378.125	779.06
378.35	753.06
378.576	793.06
378.802	871.06
379.027	939.06
379.253	907.06
379.478	940.06
379.704	1047.06
379.929	1117.06
380.155	1068.06
380.38	963.06
380.606	1003.06
380.831	1132.06
381.057	992.06
381.282	999.06
381.507	1198.06
381.733	1475.06
381.958	1582.06
382.184	1681.06
382.409	1717.06
382.634	1661.06
382.86	1803.06
383.085	1453.06
383.31	1157.06
383.535	1229.06
383.761	1239.06
383.986	1196.06
384.211	1422.06
384.436	1366.06
384.662	1057.06
384.887	1010.06
385.112	1027.06
385.337	1034.06
385.562	1023.06
385.787	1142.06
386.013	1241.06
386.238	1303.06
386.463	1037.06
386.688	1010.06
386.913	962.06
387.138	909.06
387.363	975.06
387.588	1023.06
387.813	1002.06
388.038	1108.06
388.263	1015.06
388.488	1013.06
388.713	1128.06
388.938	1230.06
389.163	1037.06
389.387	911.06
389.612	950.06
389.837	979.06
390.062	959.06
390.287	1011.06
390.512	1033.06
390.736	972.06
390.961	901.06
391.186	865.06
391.411	843.06
391.636	884.06
391.86	945.06
392.085	1025.06
392.31	1007.06
392.534	981.06
392.759	950.06
392.984	1016.06
393.208	971.06
393.433	917.06
393.658	823.06
393.882	815.06
394.107	753.06
394.331	799.06
394.556	797.06
394.78	824.06
395.005	849.06
395.229	877.06
395.454	884.06
395.678	925.06
395.903	923.06
396.127	901.06
396.352	878.06
396.576	993.06
396.801	999.06
397.025	1109.06
397.249	1142.06
397.474	937.06
397.698	961.06
397.922	992.06
398.147	928.06
398.371	930.06
398.595	989.06
398.82	975.06
399.044	976.06
399.268	1007.06
399.492	1052.06
399.717	1080.06
399.941	1118.06
400.165	1087.06
400.389	1031.06
400.613	1045.06
400.837	1036.06
401.062	961.06
401.286	910.06
401.51	916.06
401.734	911.06
401.958	905.06
402.182	908.06
402.406	915.06
402.63	917.06
402.854	932.06
403.078	1075.06
403.302	1326.06
403.526	1344.06
403.75	1179.06
403.974	1093.06
404.198	1065.06
404.422	1255.06
404.645	1455.06
404.869	1583.06
405.093	1187.06
405.317	1005.06
405.541	977.06
405.765	1026.06
405.988	1039.06
406.212	1106.06
406.436	1331.06
406.66	1430.06
406.883	1140.06
407.107	1185.06
407.331	1382.06
407.555	1326.06
407.778	1090.06
408.002	1035.06
408.226	1080.06
408.449	1067.06
408.673	1040.06
408.896	955.06
409.12	919.06
409.344	918.06
409.567	886.06
409.791	891.06
410.014	899.06
410.238	898.06
410.461	885.06
410.685	906.06
410.908	925.06
411.132	934.06
411.355	939.06
411.578	935.06
411.802	946.06
412.025	981.06
412.249	1000.06
412.472	952.06
412.695	963.06
412.919	956.06
413.142	986.06
413.365	1053.06
413.589	1057.06
413.812	962.06
414.035	914.06
414.258	930.06
414.482	1045.06
414.705	1095.06
414.928	912.06
415.151	889.06
415.374	907.06
415.597	935.06
415.821	956.06
416.044	893.06
416.267	858.06
416.49	871.06
416.713	851.06
416.936	853.06
417.159	881.06
417.382	895.06
417.605	917.06
417.828	906.06
418.051	927.06
418.274	932.06
418.497	941.06
418.72	927.06
418.943	1000.06
419.166	990.06
419.389	1046.06
419.611	1044.06
419.834	1054.06
420.057	1154.06
420.28	1140.06
420.503	1025.06
420.726	924.06
420.948	891.06
421.171	909.06
421.394	890.06
421.617	897.06
421.839	923.06
422.062	924.06
422.285	937.06
422.507	975.06
422.73	940.06
422.953	994.06
423.175	965.06
423.398	986.06
423.621	1038.06
423.843	1073.06
424.066	983.06
424.288	930.06
424.511	936.06
424.733	941.06
424.956	951.06
425.178	1101.06
425.401	1244.06
425.623	1402.06
425.846	1151.06
426.068	1039.06
426.291	1150.06
426.513	1038.06
426.735	968.06
426.958	1010.06
427.18	1176.06
427.402	1511.06
427.625	1498.06
427.847	1201.06
428.069	919.06
428.292	928.06
428.514	889.06
428.736	859.06
428.958	965.06
429.181	1147.06
429.403	984.06
429.625	912.06
429.847	893.06
430.069	912.06
430.292	897.06
430.514	872.06
430.736	949.06
430.958	1215.06
431.18	1095.06
431.402	877.06
431.624	833.06
431.846	810.06
432.068	801.06
432.29	853.06
432.512	913.06
432.734	1217.06
432.956	1138.06
433.178	879.06
433.4	847.06
433.622	847.06
433.844	888.06
434.066	950.06
434.287	950.06
434.509	895.06
434.731	938.06
434.953	878.06
435.175	895.06
435.397	1057.06
435.618	912.06
435.84	861.06
436.062	840.06
436.284	838.06
436.505	799.06
436.727	798.06
436.949	787.06
437.17	876.06
437.392	847.06
437.614	876.06
437.835	830.06
438.057	854.06
438.278	1001.06
438.5	1437.06
438.721	1393.06
438.943	960.06
439.165	826.06
439.386	789.06
439.608	785.06
439.829	798.06
440.05	842.06
440.272	845.06
440.493	1002.06
440.715	1246.06
440.936	990.06
441.158	858.06
441.379	902.06
441.6	1010.06
441.822	1042.06
442.043	922.06
442.264	887.06
442.486	886.06
442.707	863.06
442.928	855.06
443.149	882.06
443.371	895.06
443.592	970.06
443.813	929.06
444.034	910.06
444.255	923.06
444.476	955.06
444.698	965.06
444.919	966.06
445.14	1096.06
445.361	1015.06
445.582	1004.06
445.803	943.06
446.024	931.06
446.245	937.06
446.466	909.06
446.687	897.06
446.908	881.06
447.129	827.06
447.35	805.06
447.571	804.06
447.792	830.06
448.013	788.06
448.234	786.06
448.455	766.06
448.675	802.06
448.896	789.06
449.117	836.06
449.338	785.06
449.559	848.06
449.779	861.06
450	874.06
450.221	828.06
450.442	834.06
450.662	827.06
450.883	791.06
451.104	823.06
451.324	817.06
451.545	829.06
451.766	828.06
451.986	793.06
452.207	780.06
452.428	806.06
452.648	789.06
452.869	837.06
453.089	864.06
453.31	840.06
453.53	727.06
453.751	754.06
453.971	743.06
454.192	771.06
454.412	811.06
454.633	755.06
454.853	757.06
455.073	739.06
455.294	747.06
455.514	774.06
455.734	803.06
455.955	806.06
456.175	842.06
456.395	754.06
456.616	713.06
456.836	716.06
457.056	707.06
457.276	701.06
457.497	717.06
457.717	727.06
457.937	712.06
458.157	702.06
458.377	732.06
458.598	737.06
458.818	757.06
459.038	814.06
459.258	827.06
459.478	870.06
459.698	931.06
459.918	917.06
460.138	910.06
460.358	902.06
460.578	865.06
460.798	924.06
461.018	891.06
461.238	877.06
461.458	878.06
461.678	943.06
461.898	941.06
462.118	893.06
462.338	935.06
462.558	957.06
462.777	1030.06
462.997	1014.06
463.217	1007.06
463.437	1055.06
463.657	989.06
463.876	966.06
464.096	966.06
464.316	943.06
464.536	961.06
464.755	1033.06
464.975	1025.06
465.195	966.06
465.414	1019.06
465.634	947.06
465.854	917.06
466.073	879.06
466.293	872.06
466.512	936.06
466.732	1009.06
466.951	1078.06
467.171	936.06
467.391	911.06
467.61	901.06
467.829	912.06
468.049	945.06
468.268	897.06
468.488	867.06
468.707	927.06
468.927	1102.06
469.146	1171.06
469.365	1032.06
469.585	951.06
469.804	1027.06
470.023	1103.06
470.243	964.06
470.462	930.06
470.681	932.06
470.901	935.06
471.12	974.06
471.339	987.06
471.558	940.06
471.777	955.06
471.997	1013.06
472.216	1113.06
472.435	1077.06
472.654	1001.06
472.873	927.06
473.092	1013.06
473.311	1069.06
473.53	972.06
473.749	946.06
473.968	1001.06
474.187	1016.06
474.406	955.06
474.625	930.06
474.844	1004.06
475.063	1027.06
475.282	1034.06
475.501	1071.06
475.72	1130.06
475.939	1090.06
476.158	1119.06
476.377	1269.06
476.596	1463.06
476.814	1482.06
477.033	1277.06
477.252	1058.06
477.471	1013.06
477.69	991.06
477.908	1113.06
478.127	1173.06
478.346	1096.06
478.564	1157.06
478.783	1090.06
479.002	1123.06
479.22	1284.06
479.439	1444.06
479.658	1247.06
479.876	1147.06
480.095	1227.06
480.313	1235.06
480.532	1108.06
480.751	1106.06
480.969	1126.06
481.188	1258.06
481.406	1320.06
481.624	1227.06
481.843	1146.06
482.061	1086.06
482.28	1195.06
482.498	1448.06
482.717	1390.06
482.935	1194.06
483.153	1129.06
483.372	1066.06
483.59	1025.06
483.808	1053.06
484.027	1032.06
484.245	1002.06
484.463	1000.06
484.681	1046.06
484.9	1141.06
485.118	1203.06
485.336	1095.06
485.554	1056.06
485.772	1086.06
485.99	1175.06
486.209	1210.06
486.427	1221.06
486.645	1228.06
486.863	1243.06
487.081	1263.06
487.299	1377.06
487.517	1371.06
487.735	1207.06
487.953	1254.06
488.171	1281.06
488.389	1188.06
488.607	1139.06
488.825	1168.06
489.043	1304.06
489.261	1455.06
489.479	1557.06
489.696	1311.06
489.914	1203.06
490.132	1137.06
490.35	1100.06
490.568	1128.06
490.786	1132.06
491.003	1143.06
491.221	1181.06
491.439	1143.06
491.657	1150.06
491.874	1251.06
492.092	1540.06
492.31	1837.06
492.527	1811.06
492.745	1530.06
492.963	1343.06
493.18	1313.06
493.398	1276.06
493.615	1305.06
493.833	1287.06
494.05	1270.06
494.268	1253.06
494.485	1274.06
494.703	1219.06
494.92	1207.06
495.138	1182.06
495.355	1225.06
495.573	1244.06
495.79	1403.06
496.008	1841.06
496.225	1582.06
496.442	1379.06
496.66	1356.06
496.877	1455.06
497.094	1399.06
497.312	1302.06
497.529	1307.06
497.746	1366.06
497.963	1381.06
498.181	1499.06
498.398	1619.06
498.615	1636.06
498.832	1725.06
499.049	1704.06
499.267	1569.06
499.484	1571.06
499.701	1611.06
499.918	1716.06
500.135	1871.06
500.352	1910.06
500.569	1929.06
500.786	2017.06
501.003	2042.06
501.22	1812.06
501.437	1739.06
501.654	1635.06
501.871	1655.06
502.088	1679.06
502.305	1497.06
502.522	1533.06
502.739	1518.06
502.956	1394.06
503.172	1378.06
503.389	1316.06
503.606	1280.06
503.823	1281.06
504.04	1341.06
504.256	1345.06
504.473	1357.06
504.69	1354.06
504.907	1390.06
505.123	1397.06
505.34	1427.06
505.557	1433.06
505.773	1369.06
505.99	1306.06
506.207	1385.06
506.423	1282.06
506.64	1185.06
506.856	1258.06
507.073	1404.06
507.289	1314.06
507.506	1343.06
507.722	1415.06
507.939	1469.06
508.155	1475.06
508.372	1313.06
508.588	1292.06
508.805	1275.06
509.021	1225.06
509.238	1175.06
509.454	1175.06
509.67	1230.06
509.887	1191.06
510.103	1318.06
510.319	1303.06
510.536	1193.06
510.752	1083.06
510.968	1055.06
511.184	1019.06
511.401	1043.06
511.617	1057.06
511.833	1062.06
512.049	1067.06
512.265	1079.06
512.481	1144.06
512.698	1277.06
512.914	1399.06
513.13	1261.06
513.346	1149.06
513.562	1197.06
513.778	1186.06
513.994	1185.06
514.21	1260.06
514.426	1204.06
514.642	1147.06
514.858	1135.06
515.074	1210.06
515.29	1276.06
515.506	1405.06
515.721	1339.06
515.937	1230.06
516.153	1173.06
516.369	1154.06
516.585	1250.06
516.801	1390.06
517.016	1621.06
517.232	1593.06
517.448	1585.06
517.664	1405.06
517.879	1292.06
518.095	1266.06
518.311	1263.06
518.527	1345.06
518.742	1386.06
518.958	1475.06
519.173	1389.06
519.389	1397.06
519.605	1433.06
519.82	1486.06
520.036	1742.06
520.251	1731.06
520.467	1627.06
520.682	2427.06
520.898	2880.06
521.113	2787.06
521.329	1756.06
521.544	1529.06
521.76	1498.06
521.975	1350.06
522.19	1292.06
522.406	1319.06
522.621	1473.06
522.836	1566.06
523.052	1603.06
523.267	1320.06
523.482	1326.06
523.698	1393.06
523.913	1335.06
524.128	1241.06
524.343	1172.06
524.559	1184.06
524.774	1161.06
524.989	1178.06
525.204	1214.06
525.419	1318.06
525.634	1231.06
525.849	1251.06
526.064	1243.06
526.28	1272.06
526.495	1503.06
526.71	1512.06
526.925	1372.06
527.14	1432.06
527.355	1386.06
527.57	1143.06
527.785	1191.06
527.999	1153.06
528.214	1090.06
528.429	1082.06
528.644	1069.06
528.859	1021.06
529.074	1001.06
529.289	1045.06
529.503	1001.06
529.718	1029.06
529.933	1188.06
530.148	1232.06
530.363	1063.06
530.577	1021.06
530.792	989.06
531.007	1002.06
531.221	989.06
531.436	959.06
531.651	968.06
531.865	1013.06
532.08	1014.06
532.295	999.06
532.509	1054.06
532.724	1221.06
532.938	1345.06
533.153	1492.06
533.367	1249.06
533.582	1199.06
533.796	1088.06
534.011	1038.06
534.225	1026.06
534.44	1085.06
534.654	1113.06
534.868	1267.06
535.083	1125.06
535.297	1017.06
535.511	1042.06
535.726	1155.06
535.94	1090.06
536.154	998.06
536.369	1005.06
536.583	1022.06
536.797	1042.06
537.011	1025.06
537.225	1145.06
537.44	1177.06
537.654	1049.06
537.868	1002.06
538.082	1029.06
538.296	1000.06
538.51	1099.06
538.724	1108.06
538.938	1053.06
539.153	994.06
539.367	975.06
539.581	983.06
539.795	1062.06
540.009	1131.06
540.222	1063.06
540.436	1075.06
540.65	1137.06
540.864	1169.06
541.078	1233.06
541.292	1400.06
541.506	1102.06
541.72	1075.06
541.934	1056.06
542.147	1013.06
542.361	1048.06
542.575	1079.06
542.789	1048.06
543.002	977.06
543.216	1094.06
543.43	973.06
543.644	961.06
543.857	932.06
544.071	959.06
544.285	957.06
544.498	904.06
544.712	924.06
544.925	1015.06
545.139	955.06
545.352	904.06
545.566	929.06
545.779	1063.06
545.993	979.06
546.206	887.06
546.42	892.06
546.633	901.06
546.847	893.06
547.06	863.06
547.274	877.06
547.487	897.06
547.7	962.06
547.914	1007.06
548.127	1139.06
548.34	1088.06
548.554	981.06
548.767	1004.06
548.98	1094.06
549.193	1002.06
549.407	1039.06
549.62	1193.06
549.833	1134.06
550.046	1160.06
550.259	1190.06
550.473	1018.06
550.686	992.06
550.899	1001.06
551.112	992.06
551.325	1039.06
551.538	1114.06
551.751	974.06
551.964	904.06
552.177	894.06
552.39	890.06
552.603	881.06
552.816	949.06
553.029	890.06
553.242	885.06
553.455	937.06
553.667	1031.06
553.88	959.06
554.093	904.06
554.306	856.06
554.519	825.06
554.732	789.06
554.944	788.06
555.157	780.06
555.37	789.06
555.583	751.06
555.795	777.06
556.008	802.06
556.221	823.06
556.433	824.06
556.646	764.06
556.859	799.06
557.071	823.06
557.284	822.06
557.496	844.06
557.709	840.06
557.921	827.06
558.134	741.06
558.346	740.06
558.559	737.06
558.771	751.06
558.984	848.06
559.196	766.06
559.409	776.06
559.621	713.06
559.833	735.06
560.046	725.06
560.258	744.06
560.47	727.06
560.683	718.06
560.895	695.06
561.107	655.06
561.32	671.06
561.532	685.06
561.744	762.06
561.956	797.06
562.168	720.06
562.381	707.06
562.593	718.06
562.805	759.06
563.017	730.06
563.229	693.06
563.441	699.06
563.653	684.06
563.865	708.06
564.077	699.06
564.289	675.06
564.501	742.06
564.713	758.06
564.925	744.06
565.137	691.06
565.349	712.06
565.561	701.06
565.773	740.06
565.985	737.06
566.197	776.06
566.408	839.06
566.62	846.06
566.832	858.06
567.044	838.06
567.255	907.06
567.467	989.06
567.679	872.06
567.891	890.06
568.102	912.06
568.314	917.06
568.526	855.06
568.737	829.06
568.949	883.06
569.161	758.06
569.372	708.06
569.584	708.06
569.795	684.06
570.007	703.06
570.218	729.06
570.43	749.06
570.641	693.06
570.853	671.06
571.064	661.06
571.276	691.06
571.487	697.06
571.698	682.06
571.91	669.06
572.121	649.06
572.333	655.06
572.544	633.06
572.755	639.06
572.966	606.06
573.178	611.06
573.389	636.06
573.6	633.06
573.811	636.06
574.023	585.06
574.234	567.06
574.445	589.06
574.656	568.06
574.867	611.06
575.078	577.06
575.289	595.06
575.501	606.06
575.712	590.06
575.923	571.06
576.134	554.06
576.345	535.06
576.556	584.06
576.767	548.06
576.978	530.06
577.188	511.06
577.399	530.06
577.61	524.06
577.821	557.06
578.032	538.06
578.243	574.06
578.454	576.06
578.665	603.06
578.875	559.06
579.086	561.06
579.297	571.06
579.508	563.06
579.718	546.06
579.929	561.06
580.14	544.06
580.35	514.06
580.561	494.06
580.772	493.06
580.982	485.06
581.193	470.06
581.403	494.06
581.614	476.06
581.825	473.06
582.035	478.06
582.246	463.06
582.456	455.06
582.667	489.06
582.877	469.06
583.087	474.06
583.298	497.06
583.508	465.06
583.719	442.06
583.929	462.06
584.139	460.06
584.35	449.06
584.56	463.06
584.77	483.06
584.981	473.06
585.191	464.06
585.401	464.06
585.611	491.06
585.821	489.06
586.032	482.06
586.242	475.06
586.452	477.06
586.662	474.06
586.872	485.06
587.082	500.06
587.292	473.06
587.502	493.06
587.713	472.06
587.923	453.06
588.133	507.06
588.343	477.06
588.553	446.06
588.762	461.06
588.972	468.06
589.182	437.06
589.392	460.06
589.602	450.06
589.812	478.06
590.022	531.06
590.232	512.06
590.441	474.06
590.651	456.06
590.861	443.06
591.071	464.06
591.281	462.06
591.49	448.06
591.7	449.06
591.91	445.06
592.119	441.06
592.329	450.06
592.539	452.06
592.748	469.06
592.958	457.06
593.167	452.06
593.377	484.06
593.587	470.06
593.796	493.06
594.006	468.06
594.215	483.06
594.424	503.06
594.634	510.06
594.843	483.06
595.053	484.06
595.262	463.06
595.472	452.06
595.681	425.06
595.89	467.06
596.1	441.06
596.309	441.06
596.518	443.06
596.727	436.06
596.937	433.06
597.146	436.06
597.355	447.06
597.564	434.06
597.774	429.06
597.983	410.06
598.192	405.06
598.401	409.06
598.61	412.06
598.819	399.06
599.028	397.06
599.237	378.06
599.446	377.06
599.655	379.06
599.864	360.06
600.073	399.06
600.282	397.06
600.491	380.06
600.7	396.06
600.909	389.06
601.118	380.06
601.327	386.06
601.536	387.06
601.745	409.06
601.953	403.06
602.162	391.06
602.371	398.06
602.58	408.06
602.789	376.06
602.997	380.06
603.206	377.06
603.415	388.06
603.623	391.06
603.832	373.06
604.041	354.06
604.249	369.06
604.458	384.06
604.666	364.06
604.875	349.06
605.084	340.06
605.292	368.06
605.501	372.06
605.709	361.06
605.918	350.06
606.126	366.06
606.334	363.06
606.543	343.06
606.751	362.06
606.96	356.06
607.168	347.06
607.376	349.06
607.585	363.06
607.793	347.06
608.001	360.06
608.21	362.06
608.418	362.06
608.626	375.06
608.834	357.06
609.043	337.06
609.251	360.06
609.459	344.06
609.667	354.06
609.875	361.06
610.083	348.06
610.291	371.06
610.499	371.06
610.707	361.06
610.916	330.06
611.124	337.06
611.332	339.06
611.54	350.06
611.748	344.06
611.955	338.06
612.163	344.06
612.371	341.06
612.579	343.06
612.787	333.06
612.995	349.06
613.203	335.06
613.411	329.06
613.618	343.06
613.826	355.06
614.034	355.06
614.242	331.06
614.449	324.06
614.657	318.06
614.865	322.06
615.072	338.06
615.28	343.06
615.488	332.06
615.695	341.06
615.903	332.06
616.111	302.06
616.318	318.06
616.526	319.06
616.733	321.06
616.941	326.06
617.148	326.06
617.356	311.06
617.563	318.06
617.771	319.06
617.978	328.06
618.185	308.06
618.393	328.06
618.6	322.06
618.807	325.06
619.015	324.06
619.222	309.06
619.429	329.06
619.637	322.06
619.844	314.06
620.051	304.06
620.258	326.06
620.466	294.06
620.673	312.06
620.88	283.06
621.087	306.06
621.294	288.06
621.501	305.06
621.708	312.06
621.915	294.06
622.122	312.06
622.329	305.06
622.536	307.06
622.743	311.06
622.95	298.06
623.157	283.06
623.364	329.06
623.571	310.06
623.778	300.06
623.985	307.06
624.192	317.06
624.399	314.06
624.606	285.06
624.812	299.06
625.019	307.06
625.226	311.06
625.433	318.06
625.639	290.06
625.846	293.06
626.053	289.06
626.259	289.06
626.466	286.06
626.673	311.06
626.879	284.06
627.086	277.06
627.293	280.06
627.499	293.06
627.706	279.06
627.912	277.06
628.119	279.06
628.325	262.06
628.532	274.06
628.738	273.06
628.945	290.06
629.151	282.06
629.357	273.06
629.564	271.06
629.77	257.06
629.976	267.06
630.183	253.06
630.389	259.06
630.595	269.06
630.802	263.06
631.008	265.06
631.214	284.06
631.42	258.06
631.627	267.06
631.833	270.06
632.039	257.06
632.245	258.06
632.451	246.06
632.657	245.06
632.863	253.06
633.069	239.06
633.275	255.06
633.481	252.06
633.688	239.06
633.893	236.06
634.099	248.06
634.305	238.06
634.511	233.06
634.717	244.06
634.923	247.06
635.129	249.06
635.335	230.06
635.541	235.06
635.747	246.06
635.952	237.06
636.158	239.06
636.364	256.06
636.57	229.06
636.775	238.06
636.981	234.06
637.187	233.06
637.392	238.06
637.598	250.06
637.804	232.06
638.009	230.06
638.215	232.06
638.421	229.06
638.626	227.06
638.832	219.06
639.037	231.06
639.243	212.06
639.448	226.06
639.654	226.06
639.859	234.06
640.065	236.06
640.27	246.06
640.475	241.06
640.681	215.06
640.886	237.06
641.091	237.06
641.297	220.06
641.502	225.06
641.707	220.06
641.913	236.06
642.118	212.06
642.323	238.06
642.528	227.06
642.733	228.06
642.939	213.06
643.144	202.06
643.349	216.06
643.554	221.06
643.759	225.06
643.964	230.06
644.169	202.06
644.374	205.06
644.579	194.06
644.784	215.06
644.989	218.06
645.194	213.06
645.399	219.06
645.604	214.06
645.809	225.06
646.014	234.06
646.219	211.06
646.423	199.06
646.628	215.06
646.833	213.06
647.038	216.06
647.243	218.06
647.447	199.06
647.652	213.06
647.857	230.06
648.062	207.06
648.266	202.06
648.471	210.06
648.676	211.06
648.88	207.06
649.085	216.06
649.289	217.06
649.494	207.06
649.698	233.06
649.903	235.06
650.107	213.06
650.312	193.06
650.516	211.06
650.721	204.06
650.925	204.06
651.13	183.06
651.334	186.06
651.539	195.06
651.743	188.06
651.947	189.06
652.152	183.06
652.356	173.06
652.56	179.06
652.764	173.06
652.969	167.06
653.173	176.06
653.377	167.06
653.581	170.06
653.785	175.06
653.99	168.06
654.194	172.06
654.398	170.06
654.602	162.06
654.806	160.06
655.01	181.06
655.214	171.06
655.418	167.06
655.622	160.06
655.826	170.06
656.03	157.06
656.234	157.06
656.438	180.06
656.642	161.06
656.846	167.06
657.049	164.06
657.253	151.06
657.457	149.06
657.661	145.06
657.865	139.06
658.068	145.06
658.272	125.06
658.476	132.06
658.68	137.06
658.883	130.06
659.087	117.06
659.291	125.06
659.494	114.06
659.698	124.06
659.901	107.06
660.105	113.06
660.309	105.06
660.512	104.06
660.716	121.06
660.919	110.06
661.123	114.06
661.326	101.06
661.53	108.06
661.733	105.06
661.936	94.06
662.14	98.06
662.343	86.06
662.546	89.06
662.75	94.06
662.953	86.06
663.156	97.06
663.36	91.06
663.563	88.06
663.766	96.06
663.969	95.06
664.173	93.06
664.376	93.06
664.579	106.06
664.782	91.06
664.985	89.06
665.188	80.06
665.391	110.06
665.594	85.06
665.797	89.06
666	90.06
666.203	98.06
666.406	84.06
666.609	93.06
666.812	92.06
667.015	91.06
667.218	84.06
667.421	88.06
667.624	92.06
667.827	94.06
668.03	78.06
668.232	97.06
668.435	87.06
668.638	87.06
668.841	90.06
669.043	84.06
669.246	98.06
669.449	88.06
669.651	94.06
669.854	79.06
670.057	90.06
670.259	87.06
670.462	88.06
670.665	91.06
670.867	94.06
671.07	104.06
671.272	91.06
671.475	94.06
671.677	71.06
671.88	94.06
672.082	87.06
672.284	86.06
672.487	68.06
672.689	92.06
672.892	80.06
