Data from NickelSpatula.Lamp.E10.P2_HRD10591_11-57-46-531.txt Node
Date: Tue Jul 23 11:57:46 EDT 2019
User: cochatt
Spectrometer: HR+D1059
Trigger mode: 1
Integration Time (sec): 1.000000E-1
Scans to average: 1
Electric dark correction enabled: true
Nonlinearity correction enabled: false
Boxcar width: 0
XAxis mode: Wavelengths
Number of Pixels in Spectrum: 2048
>>>>>Begin Spectral Data<<<<<
223.165	-9.5
223.4	-9.5
223.635	-9.5
223.869	-11.5
224.104	-15.5
224.338	-7.5
224.573	-16.5
224.808	-15.5
225.042	-16.5
225.277	-27.5
225.511	3.5
225.746	5.5
225.98	7.5
226.215	13.5
226.449	17.5
226.683	24.5
226.918	19.5
227.152	28.5
227.387	33.5
227.621	42.5
227.856	35.5
228.09	33.5
228.324	27.5
228.559	38.5
228.793	82.5
229.027	137.5
229.262	141.5
229.496	150.5
229.73	164.5
229.964	189.5
230.199	202.5
230.433	214.5
230.667	214.5
230.901	199.5
231.136	192.5
231.37	193.5
231.604	205.5
231.838	238.5
232.072	243.5
232.306	241.5
232.541	223.5
232.775	246.5
233.009	252.5
233.243	276.5
233.477	312.5
233.711	341.5
233.945	330.5
234.179	318.5
234.413	342.5
234.647	375.5
234.881	432.5
235.115	426.5
235.349	386.5
235.583	318.5
235.817	344.5
236.051	371.5
236.285	388.5
236.519	477.5
236.753	432.5
236.987	421.5
237.221	398.5
237.455	405.5
237.689	406.5
237.922	431.5
238.156	472.5
238.39	531.5
238.624	650.5
238.858	584.5
239.091	472.5
239.325	502.5
239.559	489.5
239.793	546.5
240.027	614.5
240.26	596.5
240.494	581.5
240.728	586.5
240.961	694.5
241.195	626.5
241.429	607.5
241.662	618.5
241.896	488.5
242.13	475.5
242.363	450.5
242.597	450.5
242.83	539.5
243.064	550.5
243.298	591.5
243.531	643.5
243.765	641.5
243.998	611.5
244.232	603.5
244.465	585.5
244.699	590.5
244.932	634.5
245.166	611.5
245.399	545.5
245.633	541.5
245.866	556.5
246.099	594.5
246.333	700.5
246.566	734.5
246.8	746.5
247.033	712.5
247.266	670.5
247.5	657.5
247.733	663.5
247.966	634.5
248.2	652.5
248.433	769.5
248.666	818.5
248.899	796.5
249.133	864.5
249.366	972.5
249.599	995.5
249.832	928.5
250.066	819.5
250.299	827.5
250.532	821.5
250.765	773.5
250.998	718.5
251.231	716.5
251.465	758.5
251.698	836.5
251.931	798.5
252.164	811.5
252.397	931.5
252.63	1042.5
252.863	1143.5
253.096	1166.5
253.329	1182.5
253.562	1096.5
253.795	1231.5
254.028	1344.5
254.261	1359.5
254.494	1219.5
254.727	1115.5
254.96	1104.5
255.193	1200.5
255.426	1113.5
255.659	851.5
255.892	752.5
256.124	836.5
256.357	1019.5
256.59	1203.5
256.823	1115.5
257.056	952.5
257.289	916.5
257.521	941.5
257.754	1137.5
257.987	1271.5
258.22	1110.5
258.452	1006.5
258.685	1142.5
258.918	1281.5
259.151	1236.5
259.383	1304.5
259.616	1474.5
259.849	1556.5
260.081	1700.5
260.314	1875.5
260.547	1485.5
260.779	1448.5
261.012	1704.5
261.244	1613.5
261.477	1608.5
261.71	1500.5
261.942	1257.5
262.175	1296.5
262.407	1206.5
262.64	1276.5
262.872	1462.5
263.105	1658.5
263.337	1697.5
263.57	1509.5
263.802	1048.5
264.035	908.5
264.267	876.5
264.499	746.5
264.732	709.5
264.964	688.5
265.197	715.5
265.429	769.5
265.661	826.5
265.894	840.5
266.126	913.5
266.358	1024.5
266.591	1228.5
266.823	1448.5
267.055	1413.5
267.287	1258.5
267.52	1224.5
267.752	1302.5
267.984	1436.5
268.216	1378.5
268.448	1113.5
268.681	1102.5
268.913	1209.5
269.145	1263.5
269.377	1305.5
269.609	1286.5
269.841	1211.5
270.073	1274.5
270.306	1332.5
270.538	1380.5
270.77	1384.5
271.002	1381.5
271.234	1442.5
271.466	1498.5
271.698	1452.5
271.93	1377.5
272.162	1393.5
272.394	1400.5
272.626	1393.5
272.858	1465.5
273.09	1470.5
273.322	1292.5
273.553	1217.5
273.785	1506.5
274.017	1938.5
274.249	2349.5
274.481	2508.5
274.713	2752.5
274.945	3135.5
275.176	3257.5
275.408	2787.5
275.64	2597.5
275.872	2566.5
276.104	2219.5
276.335	1866.5
276.567	1907.5
276.799	1908.5
277.031	2016.5
277.262	1588.5
277.494	1243.5
277.726	1179.5
277.957	1281.5
278.189	1502.5
278.421	1457.5
278.652	1416.5
278.884	1362.5
279.115	1245.5
279.347	1185.5
279.579	1164.5
279.81	1168.5
280.042	1206.5
280.273	1231.5
280.505	1138.5
280.736	1006.5
280.968	1035.5
281.199	1113.5
281.431	1227.5
281.662	1196.5
281.894	1181.5
282.125	1224.5
282.356	1354.5
282.588	1360.5
282.819	1234.5
283.051	1362.5
283.282	1669.5
283.513	1935.5
283.745	2207.5
283.976	2165.5
284.207	1976.5
284.439	2063.5
284.67	2046.5
284.901	1791.5
285.132	1937.5
285.364	2020.5
285.595	1886.5
285.826	1933.5
286.057	2038.5
286.288	1902.5
286.52	1983.5
286.751	2130.5
286.982	2085.5
287.213	1790.5
287.444	1765.5
287.675	1830.5
287.906	1810.5
288.138	1570.5
288.369	1349.5
288.6	1269.5
288.831	1332.5
289.062	1558.5
289.293	1693.5
289.524	1592.5
289.755	1595.5
289.986	1650.5
290.217	1458.5
290.448	1106.5
290.679	968.5
290.91	902.5
291.141	921.5
291.371	946.5
291.602	944.5
291.833	984.5
292.064	1038.5
292.295	1203.5
292.526	1385.5
292.757	1408.5
292.987	1531.5
293.218	1555.5
293.449	1562.5
293.68	1690.5
293.91	1592.5
294.141	1606.5
294.372	1520.5
294.603	1378.5
294.833	1564.5
295.064	1863.5
295.295	1744.5
295.525	1309.5
295.756	1122.5
295.987	972.5
296.217	984.5
296.448	1069.5
296.679	1050.5
296.909	1228.5
297.14	1285.5
297.37	1412.5
297.601	1344.5
297.831	1140.5
298.062	1258.5
298.292	1422.5
298.523	1524.5
298.753	1737.5
298.984	1557.5
299.214	1256.5
299.445	1058.5
299.675	1030.5
299.905	1024.5
300.136	1016.5
300.366	1131.5
300.597	1139.5
300.827	976.5
301.057	934.5
301.288	968.5
301.518	1058.5
301.748	1180.5
301.979	1308.5
302.209	1412.5
302.439	1424.5
302.669	1204.5
302.9	1189.5
303.13	1092.5
303.36	1073.5
303.59	1064.5
303.82	1097.5
304.051	1210.5
304.281	1326.5
304.511	1260.5
304.741	1110.5
304.971	1149.5
305.201	1262.5
305.431	1219.5
305.661	1035.5
305.891	1024.5
306.121	1066.5
306.352	930.5
306.582	854.5
306.812	836.5
307.042	836.5
307.272	789.5
307.502	772.5
307.731	853.5
307.961	898.5
308.191	857.5
308.421	802.5
308.651	785.5
308.881	779.5
309.111	769.5
309.341	804.5
309.571	872.5
309.8	908.5
310.03	910.5
310.26	948.5
310.49	930.5
310.72	862.5
310.949	858.5
311.179	883.5
311.409	930.5
311.639	1070.5
311.868	1390.5
312.098	1781.5
312.328	1970.5
312.557	1870.5
312.787	1878.5
313.017	1671.5
313.246	1814.5
313.476	1934.5
313.706	1637.5
313.935	1291.5
314.165	1045.5
314.394	925.5
314.624	946.5
314.853	984.5
315.083	1046.5
315.312	1001.5
315.542	980.5
315.771	922.5
316.001	848.5
316.23	810.5
316.46	842.5
316.689	832.5
316.919	877.5
317.148	845.5
317.377	861.5
317.607	861.5
317.836	926.5
318.065	1093.5
318.295	1214.5
318.524	1144.5
318.753	961.5
318.983	898.5
319.212	885.5
319.441	994.5
319.67	1111.5
319.9	1178.5
320.129	1094.5
320.358	978.5
320.587	894.5
320.816	979.5
321.046	1130.5
321.275	1263.5
321.504	1277.5
321.733	1247.5
321.962	1184.5
322.191	1139.5
322.42	1055.5
322.649	1100.5
322.878	1175.5
323.108	1157.5
323.337	1100.5
323.566	1056.5
323.795	1041.5
324.024	978.5
324.253	954.5
324.482	965.5
324.71	1070.5
324.939	1192.5
325.168	1066.5
325.397	930.5
325.626	882.5
325.855	904.5
326.084	905.5
326.313	869.5
326.542	831.5
326.77	862.5
326.999	890.5
327.228	929.5
327.457	986.5
327.686	961.5
327.914	868.5
328.143	819.5
328.372	822.5
328.6	813.5
328.829	853.5
329.058	885.5
329.287	884.5
329.515	856.5
329.744	877.5
329.972	802.5
330.201	797.5
330.43	853.5
330.658	949.5
330.887	1057.5
331.115	1019.5
331.344	992.5
331.572	922.5
331.801	892.5
332.03	828.5
332.258	850.5
332.486	938.5
332.715	967.5
332.943	902.5
333.172	908.5
333.4	938.5
333.629	1006.5
333.857	1104.5
334.085	1089.5
334.314	1093.5
334.542	1009.5
334.771	975.5
334.999	929.5
335.227	901.5
335.455	928.5
335.684	1034.5
335.912	1196.5
336.14	1314.5
336.369	1258.5
336.597	1222.5
336.825	1357.5
337.053	1502.5
337.281	1200.5
337.51	992.5
337.738	971.5
337.966	1041.5
338.194	1175.5
338.422	1070.5
338.65	930.5
338.878	866.5
339.106	891.5
339.334	1000.5
339.562	1088.5
339.79	965.5
340.018	939.5
340.246	1028.5
340.474	1192.5
340.702	1282.5
340.93	1302.5
341.158	1295.5
341.386	1086.5
341.614	1076.5
341.842	1084.5
342.07	1133.5
342.298	1318.5
342.526	1372.5
342.754	1180.5
342.981	1092.5
343.209	1040.5
343.437	1123.5
343.665	1164.5
343.893	1150.5
344.12	1355.5
344.348	1564.5
344.576	1405.5
344.804	1153.5
345.031	996.5
345.259	957.5
345.487	973.5
345.714	1012.5
345.942	1060.5
346.17	1177.5
346.397	1089.5
346.625	963.5
346.853	948.5
347.08	928.5
347.308	965.5
347.535	1088.5
347.763	1138.5
347.99	949.5
348.218	946.5
348.445	945.5
348.673	966.5
348.9	1001.5
349.128	1016.5
349.355	1040.5
349.583	1027.5
349.81	1003.5
350.037	918.5
350.265	844.5
350.492	806.5
350.72	814.5
350.947	805.5
351.174	877.5
351.402	908.5
351.629	961.5
351.856	918.5
352.083	874.5
352.311	960.5
352.538	1036.5
352.765	1103.5
352.992	1017.5
353.22	990.5
353.447	948.5
353.674	943.5
353.901	925.5
354.128	930.5
354.355	966.5
354.583	964.5
354.81	949.5
355.037	1023.5
355.264	987.5
355.491	1035.5
355.718	1110.5
355.945	1072.5
356.172	1083.5
356.399	1057.5
356.626	1288.5
356.853	1525.5
357.08	1598.5
357.307	1658.5
357.534	1325.5
357.761	1358.5
357.988	1697.5
358.215	1950.5
358.441	1872.5
358.668	1553.5
358.895	1433.5
359.122	1139.5
359.349	1183.5
359.576	1293.5
359.802	1056.5
360.029	933.5
360.256	1006.5
360.483	1248.5
360.709	1550.5
360.936	1588.5
361.163	1410.5
361.39	1096.5
361.616	1028.5
361.843	1196.5
362.07	1424.5
362.296	1338.5
362.523	1052.5
362.749	910.5
362.976	964.5
363.203	1139.5
363.429	1290.5
363.656	1022.5
363.882	949.5
364.109	1007.5
364.335	952.5
364.562	963.5
364.788	1082.5
365.015	1232.5
365.241	1141.5
365.468	933.5
365.694	832.5
365.92	812.5
366.147	798.5
366.373	768.5
366.599	786.5
366.826	787.5
367.052	811.5
367.278	819.5
367.505	803.5
367.731	880.5
367.957	1012.5
368.184	1002.5
368.41	980.5
368.636	967.5
368.862	1023.5
369.089	982.5
369.315	860.5
369.541	878.5
369.767	877.5
369.993	844.5
370.219	837.5
370.445	894.5
370.672	952.5
370.898	1037.5
371.124	1035.5
371.35	937.5
371.576	878.5
371.802	942.5
372.028	1134.5
372.254	1269.5
372.48	1112.5
372.706	1034.5
372.932	1065.5
373.158	1091.5
373.384	1311.5
373.61	1731.5
373.835	1788.5
374.061	1294.5
374.287	1133.5
374.513	1352.5
374.739	1571.5
374.965	1622.5
375.191	1604.5
375.416	1096.5
375.642	998.5
375.868	1158.5
376.094	1306.5
376.319	1149.5
376.545	1243.5
376.771	1294.5
376.997	1102.5
377.222	854.5
377.448	736.5
377.674	730.5
377.899	734.5
378.125	745.5
378.35	733.5
378.576	774.5
378.802	829.5
379.027	906.5
379.253	878.5
379.478	882.5
379.704	996.5
379.929	1058.5
380.155	1001.5
380.38	928.5
380.606	960.5
380.831	1053.5
381.057	959.5
381.282	934.5
381.507	1125.5
381.733	1376.5
381.958	1467.5
382.184	1552.5
382.409	1594.5
382.634	1617.5
382.86	1673.5
383.085	1393.5
383.31	1104.5
383.535	1172.5
383.761	1160.5
383.986	1134.5
384.211	1335.5
384.436	1300.5
384.662	1018.5
384.887	975.5
385.112	1028.5
385.337	1028.5
385.562	979.5
385.787	1073.5
386.013	1158.5
386.238	1225.5
386.463	1004.5
386.688	950.5
386.913	947.5
387.138	852.5
387.363	930.5
387.588	958.5
387.813	964.5
388.038	1073.5
388.263	960.5
388.488	957.5
388.713	1100.5
388.938	1128.5
389.163	1010.5
389.387	900.5
389.612	886.5
389.837	900.5
390.062	912.5
390.287	986.5
390.512	987.5
390.736	938.5
390.961	862.5
391.186	821.5
391.411	815.5
391.636	829.5
391.86	926.5
392.085	986.5
392.31	964.5
392.534	933.5
392.759	939.5
392.984	957.5
393.208	924.5
393.433	845.5
393.658	818.5
393.882	792.5
394.107	798.5
394.331	766.5
394.556	796.5
394.78	804.5
395.005	821.5
395.229	837.5
395.454	863.5
395.678	852.5
395.903	906.5
396.127	862.5
396.352	845.5
396.576	946.5
396.801	982.5
397.025	1073.5
397.249	1097.5
397.474	902.5
397.698	908.5
397.922	995.5
398.147	888.5
398.371	917.5
398.595	976.5
398.82	922.5
399.044	933.5
399.268	997.5
399.492	1037.5
399.717	1023.5
399.941	1080.5
400.165	1036.5
400.389	1015.5
400.613	1010.5
400.837	1007.5
401.062	910.5
401.286	890.5
401.51	893.5
401.734	923.5
401.958	898.5
402.182	919.5
402.406	879.5
402.63	896.5
402.854	925.5
403.078	1050.5
403.302	1252.5
403.526	1323.5
403.75	1194.5
403.974	1038.5
404.198	1073.5
404.422	1215.5
404.645	1400.5
404.869	1505.5
405.093	1164.5
405.317	995.5
405.541	968.5
405.765	997.5
405.988	1004.5
406.212	1089.5
406.436	1262.5
406.66	1394.5
406.883	1116.5
407.107	1179.5
407.331	1346.5
407.555	1272.5
407.778	1132.5
408.002	1035.5
408.226	1038.5
408.449	1038.5
408.673	1001.5
408.896	912.5
409.12	917.5
409.344	895.5
409.567	878.5
409.791	881.5
410.014	893.5
410.238	868.5
410.461	872.5
410.685	900.5
410.908	900.5
411.132	925.5
411.355	920.5
411.578	932.5
411.802	904.5
412.025	972.5
412.249	992.5
412.472	947.5
412.695	944.5
412.919	931.5
413.142	948.5
413.365	1039.5
413.589	1052.5
413.812	948.5
414.035	888.5
414.258	879.5
414.482	1024.5
414.705	1039.5
414.928	897.5
415.151	869.5
415.374	869.5
415.597	883.5
415.821	894.5
416.044	874.5
416.267	896.5
416.49	880.5
416.713	866.5
416.936	857.5
417.159	836.5
417.382	874.5
417.605	898.5
417.828	925.5
418.051	926.5
418.274	953.5
418.497	910.5
418.72	917.5
418.943	945.5
419.166	968.5
419.389	1004.5
419.611	976.5
419.834	990.5
420.057	1072.5
420.28	1065.5
420.503	1000.5
420.726	909.5
420.948	862.5
421.171	902.5
421.394	861.5
421.617	840.5
421.839	890.5
422.062	926.5
422.285	928.5
422.507	942.5
422.73	960.5
422.953	952.5
423.175	908.5
423.398	923.5
423.621	972.5
423.843	1032.5
424.066	954.5
424.288	942.5
424.511	909.5
424.733	896.5
424.956	979.5
425.178	1053.5
425.401	1172.5
425.623	1299.5
425.846	1127.5
426.068	1000.5
426.291	1070.5
426.513	1022.5
426.735	921.5
426.958	996.5
427.18	1140.5
427.402	1444.5
427.625	1446.5
427.847	1166.5
428.069	919.5
428.292	889.5
428.514	890.5
428.736	869.5
428.958	900.5
429.181	1105.5
429.403	933.5
429.625	872.5
429.847	842.5
430.069	894.5
430.292	888.5
430.514	887.5
430.736	938.5
430.958	1176.5
431.18	1068.5
431.402	827.5
431.624	789.5
431.846	814.5
432.068	785.5
432.29	808.5
432.512	901.5
432.734	1164.5
432.956	1113.5
433.178	845.5
433.4	835.5
433.622	834.5
433.844	881.5
434.066	901.5
434.287	900.5
434.509	865.5
434.731	914.5
434.953	828.5
435.175	894.5
435.397	1004.5
435.618	907.5
435.84	815.5
436.062	837.5
436.284	827.5
436.505	795.5
436.727	771.5
436.949	768.5
437.17	856.5
437.392	870.5
437.614	812.5
437.835	812.5
438.057	837.5
438.278	945.5
438.5	1329.5
438.721	1352.5
438.943	928.5
439.165	797.5
439.386	780.5
439.608	783.5
439.829	751.5
440.05	789.5
440.272	833.5
440.493	959.5
440.715	1167.5
440.936	945.5
441.158	857.5
441.379	848.5
441.6	969.5
441.822	1010.5
442.043	893.5
442.264	869.5
442.486	856.5
442.707	882.5
442.928	868.5
443.149	915.5
443.371	888.5
443.592	913.5
443.813	907.5
444.034	881.5
444.255	896.5
444.476	931.5
444.698	908.5
444.919	958.5
445.14	1038.5
445.361	1018.5
445.582	953.5
445.803	911.5
446.024	926.5
446.245	938.5
446.466	910.5
446.687	885.5
446.908	866.5
447.129	844.5
447.35	784.5
447.571	782.5
447.792	804.5
448.013	795.5
448.234	770.5
448.455	774.5
448.675	793.5
448.896	790.5
449.117	811.5
449.338	797.5
449.559	826.5
449.779	873.5
450	865.5
450.221	830.5
450.442	800.5
450.662	771.5
450.883	799.5
451.104	805.5
451.324	801.5
451.545	795.5
451.766	778.5
451.986	769.5
452.207	787.5
452.428	785.5
452.648	771.5
452.869	817.5
453.089	847.5
453.31	856.5
453.53	752.5
453.751	747.5
453.971	746.5
454.192	768.5
454.412	772.5
454.633	767.5
454.853	701.5
455.073	707.5
455.294	722.5
455.514	710.5
455.734	784.5
455.955	797.5
456.175	830.5
456.395	721.5
456.616	692.5
456.836	672.5
457.056	713.5
457.276	689.5
457.497	707.5
457.717	706.5
457.937	722.5
458.157	702.5
458.377	717.5
458.598	740.5
458.818	761.5
459.038	784.5
459.258	820.5
459.478	813.5
459.698	908.5
459.918	882.5
460.138	862.5
460.358	894.5
460.578	848.5
460.798	869.5
461.018	874.5
461.238	852.5
461.458	834.5
461.678	853.5
461.898	913.5
462.118	909.5
462.338	924.5
462.558	933.5
462.777	996.5
462.997	992.5
463.217	957.5
463.437	1039.5
463.657	1010.5
463.876	964.5
464.096	1003.5
464.316	954.5
464.536	955.5
464.755	1015.5
464.975	1000.5
465.195	945.5
465.414	972.5
465.634	956.5
465.854	904.5
466.073	852.5
466.293	848.5
466.512	913.5
466.732	1014.5
466.951	1037.5
467.171	911.5
467.391	866.5
467.61	874.5
467.829	932.5
468.049	941.5
468.268	848.5
468.488	857.5
468.707	906.5
468.927	1056.5
469.146	1137.5
469.365	1024.5
469.585	926.5
469.804	992.5
470.023	1117.5
470.243	958.5
470.462	920.5
470.681	912.5
470.901	917.5
471.12	981.5
471.339	963.5
471.558	910.5
471.777	924.5
471.997	969.5
472.216	1091.5
472.435	1068.5
472.654	982.5
472.873	927.5
473.092	982.5
473.311	1013.5
473.53	948.5
473.749	940.5
473.968	956.5
474.187	950.5
474.406	949.5
474.625	923.5
474.844	945.5
475.063	1043.5
475.282	1021.5
475.501	1061.5
475.72	1124.5
475.939	1071.5
476.158	1076.5
476.377	1248.5
476.596	1444.5
476.814	1514.5
477.033	1274.5
477.252	1075.5
477.471	984.5
477.69	1012.5
477.908	1082.5
478.127	1127.5
478.346	1044.5
478.564	1113.5
478.783	1074.5
479.002	1098.5
479.22	1297.5
479.439	1404.5
479.658	1224.5
479.876	1119.5
480.095	1194.5
480.313	1222.5
480.532	1137.5
480.751	1109.5
480.969	1107.5
481.188	1227.5
481.406	1265.5
481.624	1224.5
481.843	1092.5
482.061	1056.5
482.28	1189.5
482.498	1454.5
482.717	1363.5
482.935	1210.5
483.153	1125.5
483.372	1092.5
483.59	1068.5
483.808	1028.5
484.027	1007.5
484.245	975.5
484.463	988.5
484.681	1014.5
484.9	1089.5
485.118	1150.5
485.336	1128.5
485.554	1042.5
485.772	1077.5
485.99	1169.5
486.209	1217.5
486.427	1198.5
486.645	1155.5
486.863	1224.5
487.081	1229.5
487.299	1306.5
487.517	1279.5
487.735	1213.5
487.953	1216.5
488.171	1220.5
488.389	1165.5
488.607	1090.5
488.825	1150.5
489.043	1257.5
489.261	1404.5
489.479	1509.5
489.696	1280.5
489.914	1176.5
490.132	1118.5
490.35	1123.5
490.568	1123.5
490.786	1102.5
491.003	1137.5
491.221	1180.5
491.439	1128.5
491.657	1107.5
491.874	1192.5
492.092	1438.5
492.31	1735.5
492.527	1666.5
492.745	1507.5
492.963	1332.5
493.18	1282.5
493.398	1298.5
493.615	1282.5
493.833	1230.5
494.05	1226.5
494.268	1246.5
494.485	1217.5
494.703	1188.5
494.92	1230.5
495.138	1189.5
495.355	1174.5
495.573	1224.5
495.79	1343.5
496.008	1722.5
496.225	1537.5
496.442	1324.5
496.66	1299.5
496.877	1410.5
497.094	1381.5
497.312	1317.5
497.529	1300.5
497.746	1300.5
497.963	1344.5
498.181	1487.5
498.398	1566.5
498.615	1645.5
498.832	1641.5
499.049	1718.5
499.267	1524.5
499.484	1535.5
499.701	1636.5
499.918	1769.5
500.135	1822.5
500.352	1901.5
500.569	1964.5
500.786	1995.5
501.003	1984.5
501.22	1836.5
501.437	1741.5
501.654	1621.5
501.871	1598.5
502.088	1644.5
502.305	1500.5
502.522	1513.5
502.739	1477.5
502.956	1365.5
503.172	1340.5
503.389	1281.5
503.606	1315.5
503.823	1249.5
504.04	1300.5
504.256	1322.5
504.473	1331.5
504.69	1348.5
504.907	1382.5
505.123	1354.5
505.34	1424.5
505.557	1400.5
505.773	1308.5
505.99	1280.5
506.207	1373.5
506.423	1276.5
506.64	1168.5
506.856	1222.5
507.073	1338.5
507.289	1313.5
507.506	1310.5
507.722	1393.5
507.939	1425.5
508.155	1428.5
508.372	1306.5
508.588	1274.5
508.805	1249.5
509.021	1213.5
509.238	1165.5
509.454	1167.5
509.67	1158.5
509.887	1166.5
510.103	1298.5
510.319	1274.5
510.536	1184.5
510.752	1077.5
510.968	1032.5
511.184	1036.5
511.401	1049.5
511.617	1038.5
511.833	1019.5
512.049	1046.5
512.265	1096.5
512.481	1100.5
512.698	1244.5
512.914	1359.5
513.13	1213.5
513.346	1131.5
513.562	1165.5
513.778	1179.5
513.994	1117.5
514.21	1206.5
514.426	1174.5
514.642	1133.5
514.858	1119.5
515.074	1189.5
515.29	1265.5
515.506	1393.5
515.721	1302.5
515.937	1221.5
516.153	1159.5
516.369	1172.5
516.585	1165.5
516.801	1365.5
517.016	1563.5
517.232	1545.5
517.448	1530.5
517.664	1357.5
517.879	1270.5
518.095	1243.5
518.311	1282.5
518.527	1300.5
518.742	1343.5
518.958	1468.5
519.173	1403.5
519.389	1325.5
519.605	1364.5
519.82	1503.5
520.036	1711.5
520.251	1646.5
520.467	1557.5
520.682	2331.5
520.898	2764.5
521.113	2644.5
521.329	1701.5
521.544	1532.5
521.76	1486.5
521.975	1320.5
522.19	1250.5
522.406	1304.5
522.621	1445.5
522.836	1509.5
523.052	1534.5
523.267	1254.5
523.482	1271.5
523.698	1341.5
523.913	1337.5
524.128	1187.5
524.343	1134.5
524.559	1179.5
524.774	1129.5
524.989	1144.5
525.204	1179.5
525.419	1323.5
525.634	1256.5
525.849	1266.5
526.064	1221.5
526.28	1241.5
526.495	1464.5
526.71	1541.5
526.925	1342.5
527.14	1374.5
527.355	1318.5
527.57	1144.5
527.785	1192.5
527.999	1121.5
528.214	1075.5
528.429	1056.5
528.644	1066.5
528.859	1019.5
529.074	980.5
529.289	962.5
529.503	986.5
529.718	992.5
529.933	1159.5
530.148	1181.5
530.363	1026.5
530.577	1018.5
530.792	973.5
531.007	982.5
531.221	954.5
531.436	965.5
531.651	965.5
531.865	1009.5
532.08	1016.5
532.295	991.5
532.509	1016.5
532.724	1150.5
532.938	1271.5
533.153	1458.5
533.367	1212.5
533.582	1163.5
533.796	1082.5
534.011	1055.5
534.225	1044.5
534.44	1044.5
534.654	1094.5
534.868	1247.5
535.083	1089.5
535.297	1012.5
535.511	1025.5
535.726	1109.5
535.94	1042.5
536.154	1028.5
536.369	995.5
536.583	985.5
536.797	1020.5
537.011	1017.5
537.225	1108.5
537.44	1141.5
537.654	1000.5
537.868	1039.5
538.082	1031.5
538.296	993.5
538.51	1080.5
538.724	1080.5
538.938	1023.5
539.153	981.5
539.367	966.5
539.581	937.5
539.795	1052.5
540.009	1146.5
540.222	1055.5
540.436	1050.5
540.65	1111.5
540.864	1163.5
541.078	1164.5
541.292	1306.5
541.506	1082.5
541.72	1055.5
541.934	1018.5
542.147	1029.5
542.361	1030.5
542.575	1028.5
542.789	1007.5
543.002	967.5
543.216	1050.5
543.43	948.5
543.644	952.5
543.857	924.5
544.071	926.5
544.285	932.5
544.498	936.5
544.712	929.5
544.925	966.5
545.139	932.5
545.352	868.5
545.566	910.5
545.779	1013.5
545.993	962.5
546.206	872.5
546.42	891.5
546.633	891.5
546.847	843.5
547.06	849.5
547.274	849.5
547.487	868.5
547.7	950.5
547.914	987.5
548.127	1075.5
548.34	1100.5
548.554	973.5
548.767	998.5
548.98	1053.5
549.193	972.5
549.407	1004.5
549.62	1192.5
549.833	1110.5
550.046	1110.5
550.259	1158.5
550.473	1012.5
550.686	976.5
550.899	1000.5
551.112	987.5
551.325	1032.5
551.538	1111.5
551.751	943.5
551.964	892.5
552.177	874.5
552.39	866.5
552.603	872.5
552.816	936.5
553.029	884.5
553.242	858.5
553.455	930.5
553.667	1017.5
553.88	980.5
554.093	906.5
554.306	828.5
554.519	794.5
554.732	795.5
554.944	792.5
555.157	796.5
555.37	790.5
555.583	774.5
555.795	786.5
556.008	803.5
556.221	807.5
556.433	798.5
556.646	739.5
556.859	778.5
557.071	822.5
557.284	814.5
557.496	821.5
557.709	778.5
557.921	764.5
558.134	745.5
558.346	727.5
558.559	726.5
558.771	767.5
558.984	772.5
559.196	741.5
559.409	730.5
559.621	707.5
559.833	723.5
560.046	722.5
560.258	708.5
560.47	762.5
560.683	716.5
560.895	666.5
561.107	658.5
561.32	696.5
561.532	682.5
561.744	772.5
561.956	765.5
562.168	710.5
562.381	680.5
562.593	723.5
562.805	745.5
563.017	698.5
563.229	676.5
563.441	688.5
563.653	653.5
563.865	682.5
564.077	688.5
564.289	667.5
564.501	674.5
564.713	760.5
564.925	734.5
565.137	700.5
565.349	665.5
565.561	689.5
565.773	723.5
565.985	730.5
566.197	782.5
566.408	826.5
566.62	837.5
566.832	846.5
567.044	872.5
567.255	884.5
567.467	964.5
567.679	910.5
567.891	852.5
568.102	893.5
568.314	890.5
568.526	836.5
568.737	824.5
568.949	857.5
569.161	766.5
569.372	706.5
569.584	676.5
569.795	682.5
570.007	699.5
570.218	767.5
570.43	705.5
570.641	682.5
570.853	659.5
571.064	626.5
571.276	668.5
571.487	703.5
571.698	664.5
571.91	672.5
572.121	666.5
572.333	609.5
572.544	620.5
572.755	638.5
572.966	613.5
573.178	592.5
573.389	623.5
573.6	634.5
573.811	625.5
574.023	593.5
574.234	570.5
574.445	578.5
574.656	564.5
574.867	557.5
575.078	586.5
575.289	596.5
575.501	619.5
575.712	583.5
575.923	547.5
576.134	556.5
576.345	558.5
576.556	553.5
576.767	523.5
576.978	530.5
577.188	507.5
577.399	522.5
577.61	515.5
577.821	547.5
578.032	548.5
578.243	565.5
578.454	558.5
578.665	577.5
578.875	549.5
579.086	565.5
579.297	557.5
579.508	573.5
579.718	570.5
579.929	544.5
580.14	534.5
580.35	500.5
580.561	469.5
580.772	470.5
580.982	480.5
581.193	459.5
581.403	466.5
581.614	470.5
581.825	454.5
582.035	473.5
582.246	464.5
582.456	455.5
582.667	468.5
582.877	460.5
583.087	451.5
583.298	434.5
583.508	438.5
583.719	456.5
583.929	455.5
584.139	432.5
584.35	455.5
584.56	474.5
584.77	472.5
584.981	466.5
585.191	476.5
585.401	464.5
585.611	470.5
585.821	515.5
586.032	485.5
586.242	476.5
586.452	477.5
586.662	467.5
586.872	504.5
587.082	500.5
587.292	476.5
587.502	453.5
587.713	467.5
587.923	457.5
588.133	500.5
588.343	460.5
588.553	465.5
588.762	450.5
588.972	448.5
589.182	442.5
589.392	440.5
589.602	439.5
589.812	470.5
590.022	499.5
590.232	494.5
590.441	460.5
590.651	455.5
590.861	448.5
591.071	469.5
591.281	449.5
591.49	459.5
591.7	473.5
591.91	448.5
592.119	440.5
592.329	436.5
592.539	450.5
592.748	454.5
592.958	442.5
593.167	464.5
593.377	467.5
593.587	477.5
593.796	477.5
594.006	462.5
594.215	467.5
594.424	468.5
594.634	499.5
594.843	473.5
595.053	469.5
595.262	430.5
595.472	434.5
595.681	412.5
595.89	418.5
596.1	437.5
596.309	439.5
596.518	410.5
596.727	414.5
596.937	422.5
597.146	437.5
597.355	446.5
597.564	430.5
597.774	422.5
597.983	420.5
598.192	386.5
598.401	401.5
598.61	398.5
598.819	388.5
599.028	363.5
599.237	389.5
599.446	388.5
599.655	391.5
599.864	376.5
600.073	341.5
600.282	395.5
600.491	364.5
600.7	383.5
600.909	393.5
601.118	380.5
601.327	376.5
601.536	370.5
601.745	369.5
601.953	382.5
602.162	405.5
602.371	400.5
602.58	387.5
602.789	395.5
602.997	376.5
603.206	355.5
603.415	382.5
603.623	355.5
603.832	366.5
604.041	370.5
604.249	367.5
604.458	398.5
604.666	351.5
604.875	344.5
605.084	329.5
605.292	353.5
605.501	361.5
605.709	355.5
605.918	364.5
606.126	350.5
606.334	330.5
606.543	346.5
606.751	336.5
606.96	347.5
607.168	325.5
607.376	325.5
607.585	336.5
607.793	359.5
608.001	354.5
608.21	343.5
608.418	344.5
608.626	347.5
608.834	353.5
609.043	333.5
609.251	351.5
609.459	332.5
609.667	338.5
609.875	345.5
610.083	335.5
610.291	348.5
610.499	363.5
610.707	354.5
610.916	336.5
611.124	334.5
611.332	335.5
611.54	341.5
611.748	316.5
611.955	336.5
612.163	339.5
612.371	331.5
612.579	331.5
612.787	318.5
612.995	319.5
613.203	318.5
613.411	325.5
613.618	321.5
613.826	343.5
614.034	355.5
614.242	341.5
614.449	311.5
614.657	314.5
614.865	308.5
615.072	336.5
615.28	328.5
615.488	318.5
615.695	314.5
615.903	309.5
616.111	325.5
616.318	299.5
616.526	314.5
616.733	307.5
616.941	312.5
617.148	324.5
617.356	309.5
617.563	320.5
617.771	300.5
617.978	306.5
618.185	319.5
618.393	316.5
618.6	324.5
618.807	306.5
619.015	315.5
619.222	314.5
619.429	327.5
619.637	325.5
619.844	306.5
620.051	290.5
620.258	316.5
620.466	284.5
620.673	305.5
620.88	296.5
621.087	284.5
621.294	290.5
621.501	269.5
621.708	280.5
621.915	295.5
622.122	300.5
622.329	292.5
622.536	291.5
622.743	299.5
622.95	281.5
623.157	268.5
623.364	272.5
623.571	298.5
623.778	294.5
623.985	303.5
624.192	284.5
624.399	284.5
624.606	294.5
624.812	297.5
625.019	280.5
625.226	313.5
625.433	285.5
625.639	280.5
625.846	261.5
626.053	264.5
626.259	275.5
626.466	261.5
626.673	284.5
626.879	273.5
627.086	274.5
627.293	268.5
627.499	283.5
627.706	279.5
627.912	270.5
628.119	255.5
628.325	274.5
628.532	265.5
628.738	253.5
628.945	261.5
629.151	248.5
629.357	240.5
629.564	255.5
629.77	249.5
629.976	261.5
630.183	226.5
630.389	257.5
630.595	253.5
630.802	240.5
631.008	253.5
631.214	264.5
631.42	266.5
631.627	261.5
631.833	244.5
632.039	255.5
632.245	236.5
632.451	232.5
632.657	223.5
632.863	218.5
633.069	221.5
633.275	226.5
633.481	219.5
633.688	241.5
633.893	246.5
634.099	238.5
634.305	227.5
634.511	235.5
634.717	244.5
634.923	220.5
635.129	223.5
635.335	232.5
635.541	241.5
635.747	215.5
635.952	227.5
636.158	238.5
636.364	248.5
636.57	243.5
636.775	238.5
636.981	225.5
637.187	224.5
637.392	231.5
637.598	214.5
637.804	227.5
638.009	215.5
638.215	223.5
638.421	214.5
638.626	208.5
638.832	221.5
639.037	229.5
639.243	204.5
639.448	236.5
639.654	245.5
639.859	219.5
640.065	230.5
640.27	227.5
640.475	223.5
640.681	233.5
640.886	219.5
641.091	234.5
641.297	211.5
641.502	208.5
641.707	224.5
641.913	215.5
642.118	211.5
642.323	205.5
642.528	205.5
642.733	211.5
642.939	220.5
643.144	214.5
643.349	204.5
643.554	189.5
643.759	209.5
643.964	223.5
644.169	214.5
644.374	192.5
644.579	212.5
644.784	218.5
644.989	203.5
645.194	214.5
645.399	219.5
645.604	195.5
645.809	212.5
646.014	212.5
646.219	203.5
646.423	209.5
646.628	194.5
646.833	204.5
647.038	229.5
647.243	218.5
647.447	211.5
647.652	200.5
647.857	216.5
648.062	211.5
648.266	211.5
648.471	205.5
648.676	188.5
648.88	213.5
649.085	205.5
649.289	216.5
649.494	192.5
649.698	214.5
649.903	200.5
650.107	202.5
650.312	189.5
650.516	183.5
650.721	178.5
650.925	178.5
651.13	193.5
651.334	164.5
651.539	180.5
651.743	175.5
651.947	195.5
652.152	165.5
652.356	176.5
652.56	170.5
652.764	168.5
652.969	169.5
653.173	158.5
653.377	169.5
653.581	160.5
653.785	162.5
653.99	159.5
654.194	146.5
654.398	173.5
654.602	150.5
654.806	155.5
655.01	159.5
655.214	154.5
655.418	170.5
655.622	142.5
655.826	143.5
656.03	159.5
656.234	152.5
656.438	175.5
656.642	158.5
656.846	155.5
657.049	154.5
657.253	139.5
657.457	143.5
657.661	149.5
657.865	117.5
658.068	120.5
658.272	114.5
658.476	107.5
658.68	133.5
658.883	113.5
659.087	125.5
659.291	117.5
659.494	117.5
659.698	92.5
659.901	99.5
660.105	98.5
660.309	100.5
660.512	90.5
660.716	89.5
660.919	97.5
661.123	86.5
661.326	88.5
661.53	98.5
661.733	92.5
661.936	83.5
662.14	92.5
662.343	88.5
662.546	81.5
662.75	81.5
662.953	78.5
663.156	91.5
663.36	62.5
663.563	71.5
663.766	71.5
663.969	74.5
664.173	83.5
664.376	72.5
664.579	86.5
664.782	77.5
664.985	77.5
665.188	88.5
665.391	67.5
665.594	76.5
665.797	82.5
666	98.5
666.203	91.5
666.406	64.5
666.609	75.5
666.812	80.5
667.015	66.5
667.218	82.5
667.421	79.5
667.624	69.5
667.827	80.5
668.03	75.5
668.232	85.5
668.435	88.5
668.638	85.5
668.841	85.5
669.043	93.5
669.246	77.5
669.449	73.5
669.651	74.5
669.854	82.5
670.057	80.5
670.259	89.5
670.462	83.5
670.665	89.5
670.867	70.5
671.07	81.5
671.272	86.5
671.475	80.5
671.677	79.5
671.88	80.5
672.082	80.5
672.284	85.5
672.487	75.5
672.689	66.5
672.892	69.5
