Data from NickelSpatula.Lamp.E5.5.P2_HRD10591_11-51-47-558.txt Node
Date: Tue Jul 23 11:51:47 EDT 2019
User: cochatt
Spectrometer: HR+D1059
Trigger mode: 1
Integration Time (sec): 1.000000E-1
Scans to average: 1
Electric dark correction enabled: true
Nonlinearity correction enabled: false
Boxcar width: 0
XAxis mode: Wavelengths
Number of Pixels in Spectrum: 2048
>>>>>Begin Spectral Data<<<<<
223.165	-9.62
223.4	-9.62
223.635	-9.62
223.869	-18.62
224.104	-11.62
224.338	-25.62
224.573	-10.62
224.808	-9.62
225.042	-1.62
225.277	-4.62
225.511	-5.62
225.746	-7.62
225.98	0.38
226.215	19.38
226.449	2.38
226.683	33.38
226.918	23.38
227.152	26.38
227.387	39.38
227.621	47.38
227.856	38.38
228.09	30.38
228.324	46.38
228.559	35.38
228.793	60.38
229.027	84.38
229.262	65.38
229.496	86.38
229.73	79.38
229.964	80.38
230.199	84.38
230.433	92.38
230.667	90.38
230.901	90.38
231.136	95.38
231.37	89.38
231.604	106.38
231.838	112.38
232.072	100.38
232.306	96.38
232.541	99.38
232.775	92.38
233.009	110.38
233.243	116.38
233.477	118.38
233.711	140.38
233.945	128.38
234.179	117.38
234.413	132.38
234.647	124.38
234.881	158.38
235.115	147.38
235.349	113.38
235.583	118.38
235.817	123.38
236.051	119.38
236.285	143.38
236.519	143.38
236.753	136.38
236.987	124.38
237.221	127.38
237.455	132.38
237.689	136.38
237.922	149.38
238.156	148.38
238.39	141.38
238.624	182.38
238.858	156.38
239.091	147.38
239.325	158.38
239.559	149.38
239.793	142.38
240.027	195.38
240.26	174.38
240.494	174.38
240.728	173.38
240.961	187.38
241.195	183.38
241.429	192.38
241.662	180.38
241.896	158.38
242.13	149.38
242.363	143.38
242.597	132.38
242.83	163.38
243.064	150.38
243.298	178.38
243.531	186.38
243.765	184.38
243.998	162.38
244.232	177.38
244.465	164.38
244.699	168.38
244.932	176.38
245.166	177.38
245.399	154.38
245.633	155.38
245.866	166.38
246.099	161.38
246.333	183.38
246.566	205.38
246.8	192.38
247.033	195.38
247.266	186.38
247.5	176.38
247.733	164.38
247.966	174.38
248.2	168.38
248.433	198.38
248.666	210.38
248.899	199.38
249.133	227.38
249.366	250.38
249.599	254.38
249.832	221.38
250.066	204.38
250.299	206.38
250.532	213.38
250.765	203.38
250.998	177.38
251.231	174.38
251.465	212.38
251.698	199.38
251.931	191.38
252.164	207.38
252.397	235.38
252.63	262.38
252.863	257.38
253.096	286.38
253.329	247.38
253.562	259.38
253.795	284.38
254.028	310.38
254.261	329.38
254.494	274.38
254.727	256.38
254.96	270.38
255.193	268.38
255.426	270.38
255.659	217.38
255.892	194.38
256.124	227.38
256.357	246.38
256.59	275.38
256.823	272.38
257.056	258.38
257.289	218.38
257.521	238.38
257.754	268.38
257.987	300.38
258.22	275.38
258.452	238.38
258.685	264.38
258.918	294.38
259.151	295.38
259.383	315.38
259.616	371.38
259.849	360.38
260.081	382.38
260.314	430.38
260.547	354.38
260.779	351.38
261.012	403.38
261.244	374.38
261.477	369.38
261.71	354.38
261.942	291.38
262.175	286.38
262.407	287.38
262.64	298.38
262.872	352.38
263.105	355.38
263.337	393.38
263.57	362.38
263.802	276.38
264.035	227.38
264.267	214.38
264.499	193.38
264.732	188.38
264.964	182.38
265.197	179.38
265.429	205.38
265.661	206.38
265.894	215.38
266.126	230.38
266.358	234.38
266.591	275.38
266.823	328.38
267.055	332.38
267.287	278.38
267.52	301.38
267.752	296.38
267.984	342.38
268.216	320.38
268.448	270.38
268.681	265.38
268.913	296.38
269.145	314.38
269.377	293.38
269.609	317.38
269.841	284.38
270.073	291.38
270.306	317.38
270.538	337.38
270.77	321.38
271.002	332.38
271.234	342.38
271.466	334.38
271.698	333.38
271.93	312.38
272.162	318.38
272.394	308.38
272.626	317.38
272.858	338.38
273.09	330.38
273.322	284.38
273.553	256.38
273.785	337.38
274.017	412.38
274.249	488.38
274.481	499.38
274.713	530.38
274.945	652.38
275.176	661.38
275.408	596.38
275.64	562.38
275.872	559.38
276.104	491.38
276.335	409.38
276.567	396.38
276.799	413.38
277.031	441.38
277.262	356.38
277.494	270.38
277.726	279.38
277.957	292.38
278.189	332.38
278.421	319.38
278.652	311.38
278.884	300.38
279.115	285.38
279.347	278.38
279.579	276.38
279.81	289.38
280.042	303.38
280.273	304.38
280.505	272.38
280.736	239.38
280.968	259.38
281.199	263.38
281.431	275.38
281.662	275.38
281.894	264.38
282.125	302.38
282.356	310.38
282.588	335.38
282.819	285.38
283.051	296.38
283.282	369.38
283.513	412.38
283.745	488.38
283.976	466.38
284.207	430.38
284.439	440.38
284.67	439.38
284.901	391.38
285.132	411.38
285.364	444.38
285.595	376.38
285.826	404.38
286.057	441.38
286.288	431.38
286.52	418.38
286.751	461.38
286.982	456.38
287.213	420.38
287.444	396.38
287.675	390.38
287.906	413.38
288.138	364.38
288.369	329.38
288.6	303.38
288.831	294.38
289.062	356.38
289.293	388.38
289.524	359.38
289.755	363.38
289.986	355.38
290.217	307.38
290.448	278.38
290.679	226.38
290.91	221.38
291.141	224.38
291.371	224.38
291.602	239.38
291.833	232.38
292.064	256.38
292.295	273.38
292.526	315.38
292.757	318.38
292.987	348.38
293.218	335.38
293.449	374.38
293.68	372.38
293.91	359.38
294.141	404.38
294.372	361.38
294.603	325.38
294.833	359.38
295.064	427.38
295.295	405.38
295.525	319.38
295.756	288.38
295.987	252.38
296.217	244.38
296.448	230.38
296.679	262.38
296.909	271.38
297.14	280.38
297.37	302.38
297.601	304.38
297.831	273.38
298.062	287.38
298.292	326.38
298.523	364.38
298.753	407.38
298.984	358.38
299.214	285.38
299.445	250.38
299.675	247.38
299.905	230.38
300.136	239.38
300.366	261.38
300.597	257.38
300.827	228.38
301.057	231.38
301.288	259.38
301.518	259.38
301.748	287.38
301.979	302.38
302.209	323.38
302.439	325.38
302.669	290.38
302.9	289.38
303.13	284.38
303.36	268.38
303.59	260.38
303.82	258.38
304.051	275.38
304.281	316.38
304.511	298.38
304.741	298.38
304.971	270.38
305.201	293.38
305.431	267.38
305.661	240.38
305.891	237.38
306.121	253.38
306.352	242.38
306.582	208.38
306.812	204.38
307.042	209.38
307.272	193.38
307.502	191.38
307.731	223.38
307.961	226.38
308.191	219.38
308.421	187.38
308.651	211.38
308.881	200.38
309.111	195.38
309.341	195.38
309.571	200.38
309.8	206.38
310.03	221.38
310.26	228.38
310.49	221.38
310.72	218.38
310.949	196.38
311.179	211.38
311.409	221.38
311.639	252.38
311.868	306.38
312.098	386.38
312.328	412.38
312.557	388.38
312.787	397.38
313.017	355.38
313.246	357.38
313.476	412.38
313.706	354.38
313.935	298.38
314.165	237.38
314.394	231.38
314.624	227.38
314.853	239.38
315.083	248.38
315.312	240.38
315.542	231.38
315.771	208.38
316.001	213.38
316.23	214.38
316.46	195.38
316.689	186.38
316.919	194.38
317.148	207.38
317.377	197.38
317.607	224.38
317.836	232.38
318.065	244.38
318.295	262.38
318.524	252.38
318.753	235.38
318.983	204.38
319.212	223.38
319.441	218.38
319.67	235.38
319.9	274.38
320.129	257.38
320.358	235.38
320.587	221.38
320.816	226.38
321.046	254.38
321.275	278.38
321.504	268.38
321.733	247.38
321.962	260.38
322.191	239.38
322.42	247.38
322.649	238.38
322.878	262.38
323.108	274.38
323.337	255.38
323.566	254.38
323.795	236.38
324.024	238.38
324.253	234.38
324.482	219.38
324.71	229.38
324.939	264.38
325.168	261.38
325.397	224.38
325.626	215.38
325.855	223.38
326.084	228.38
326.313	195.38
326.542	212.38
326.77	207.38
326.999	215.38
327.228	226.38
327.457	226.38
327.686	230.38
327.914	220.38
328.143	205.38
328.372	211.38
328.6	207.38
328.829	210.38
329.058	209.38
329.287	205.38
329.515	207.38
329.744	213.38
329.972	191.38
330.201	197.38
330.43	205.38
330.658	233.38
330.887	246.38
331.115	236.38
331.344	256.38
331.572	241.38
331.801	214.38
332.03	213.38
332.258	219.38
332.486	239.38
332.715	228.38
332.943	240.38
333.172	234.38
333.4	248.38
333.629	256.38
333.857	264.38
334.085	276.38
334.314	277.38
334.542	245.38
334.771	244.38
334.999	222.38
335.227	217.38
335.455	215.38
335.684	240.38
335.912	270.38
336.14	280.38
336.369	300.38
336.597	268.38
336.825	299.38
337.053	340.38
337.281	276.38
337.51	227.38
337.738	224.38
337.966	244.38
338.194	250.38
338.422	242.38
338.65	218.38
338.878	205.38
339.106	211.38
339.334	223.38
339.562	243.38
339.79	237.38
340.018	222.38
340.246	228.38
340.474	265.38
340.702	264.38
340.93	278.38
341.158	296.38
341.386	251.38
341.614	244.38
341.842	241.38
342.07	242.38
342.298	290.38
342.526	307.38
342.754	234.38
342.981	241.38
343.209	237.38
343.437	242.38
343.665	270.38
343.893	284.38
344.12	320.38
344.348	378.38
344.576	299.38
344.804	258.38
345.031	234.38
345.259	226.38
345.487	233.38
345.714	236.38
345.942	242.38
346.17	271.38
346.397	272.38
346.625	251.38
346.853	254.38
347.08	232.38
347.308	237.38
347.535	254.38
347.763	277.38
347.99	236.38
348.218	236.38
348.445	230.38
348.673	242.38
348.9	228.38
349.128	236.38
349.355	245.38
349.583	248.38
349.81	234.38
350.037	227.38
350.265	220.38
350.492	199.38
350.72	194.38
350.947	185.38
351.174	211.38
351.402	217.38
351.629	231.38
351.856	216.38
352.083	206.38
352.311	222.38
352.538	238.38
352.765	248.38
352.992	231.38
353.22	235.38
353.447	262.38
353.674	237.38
353.901	218.38
354.128	218.38
354.355	213.38
354.583	222.38
354.81	223.38
355.037	253.38
355.264	220.38
355.491	254.38
355.718	247.38
355.945	260.38
356.172	251.38
356.399	259.38
356.626	265.38
356.853	336.38
357.08	354.38
357.307	357.38
357.534	298.38
357.761	317.38
357.988	394.38
358.215	416.38
358.441	384.38
358.668	349.38
358.895	316.38
359.122	274.38
359.349	284.38
359.576	314.38
359.802	270.38
360.029	242.38
360.256	242.38
360.483	285.38
360.709	345.38
360.936	343.38
361.163	315.38
361.39	254.38
361.616	232.38
361.843	274.38
362.07	311.38
362.296	292.38
362.523	241.38
362.749	223.38
362.976	229.38
363.203	272.38
363.429	278.38
363.656	235.38
363.882	223.38
364.109	228.38
364.335	236.38
364.562	236.38
364.788	245.38
365.015	270.38
365.241	271.38
365.468	219.38
365.694	214.38
365.92	198.38
366.147	203.38
366.373	199.38
366.599	198.38
366.826	207.38
367.052	190.38
367.278	214.38
367.505	187.38
367.731	213.38
367.957	222.38
368.184	221.38
368.41	223.38
368.636	228.38
368.862	226.38
369.089	239.38
369.315	212.38
369.541	190.38
369.767	209.38
369.993	210.38
370.219	208.38
370.445	209.38
370.672	222.38
370.898	248.38
371.124	248.38
371.35	236.38
371.576	220.38
371.802	219.38
372.028	264.38
372.254	301.38
372.48	269.38
372.706	243.38
372.932	245.38
373.158	267.38
373.384	291.38
373.61	367.38
373.835	398.38
374.061	307.38
374.287	259.38
374.513	311.38
374.739	382.38
374.965	371.38
375.191	358.38
375.416	274.38
375.642	256.38
375.868	280.38
376.094	290.38
376.319	260.38
376.545	292.38
376.771	270.38
376.997	258.38
377.222	203.38
377.448	206.38
377.674	190.38
377.899	197.38
378.125	198.38
378.35	194.38
378.576	203.38
378.802	215.38
379.027	230.38
379.253	225.38
379.478	219.38
379.704	245.38
379.929	262.38
380.155	256.38
380.38	230.38
380.606	228.38
380.831	273.38
381.057	253.38
381.282	248.38
381.507	250.38
381.733	311.38
381.958	330.38
382.184	358.38
382.409	379.38
382.634	354.38
382.86	371.38
383.085	326.38
383.31	262.38
383.535	280.38
383.761	287.38
383.986	256.38
384.211	279.38
384.436	306.38
384.662	259.38
384.887	230.38
385.112	243.38
385.337	263.38
385.562	230.38
385.787	260.38
386.013	283.38
386.238	282.38
386.463	236.38
386.688	239.38
386.913	215.38
387.138	220.38
387.363	223.38
387.588	228.38
387.813	246.38
388.038	257.38
388.263	225.38
388.488	241.38
388.713	277.38
388.938	283.38
389.163	255.38
389.387	202.38
389.612	215.38
389.837	216.38
390.062	232.38
390.287	243.38
390.512	253.38
390.736	254.38
390.961	224.38
391.186	213.38
391.411	228.38
391.636	208.38
391.86	235.38
392.085	256.38
392.31	245.38
392.534	251.38
392.759	233.38
392.984	250.38
393.208	230.38
393.433	214.38
393.658	219.38
393.882	220.38
394.107	223.38
394.331	223.38
394.556	213.38
394.78	203.38
395.005	207.38
395.229	200.38
395.454	206.38
395.678	218.38
395.903	227.38
396.127	213.38
396.352	207.38
396.576	227.38
396.801	230.38
397.025	248.38
397.249	261.38
397.474	217.38
397.698	224.38
397.922	227.38
398.147	214.38
398.371	223.38
398.595	239.38
398.82	239.38
399.044	243.38
399.268	253.38
399.492	279.38
399.717	274.38
399.941	284.38
400.165	273.38
400.389	255.38
400.613	260.38
400.837	238.38
401.062	234.38
401.286	202.38
401.51	212.38
401.734	249.38
401.958	236.38
402.182	238.38
402.406	240.38
402.63	253.38
402.854	267.38
403.078	263.38
403.302	357.38
403.526	370.38
403.75	338.38
403.974	288.38
404.198	295.38
404.422	325.38
404.645	362.38
404.869	364.38
405.093	295.38
405.317	276.38
405.541	264.38
405.765	261.38
405.988	271.38
406.212	274.38
406.436	299.38
406.66	328.38
406.883	269.38
407.107	271.38
407.331	322.38
407.555	306.38
407.778	287.38
408.002	287.38
408.226	291.38
408.449	277.38
408.673	259.38
408.896	243.38
409.12	232.38
409.344	246.38
409.567	228.38
409.791	224.38
410.014	236.38
410.238	249.38
410.461	239.38
410.685	232.38
410.908	228.38
411.132	233.38
411.355	240.38
411.578	231.38
411.802	229.38
412.025	234.38
412.249	264.38
412.472	243.38
412.695	240.38
412.919	243.38
413.142	236.38
413.365	259.38
413.589	246.38
413.812	229.38
414.035	223.38
414.258	226.38
414.482	248.38
414.705	254.38
414.928	247.38
415.151	239.38
415.374	228.38
415.597	208.38
415.821	225.38
416.044	229.38
416.267	225.38
416.49	214.38
416.713	210.38
416.936	216.38
417.159	222.38
417.382	234.38
417.605	227.38
417.828	241.38
418.051	218.38
418.274	240.38
418.497	236.38
418.72	247.38
418.943	263.38
419.166	264.38
419.389	273.38
419.611	276.38
419.834	263.38
420.057	257.38
420.28	269.38
420.503	256.38
420.726	228.38
420.948	230.38
421.171	227.38
421.394	234.38
421.617	218.38
421.839	236.38
422.062	226.38
422.285	220.38
422.507	247.38
422.73	238.38
422.953	246.38
423.175	237.38
423.398	263.38
423.621	244.38
423.843	258.38
424.066	252.38
424.288	239.38
424.511	248.38
424.733	250.38
424.956	239.38
425.178	275.38
425.401	292.38
425.623	353.38
425.846	303.38
426.068	254.38
426.291	272.38
426.513	254.38
426.735	231.38
426.958	262.38
427.18	280.38
427.402	340.38
427.625	366.38
427.847	317.38
428.069	238.38
428.292	231.38
428.514	232.38
428.736	216.38
428.958	263.38
429.181	300.38
429.403	264.38
429.625	222.38
429.847	227.38
430.069	221.38
430.292	241.38
430.514	230.38
430.736	221.38
430.958	275.38
431.18	262.38
431.402	206.38
431.624	212.38
431.846	219.38
432.068	209.38
432.29	233.38
432.512	239.38
432.734	287.38
432.956	272.38
433.178	225.38
433.4	225.38
433.622	232.38
433.844	230.38
434.066	229.38
434.287	259.38
434.509	228.38
434.731	244.38
434.953	234.38
435.175	235.38
435.397	275.38
435.618	241.38
435.84	225.38
436.062	230.38
436.284	210.38
436.505	213.38
436.727	197.38
436.949	213.38
437.17	214.38
437.392	204.38
437.614	223.38
437.835	220.38
438.057	218.38
438.278	228.38
438.5	329.38
438.721	328.38
438.943	254.38
439.165	217.38
439.386	220.38
439.608	224.38
439.829	208.38
440.05	208.38
440.272	210.38
440.493	262.38
440.715	298.38
440.936	245.38
441.158	230.38
441.379	255.38
441.6	267.38
441.822	263.38
442.043	235.38
442.264	229.38
442.486	237.38
442.707	213.38
442.928	224.38
443.149	220.38
443.371	240.38
443.592	239.38
443.813	237.38
444.034	220.38
444.255	231.38
444.476	247.38
444.698	266.38
444.919	261.38
445.14	339.38
445.361	294.38
445.582	261.38
445.803	252.38
446.024	257.38
446.245	252.38
446.466	226.38
446.687	212.38
446.908	221.38
447.129	206.38
447.35	218.38
447.571	204.38
447.792	208.38
448.013	211.38
448.234	222.38
448.455	203.38
448.675	206.38
448.896	206.38
449.117	211.38
449.338	216.38
449.559	222.38
449.779	219.38
450	218.38
450.221	215.38
450.442	223.38
450.662	225.38
450.883	215.38
451.104	217.38
451.324	205.38
451.545	218.38
451.766	218.38
451.986	207.38
452.207	222.38
452.428	204.38
452.648	206.38
452.869	217.38
453.089	240.38
453.31	220.38
453.53	208.38
453.751	199.38
453.971	207.38
454.192	214.38
454.412	214.38
454.633	211.38
454.853	202.38
455.073	200.38
455.294	206.38
455.514	202.38
455.734	214.38
455.955	209.38
456.175	209.38
456.395	203.38
456.616	198.38
456.836	205.38
457.056	220.38
457.276	174.38
457.497	195.38
457.717	197.38
457.937	195.38
458.157	189.38
458.377	188.38
458.598	211.38
458.818	215.38
459.038	207.38
459.258	216.38
459.478	226.38
459.698	244.38
459.918	230.38
460.138	239.38
460.358	254.38
460.578	227.38
460.798	254.38
461.018	244.38
461.238	247.38
461.458	243.38
461.678	225.38
461.898	250.38
462.118	245.38
462.338	244.38
462.558	265.38
462.777	263.38
462.997	305.38
463.217	294.38
463.437	295.38
463.657	279.38
463.876	264.38
464.096	269.38
464.316	272.38
464.536	275.38
464.755	274.38
464.975	281.38
465.195	257.38
465.414	282.38
465.634	247.38
465.854	245.38
466.073	227.38
466.293	207.38
466.512	227.38
466.732	257.38
466.951	262.38
467.171	227.38
467.391	217.38
467.61	206.38
467.829	222.38
468.049	252.38
468.268	229.38
468.488	215.38
468.707	225.38
468.927	254.38
469.146	290.38
469.365	263.38
469.585	253.38
469.804	269.38
470.023	275.38
470.243	244.38
470.462	241.38
470.681	227.38
470.901	237.38
471.12	259.38
471.339	249.38
471.558	239.38
471.777	226.38
471.997	252.38
472.216	283.38
472.435	283.38
472.654	241.38
472.873	242.38
473.092	234.38
473.311	250.38
473.53	238.38
473.749	222.38
473.968	245.38
474.187	251.38
474.406	243.38
474.625	230.38
474.844	243.38
475.063	268.38
475.282	256.38
475.501	238.38
475.72	284.38
475.939	258.38
476.158	275.38
476.377	308.38
476.596	330.38
476.814	371.38
477.033	314.38
477.252	270.38
477.471	251.38
477.69	250.38
477.908	266.38
478.127	285.38
478.346	276.38
478.564	280.38
478.783	256.38
479.002	268.38
479.22	301.38
479.439	325.38
479.658	305.38
479.876	274.38
480.095	294.38
480.313	308.38
480.532	274.38
480.751	295.38
480.969	271.38
481.188	308.38
481.406	294.38
481.624	317.38
481.843	285.38
482.061	252.38
482.28	291.38
482.498	358.38
482.717	366.38
482.935	291.38
483.153	274.38
483.372	238.38
483.59	247.38
483.808	260.38
484.027	253.38
484.245	252.38
484.463	260.38
484.681	250.38
484.9	266.38
485.118	305.38
485.336	263.38
485.554	268.38
485.772	274.38
485.99	292.38
486.209	303.38
486.427	287.38
486.645	291.38
486.863	298.38
487.081	315.38
487.299	322.38
487.517	325.38
487.735	284.38
487.953	285.38
488.171	320.38
488.389	287.38
488.607	276.38
488.825	270.38
489.043	305.38
489.261	310.38
489.479	336.38
489.696	309.38
489.914	298.38
490.132	276.38
490.35	277.38
490.568	262.38
490.786	286.38
491.003	264.38
491.221	255.38
491.439	273.38
491.657	264.38
491.874	280.38
492.092	321.38
492.31	378.38
492.527	379.38
492.745	338.38
492.963	292.38
493.18	308.38
493.398	314.38
493.615	318.38
493.833	291.38
494.05	286.38
494.268	302.38
494.485	282.38
494.703	281.38
494.92	270.38
495.138	270.38
495.355	305.38
495.573	283.38
495.79	320.38
496.008	375.38
496.225	323.38
496.442	286.38
496.66	311.38
496.877	311.38
497.094	326.38
497.312	300.38
497.529	304.38
497.746	303.38
497.963	321.38
498.181	345.38
498.398	341.38
498.615	386.38
498.832	408.38
499.049	405.38
499.267	372.38
499.484	384.38
499.701	423.38
499.918	453.38
500.135	509.38
500.352	551.38
500.569	551.38
500.786	532.38
501.003	519.38
501.22	472.38
501.437	448.38
501.654	412.38
501.871	379.38
502.088	375.38
502.305	341.38
502.522	357.38
502.739	367.38
502.956	344.38
503.172	326.38
503.389	297.38
503.606	310.38
503.823	315.38
504.04	320.38
504.256	313.38
504.473	315.38
504.69	336.38
504.907	336.38
505.123	311.38
505.34	320.38
505.557	332.38
505.773	293.38
505.99	307.38
506.207	322.38
506.423	288.38
506.64	276.38
506.856	295.38
507.073	306.38
507.289	318.38
507.506	310.38
507.722	332.38
507.939	335.38
508.155	338.38
508.372	308.38
508.588	299.38
508.805	279.38
509.021	282.38
509.238	262.38
509.454	282.38
509.67	279.38
509.887	277.38
510.103	323.38
510.319	302.38
510.536	301.38
510.752	277.38
510.968	239.38
511.184	243.38
511.401	238.38
511.617	264.38
511.833	271.38
512.049	247.38
512.265	273.38
512.481	281.38
512.698	309.38
512.914	308.38
513.13	280.38
513.346	280.38
513.562	274.38
513.778	280.38
513.994	272.38
514.21	283.38
514.426	284.38
514.642	283.38
514.858	280.38
515.074	289.38
515.29	303.38
515.506	356.38
515.721	334.38
515.937	306.38
516.153	274.38
516.369	270.38
516.585	307.38
516.801	327.38
517.016	351.38
517.232	358.38
517.448	355.38
517.664	341.38
517.879	328.38
518.095	346.38
518.311	318.38
518.527	337.38
518.742	351.38
518.958	355.38
519.173	336.38
519.389	315.38
519.605	339.38
519.82	339.38
520.036	389.38
520.251	362.38
520.467	374.38
520.682	586.38
520.898	736.38
521.113	680.38
521.329	417.38
521.544	335.38
521.76	364.38
521.975	326.38
522.19	324.38
522.406	318.38
522.621	331.38
522.836	340.38
523.052	335.38
523.267	291.38
523.482	279.38
523.698	305.38
523.913	303.38
524.128	295.38
524.343	277.38
524.559	294.38
524.774	259.38
524.989	267.38
525.204	294.38
525.419	310.38
525.634	290.38
525.849	274.38
526.064	287.38
526.28	286.38
526.495	331.38
526.71	378.38
526.925	311.38
527.14	332.38
527.355	323.38
527.57	264.38
527.785	282.38
527.999	278.38
528.214	278.38
528.429	264.38
528.644	257.38
528.859	260.38
529.074	256.38
529.289	259.38
529.503	282.38
529.718	254.38
529.933	304.38
530.148	317.38
530.363	266.38
530.577	282.38
530.792	264.38
531.007	279.38
531.221	254.38
531.436	262.38
531.651	255.38
531.865	268.38
532.08	262.38
532.295	256.38
532.509	261.38
532.724	262.38
532.938	300.38
533.153	351.38
533.367	317.38
533.582	281.38
533.796	262.38
534.011	268.38
534.225	252.38
534.44	264.38
534.654	269.38
534.868	318.38
535.083	291.38
535.297	281.38
535.511	269.38
535.726	291.38
535.94	266.38
536.154	244.38
536.369	250.38
536.583	252.38
536.797	258.38
537.011	248.38
537.225	258.38
537.44	281.38
537.654	242.38
537.868	254.38
538.082	254.38
538.296	238.38
538.51	262.38
538.724	256.38
538.938	268.38
539.153	234.38
539.367	250.38
539.581	254.38
539.795	265.38
540.009	292.38
540.222	253.38
540.436	269.38
540.65	284.38
540.864	274.38
541.078	279.38
541.292	346.38
541.506	276.38
541.72	263.38
541.934	273.38
542.147	248.38
542.361	262.38
542.575	266.38
542.789	242.38
543.002	258.38
543.216	264.38
543.43	244.38
543.644	243.38
543.857	252.38
544.071	256.38
544.285	238.38
544.498	228.38
544.712	237.38
544.925	255.38
545.139	236.38
545.352	241.38
545.566	242.38
545.779	274.38
545.993	242.38
546.206	236.38
546.42	229.38
546.633	232.38
546.847	218.38
547.06	222.38
547.274	227.38
547.487	222.38
547.7	235.38
547.914	240.38
548.127	291.38
548.34	271.38
548.554	236.38
548.767	239.38
548.98	254.38
549.193	241.38
549.407	262.38
549.62	274.38
549.833	276.38
550.046	291.38
550.259	282.38
550.473	256.38
550.686	254.38
550.899	252.38
551.112	244.38
551.325	270.38
551.538	287.38
551.751	244.38
551.964	215.38
552.177	246.38
552.39	223.38
552.603	244.38
552.816	243.38
553.029	241.38
553.242	248.38
553.455	250.38
553.667	263.38
553.88	249.38
554.093	237.38
554.306	222.38
554.519	221.38
554.732	215.38
554.944	213.38
555.157	215.38
555.37	210.38
555.583	217.38
555.795	213.38
556.008	211.38
556.221	209.38
556.433	208.38
556.646	198.38
556.859	234.38
557.071	218.38
557.284	212.38
557.496	218.38
557.709	206.38
557.921	209.38
558.134	208.38
558.346	190.38
558.559	215.38
558.771	197.38
558.984	222.38
559.196	207.38
559.409	201.38
559.621	195.38
559.833	199.38
560.046	197.38
560.258	191.38
560.47	212.38
560.683	192.38
560.895	186.38
561.107	202.38
561.32	199.38
561.532	199.38
561.744	192.38
561.956	212.38
562.168	210.38
562.381	206.38
562.593	213.38
562.805	200.38
563.017	207.38
563.229	200.38
563.441	196.38
563.653	198.38
563.865	202.38
564.077	204.38
564.289	203.38
564.501	201.38
564.713	217.38
564.925	211.38
565.137	198.38
565.349	212.38
565.561	195.38
565.773	200.38
565.985	223.38
566.197	239.38
566.408	229.38
566.62	245.38
566.832	243.38
567.044	239.38
567.255	272.38
567.467	298.38
567.679	258.38
567.891	283.38
568.102	278.38
568.314	288.38
568.526	270.38
568.737	261.38
568.949	254.38
569.161	224.38
569.372	210.38
569.584	208.38
569.795	215.38
570.007	204.38
570.218	208.38
570.43	207.38
570.641	211.38
570.853	198.38
571.064	211.38
571.276	214.38
571.487	201.38
571.698	198.38
571.91	196.38
572.121	194.38
572.333	181.38
572.544	174.38
572.755	183.38
572.966	186.38
573.178	194.38
573.389	202.38
573.6	187.38
573.811	204.38
574.023	183.38
574.234	166.38
574.445	189.38
574.656	188.38
574.867	195.38
575.078	192.38
575.289	205.38
575.501	204.38
575.712	185.38
575.923	178.38
576.134	164.38
576.345	184.38
576.556	184.38
576.767	150.38
576.978	174.38
577.188	163.38
577.399	166.38
577.61	174.38
577.821	171.38
578.032	189.38
578.243	184.38
578.454	180.38
578.665	179.38
578.875	174.38
579.086	174.38
579.297	174.38
579.508	190.38
579.718	177.38
579.929	191.38
580.14	158.38
580.35	163.38
580.561	141.38
580.772	154.38
580.982	171.38
581.193	166.38
581.403	172.38
581.614	170.38
581.825	147.38
582.035	173.38
582.246	160.38
582.456	177.38
582.667	164.38
582.877	163.38
583.087	159.38
583.298	164.38
583.508	154.38
583.719	164.38
583.929	151.38
584.139	165.38
584.35	174.38
584.56	165.38
584.77	168.38
584.981	179.38
585.191	157.38
585.401	166.38
585.611	158.38
585.821	176.38
586.032	181.38
586.242	151.38
586.452	171.38
586.662	163.38
586.872	163.38
587.082	162.38
587.292	159.38
587.502	160.38
587.713	164.38
587.923	172.38
588.133	163.38
588.343	155.38
588.553	167.38
588.762	162.38
588.972	156.38
589.182	146.38
589.392	160.38
589.602	143.38
589.812	156.38
590.022	170.38
590.232	175.38
590.441	167.38
590.651	181.38
590.861	166.38
591.071	168.38
591.281	158.38
591.49	161.38
591.7	178.38
591.91	154.38
592.119	161.38
592.329	164.38
592.539	157.38
592.748	166.38
592.958	175.38
593.167	183.38
593.377	170.38
593.587	183.38
593.796	165.38
594.006	174.38
594.215	192.38
594.424	175.38
594.634	167.38
594.843	178.38
595.053	164.38
595.262	164.38
595.472	155.38
595.681	157.38
595.89	167.38
596.1	163.38
596.309	144.38
596.518	153.38
596.727	142.38
596.937	137.38
597.146	148.38
597.355	163.38
597.564	171.38
597.774	144.38
597.983	150.38
598.192	163.38
598.401	159.38
598.61	146.38
598.819	144.38
599.028	148.38
599.237	144.38
599.446	147.38
599.655	145.38
599.864	133.38
600.073	152.38
600.282	151.38
600.491	153.38
600.7	149.38
600.909	129.38
601.118	129.38
601.327	147.38
601.536	162.38
601.745	142.38
601.953	152.38
602.162	149.38
602.371	149.38
602.58	143.38
602.789	139.38
602.997	147.38
603.206	142.38
603.415	143.38
603.623	145.38
603.832	143.38
604.041	134.38
604.249	143.38
604.458	145.38
604.666	155.38
604.875	127.38
605.084	148.38
605.292	136.38
605.501	130.38
605.709	151.38
605.918	154.38
606.126	124.38
606.334	138.38
606.543	141.38
606.751	142.38
606.96	136.38
607.168	151.38
607.376	137.38
607.585	155.38
607.793	131.38
608.001	136.38
608.21	123.38
608.418	121.38
608.626	125.38
608.834	136.38
609.043	128.38
609.251	142.38
609.459	131.38
609.667	135.38
609.875	143.38
610.083	130.38
610.291	133.38
610.499	136.38
610.707	128.38
610.916	118.38
611.124	140.38
611.332	130.38
611.54	150.38
611.748	146.38
611.955	141.38
612.163	131.38
612.371	150.38
612.579	122.38
612.787	120.38
612.995	149.38
613.203	133.38
613.411	135.38
613.618	129.38
613.826	136.38
614.034	139.38
614.242	130.38
614.449	144.38
614.657	145.38
614.865	134.38
615.072	156.38
615.28	139.38
615.488	133.38
615.695	129.38
615.903	129.38
616.111	144.38
616.318	142.38
616.526	131.38
616.733	135.38
616.941	139.38
617.148	128.38
617.356	142.38
617.563	133.38
617.771	131.38
617.978	138.38
618.185	138.38
618.393	123.38
618.6	130.38
618.807	141.38
619.015	117.38
619.222	135.38
619.429	148.38
619.637	134.38
619.844	118.38
620.051	119.38
620.258	123.38
620.466	122.38
620.673	127.38
620.88	122.38
621.087	129.38
621.294	131.38
621.501	115.38
621.708	135.38
621.915	131.38
622.122	116.38
622.329	116.38
622.536	124.38
622.743	121.38
622.95	131.38
623.157	142.38
623.364	124.38
623.571	116.38
623.778	123.38
623.985	147.38
624.192	134.38
624.399	135.38
624.606	129.38
624.812	126.38
625.019	139.38
625.226	127.38
625.433	122.38
625.639	120.38
625.846	126.38
626.053	118.38
626.259	117.38
626.466	115.38
626.673	123.38
626.879	125.38
627.086	111.38
627.293	119.38
627.499	122.38
627.706	135.38
627.912	127.38
628.119	127.38
628.325	120.38
628.532	120.38
628.738	112.38
628.945	109.38
629.151	124.38
629.357	116.38
629.564	122.38
629.77	119.38
629.976	132.38
630.183	120.38
630.389	121.38
630.595	99.38
630.802	116.38
631.008	123.38
631.214	140.38
631.42	135.38
631.627	130.38
631.833	110.38
632.039	129.38
632.245	115.38
632.451	114.38
632.657	107.38
632.863	124.38
633.069	126.38
633.275	117.38
633.481	114.38
633.688	113.38
633.893	115.38
634.099	119.38
634.305	111.38
634.511	112.38
634.717	119.38
634.923	107.38
635.129	108.38
635.335	103.38
635.541	119.38
635.747	112.38
635.952	109.38
636.158	109.38
636.364	124.38
636.57	122.38
636.775	106.38
636.981	122.38
637.187	125.38
637.392	112.38
637.598	104.38
637.804	120.38
638.009	110.38
638.215	118.38
638.421	114.38
638.626	110.38
638.832	113.38
639.037	111.38
639.243	118.38
639.448	130.38
639.654	108.38
639.859	106.38
640.065	117.38
640.27	102.38
640.475	116.38
640.681	100.38
640.886	117.38
641.091	114.38
641.297	117.38
641.502	102.38
641.707	101.38
641.913	110.38
642.118	118.38
642.323	119.38
642.528	119.38
642.733	100.38
642.939	106.38
643.144	114.38
643.349	108.38
643.554	109.38
643.759	116.38
643.964	105.38
644.169	100.38
644.374	99.38
644.579	110.38
644.784	117.38
644.989	112.38
645.194	106.38
645.399	118.38
645.604	110.38
645.809	102.38
646.014	101.38
646.219	112.38
646.423	103.38
646.628	115.38
646.833	112.38
647.038	110.38
647.243	117.38
647.447	117.38
647.652	117.38
647.857	104.38
648.062	110.38
648.266	118.38
648.471	111.38
648.676	123.38
648.88	108.38
649.085	102.38
649.289	96.38
649.494	118.38
649.698	109.38
649.903	121.38
650.107	110.38
650.312	113.38
650.516	118.38
650.721	110.38
650.925	99.38
651.13	106.38
651.334	98.38
651.539	94.38
651.743	122.38
651.947	106.38
652.152	93.38
652.356	107.38
652.56	93.38
652.764	103.38
652.969	99.38
653.173	108.38
653.377	92.38
653.581	111.38
653.785	106.38
653.99	95.38
654.194	93.38
654.398	99.38
654.602	85.38
654.806	96.38
655.01	102.38
655.214	102.38
655.418	93.38
655.622	98.38
655.826	91.38
656.03	101.38
656.234	95.38
656.438	98.38
656.642	110.38
656.846	84.38
657.049	89.38
657.253	109.38
657.457	102.38
657.661	91.38
657.865	98.38
658.068	110.38
658.272	95.38
658.476	108.38
658.68	100.38
658.883	99.38
659.087	96.38
659.291	92.38
659.494	72.38
659.698	85.38
659.901	82.38
660.105	86.38
660.309	79.38
660.512	92.38
660.716	84.38
660.919	84.38
661.123	88.38
661.326	77.38
661.53	83.38
661.733	87.38
661.936	74.38
662.14	72.38
662.343	87.38
662.546	80.38
662.75	88.38
662.953	83.38
663.156	74.38
663.36	85.38
663.563	90.38
663.766	84.38
663.969	80.38
664.173	68.38
664.376	74.38
664.579	83.38
664.782	84.38
664.985	81.38
665.188	77.38
665.391	79.38
665.594	88.38
665.797	92.38
666	73.38
666.203	82.38
666.406	78.38
666.609	79.38
666.812	61.38
667.015	72.38
667.218	80.38
667.421	95.38
667.624	86.38
667.827	88.38
668.03	78.38
668.232	83.38
668.435	77.38
668.638	76.38
668.841	76.38
669.043	71.38
669.246	83.38
669.449	83.38
669.651	87.38
669.854	85.38
670.057	69.38
670.259	87.38
670.462	81.38
670.665	86.38
670.867	69.38
671.07	83.38
671.272	87.38
671.475	81.38
671.677	71.38
671.88	90.38
672.082	78.38
672.284	71.38
672.487	67.38
672.689	78.38
672.892	76.38
