Data from NickelSpatula.Lamp.E10.P2_HRD10591_11-59-32-525.txt Node
Date: Tue Jul 23 11:59:32 EDT 2019
User: cochatt
Spectrometer: HR+D1059
Trigger mode: 1
Integration Time (sec): 1.000000E-1
Scans to average: 1
Electric dark correction enabled: true
Nonlinearity correction enabled: false
Boxcar width: 0
XAxis mode: Wavelengths
Number of Pixels in Spectrum: 2048
>>>>>Begin Spectral Data<<<<<
223.165	-12.25
223.4	-12.25
223.635	-12.25
223.869	-22.25
224.104	-15.25
224.338	-22.25
224.573	-14.25
224.808	-11.25
225.042	-17.25
225.277	-12.25
225.511	-1.25
225.746	3.75
225.98	5.75
226.215	8.75
226.449	21.75
226.683	25.75
226.918	33.75
227.152	28.75
227.387	6.75
227.621	33.75
227.856	42.75
228.09	61.75
228.324	47.75
228.559	75.75
228.793	69.75
229.027	168.75
229.262	157.75
229.496	155.75
229.73	189.75
229.964	194.75
230.199	226.75
230.433	209.75
230.667	201.75
230.901	206.75
231.136	209.75
231.37	214.75
231.604	221.75
231.838	247.75
232.072	239.75
232.306	247.75
232.541	263.75
232.775	255.75
233.009	271.75
233.243	292.75
233.477	327.75
233.711	359.75
233.945	346.75
234.179	346.75
234.413	358.75
234.647	403.75
234.881	475.75
235.115	425.75
235.349	419.75
235.583	370.75
235.817	349.75
236.051	385.75
236.285	433.75
236.519	451.75
236.753	439.75
236.987	440.75
237.221	422.75
237.455	418.75
237.689	433.75
237.922	460.75
238.156	490.75
238.39	567.75
238.624	680.75
238.858	591.75
239.091	514.75
239.325	501.75
239.559	470.75
239.793	534.75
240.027	629.75
240.26	616.75
240.494	594.75
240.728	603.75
240.961	704.75
241.195	648.75
241.429	627.75
241.662	629.75
241.896	537.75
242.13	479.75
242.363	444.75
242.597	483.75
242.83	533.75
243.064	563.75
243.298	590.75
243.531	643.75
243.765	633.75
243.998	633.75
244.232	602.75
244.465	599.75
244.699	596.75
244.932	666.75
245.166	648.75
245.399	531.75
245.633	562.75
245.866	585.75
246.099	604.75
246.333	705.75
246.566	778.75
246.8	771.75
247.033	713.75
247.266	686.75
247.5	705.75
247.733	695.75
247.966	658.75
248.2	695.75
248.433	757.75
248.666	830.75
248.899	851.75
249.133	885.75
249.366	1004.75
249.599	1030.75
249.832	925.75
250.066	818.75
250.299	847.75
250.532	830.75
250.765	799.75
250.998	740.75
251.231	716.75
251.465	813.75
251.698	829.75
251.931	782.75
252.164	849.75
252.397	954.75
252.63	1079.75
252.863	1146.75
253.096	1205.75
253.329	1168.75
253.562	1113.75
253.795	1237.75
254.028	1368.75
254.261	1409.75
254.494	1267.75
254.727	1121.75
254.96	1146.75
255.193	1225.75
255.426	1140.75
255.659	864.75
255.892	776.75
256.124	863.75
256.357	1039.75
256.59	1203.75
256.823	1143.75
257.056	967.75
257.289	911.75
257.521	978.75
257.754	1145.75
257.987	1285.75
258.22	1077.75
258.452	1003.75
258.685	1157.75
258.918	1298.75
259.151	1234.75
259.383	1317.75
259.616	1515.75
259.849	1557.75
260.081	1743.75
260.314	1907.75
260.547	1468.75
260.779	1459.75
261.012	1690.75
261.244	1575.75
261.477	1635.75
261.71	1537.75
261.942	1276.75
262.175	1281.75
262.407	1236.75
262.64	1246.75
262.872	1470.75
263.105	1653.75
263.337	1742.75
263.57	1541.75
263.802	1046.75
264.035	906.75
264.267	853.75
264.499	778.75
264.732	709.75
264.964	689.75
265.197	735.75
265.429	791.75
265.661	795.75
265.894	827.75
266.126	915.75
266.358	1001.75
266.591	1234.75
266.823	1455.75
267.055	1381.75
267.287	1249.75
267.52	1236.75
267.752	1313.75
267.984	1437.75
268.216	1367.75
268.448	1126.75
268.681	1074.75
268.913	1206.75
269.145	1291.75
269.377	1306.75
269.609	1291.75
269.841	1224.75
270.073	1288.75
270.306	1346.75
270.538	1355.75
270.77	1386.75
271.002	1385.75
271.234	1454.75
271.466	1491.75
271.698	1456.75
271.93	1418.75
272.162	1438.75
272.394	1417.75
272.626	1390.75
272.858	1453.75
273.09	1483.75
273.322	1331.75
273.553	1288.75
273.785	1525.75
274.017	1976.75
274.249	2463.75
274.481	2548.75
274.713	2742.75
274.945	3169.75
275.176	3277.75
275.408	2869.75
275.64	2629.75
275.872	2617.75
276.104	2215.75
276.335	1910.75
276.567	1885.75
276.799	1952.75
277.031	2032.75
277.262	1635.75
277.494	1230.75
277.726	1205.75
277.957	1298.75
278.189	1517.75
278.421	1479.75
278.652	1431.75
278.884	1365.75
279.115	1295.75
279.347	1185.75
279.579	1194.75
279.81	1224.75
280.042	1201.75
280.273	1240.75
280.505	1144.75
280.736	960.75
280.968	1011.75
281.199	1096.75
281.431	1237.75
281.662	1219.75
281.894	1143.75
282.125	1215.75
282.356	1354.75
282.588	1385.75
282.819	1254.75
283.051	1387.75
283.282	1667.75
283.513	1950.75
283.745	2130.75
283.976	2149.75
284.207	1989.75
284.439	2093.75
284.67	1999.75
284.901	1775.75
285.132	1917.75
285.364	2005.75
285.595	1883.75
285.826	1996.75
286.057	2045.75
286.288	1949.75
286.52	1992.75
286.751	2139.75
286.982	2065.75
287.213	1817.75
287.444	1770.75
287.675	1838.75
287.906	1805.75
288.138	1541.75
288.369	1348.75
288.6	1309.75
288.831	1328.75
289.062	1528.75
289.293	1690.75
289.524	1604.75
289.755	1567.75
289.986	1631.75
290.217	1442.75
290.448	1123.75
290.679	947.75
290.91	912.75
291.141	925.75
291.371	960.75
291.602	968.75
291.833	962.75
292.064	1064.75
292.295	1207.75
292.526	1405.75
292.757	1463.75
292.987	1508.75
293.218	1573.75
293.449	1598.75
293.68	1686.75
293.91	1579.75
294.141	1638.75
294.372	1516.75
294.603	1409.75
294.833	1575.75
295.064	1783.75
295.295	1723.75
295.525	1302.75
295.756	1155.75
295.987	989.75
296.217	1013.75
296.448	1057.75
296.679	1137.75
296.909	1288.75
297.14	1332.75
297.37	1463.75
297.601	1337.75
297.831	1163.75
298.062	1262.75
298.292	1437.75
298.523	1591.75
298.753	1777.75
298.984	1604.75
299.214	1243.75
299.445	1101.75
299.675	1071.75
299.905	1045.75
300.136	1098.75
300.366	1201.75
300.597	1160.75
300.827	1045.75
301.057	989.75
301.288	1042.75
301.518	1082.75
301.748	1217.75
301.979	1367.75
302.209	1461.75
302.439	1483.75
302.669	1273.75
302.9	1231.75
303.13	1157.75
303.36	1095.75
303.59	1054.75
303.82	1100.75
304.051	1248.75
304.281	1345.75
304.511	1300.75
304.741	1150.75
304.971	1237.75
305.201	1282.75
305.431	1207.75
305.661	1059.75
305.891	1081.75
306.121	1084.75
306.352	939.75
306.582	889.75
306.812	862.75
307.042	877.75
307.272	771.75
307.502	790.75
307.731	885.75
307.961	921.75
308.191	865.75
308.421	813.75
308.651	834.75
308.881	778.75
309.111	775.75
309.341	828.75
309.571	937.75
309.8	904.75
310.03	922.75
310.26	1016.75
310.49	977.75
310.72	862.75
310.949	858.75
311.179	882.75
311.409	920.75
311.639	1099.75
311.868	1384.75
312.098	1735.75
312.328	1905.75
312.557	1854.75
312.787	1857.75
313.017	1651.75
313.246	1778.75
313.476	1947.75
313.706	1615.75
313.935	1293.75
314.165	1053.75
314.394	969.75
314.624	984.75
314.853	995.75
315.083	1066.75
315.312	1029.75
315.542	1024.75
315.771	925.75
316.001	875.75
316.23	848.75
316.46	841.75
316.689	869.75
316.919	882.75
317.148	919.75
317.377	868.75
317.607	913.75
317.836	961.75
318.065	1138.75
318.295	1237.75
318.524	1133.75
318.753	963.75
318.983	957.75
319.212	948.75
319.441	1008.75
319.67	1131.75
319.9	1201.75
320.129	1171.75
320.358	982.75
320.587	949.75
320.816	1041.75
321.046	1213.75
321.275	1349.75
321.504	1350.75
321.733	1316.75
321.962	1206.75
322.191	1161.75
322.42	1122.75
322.649	1160.75
322.878	1212.75
323.108	1217.75
323.337	1119.75
323.566	1095.75
323.795	1084.75
324.024	1029.75
324.253	984.75
324.482	971.75
324.71	1106.75
324.939	1217.75
325.168	1149.75
325.397	922.75
325.626	915.75
325.855	934.75
326.084	943.75
326.313	880.75
326.542	841.75
326.77	871.75
326.999	902.75
327.228	993.75
327.457	1000.75
327.686	1010.75
327.914	930.75
328.143	837.75
328.372	820.75
328.6	879.75
328.829	872.75
329.058	911.75
329.287	889.75
329.515	901.75
329.744	878.75
329.972	847.75
330.201	795.75
330.43	834.75
330.658	941.75
330.887	1085.75
331.115	1006.75
331.344	994.75
331.572	977.75
331.801	892.75
332.03	850.75
332.258	871.75
332.486	942.75
332.715	983.75
332.943	905.75
333.172	900.75
333.4	937.75
333.629	1024.75
333.857	1114.75
334.085	1105.75
334.314	1090.75
334.542	1055.75
334.771	959.75
334.999	957.75
335.227	926.75
335.455	950.75
335.684	1021.75
335.912	1189.75
336.14	1310.75
336.369	1260.75
336.597	1216.75
336.825	1355.75
337.053	1549.75
337.281	1232.75
337.51	991.75
337.738	990.75
337.966	1045.75
338.194	1177.75
338.422	1095.75
338.65	986.75
338.878	894.75
339.106	924.75
339.334	1015.75
339.562	1119.75
339.79	1014.75
340.018	964.75
340.246	1082.75
340.474	1219.75
340.702	1272.75
340.93	1337.75
341.158	1344.75
341.386	1119.75
341.614	1137.75
341.842	1081.75
342.07	1169.75
342.298	1332.75
342.526	1412.75
342.754	1212.75
342.981	1110.75
343.209	1049.75
343.437	1139.75
343.665	1213.75
343.893	1207.75
344.12	1387.75
344.348	1619.75
344.576	1443.75
344.804	1215.75
345.031	1046.75
345.259	998.75
345.487	1013.75
345.714	1042.75
345.942	1106.75
346.17	1212.75
346.397	1147.75
346.625	990.75
346.853	989.75
347.08	959.75
347.308	1024.75
347.535	1127.75
347.763	1140.75
347.99	983.75
348.218	921.75
348.445	978.75
348.673	971.75
348.9	970.75
349.128	1079.75
349.355	1108.75
349.583	1041.75
349.81	1005.75
350.037	947.75
350.265	831.75
350.492	773.75
350.72	819.75
350.947	849.75
351.174	879.75
351.402	951.75
351.629	968.75
351.856	980.75
352.083	906.75
352.311	1005.75
352.538	1144.75
352.765	1160.75
352.992	1044.75
353.22	984.75
353.447	989.75
353.674	972.75
353.901	972.75
354.128	971.75
354.355	1021.75
354.583	999.75
354.81	969.75
355.037	1021.75
355.264	1007.75
355.491	1104.75
355.718	1215.75
355.945	1145.75
356.172	1137.75
356.399	1111.75
356.626	1391.75
356.853	1669.75
357.08	1755.75
357.307	1787.75
357.534	1409.75
357.761	1405.75
357.988	1817.75
358.215	2070.75
358.441	1990.75
358.668	1662.75
358.895	1516.75
359.122	1242.75
359.349	1268.75
359.576	1346.75
359.802	1100.75
360.029	963.75
360.256	1070.75
360.483	1332.75
360.709	1675.75
360.936	1682.75
361.163	1479.75
361.39	1150.75
361.616	1064.75
361.843	1273.75
362.07	1569.75
362.296	1385.75
362.523	1109.75
362.749	963.75
362.976	1009.75
363.203	1250.75
363.429	1341.75
363.656	1093.75
363.882	1012.75
364.109	1028.75
364.335	997.75
364.562	1000.75
364.788	1166.75
365.015	1370.75
365.241	1217.75
365.468	953.75
365.694	844.75
365.92	801.75
366.147	783.75
366.373	775.75
366.599	780.75
366.826	815.75
367.052	834.75
367.278	874.75
367.505	839.75
367.731	916.75
367.957	1007.75
368.184	1042.75
368.41	1041.75
368.636	1059.75
368.862	1078.75
369.089	1050.75
369.315	912.75
369.541	925.75
369.767	870.75
369.993	840.75
370.219	866.75
370.445	933.75
370.672	1040.75
370.898	1097.75
371.124	1104.75
371.35	970.75
371.576	891.75
371.802	994.75
372.028	1205.75
372.254	1408.75
372.48	1165.75
372.706	1031.75
372.932	1112.75
373.158	1153.75
373.384	1407.75
373.61	1867.75
373.835	1936.75
374.061	1403.75
374.287	1191.75
374.513	1434.75
374.739	1751.75
374.965	1761.75
375.191	1719.75
375.416	1203.75
375.642	1026.75
375.868	1237.75
376.094	1385.75
376.319	1199.75
376.545	1335.75
376.771	1394.75
376.997	1185.75
377.222	866.75
377.448	736.75
377.674	756.75
377.899	768.75
378.125	738.75
378.35	766.75
378.576	784.75
378.802	859.75
379.027	971.75
379.253	913.75
379.478	915.75
379.704	1059.75
379.929	1114.75
380.155	1112.75
380.38	952.75
380.606	1001.75
380.831	1120.75
381.057	1026.75
381.282	1008.75
381.507	1187.75
381.733	1513.75
381.958	1587.75
382.184	1710.75
382.409	1775.75
382.634	1715.75
382.86	1787.75
383.085	1472.75
383.31	1160.75
383.535	1233.75
383.761	1271.75
383.986	1187.75
384.211	1449.75
384.436	1414.75
384.662	1048.75
384.887	1005.75
385.112	1071.75
385.337	1089.75
385.562	1009.75
385.787	1128.75
386.013	1230.75
386.238	1272.75
386.463	1047.75
386.688	1013.75
386.913	970.75
387.138	881.75
387.363	964.75
387.588	1007.75
387.813	1019.75
388.038	1119.75
388.263	999.75
388.488	985.75
388.713	1145.75
388.938	1241.75
389.163	1050.75
389.387	922.75
389.612	935.75
389.837	952.75
390.062	988.75
390.287	995.75
390.512	1017.75
390.736	947.75
390.961	897.75
391.186	845.75
391.411	859.75
391.636	855.75
391.86	935.75
392.085	1011.75
392.31	1017.75
392.534	967.75
392.759	920.75
392.984	1003.75
393.208	984.75
393.433	884.75
393.658	817.75
393.882	793.75
394.107	774.75
394.331	814.75
394.556	801.75
394.78	803.75
395.005	843.75
395.229	884.75
395.454	915.75
395.678	893.75
395.903	922.75
396.127	843.75
396.352	875.75
396.576	992.75
396.801	1002.75
397.025	1121.75
397.249	1161.75
397.474	969.75
397.698	925.75
397.922	970.75
398.147	926.75
398.371	908.75
398.595	960.75
398.82	965.75
399.044	936.75
399.268	989.75
399.492	1071.75
399.717	1071.75
399.941	1118.75
400.165	1060.75
400.389	1043.75
400.613	1115.75
400.837	1023.75
401.062	923.75
401.286	895.75
401.51	914.75
401.734	907.75
401.958	897.75
402.182	885.75
402.406	909.75
402.63	917.75
402.854	936.75
403.078	1071.75
403.302	1307.75
403.526	1378.75
403.75	1189.75
403.974	1049.75
404.198	1096.75
404.422	1192.75
404.645	1444.75
404.869	1629.75
405.093	1206.75
405.317	987.75
405.541	990.75
405.765	999.75
405.988	1013.75
406.212	1115.75
406.436	1309.75
406.66	1493.75
406.883	1169.75
407.107	1186.75
407.331	1387.75
407.555	1344.75
407.778	1119.75
408.002	1069.75
408.226	1072.75
408.449	1074.75
408.673	1035.75
408.896	938.75
409.12	934.75
409.344	930.75
409.567	906.75
409.791	881.75
410.014	860.75
410.238	886.75
410.461	898.75
410.685	884.75
410.908	882.75
411.132	925.75
411.355	934.75
411.578	943.75
411.802	924.75
412.025	981.75
412.249	1001.75
412.472	967.75
412.695	954.75
412.919	971.75
413.142	970.75
413.365	1066.75
413.589	1028.75
413.812	946.75
414.035	898.75
414.258	950.75
414.482	1053.75
414.705	1081.75
414.928	925.75
415.151	905.75
415.374	891.75
415.597	964.75
415.821	913.75
416.044	893.75
416.267	867.75
416.49	882.75
416.713	858.75
416.936	858.75
417.159	836.75
417.382	902.75
417.605	918.75
417.828	935.75
418.051	905.75
418.274	927.75
418.497	957.75
418.72	931.75
418.943	967.75
419.166	1017.75
419.389	1089.75
419.611	1012.75
419.834	1023.75
420.057	1143.75
420.28	1129.75
420.503	1058.75
420.726	925.75
420.948	881.75
421.171	902.75
421.394	891.75
421.617	863.75
421.839	903.75
422.062	945.75
422.285	925.75
422.507	948.75
422.73	981.75
422.953	996.75
423.175	948.75
423.398	947.75
423.621	1005.75
423.843	1048.75
424.066	964.75
424.288	950.75
424.511	918.75
424.733	909.75
424.956	979.75
425.178	1065.75
425.401	1264.75
425.623	1443.75
425.846	1169.75
426.068	1011.75
426.291	1161.75
426.513	1063.75
426.735	954.75
426.958	985.75
427.18	1178.75
427.402	1551.75
427.625	1495.75
427.847	1202.75
428.069	904.75
428.292	877.75
428.514	918.75
428.736	855.75
428.958	968.75
429.181	1161.75
429.403	1007.75
429.625	895.75
429.847	869.75
430.069	900.75
430.292	906.75
430.514	874.75
430.736	981.75
430.958	1197.75
431.18	1091.75
431.402	853.75
431.624	805.75
431.846	814.75
432.068	796.75
432.29	829.75
432.512	925.75
432.734	1253.75
432.956	1144.75
433.178	881.75
433.4	829.75
433.622	863.75
433.844	898.75
434.066	952.75
434.287	932.75
434.509	891.75
434.731	913.75
434.953	874.75
435.175	936.75
435.397	1023.75
435.618	886.75
435.84	822.75
436.062	837.75
436.284	811.75
436.505	800.75
436.727	788.75
436.949	811.75
437.17	863.75
437.392	853.75
437.614	833.75
437.835	847.75
438.057	864.75
438.278	1011.75
438.5	1415.75
438.721	1401.75
438.943	977.75
439.165	794.75
439.386	767.75
439.608	792.75
439.829	791.75
440.05	820.75
440.272	840.75
440.493	1034.75
440.715	1270.75
440.936	984.75
441.158	865.75
441.379	866.75
441.6	974.75
441.822	1035.75
442.043	898.75
442.264	877.75
442.486	871.75
442.707	861.75
442.928	851.75
443.149	880.75
443.371	898.75
443.592	936.75
443.813	908.75
444.034	886.75
444.255	911.75
444.476	944.75
444.698	938.75
444.919	943.75
445.14	1056.75
445.361	1041.75
445.582	933.75
445.803	938.75
446.024	926.75
446.245	954.75
446.466	906.75
446.687	853.75
446.908	871.75
447.129	850.75
447.35	823.75
447.571	817.75
447.792	770.75
448.013	772.75
448.234	767.75
448.455	779.75
448.675	808.75
448.896	804.75
449.117	797.75
449.338	815.75
449.559	829.75
449.779	855.75
450	856.75
450.221	851.75
450.442	816.75
450.662	798.75
450.883	797.75
451.104	821.75
451.324	800.75
451.545	808.75
451.766	841.75
451.986	782.75
452.207	769.75
452.428	767.75
452.648	779.75
452.869	802.75
453.089	877.75
453.31	849.75
453.53	752.75
453.751	737.75
453.971	735.75
454.192	788.75
454.412	789.75
454.633	751.75
454.853	782.75
455.073	738.75
455.294	729.75
455.514	746.75
455.734	779.75
455.955	839.75
456.175	844.75
456.395	737.75
456.616	723.75
456.836	721.75
457.056	715.75
457.276	695.75
457.497	718.75
457.717	737.75
457.937	717.75
458.157	727.75
458.377	725.75
458.598	752.75
458.818	739.75
459.038	799.75
459.258	837.75
459.478	859.75
459.698	905.75
459.918	911.75
460.138	892.75
460.358	879.75
460.578	859.75
460.798	882.75
461.018	931.75
461.238	868.75
461.458	864.75
461.678	905.75
461.898	918.75
462.118	915.75
462.338	935.75
462.558	961.75
462.777	985.75
462.997	1027.75
463.217	1034.75
463.437	1028.75
463.657	1022.75
463.876	951.75
464.096	950.75
464.316	989.75
464.536	965.75
464.755	1021.75
464.975	1023.75
465.195	985.75
465.414	998.75
465.634	973.75
465.854	950.75
466.073	888.75
466.293	872.75
466.512	906.75
466.732	1008.75
466.951	1046.75
467.171	925.75
467.391	888.75
467.61	854.75
467.829	943.75
468.049	956.75
468.268	887.75
468.488	874.75
468.707	927.75
468.927	1057.75
469.146	1141.75
469.365	1038.75
469.585	945.75
469.804	1021.75
470.023	1112.75
470.243	959.75
470.462	921.75
470.681	909.75
470.901	945.75
471.12	973.75
471.339	975.75
471.558	896.75
471.777	936.75
471.997	1021.75
472.216	1143.75
472.435	1110.75
472.654	982.75
472.873	949.75
473.092	998.75
473.311	1054.75
473.53	967.75
473.749	944.75
473.968	999.75
474.187	991.75
474.406	948.75
474.625	931.75
474.844	965.75
475.063	1045.75
475.282	1035.75
475.501	1078.75
475.72	1140.75
475.939	1078.75
476.158	1109.75
476.377	1246.75
476.596	1437.75
476.814	1523.75
477.033	1269.75
477.252	1057.75
477.471	959.75
477.69	1017.75
477.908	1099.75
478.127	1134.75
478.346	1053.75
478.564	1143.75
478.783	1106.75
479.002	1144.75
479.22	1327.75
479.439	1396.75
479.658	1217.75
479.876	1112.75
480.095	1191.75
480.313	1233.75
480.532	1114.75
480.751	1089.75
480.969	1109.75
481.188	1262.75
481.406	1306.75
481.624	1245.75
481.843	1127.75
482.061	1093.75
482.28	1218.75
482.498	1484.75
482.717	1373.75
482.935	1201.75
483.153	1146.75
483.372	1087.75
483.59	1059.75
483.808	1043.75
484.027	1020.75
484.245	1022.75
484.463	967.75
484.681	1035.75
484.9	1098.75
485.118	1199.75
485.336	1102.75
485.554	1049.75
485.772	1096.75
485.99	1184.75
486.209	1216.75
486.427	1238.75
486.645	1195.75
486.863	1246.75
487.081	1244.75
487.299	1363.75
487.517	1355.75
487.735	1214.75
487.953	1230.75
488.171	1274.75
488.389	1176.75
488.607	1148.75
488.825	1199.75
489.043	1270.75
489.261	1476.75
489.479	1585.75
489.696	1283.75
489.914	1176.75
490.132	1159.75
490.35	1126.75
490.568	1159.75
490.786	1135.75
491.003	1142.75
491.221	1163.75
491.439	1121.75
491.657	1128.75
491.874	1222.75
492.092	1518.75
492.31	1861.75
492.527	1793.75
492.745	1555.75
492.963	1334.75
493.18	1305.75
493.398	1313.75
493.615	1291.75
493.833	1255.75
494.05	1236.75
494.268	1261.75
494.485	1250.75
494.703	1199.75
494.92	1255.75
495.138	1222.75
495.355	1234.75
495.573	1240.75
495.79	1385.75
496.008	1880.75
496.225	1587.75
496.442	1367.75
496.66	1378.75
496.877	1403.75
497.094	1431.75
497.312	1332.75
497.529	1291.75
497.746	1304.75
497.963	1400.75
498.181	1519.75
498.398	1612.75
498.615	1677.75
498.832	1723.75
499.049	1690.75
499.267	1536.75
499.484	1598.75
499.701	1569.75
499.918	1722.75
500.135	1858.75
500.352	1886.75
500.569	1995.75
500.786	2046.75
501.003	2022.75
501.22	1800.75
501.437	1717.75
501.654	1667.75
501.871	1608.75
502.088	1661.75
502.305	1527.75
502.522	1527.75
502.739	1521.75
502.956	1362.75
503.172	1389.75
503.389	1309.75
503.606	1278.75
503.823	1282.75
504.04	1304.75
504.256	1312.75
504.473	1370.75
504.69	1397.75
504.907	1381.75
505.123	1395.75
505.34	1438.75
505.557	1421.75
505.773	1358.75
505.99	1288.75
506.207	1360.75
506.423	1262.75
506.64	1187.75
506.856	1257.75
507.073	1362.75
507.289	1322.75
507.506	1302.75
507.722	1479.75
507.939	1427.75
508.155	1439.75
508.372	1317.75
508.588	1297.75
508.805	1255.75
509.021	1199.75
509.238	1174.75
509.454	1189.75
509.67	1183.75
509.887	1199.75
510.103	1335.75
510.319	1303.75
510.536	1170.75
510.752	1109.75
510.968	1028.75
511.184	1009.75
511.401	1044.75
511.617	1011.75
511.833	1057.75
512.049	1056.75
512.265	1096.75
512.481	1143.75
512.698	1243.75
512.914	1348.75
513.13	1248.75
513.346	1139.75
513.562	1164.75
513.778	1175.75
513.994	1165.75
514.21	1271.75
514.426	1218.75
514.642	1163.75
514.858	1160.75
515.074	1206.75
515.29	1279.75
515.506	1437.75
515.721	1375.75
515.937	1250.75
516.153	1193.75
516.369	1145.75
516.585	1194.75
516.801	1423.75
517.016	1657.75
517.232	1572.75
517.448	1535.75
517.664	1375.75
517.879	1266.75
518.095	1275.75
518.311	1266.75
518.527	1340.75
518.742	1398.75
518.958	1469.75
519.173	1404.75
519.389	1383.75
519.605	1434.75
519.82	1518.75
520.036	1750.75
520.251	1727.75
520.467	1606.75
520.682	2467.75
520.898	2980.75
521.113	2833.75
521.329	1722.75
521.544	1566.75
521.76	1526.75
521.975	1346.75
522.19	1257.75
522.406	1330.75
522.621	1474.75
522.836	1518.75
523.052	1570.75
523.267	1283.75
523.482	1327.75
523.698	1409.75
523.913	1359.75
524.128	1228.75
524.343	1204.75
524.559	1204.75
524.774	1150.75
524.989	1181.75
525.204	1203.75
525.419	1340.75
525.634	1213.75
525.849	1236.75
526.064	1252.75
526.28	1298.75
526.495	1496.75
526.71	1555.75
526.925	1382.75
527.14	1443.75
527.355	1373.75
527.57	1159.75
527.785	1199.75
527.999	1101.75
528.214	1067.75
528.429	1092.75
528.644	1059.75
528.859	1031.75
529.074	1029.75
529.289	973.75
529.503	993.75
529.718	1021.75
529.933	1175.75
530.148	1223.75
530.363	1067.75
530.577	1013.75
530.792	987.75
531.007	1002.75
531.221	953.75
531.436	977.75
531.651	1009.75
531.865	1001.75
532.08	1025.75
532.295	992.75
532.509	1037.75
532.724	1189.75
532.938	1314.75
533.153	1573.75
533.367	1225.75
533.582	1191.75
533.796	1102.75
534.011	1051.75
534.225	1051.75
534.44	1064.75
534.654	1071.75
534.868	1297.75
535.083	1122.75
535.297	1017.75
535.511	1042.75
535.726	1144.75
535.94	1082.75
536.154	1002.75
536.369	986.75
536.583	986.75
536.797	1023.75
537.011	1062.75
537.225	1144.75
537.44	1207.75
537.654	1039.75
537.868	999.75
538.082	1042.75
538.296	1003.75
538.51	1098.75
538.724	1086.75
538.938	1063.75
539.153	1007.75
539.367	998.75
539.581	1000.75
539.795	1031.75
540.009	1155.75
540.222	1063.75
540.436	1047.75
540.65	1158.75
540.864	1163.75
541.078	1191.75
541.292	1353.75
541.506	1080.75
541.72	1078.75
541.934	1053.75
542.147	1032.75
542.361	1067.75
542.575	1092.75
542.789	1048.75
543.002	931.75
543.216	1080.75
543.43	985.75
543.644	967.75
543.857	941.75
544.071	969.75
544.285	957.75
544.498	914.75
544.712	926.75
544.925	1006.75
545.139	957.75
545.352	909.75
545.566	927.75
545.779	1056.75
545.993	970.75
546.206	871.75
546.42	887.75
546.633	857.75
546.847	845.75
547.06	871.75
547.274	846.75
547.487	882.75
547.7	971.75
547.914	1017.75
548.127	1096.75
548.34	1103.75
548.554	979.75
548.767	979.75
548.98	1081.75
549.193	984.75
549.407	1006.75
549.62	1194.75
549.833	1100.75
550.046	1177.75
550.259	1182.75
550.473	1040.75
550.686	993.75
550.899	1013.75
551.112	982.75
551.325	1076.75
551.538	1103.75
551.751	968.75
551.964	890.75
552.177	880.75
552.39	862.75
552.603	867.75
552.816	922.75
553.029	865.75
553.242	869.75
553.455	914.75
553.667	1027.75
553.88	970.75
554.093	870.75
554.306	819.75
554.519	809.75
554.732	813.75
554.944	789.75
555.157	777.75
555.37	771.75
555.583	783.75
555.795	780.75
556.008	786.75
556.221	787.75
556.433	775.75
556.646	785.75
556.859	788.75
557.071	842.75
557.284	826.75
557.496	830.75
557.709	826.75
557.921	781.75
558.134	735.75
558.346	730.75
558.559	727.75
558.771	758.75
558.984	829.75
559.196	785.75
559.409	739.75
559.621	702.75
559.833	693.75
560.046	728.75
560.258	747.75
560.47	754.75
560.683	725.75
560.895	681.75
561.107	660.75
561.32	706.75
561.532	690.75
561.744	772.75
561.956	775.75
562.168	717.75
562.381	707.75
562.593	709.75
562.805	749.75
563.017	706.75
563.229	660.75
563.441	694.75
563.653	679.75
563.865	695.75
564.077	696.75
564.289	678.75
564.501	703.75
564.713	763.75
564.925	717.75
565.137	678.75
565.349	711.75
565.561	686.75
565.773	717.75
565.985	735.75
566.197	782.75
566.408	861.75
566.62	872.75
566.832	855.75
567.044	858.75
567.255	906.75
567.467	967.75
567.679	879.75
567.891	883.75
568.102	889.75
568.314	896.75
568.526	833.75
568.737	811.75
568.949	891.75
569.161	773.75
569.372	712.75
569.584	690.75
569.795	689.75
570.007	693.75
570.218	729.75
570.43	738.75
570.641	688.75
570.853	639.75
571.064	658.75
571.276	691.75
571.487	706.75
571.698	685.75
571.91	666.75
572.121	669.75
572.333	604.75
572.544	597.75
572.755	607.75
572.966	607.75
573.178	600.75
573.389	631.75
573.6	641.75
573.811	634.75
574.023	599.75
574.234	595.75
574.445	583.75
574.656	586.75
574.867	592.75
575.078	595.75
575.289	563.75
575.501	625.75
575.712	575.75
575.923	568.75
576.134	523.75
576.345	541.75
576.556	553.75
576.767	543.75
576.978	535.75
577.188	518.75
577.399	511.75
577.61	530.75
577.821	520.75
578.032	537.75
578.243	583.75
578.454	563.75
578.665	575.75
578.875	571.75
579.086	550.75
579.297	557.75
579.508	584.75
579.718	551.75
579.929	545.75
580.14	531.75
580.35	523.75
580.561	492.75
580.772	512.75
580.982	471.75
581.193	445.75
581.403	457.75
581.614	473.75
581.825	476.75
582.035	469.75
582.246	451.75
582.456	471.75
582.667	459.75
582.877	466.75
583.087	447.75
583.298	480.75
583.508	444.75
583.719	453.75
583.929	467.75
584.139	465.75
584.35	450.75
584.56	490.75
584.77	468.75
584.981	505.75
585.191	480.75
585.401	457.75
585.611	458.75
585.821	491.75
586.032	512.75
586.242	474.75
586.452	485.75
586.662	475.75
586.872	515.75
587.082	500.75
587.292	472.75
587.502	461.75
587.713	478.75
587.923	460.75
588.133	482.75
588.343	483.75
588.553	480.75
588.762	451.75
588.972	465.75
589.182	454.75
589.392	446.75
589.602	466.75
589.812	477.75
590.022	512.75
590.232	507.75
590.441	470.75
590.651	471.75
590.861	453.75
591.071	469.75
591.281	439.75
591.49	450.75
591.7	441.75
591.91	450.75
592.119	459.75
592.329	485.75
592.539	454.75
592.748	453.75
592.958	470.75
593.167	478.75
593.377	488.75
593.587	481.75
593.796	472.75
594.006	486.75
594.215	481.75
594.424	494.75
594.634	495.75
594.843	486.75
595.053	469.75
595.262	450.75
595.472	442.75
595.681	435.75
595.89	421.75
596.1	437.75
596.309	438.75
596.518	421.75
596.727	423.75
596.937	418.75
597.146	439.75
597.355	473.75
597.564	430.75
597.774	425.75
597.983	429.75
598.192	397.75
598.401	402.75
598.61	392.75
598.819	395.75
599.028	405.75
599.237	405.75
599.446	376.75
599.655	386.75
599.864	378.75
600.073	376.75
600.282	387.75
600.491	390.75
600.7	395.75
600.909	386.75
601.118	399.75
601.327	351.75
601.536	375.75
601.745	394.75
601.953	412.75
602.162	390.75
602.371	418.75
602.58	395.75
602.789	371.75
602.997	378.75
603.206	375.75
603.415	370.75
603.623	365.75
603.832	353.75
604.041	366.75
604.249	359.75
604.458	392.75
604.666	384.75
604.875	343.75
605.084	341.75
605.292	334.75
605.501	382.75
605.709	377.75
605.918	356.75
606.126	352.75
606.334	373.75
606.543	350.75
606.751	383.75
606.96	368.75
607.168	344.75
607.376	369.75
607.585	355.75
607.793	344.75
608.001	341.75
608.21	337.75
608.418	367.75
608.626	370.75
608.834	343.75
609.043	325.75
609.251	325.75
609.459	318.75
609.667	351.75
609.875	351.75
610.083	361.75
610.291	363.75
610.499	356.75
610.707	327.75
610.916	335.75
611.124	334.75
611.332	335.75
611.54	331.75
611.748	361.75
611.955	340.75
612.163	349.75
612.371	325.75
612.579	323.75
612.787	326.75
612.995	327.75
613.203	332.75
613.411	317.75
613.618	317.75
613.826	359.75
614.034	352.75
614.242	339.75
614.449	325.75
614.657	318.75
614.865	323.75
615.072	328.75
615.28	339.75
615.488	331.75
615.695	329.75
615.903	323.75
616.111	318.75
616.318	328.75
616.526	318.75
616.733	335.75
616.941	323.75
617.148	329.75
617.356	317.75
617.563	310.75
617.771	317.75
617.978	315.75
618.185	294.75
618.393	305.75
618.6	311.75
618.807	317.75
619.015	303.75
619.222	296.75
619.429	329.75
619.637	334.75
619.844	307.75
620.051	290.75
620.258	293.75
620.466	298.75
620.673	305.75
620.88	294.75
621.087	285.75
621.294	290.75
621.501	303.75
621.708	287.75
621.915	295.75
622.122	301.75
622.329	303.75
622.536	287.75
622.743	291.75
622.95	296.75
623.157	281.75
623.364	309.75
623.571	297.75
623.778	305.75
623.985	319.75
624.192	301.75
624.399	312.75
624.606	304.75
624.812	323.75
625.019	311.75
625.226	320.75
625.433	306.75
625.639	279.75
625.846	275.75
626.053	283.75
626.259	276.75
626.466	288.75
626.673	299.75
626.879	269.75
627.086	268.75
627.293	278.75
627.499	289.75
627.706	286.75
627.912	275.75
628.119	247.75
628.325	280.75
628.532	269.75
628.738	269.75
628.945	266.75
629.151	268.75
629.357	253.75
629.564	277.75
629.77	257.75
629.976	271.75
630.183	273.75
630.389	261.75
630.595	274.75
630.802	259.75
631.008	250.75
631.214	266.75
631.42	262.75
631.627	262.75
631.833	252.75
632.039	223.75
632.245	239.75
632.451	254.75
632.657	242.75
632.863	234.75
633.069	235.75
633.275	258.75
633.481	252.75
633.688	244.75
633.893	255.75
634.099	242.75
634.305	248.75
634.511	241.75
634.717	225.75
634.923	233.75
635.129	222.75
635.335	228.75
635.541	233.75
635.747	215.75
635.952	231.75
636.158	239.75
636.364	243.75
636.57	224.75
636.775	237.75
636.981	220.75
637.187	216.75
637.392	220.75
637.598	227.75
637.804	218.75
638.009	226.75
638.215	237.75
638.421	223.75
638.626	233.75
638.832	231.75
639.037	217.75
639.243	239.75
639.448	245.75
639.654	252.75
639.859	245.75
640.065	232.75
640.27	259.75
640.475	222.75
640.681	209.75
640.886	213.75
641.091	226.75
641.297	222.75
641.502	239.75
641.707	220.75
641.913	227.75
642.118	231.75
642.323	238.75
642.528	231.75
642.733	216.75
642.939	218.75
643.144	213.75
643.349	217.75
643.554	222.75
643.759	219.75
643.964	179.75
644.169	198.75
644.374	205.75
644.579	205.75
644.784	206.75
644.989	204.75
645.194	202.75
645.399	198.75
645.604	206.75
645.809	211.75
646.014	204.75
646.219	213.75
646.423	202.75
646.628	213.75
646.833	224.75
647.038	209.75
647.243	227.75
647.447	203.75
647.652	207.75
647.857	192.75
648.062	215.75
648.266	217.75
648.471	207.75
648.676	218.75
648.88	197.75
649.085	211.75
649.289	221.75
649.494	177.75
649.698	234.75
649.903	213.75
650.107	214.75
650.312	197.75
650.516	190.75
650.721	198.75
650.925	191.75
651.13	189.75
651.334	179.75
651.539	173.75
651.743	173.75
651.947	177.75
652.152	196.75
652.356	164.75
652.56	192.75
652.764	170.75
652.969	163.75
653.173	168.75
653.377	182.75
653.581	172.75
653.785	169.75
653.99	171.75
654.194	149.75
654.398	156.75
654.602	165.75
654.806	159.75
655.01	173.75
655.214	169.75
655.418	149.75
655.622	157.75
655.826	146.75
656.03	165.75
656.234	164.75
656.438	151.75
656.642	181.75
656.846	159.75
657.049	157.75
657.253	139.75
657.457	144.75
657.661	134.75
657.865	139.75
658.068	130.75
658.272	129.75
658.476	123.75
658.68	109.75
658.883	120.75
659.087	129.75
659.291	126.75
659.494	109.75
659.698	97.75
659.901	98.75
660.105	98.75
660.309	98.75
660.512	100.75
660.716	91.75
660.919	101.75
661.123	99.75
661.326	92.75
661.53	96.75
661.733	107.75
661.936	115.75
662.14	93.75
662.343	104.75
662.546	93.75
662.75	85.75
662.953	88.75
663.156	73.75
663.36	74.75
663.563	79.75
663.766	86.75
663.969	88.75
664.173	92.75
664.376	85.75
664.579	85.75
664.782	88.75
664.985	85.75
665.188	89.75
665.391	75.75
665.594	86.75
665.797	80.75
666	82.75
666.203	85.75
666.406	92.75
666.609	84.75
666.812	74.75
667.015	80.75
667.218	85.75
667.421	98.75
667.624	77.75
667.827	79.75
668.03	79.75
668.232	75.75
668.435	98.75
668.638	72.75
668.841	73.75
669.043	79.75
669.246	96.75
669.449	90.75
669.651	85.75
669.854	91.75
670.057	73.75
670.259	83.75
670.462	77.75
670.665	87.75
670.867	86.75
671.07	96.75
671.272	96.75
671.475	91.75
671.677	75.75
671.88	74.75
672.082	88.75
672.284	83.75
672.487	88.75
672.689	73.75
672.892	70.75
