Data from NickelSpatula.Lamp.E5.5.P2_HRD10591_11-53-55-547.txt Node
Date: Tue Jul 23 11:53:55 EDT 2019
User: cochatt
Spectrometer: HR+D1059
Trigger mode: 1
Integration Time (sec): 1.000000E-1
Scans to average: 1
Electric dark correction enabled: true
Nonlinearity correction enabled: false
Boxcar width: 0
XAxis mode: Wavelengths
Number of Pixels in Spectrum: 2048
>>>>>Begin Spectral Data<<<<<
223.165	-8.62
223.4	-8.62
223.635	-8.62
223.869	-5.62
224.104	-10.62
224.338	-2.62
224.573	-23.62
224.808	-22.62
225.042	-16.62
225.277	-6.62
225.511	1.38
225.746	-5.62
225.98	1.38
226.215	12.38
226.449	20.38
226.683	20.38
226.918	30.38
227.152	16.38
227.387	35.38
227.621	35.38
227.856	37.38
228.09	44.38
228.324	53.38
228.559	48.38
228.793	65.38
229.027	64.38
229.262	66.38
229.496	92.38
229.73	69.38
229.964	82.38
230.199	93.38
230.433	77.38
230.667	83.38
230.901	92.38
231.136	92.38
231.37	98.38
231.604	101.38
231.838	113.38
232.072	97.38
232.306	101.38
232.541	109.38
232.775	119.38
233.009	118.38
233.243	110.38
233.477	122.38
233.711	123.38
233.945	118.38
234.179	116.38
234.413	126.38
234.647	128.38
234.881	149.38
235.115	145.38
235.349	133.38
235.583	119.38
235.817	113.38
236.051	125.38
236.285	137.38
236.519	144.38
236.753	138.38
236.987	140.38
237.221	135.38
237.455	125.38
237.689	131.38
237.922	115.38
238.156	135.38
238.39	148.38
238.624	175.38
238.858	159.38
239.091	164.38
239.325	159.38
239.559	168.38
239.793	143.38
240.027	173.38
240.26	165.38
240.494	158.38
240.728	157.38
240.961	178.38
241.195	186.38
241.429	176.38
241.662	170.38
241.896	150.38
242.13	148.38
242.363	140.38
242.597	155.38
242.83	160.38
243.064	156.38
243.298	174.38
243.531	156.38
243.765	175.38
243.998	171.38
244.232	150.38
244.465	165.38
244.699	161.38
244.932	170.38
245.166	182.38
245.399	132.38
245.633	143.38
245.866	157.38
246.099	163.38
246.333	186.38
246.566	203.38
246.8	189.38
247.033	179.38
247.266	159.38
247.5	180.38
247.733	162.38
247.966	179.38
248.2	197.38
248.433	203.38
248.666	208.38
248.899	206.38
249.133	218.38
249.366	224.38
249.599	240.38
249.832	225.38
250.066	220.38
250.299	202.38
250.532	203.38
250.765	187.38
250.998	190.38
251.231	193.38
251.465	200.38
251.698	180.38
251.931	191.38
252.164	198.38
252.397	230.38
252.63	241.38
252.863	254.38
253.096	287.38
253.329	275.38
253.562	248.38
253.795	280.38
254.028	308.38
254.261	311.38
254.494	282.38
254.727	262.38
254.96	264.38
255.193	282.38
255.426	250.38
255.659	204.38
255.892	189.38
256.124	217.38
256.357	238.38
256.59	290.38
256.823	271.38
257.056	221.38
257.289	219.38
257.521	235.38
257.754	278.38
257.987	295.38
258.22	267.38
258.452	228.38
258.685	250.38
258.918	290.38
259.151	289.38
259.383	315.38
259.616	336.38
259.849	358.38
260.081	354.38
260.314	424.38
260.547	312.38
260.779	343.38
261.012	362.38
261.244	371.38
261.477	358.38
261.71	343.38
261.942	286.38
262.175	312.38
262.407	283.38
262.64	289.38
262.872	325.38
263.105	365.38
263.337	374.38
263.57	360.38
263.802	263.38
264.035	225.38
264.267	227.38
264.499	199.38
264.732	179.38
264.964	181.38
265.197	173.38
265.429	202.38
265.661	191.38
265.894	222.38
266.126	215.38
266.358	235.38
266.591	282.38
266.823	324.38
267.055	314.38
267.287	274.38
267.52	287.38
267.752	299.38
267.984	338.38
268.216	346.38
268.448	277.38
268.681	266.38
268.913	290.38
269.145	283.38
269.377	288.38
269.609	309.38
269.841	281.38
270.073	288.38
270.306	301.38
270.538	327.38
270.77	318.38
271.002	317.38
271.234	351.38
271.466	340.38
271.698	338.38
271.93	302.38
272.162	313.38
272.394	297.38
272.626	292.38
272.858	309.38
273.09	326.38
273.322	286.38
273.553	269.38
273.785	294.38
274.017	403.38
274.249	491.38
274.481	493.38
274.713	517.38
274.945	601.38
275.176	647.38
275.408	566.38
275.64	529.38
275.872	537.38
276.104	462.38
276.335	387.38
276.567	384.38
276.799	426.38
277.031	430.38
277.262	374.38
277.494	289.38
277.726	246.38
277.957	294.38
278.189	306.38
278.421	322.38
278.652	326.38
278.884	296.38
279.115	284.38
279.347	274.38
279.579	255.38
279.81	288.38
280.042	287.38
280.273	286.38
280.505	262.38
280.736	246.38
280.968	239.38
281.199	263.38
281.431	290.38
281.662	286.38
281.894	273.38
282.125	261.38
282.356	301.38
282.588	289.38
282.819	268.38
283.051	286.38
283.282	352.38
283.513	404.38
283.745	455.38
283.976	459.38
284.207	417.38
284.439	438.38
284.67	417.38
284.901	382.38
285.132	403.38
285.364	413.38
285.595	404.38
285.826	412.38
286.057	439.38
286.288	388.38
286.52	404.38
286.751	408.38
286.982	441.38
287.213	387.38
287.444	377.38
287.675	398.38
287.906	386.38
288.138	338.38
288.369	319.38
288.6	288.38
288.831	317.38
289.062	357.38
289.293	386.38
289.524	337.38
289.755	339.38
289.986	359.38
290.217	330.38
290.448	261.38
290.679	230.38
290.91	217.38
291.141	228.38
291.371	243.38
291.602	220.38
291.833	224.38
292.064	232.38
292.295	267.38
292.526	318.38
292.757	325.38
292.987	335.38
293.218	336.38
293.449	348.38
293.68	384.38
293.91	353.38
294.141	387.38
294.372	351.38
294.603	312.38
294.833	335.38
295.064	408.38
295.295	394.38
295.525	295.38
295.756	267.38
295.987	228.38
296.217	225.38
296.448	234.38
296.679	249.38
296.909	278.38
297.14	267.38
297.37	316.38
297.601	311.38
297.831	263.38
298.062	274.38
298.292	303.38
298.523	313.38
298.753	350.38
298.984	340.38
299.214	288.38
299.445	256.38
299.675	243.38
299.905	237.38
300.136	237.38
300.366	261.38
300.597	241.38
300.827	222.38
301.057	239.38
301.288	231.38
301.518	229.38
301.748	269.38
301.979	291.38
302.209	322.38
302.439	323.38
302.669	296.38
302.9	294.38
303.13	277.38
303.36	259.38
303.59	233.38
303.82	241.38
304.051	285.38
304.281	311.38
304.511	298.38
304.741	253.38
304.971	253.38
305.201	293.38
305.431	265.38
305.661	247.38
305.891	251.38
306.121	243.38
306.352	209.38
306.582	224.38
306.812	206.38
307.042	199.38
307.272	202.38
307.502	207.38
307.731	220.38
307.961	218.38
308.191	210.38
308.421	206.38
308.651	216.38
308.881	184.38
309.111	168.38
309.341	199.38
309.571	208.38
309.8	214.38
310.03	211.38
310.26	226.38
310.49	229.38
310.72	198.38
310.949	203.38
311.179	214.38
311.409	205.38
311.639	237.38
311.868	298.38
312.098	388.38
312.328	403.38
312.557	393.38
312.787	381.38
313.017	337.38
313.246	354.38
313.476	398.38
313.706	331.38
313.935	286.38
314.165	257.38
314.394	231.38
314.624	229.38
314.853	221.38
315.083	248.38
315.312	219.38
315.542	229.38
315.771	211.38
316.001	218.38
316.23	209.38
316.46	211.38
316.689	209.38
316.919	195.38
317.148	202.38
317.377	193.38
317.607	226.38
317.836	202.38
318.065	248.38
318.295	256.38
318.524	256.38
318.753	224.38
318.983	211.38
319.212	207.38
319.441	209.38
319.67	238.38
319.9	259.38
320.129	260.38
320.358	216.38
320.587	209.38
320.816	233.38
321.046	255.38
321.275	269.38
321.504	257.38
321.733	275.38
321.962	254.38
322.191	246.38
322.42	230.38
322.649	246.38
322.878	260.38
323.108	273.38
323.337	241.38
323.566	236.38
323.795	244.38
324.024	217.38
324.253	219.38
324.482	211.38
324.71	237.38
324.939	252.38
325.168	245.38
325.397	226.38
325.626	207.38
325.855	204.38
326.084	215.38
326.313	206.38
326.542	198.38
326.77	222.38
326.999	221.38
327.228	205.38
327.457	228.38
327.686	256.38
327.914	224.38
328.143	205.38
328.372	208.38
328.6	208.38
328.829	196.38
329.058	207.38
329.287	194.38
329.515	223.38
329.744	206.38
329.972	189.38
330.201	194.38
330.43	191.38
330.658	206.38
330.887	228.38
331.115	223.38
331.344	226.38
331.572	248.38
331.801	210.38
332.03	202.38
332.258	202.38
332.486	219.38
332.715	227.38
332.943	232.38
333.172	221.38
333.4	223.38
333.629	244.38
333.857	259.38
334.085	266.38
334.314	259.38
334.542	248.38
334.771	221.38
334.999	209.38
335.227	225.38
335.455	211.38
335.684	241.38
335.912	264.38
336.14	284.38
336.369	277.38
336.597	255.38
336.825	291.38
337.053	316.38
337.281	266.38
337.51	226.38
337.738	235.38
337.966	242.38
338.194	276.38
338.422	228.38
338.65	229.38
338.878	216.38
339.106	211.38
339.334	238.38
339.562	258.38
339.79	231.38
340.018	208.38
340.246	233.38
340.474	263.38
340.702	273.38
340.93	261.38
341.158	273.38
341.386	230.38
341.614	224.38
341.842	230.38
342.07	259.38
342.298	280.38
342.526	285.38
342.754	278.38
342.981	219.38
343.209	215.38
343.437	243.38
343.665	272.38
343.893	276.38
344.12	299.38
344.348	372.38
344.576	334.38
344.804	255.38
345.031	242.38
345.259	209.38
345.487	224.38
345.714	222.38
345.942	247.38
346.17	270.38
346.397	257.38
346.625	242.38
346.853	237.38
347.08	228.38
347.308	228.38
347.535	264.38
347.763	258.38
347.99	233.38
348.218	216.38
348.445	243.38
348.673	231.38
348.9	261.38
349.128	239.38
349.355	242.38
349.583	243.38
349.81	229.38
350.037	234.38
350.265	195.38
350.492	207.38
350.72	200.38
350.947	201.38
351.174	204.38
351.402	212.38
351.629	211.38
351.856	227.38
352.083	217.38
352.311	216.38
352.538	245.38
352.765	232.38
352.992	241.38
353.22	226.38
353.447	223.38
353.674	227.38
353.901	214.38
354.128	201.38
354.355	213.38
354.583	220.38
354.81	221.38
355.037	250.38
355.264	234.38
355.491	229.38
355.718	261.38
355.945	263.38
356.172	236.38
356.399	232.38
356.626	267.38
356.853	321.38
357.08	345.38
357.307	347.38
357.534	293.38
357.761	312.38
357.988	381.38
358.215	419.38
358.441	370.38
358.668	337.38
358.895	305.38
359.122	287.38
359.349	289.38
359.576	308.38
359.802	256.38
360.029	214.38
360.256	235.38
360.483	281.38
360.709	343.38
360.936	338.38
361.163	311.38
361.39	232.38
361.616	234.38
361.843	256.38
362.07	292.38
362.296	293.38
362.523	230.38
362.749	203.38
362.976	197.38
363.203	244.38
363.429	289.38
363.656	214.38
363.882	221.38
364.109	225.38
364.335	221.38
364.562	212.38
364.788	239.38
365.015	275.38
365.241	254.38
365.468	195.38
365.694	214.38
365.92	195.38
366.147	194.38
366.373	194.38
366.599	191.38
366.826	179.38
367.052	200.38
367.278	193.38
367.505	197.38
367.731	209.38
367.957	228.38
368.184	235.38
368.41	217.38
368.636	233.38
368.862	232.38
369.089	214.38
369.315	220.38
369.541	230.38
369.767	198.38
369.993	213.38
370.219	198.38
370.445	213.38
370.672	235.38
370.898	238.38
371.124	230.38
371.35	234.38
371.576	213.38
371.802	209.38
372.028	254.38
372.254	275.38
372.48	251.38
372.706	242.38
372.932	255.38
373.158	257.38
373.384	290.38
373.61	354.38
373.835	356.38
374.061	290.38
374.287	246.38
374.513	293.38
374.739	345.38
374.965	337.38
375.191	349.38
375.416	298.38
375.642	247.38
375.868	282.38
376.094	291.38
376.319	269.38
376.545	287.38
376.771	290.38
376.997	257.38
377.222	205.38
377.448	188.38
377.674	195.38
377.899	186.38
378.125	209.38
378.35	204.38
378.576	184.38
378.802	200.38
379.027	218.38
379.253	214.38
379.478	215.38
379.704	232.38
379.929	222.38
380.155	244.38
380.38	217.38
380.606	221.38
380.831	242.38
381.057	237.38
381.282	221.38
381.507	251.38
381.733	269.38
381.958	291.38
382.184	331.38
382.409	351.38
382.634	335.38
382.86	379.38
383.085	317.38
383.31	273.38
383.535	264.38
383.761	256.38
383.986	267.38
384.211	302.38
384.436	285.38
384.662	253.38
384.887	232.38
385.112	244.38
385.337	229.38
385.562	232.38
385.787	267.38
386.013	278.38
386.238	279.38
386.463	245.38
386.688	239.38
386.913	224.38
387.138	218.38
387.363	230.38
387.588	242.38
387.813	228.38
388.038	254.38
388.263	240.38
388.488	223.38
388.713	261.38
388.938	280.38
389.163	221.38
389.387	218.38
389.612	227.38
389.837	222.38
390.062	223.38
390.287	233.38
390.512	241.38
390.736	218.38
390.961	233.38
391.186	219.38
391.411	199.38
391.636	223.38
391.86	209.38
392.085	243.38
392.31	245.38
392.534	249.38
392.759	234.38
392.984	249.38
393.208	244.38
393.433	217.38
393.658	195.38
393.882	214.38
394.107	211.38
394.331	205.38
394.556	217.38
394.78	205.38
395.005	222.38
395.229	203.38
395.454	211.38
395.678	209.38
395.903	226.38
396.127	228.38
396.352	212.38
396.576	251.38
396.801	222.38
397.025	237.38
397.249	259.38
397.474	250.38
397.698	234.38
397.922	241.38
398.147	216.38
398.371	221.38
398.595	241.38
398.82	241.38
399.044	252.38
399.268	273.38
399.492	280.38
399.717	276.38
399.941	279.38
400.165	276.38
400.389	256.38
400.613	256.38
400.837	250.38
401.062	221.38
401.286	233.38
401.51	229.38
401.734	224.38
401.958	220.38
402.182	233.38
402.406	228.38
402.63	240.38
402.854	276.38
403.078	286.38
403.302	346.38
403.526	369.38
403.75	318.38
403.974	273.38
404.198	270.38
404.422	320.38
404.645	303.38
404.869	358.38
405.093	285.38
405.317	247.38
405.541	267.38
405.765	261.38
405.988	254.38
406.212	266.38
406.436	291.38
406.66	308.38
406.883	282.38
407.107	303.38
407.331	317.38
407.555	319.38
407.778	273.38
408.002	265.38
408.226	271.38
408.449	265.38
408.673	276.38
408.896	243.38
409.12	241.38
409.344	254.38
409.567	248.38
409.791	244.38
410.014	253.38
410.238	251.38
410.461	230.38
410.685	220.38
410.908	241.38
411.132	246.38
411.355	257.38
411.578	246.38
411.802	241.38
412.025	249.38
412.249	230.38
412.472	253.38
412.695	234.38
412.919	239.38
413.142	238.38
413.365	261.38
413.589	246.38
413.812	246.38
414.035	218.38
414.258	225.38
414.482	257.38
414.705	242.38
414.928	226.38
415.151	235.38
415.374	222.38
415.597	229.38
415.821	219.38
416.044	207.38
416.267	223.38
416.49	215.38
416.713	218.38
416.936	238.38
417.159	239.38
417.382	243.38
417.605	228.38
417.828	231.38
418.051	232.38
418.274	228.38
418.497	246.38
418.72	222.38
418.943	266.38
419.166	275.38
419.389	257.38
419.611	245.38
419.834	253.38
420.057	275.38
420.28	262.38
420.503	250.38
420.726	226.38
420.948	245.38
421.171	230.38
421.394	210.38
421.617	217.38
421.839	230.38
422.062	236.38
422.285	242.38
422.507	225.38
422.73	229.38
422.953	237.38
423.175	241.38
423.398	247.38
423.621	259.38
423.843	253.38
424.066	243.38
424.288	235.38
424.511	243.38
424.733	228.38
424.956	248.38
425.178	285.38
425.401	302.38
425.623	352.38
425.846	302.38
426.068	254.38
426.291	259.38
426.513	253.38
426.735	241.38
426.958	242.38
427.18	274.38
427.402	334.38
427.625	346.38
427.847	287.38
428.069	222.38
428.292	229.38
428.514	231.38
428.736	216.38
428.958	255.38
429.181	291.38
429.403	257.38
429.625	232.38
429.847	225.38
430.069	203.38
430.292	225.38
430.514	227.38
430.736	233.38
430.958	271.38
431.18	256.38
431.402	209.38
431.624	202.38
431.846	208.38
432.068	230.38
432.29	207.38
432.512	244.38
432.734	264.38
432.956	272.38
433.178	221.38
433.4	200.38
433.622	212.38
433.844	222.38
434.066	252.38
434.287	237.38
434.509	234.38
434.731	249.38
434.953	235.38
435.175	253.38
435.397	244.38
435.618	232.38
435.84	228.38
436.062	210.38
436.284	219.38
436.505	211.38
436.727	203.38
436.949	204.38
437.17	229.38
437.392	217.38
437.614	223.38
437.835	213.38
438.057	206.38
438.278	260.38
438.5	295.38
438.721	306.38
438.943	236.38
439.165	210.38
439.386	222.38
439.608	214.38
439.829	208.38
440.05	211.38
440.272	221.38
440.493	254.38
440.715	281.38
440.936	247.38
441.158	218.38
441.379	216.38
441.6	226.38
441.822	241.38
442.043	230.38
442.264	242.38
442.486	229.38
442.707	215.38
442.928	231.38
443.149	229.38
443.371	228.38
443.592	261.38
443.813	259.38
444.034	221.38
444.255	241.38
444.476	241.38
444.698	250.38
444.919	246.38
445.14	349.38
445.361	317.38
445.582	257.38
445.803	239.38
446.024	267.38
446.245	243.38
446.466	239.38
446.687	237.38
446.908	217.38
447.129	230.38
447.35	201.38
447.571	214.38
447.792	207.38
448.013	219.38
448.234	202.38
448.455	199.38
448.675	203.38
448.896	210.38
449.117	212.38
449.338	206.38
449.559	228.38
449.779	227.38
450	214.38
450.221	209.38
450.442	217.38
450.662	216.38
450.883	212.38
451.104	220.38
451.324	207.38
451.545	235.38
451.766	218.38
451.986	208.38
452.207	208.38
452.428	217.38
452.648	218.38
452.869	216.38
453.089	230.38
453.31	216.38
453.53	182.38
453.751	220.38
453.971	190.38
454.192	192.38
454.412	217.38
454.633	187.38
454.853	192.38
455.073	202.38
455.294	191.38
455.514	191.38
455.734	215.38
455.955	211.38
456.175	205.38
456.395	201.38
456.616	183.38
456.836	183.38
457.056	185.38
457.276	174.38
457.497	197.38
457.717	189.38
457.937	196.38
458.157	188.38
458.377	192.38
458.598	194.38
458.818	195.38
459.038	222.38
459.258	201.38
459.478	237.38
459.698	224.38
459.918	238.38
460.138	226.38
460.358	241.38
460.578	237.38
460.798	234.38
461.018	253.38
461.238	239.38
461.458	230.38
461.678	242.38
461.898	263.38
462.118	239.38
462.338	248.38
462.558	257.38
462.777	240.38
462.997	278.38
463.217	296.38
463.437	308.38
463.657	287.38
463.876	264.38
464.096	249.38
464.316	274.38
464.536	258.38
464.755	273.38
464.975	255.38
465.195	244.38
465.414	266.38
465.634	238.38
465.854	243.38
466.073	238.38
466.293	218.38
466.512	240.38
466.732	265.38
466.951	253.38
467.171	226.38
467.391	235.38
467.61	217.38
467.829	256.38
468.049	227.38
468.268	226.38
468.488	231.38
468.707	242.38
468.927	253.38
469.146	257.38
469.365	247.38
469.585	238.38
469.804	260.38
470.023	267.38
470.243	238.38
470.462	241.38
470.681	233.38
470.901	237.38
471.12	248.38
471.339	262.38
471.558	239.38
471.777	254.38
471.997	258.38
472.216	250.38
472.435	271.38
472.654	253.38
472.873	234.38
473.092	253.38
473.311	267.38
473.53	230.38
473.749	217.38
473.968	266.38
474.187	235.38
474.406	243.38
474.625	231.38
474.844	214.38
475.063	242.38
475.282	261.38
475.501	267.38
475.72	273.38
475.939	259.38
476.158	259.38
476.377	280.38
476.596	335.38
476.814	350.38
477.033	309.38
477.252	248.38
477.471	234.38
477.69	250.38
477.908	265.38
478.127	271.38
478.346	253.38
478.564	282.38
478.783	272.38
479.002	288.38
479.22	288.38
479.439	322.38
479.658	297.38
479.876	257.38
480.095	291.38
480.313	313.38
480.532	282.38
480.751	272.38
480.969	265.38
481.188	308.38
481.406	298.38
481.624	291.38
481.843	288.38
482.061	255.38
482.28	293.38
482.498	331.38
482.717	350.38
482.935	279.38
483.153	274.38
483.372	257.38
483.59	265.38
483.808	241.38
484.027	246.38
484.245	224.38
484.463	232.38
484.681	256.38
484.9	254.38
485.118	277.38
485.336	268.38
485.554	255.38
485.772	278.38
485.99	284.38
486.209	304.38
486.427	313.38
486.645	277.38
486.863	319.38
487.081	277.38
487.299	299.38
487.517	296.38
487.735	296.38
487.953	285.38
488.171	291.38
488.389	259.38
488.607	264.38
488.825	259.38
489.043	289.38
489.261	314.38
489.479	345.38
489.696	306.38
489.914	264.38
490.132	259.38
490.35	273.38
490.568	254.38
490.786	239.38
491.003	258.38
491.221	273.38
491.439	262.38
491.657	263.38
491.874	272.38
492.092	313.38
492.31	353.38
492.527	354.38
492.745	350.38
492.963	286.38
493.18	295.38
493.398	274.38
493.615	302.38
493.833	287.38
494.05	287.38
494.268	290.38
494.485	292.38
494.703	262.38
494.92	288.38
495.138	275.38
495.355	288.38
495.573	284.38
495.79	303.38
496.008	335.38
496.225	311.38
496.442	297.38
496.66	305.38
496.877	325.38
497.094	308.38
497.312	294.38
497.529	294.38
497.746	297.38
497.963	306.38
498.181	339.38
498.398	352.38
498.615	356.38
498.832	363.38
499.049	401.38
499.267	384.38
499.484	375.38
499.701	389.38
499.918	458.38
500.135	483.38
500.352	532.38
500.569	556.38
500.786	558.38
501.003	510.38
501.22	470.38
501.437	434.38
501.654	412.38
501.871	389.38
502.088	355.38
502.305	358.38
502.522	362.38
502.739	350.38
502.956	311.38
503.172	313.38
503.389	305.38
503.606	281.38
503.823	302.38
504.04	305.38
504.256	334.38
504.473	323.38
504.69	322.38
504.907	326.38
505.123	300.38
505.34	327.38
505.557	328.38
505.773	325.38
505.99	293.38
506.207	309.38
506.423	298.38
506.64	261.38
506.856	282.38
507.073	322.38
507.289	313.38
507.506	326.38
507.722	315.38
507.939	330.38
508.155	336.38
508.372	298.38
508.588	288.38
508.805	287.38
509.021	277.38
509.238	259.38
509.454	255.38
509.67	267.38
509.887	271.38
510.103	314.38
510.319	303.38
510.536	274.38
510.752	251.38
510.968	255.38
511.184	246.38
511.401	259.38
511.617	252.38
511.833	250.38
512.049	245.38
512.265	251.38
512.481	257.38
512.698	287.38
512.914	308.38
513.13	294.38
513.346	258.38
513.562	277.38
513.778	255.38
513.994	272.38
514.21	267.38
514.426	286.38
514.642	265.38
514.858	269.38
515.074	278.38
515.29	289.38
515.506	329.38
515.721	315.38
515.937	295.38
516.153	271.38
516.369	268.38
516.585	269.38
516.801	306.38
517.016	365.38
517.232	360.38
517.448	372.38
517.664	325.38
517.879	320.38
518.095	328.38
518.311	329.38
518.527	342.38
518.742	312.38
518.958	355.38
519.173	340.38
519.389	310.38
519.605	305.38
519.82	330.38
520.036	378.38
520.251	372.38
520.467	359.38
520.682	547.38
520.898	673.38
521.113	638.38
521.329	406.38
521.544	370.38
521.76	354.38
521.975	312.38
522.19	296.38
522.406	305.38
522.621	341.38
522.836	322.38
523.052	349.38
523.267	286.38
523.482	289.38
523.698	302.38
523.913	305.38
524.128	293.38
524.343	269.38
524.559	280.38
524.774	258.38
524.989	274.38
525.204	287.38
525.419	307.38
525.634	269.38
525.849	302.38
526.064	298.38
526.28	287.38
526.495	332.38
526.71	342.38
526.925	298.38
527.14	307.38
527.355	311.38
527.57	262.38
527.785	270.38
527.999	266.38
528.214	259.38
528.429	251.38
528.644	254.38
528.859	258.38
529.074	253.38
529.289	245.38
529.503	253.38
529.718	241.38
529.933	306.38
530.148	299.38
530.363	254.38
530.577	261.38
530.792	261.38
531.007	236.38
531.221	246.38
531.436	248.38
531.651	243.38
531.865	253.38
532.08	271.38
532.295	263.38
532.509	260.38
532.724	262.38
532.938	299.38
533.153	338.38
533.367	293.38
533.582	296.38
533.796	263.38
534.011	254.38
534.225	257.38
534.44	263.38
534.654	274.38
534.868	309.38
535.083	279.38
535.297	279.38
535.511	258.38
535.726	276.38
535.94	261.38
536.154	259.38
536.369	251.38
536.583	245.38
536.797	245.38
537.011	251.38
537.225	264.38
537.44	281.38
537.654	260.38
537.868	263.38
538.082	245.38
538.296	258.38
538.51	269.38
538.724	261.38
538.938	253.38
539.153	260.38
539.367	255.38
539.581	252.38
539.795	265.38
540.009	267.38
540.222	272.38
540.436	274.38
540.65	285.38
540.864	263.38
541.078	287.38
541.292	309.38
541.506	277.38
541.72	256.38
541.934	243.38
542.147	241.38
542.361	255.38
542.575	277.38
542.789	277.38
543.002	239.38
543.216	256.38
543.43	223.38
543.644	239.38
543.857	228.38
544.071	232.38
544.285	240.38
544.498	255.38
544.712	243.38
544.925	237.38
545.139	237.38
545.352	211.38
545.566	240.38
545.779	265.38
545.993	243.38
546.206	225.38
546.42	212.38
546.633	200.38
546.847	209.38
547.06	223.38
547.274	234.38
547.487	234.38
547.7	234.38
547.914	249.38
548.127	276.38
548.34	267.38
548.554	245.38
548.767	242.38
548.98	258.38
549.193	248.38
549.407	261.38
549.62	264.38
549.833	276.38
550.046	277.38
550.259	285.38
550.473	272.38
550.686	269.38
550.899	239.38
551.112	240.38
551.325	263.38
551.538	276.38
551.751	233.38
551.964	227.38
552.177	242.38
552.39	229.38
552.603	237.38
552.816	241.38
553.029	240.38
553.242	238.38
553.455	263.38
553.667	269.38
553.88	246.38
554.093	232.38
554.306	241.38
554.519	216.38
554.732	203.38
554.944	204.38
555.157	213.38
555.37	201.38
555.583	191.38
555.795	219.38
556.008	202.38
556.221	206.38
556.433	190.38
556.646	205.38
556.859	215.38
557.071	209.38
557.284	197.38
557.496	216.38
557.709	219.38
557.921	204.38
558.134	206.38
558.346	211.38
558.559	199.38
558.771	197.38
558.984	218.38
559.196	218.38
559.409	202.38
559.621	202.38
559.833	198.38
560.046	216.38
560.258	197.38
560.47	193.38
560.683	185.38
560.895	189.38
561.107	183.38
561.32	191.38
561.532	186.38
561.744	209.38
561.956	208.38
562.168	189.38
562.381	207.38
562.593	217.38
562.805	226.38
563.017	185.38
563.229	186.38
563.441	190.38
563.653	196.38
563.865	193.38
564.077	193.38
564.289	196.38
564.501	201.38
564.713	200.38
564.925	213.38
565.137	217.38
565.349	206.38
565.561	216.38
565.773	201.38
565.985	231.38
566.197	229.38
566.408	255.38
566.62	247.38
566.832	259.38
567.044	248.38
567.255	265.38
567.467	267.38
567.679	266.38
567.891	262.38
568.102	276.38
568.314	281.38
568.526	261.38
568.737	243.38
568.949	254.38
569.161	230.38
569.372	214.38
569.584	211.38
569.795	186.38
570.007	199.38
570.218	214.38
570.43	221.38
570.641	179.38
570.853	202.38
571.064	178.38
571.276	195.38
571.487	209.38
571.698	193.38
571.91	185.38
572.121	198.38
572.333	179.38
572.544	191.38
572.755	198.38
572.966	187.38
573.178	192.38
573.389	189.38
573.6	191.38
573.811	195.38
574.023	167.38
574.234	188.38
574.445	180.38
574.656	177.38
574.867	206.38
575.078	186.38
575.289	169.38
575.501	197.38
575.712	176.38
575.923	171.38
576.134	165.38
576.345	177.38
576.556	164.38
576.767	173.38
576.978	165.38
577.188	176.38
577.399	177.38
577.61	163.38
577.821	174.38
578.032	168.38
578.243	178.38
578.454	171.38
578.665	183.38
578.875	177.38
579.086	186.38
579.297	161.38
579.508	173.38
579.718	170.38
579.929	155.38
580.14	171.38
580.35	167.38
580.561	164.38
580.772	177.38
580.982	169.38
581.193	160.38
581.403	152.38
581.614	149.38
581.825	151.38
582.035	154.38
582.246	160.38
582.456	163.38
582.667	138.38
582.877	161.38
583.087	156.38
583.298	164.38
583.508	151.38
583.719	164.38
583.929	153.38
584.139	176.38
584.35	158.38
584.56	147.38
584.77	160.38
584.981	160.38
585.191	149.38
585.401	162.38
585.611	162.38
585.821	163.38
586.032	174.38
586.242	157.38
586.452	164.38
586.662	162.38
586.872	170.38
587.082	178.38
587.292	161.38
587.502	161.38
587.713	161.38
587.923	183.38
588.133	175.38
588.343	163.38
588.553	162.38
588.762	169.38
588.972	154.38
589.182	170.38
589.392	177.38
589.602	153.38
589.812	172.38
590.022	160.38
590.232	157.38
590.441	158.38
590.651	153.38
590.861	150.38
591.071	163.38
591.281	156.38
591.49	140.38
591.7	170.38
591.91	158.38
592.119	158.38
592.329	179.38
592.539	170.38
592.748	147.38
592.958	177.38
593.167	167.38
593.377	175.38
593.587	166.38
593.796	189.38
594.006	177.38
594.215	184.38
594.424	188.38
594.634	171.38
594.843	159.38
595.053	155.38
595.262	162.38
595.472	150.38
595.681	161.38
595.89	152.38
596.1	162.38
596.309	166.38
596.518	153.38
596.727	154.38
596.937	153.38
597.146	153.38
597.355	154.38
597.564	143.38
597.774	133.38
597.983	149.38
598.192	154.38
598.401	145.38
598.61	139.38
598.819	148.38
599.028	144.38
599.237	139.38
599.446	128.38
599.655	131.38
599.864	146.38
600.073	146.38
600.282	140.38
600.491	135.38
600.7	151.38
600.909	152.38
601.118	144.38
601.327	154.38
601.536	153.38
601.745	141.38
601.953	139.38
602.162	153.38
602.371	140.38
602.58	153.38
602.789	132.38
602.997	143.38
603.206	143.38
603.415	151.38
603.623	135.38
603.832	147.38
604.041	137.38
604.249	145.38
604.458	151.38
604.666	134.38
604.875	135.38
605.084	149.38
605.292	133.38
605.501	134.38
605.709	150.38
605.918	142.38
606.126	141.38
606.334	135.38
606.543	144.38
606.751	122.38
606.96	141.38
607.168	153.38
607.376	125.38
607.585	139.38
607.793	134.38
608.001	124.38
608.21	127.38
608.418	147.38
608.626	145.38
608.834	151.38
609.043	126.38
609.251	128.38
609.459	149.38
609.667	127.38
609.875	153.38
610.083	130.38
610.291	143.38
610.499	135.38
610.707	132.38
610.916	134.38
611.124	133.38
611.332	117.38
611.54	145.38
611.748	143.38
611.955	144.38
612.163	134.38
612.371	143.38
612.579	132.38
612.787	126.38
612.995	148.38
613.203	133.38
613.411	139.38
613.618	125.38
613.826	140.38
614.034	140.38
614.242	122.38
614.449	134.38
614.657	130.38
614.865	133.38
615.072	133.38
615.28	135.38
615.488	120.38
615.695	133.38
615.903	134.38
616.111	135.38
616.318	154.38
616.526	133.38
616.733	139.38
616.941	138.38
617.148	134.38
617.356	129.38
617.563	128.38
617.771	131.38
617.978	144.38
618.185	134.38
618.393	123.38
618.6	131.38
618.807	131.38
619.015	145.38
619.222	138.38
619.429	131.38
619.637	125.38
619.844	128.38
620.051	130.38
620.258	120.38
620.466	128.38
620.673	133.38
620.88	113.38
621.087	137.38
621.294	133.38
621.501	138.38
621.708	114.38
621.915	125.38
622.122	123.38
622.329	143.38
622.536	135.38
622.743	137.38
622.95	104.38
623.157	128.38
623.364	129.38
623.571	118.38
623.778	149.38
623.985	131.38
624.192	120.38
624.399	135.38
624.606	138.38
624.812	125.38
625.019	121.38
625.226	143.38
625.433	122.38
625.639	126.38
625.846	135.38
626.053	120.38
626.259	132.38
626.466	127.38
626.673	121.38
626.879	127.38
627.086	128.38
627.293	125.38
627.499	110.38
627.706	118.38
627.912	115.38
628.119	124.38
628.325	109.38
628.532	134.38
628.738	115.38
628.945	121.38
629.151	112.38
629.357	133.38
629.564	121.38
629.77	123.38
629.976	124.38
630.183	120.38
630.389	115.38
630.595	124.38
630.802	130.38
631.008	117.38
631.214	110.38
631.42	115.38
631.627	127.38
631.833	110.38
632.039	123.38
632.245	118.38
632.451	135.38
632.657	140.38
632.863	119.38
633.069	136.38
633.275	111.38
633.481	121.38
633.688	114.38
633.893	128.38
634.099	113.38
634.305	109.38
634.511	112.38
634.717	125.38
634.923	119.38
635.129	118.38
635.335	115.38
635.541	120.38
635.747	111.38
635.952	119.38
636.158	99.38
636.364	113.38
636.57	100.38
636.775	107.38
636.981	110.38
637.187	120.38
637.392	113.38
637.598	102.38
637.804	93.38
638.009	101.38
638.215	110.38
638.421	102.38
638.626	121.38
638.832	129.38
639.037	118.38
639.243	103.38
639.448	125.38
639.654	126.38
639.859	105.38
640.065	119.38
640.27	116.38
640.475	120.38
640.681	124.38
640.886	106.38
641.091	113.38
641.297	115.38
641.502	117.38
641.707	93.38
641.913	113.38
642.118	109.38
642.323	95.38
642.528	115.38
642.733	110.38
642.939	96.38
643.144	118.38
643.349	111.38
643.554	112.38
643.759	105.38
643.964	118.38
644.169	119.38
644.374	101.38
644.579	110.38
644.784	109.38
644.989	103.38
645.194	116.38
645.399	103.38
645.604	113.38
645.809	106.38
646.014	116.38
646.219	113.38
646.423	100.38
646.628	117.38
646.833	115.38
647.038	104.38
647.243	113.38
647.447	121.38
647.652	129.38
647.857	99.38
648.062	117.38
648.266	115.38
648.471	120.38
648.676	131.38
648.88	103.38
649.085	114.38
649.289	119.38
649.494	118.38
649.698	115.38
649.903	115.38
650.107	106.38
650.312	97.38
650.516	94.38
650.721	119.38
650.925	98.38
651.13	110.38
651.334	103.38
651.539	108.38
651.743	120.38
651.947	113.38
652.152	102.38
652.356	109.38
652.56	118.38
652.764	90.38
652.969	99.38
653.173	90.38
653.377	79.38
653.581	105.38
653.785	87.38
653.99	83.38
654.194	100.38
654.398	109.38
654.602	94.38
654.806	89.38
655.01	90.38
655.214	96.38
655.418	112.38
655.622	95.38
655.826	104.38
656.03	97.38
656.234	113.38
656.438	97.38
656.642	107.38
656.846	91.38
657.049	107.38
657.253	98.38
657.457	101.38
657.661	87.38
657.865	92.38
658.068	82.38
658.272	99.38
658.476	83.38
658.68	99.38
658.883	91.38
659.087	80.38
659.291	94.38
659.494	96.38
659.698	77.38
659.901	95.38
660.105	78.38
660.309	86.38
660.512	82.38
660.716	85.38
660.919	90.38
661.123	93.38
661.326	79.38
661.53	81.38
661.733	80.38
661.936	79.38
662.14	78.38
662.343	81.38
662.546	84.38
662.75	81.38
662.953	89.38
663.156	88.38
663.36	76.38
663.563	82.38
663.766	88.38
663.969	99.38
664.173	90.38
664.376	80.38
664.579	101.38
664.782	89.38
664.985	79.38
665.188	79.38
665.391	91.38
665.594	70.38
665.797	87.38
666	77.38
666.203	87.38
666.406	78.38
666.609	80.38
666.812	85.38
667.015	81.38
667.218	89.38
667.421	70.38
667.624	77.38
667.827	69.38
668.03	76.38
668.232	78.38
668.435	90.38
668.638	88.38
668.841	94.38
669.043	73.38
669.246	88.38
669.449	68.38
669.651	86.38
669.854	93.38
670.057	75.38
670.259	85.38
670.462	81.38
670.665	77.38
670.867	82.38
671.07	88.38
671.272	65.38
671.475	93.38
671.677	76.38
671.88	80.38
672.082	73.38
672.284	78.38
672.487	88.38
672.689	90.38
672.892	72.38
