Data from NickelSpatula.Lamp.E10.P2_HRD10591_11-58-06-529.txt Node
Date: Tue Jul 23 11:58:06 EDT 2019
User: cochatt
Spectrometer: HR+D1059
Trigger mode: 1
Integration Time (sec): 1.000000E-1
Scans to average: 1
Electric dark correction enabled: true
Nonlinearity correction enabled: false
Boxcar width: 0
XAxis mode: Wavelengths
Number of Pixels in Spectrum: 2048
>>>>>Begin Spectral Data<<<<<
223.165	-17.25
223.4	-17.25
223.635	-17.25
223.869	-18.25
224.104	-16.25
224.338	-17.25
224.573	-22.25
224.808	-25.25
225.042	-7.25
225.277	-9.25
225.511	2.75
225.746	7.75
225.98	26.75
226.215	6.75
226.449	19.75
226.683	15.75
226.918	32.75
227.152	20.75
227.387	33.75
227.621	33.75
227.856	35.75
228.09	46.75
228.324	56.75
228.559	48.75
228.793	82.75
229.027	139.75
229.262	156.75
229.496	152.75
229.73	165.75
229.964	186.75
230.199	201.75
230.433	208.75
230.667	218.75
230.901	222.75
231.136	208.75
231.37	201.75
231.604	222.75
231.838	241.75
232.072	264.75
232.306	252.75
232.541	242.75
232.775	244.75
233.009	265.75
233.243	307.75
233.477	317.75
233.711	347.75
233.945	319.75
234.179	331.75
234.413	342.75
234.647	374.75
234.881	446.75
235.115	400.75
235.349	394.75
235.583	349.75
235.817	355.75
236.051	376.75
236.285	424.75
236.519	474.75
236.753	455.75
236.987	442.75
237.221	412.75
237.455	401.75
237.689	418.75
237.922	464.75
238.156	479.75
238.39	577.75
238.624	634.75
238.858	594.75
239.091	494.75
239.325	522.75
239.559	472.75
239.793	541.75
240.027	632.75
240.26	621.75
240.494	611.75
240.728	598.75
240.961	697.75
241.195	631.75
241.429	629.75
241.662	627.75
241.896	537.75
242.13	476.75
242.363	439.75
242.597	473.75
242.83	549.75
243.064	548.75
243.298	598.75
243.531	643.75
243.765	654.75
243.998	630.75
244.232	599.75
244.465	596.75
244.699	585.75
244.932	663.75
245.166	644.75
245.399	546.75
245.633	548.75
245.866	531.75
246.099	634.75
246.333	737.75
246.566	792.75
246.8	769.75
247.033	762.75
247.266	704.75
247.5	674.75
247.733	646.75
247.966	663.75
248.2	705.75
248.433	793.75
248.666	842.75
248.899	827.75
249.133	886.75
249.366	1000.75
249.599	1087.75
249.832	949.75
250.066	845.75
250.299	855.75
250.532	826.75
250.765	835.75
250.998	760.75
251.231	728.75
251.465	789.75
251.698	807.75
251.931	800.75
252.164	842.75
252.397	922.75
252.63	1040.75
252.863	1168.75
253.096	1193.75
253.329	1136.75
253.562	1080.75
253.795	1268.75
254.028	1365.75
254.261	1401.75
254.494	1280.75
254.727	1165.75
254.96	1123.75
255.193	1205.75
255.426	1154.75
255.659	881.75
255.892	806.75
256.124	862.75
256.357	1018.75
256.59	1219.75
256.823	1138.75
257.056	942.75
257.289	920.75
257.521	965.75
257.754	1148.75
257.987	1291.75
258.22	1134.75
258.452	1016.75
258.685	1112.75
258.918	1327.75
259.151	1247.75
259.383	1335.75
259.616	1492.75
259.849	1582.75
260.081	1729.75
260.314	1911.75
260.547	1463.75
260.779	1501.75
261.012	1712.75
261.244	1612.75
261.477	1671.75
261.71	1556.75
261.942	1331.75
262.175	1295.75
262.407	1226.75
262.64	1258.75
262.872	1528.75
263.105	1675.75
263.337	1724.75
263.57	1536.75
263.802	1051.75
264.035	928.75
264.267	896.75
264.499	757.75
264.732	696.75
264.964	693.75
265.197	709.75
265.429	778.75
265.661	823.75
265.894	861.75
266.126	923.75
266.358	1024.75
266.591	1256.75
266.823	1514.75
267.055	1427.75
267.287	1290.75
267.52	1260.75
267.752	1342.75
267.984	1432.75
268.216	1385.75
268.448	1116.75
268.681	1076.75
268.913	1198.75
269.145	1297.75
269.377	1302.75
269.609	1267.75
269.841	1235.75
270.073	1286.75
270.306	1378.75
270.538	1364.75
270.77	1417.75
271.002	1409.75
271.234	1503.75
271.466	1513.75
271.698	1467.75
271.93	1410.75
272.162	1432.75
272.394	1419.75
272.626	1406.75
272.858	1455.75
273.09	1494.75
273.322	1338.75
273.553	1310.75
273.785	1529.75
274.017	2002.75
274.249	2485.75
274.481	2558.75
274.713	2792.75
274.945	3196.75
275.176	3246.75
275.408	2948.75
275.64	2654.75
275.872	2662.75
276.104	2241.75
276.335	1949.75
276.567	1949.75
276.799	1958.75
277.031	2052.75
277.262	1614.75
277.494	1251.75
277.726	1212.75
277.957	1330.75
278.189	1509.75
278.421	1477.75
278.652	1410.75
278.884	1364.75
279.115	1294.75
279.347	1185.75
279.579	1222.75
279.81	1171.75
280.042	1196.75
280.273	1238.75
280.505	1116.75
280.736	1025.75
280.968	1014.75
281.199	1111.75
281.431	1247.75
281.662	1228.75
281.894	1175.75
282.125	1213.75
282.356	1352.75
282.588	1425.75
282.819	1262.75
283.051	1380.75
283.282	1714.75
283.513	1940.75
283.745	2189.75
283.976	2178.75
284.207	2017.75
284.439	2126.75
284.67	2004.75
284.901	1805.75
285.132	1980.75
285.364	2042.75
285.595	1883.75
285.826	1992.75
286.057	2063.75
286.288	1985.75
286.52	2032.75
286.751	2117.75
286.982	2058.75
287.213	1810.75
287.444	1746.75
287.675	1859.75
287.906	1853.75
288.138	1545.75
288.369	1370.75
288.6	1310.75
288.831	1373.75
289.062	1574.75
289.293	1721.75
289.524	1606.75
289.755	1608.75
289.986	1664.75
290.217	1454.75
290.448	1116.75
290.679	958.75
290.91	911.75
291.141	894.75
291.371	952.75
291.602	963.75
291.833	973.75
292.064	1060.75
292.295	1237.75
292.526	1417.75
292.757	1463.75
292.987	1575.75
293.218	1585.75
293.449	1592.75
293.68	1664.75
293.91	1637.75
294.141	1633.75
294.372	1507.75
294.603	1425.75
294.833	1576.75
295.064	1861.75
295.295	1760.75
295.525	1319.75
295.756	1149.75
295.987	986.75
296.217	1012.75
296.448	1022.75
296.679	1116.75
296.909	1212.75
297.14	1305.75
297.37	1438.75
297.601	1350.75
297.831	1162.75
298.062	1269.75
298.292	1428.75
298.523	1555.75
298.753	1818.75
298.984	1582.75
299.214	1255.75
299.445	1074.75
299.675	1020.75
299.905	1016.75
300.136	1065.75
300.366	1189.75
300.597	1173.75
300.827	1004.75
301.057	995.75
301.288	1030.75
301.518	1069.75
301.748	1208.75
301.979	1284.75
302.209	1412.75
302.439	1438.75
302.669	1220.75
302.9	1222.75
303.13	1111.75
303.36	1096.75
303.59	1044.75
303.82	1084.75
304.051	1207.75
304.281	1344.75
304.511	1290.75
304.741	1156.75
304.971	1176.75
305.201	1296.75
305.431	1161.75
305.661	1068.75
305.891	1034.75
306.121	1072.75
306.352	925.75
306.582	857.75
306.812	882.75
307.042	871.75
307.272	807.75
307.502	796.75
307.731	876.75
307.961	916.75
308.191	858.75
308.421	814.75
308.651	807.75
308.881	762.75
309.111	769.75
309.341	823.75
309.571	892.75
309.8	929.75
310.03	936.75
310.26	998.75
310.49	973.75
310.72	871.75
310.949	882.75
311.179	864.75
311.409	927.75
311.639	1118.75
311.868	1349.75
312.098	1802.75
312.328	1959.75
312.557	1862.75
312.787	1864.75
313.017	1688.75
313.246	1828.75
313.476	1988.75
313.706	1636.75
313.935	1277.75
314.165	1042.75
314.394	960.75
314.624	935.75
314.853	998.75
315.083	1041.75
315.312	999.75
315.542	1010.75
315.771	948.75
316.001	871.75
316.23	838.75
316.46	841.75
316.689	878.75
316.919	873.75
317.148	871.75
317.377	878.75
317.607	848.75
317.836	952.75
318.065	1087.75
318.295	1246.75
318.524	1130.75
318.753	983.75
318.983	921.75
319.212	902.75
319.441	1026.75
319.67	1140.75
319.9	1232.75
320.129	1132.75
320.358	967.75
320.587	928.75
320.816	1028.75
321.046	1159.75
321.275	1318.75
321.504	1284.75
321.733	1242.75
321.962	1211.75
322.191	1135.75
322.42	1079.75
322.649	1121.75
322.878	1196.75
323.108	1180.75
323.337	1123.75
323.566	1078.75
323.795	1047.75
324.024	1024.75
324.253	967.75
324.482	976.75
324.71	1080.75
324.939	1190.75
325.168	1109.75
325.397	918.75
325.626	914.75
325.855	945.75
326.084	941.75
326.313	872.75
326.542	828.75
326.77	868.75
326.999	885.75
327.228	950.75
327.457	998.75
327.686	996.75
327.914	882.75
328.143	829.75
328.372	830.75
328.6	847.75
328.829	886.75
329.058	904.75
329.287	906.75
329.515	918.75
329.744	878.75
329.972	818.75
330.201	814.75
330.43	849.75
330.658	947.75
330.887	1041.75
331.115	1034.75
331.344	1006.75
331.572	926.75
331.801	913.75
332.03	852.75
332.258	888.75
332.486	962.75
332.715	971.75
332.943	917.75
333.172	913.75
333.4	934.75
333.629	1040.75
333.857	1106.75
334.085	1094.75
334.314	1108.75
334.542	1069.75
334.771	966.75
334.999	952.75
335.227	919.75
335.455	972.75
335.684	1029.75
335.912	1169.75
336.14	1321.75
336.369	1254.75
336.597	1210.75
336.825	1394.75
337.053	1507.75
337.281	1181.75
337.51	977.75
337.738	945.75
337.966	1073.75
338.194	1152.75
338.422	1106.75
338.65	959.75
338.878	864.75
339.106	913.75
339.334	1010.75
339.562	1055.75
339.79	1036.75
340.018	959.75
340.246	1064.75
340.474	1188.75
340.702	1259.75
340.93	1296.75
341.158	1320.75
341.386	1100.75
341.614	1078.75
341.842	1116.75
342.07	1137.75
342.298	1329.75
342.526	1392.75
342.754	1202.75
342.981	1095.75
343.209	1068.75
343.437	1116.75
343.665	1176.75
343.893	1153.75
344.12	1384.75
344.348	1540.75
344.576	1411.75
344.804	1191.75
345.031	1026.75
345.259	964.75
345.487	993.75
345.714	997.75
345.942	1108.75
346.17	1198.75
346.397	1126.75
346.625	1005.75
346.853	975.75
347.08	932.75
347.308	1002.75
347.535	1094.75
347.763	1139.75
347.99	970.75
348.218	932.75
348.445	978.75
348.673	961.75
348.9	988.75
349.128	1016.75
349.355	1076.75
349.583	1043.75
349.81	1004.75
350.037	923.75
350.265	838.75
350.492	784.75
350.72	820.75
350.947	848.75
351.174	865.75
351.402	932.75
351.629	970.75
351.856	911.75
352.083	889.75
352.311	955.75
352.538	1042.75
352.765	1124.75
352.992	1043.75
353.22	974.75
353.447	998.75
353.674	963.75
353.901	940.75
354.128	962.75
354.355	1000.75
354.583	963.75
354.81	983.75
355.037	1035.75
355.264	963.75
355.491	1056.75
355.718	1133.75
355.945	1122.75
356.172	1065.75
356.399	1118.75
356.626	1294.75
356.853	1600.75
357.08	1686.75
357.307	1708.75
357.534	1336.75
357.761	1374.75
357.988	1720.75
358.215	2024.75
358.441	1904.75
358.668	1606.75
358.895	1480.75
359.122	1177.75
359.349	1212.75
359.576	1296.75
359.802	1089.75
360.029	931.75
360.256	1010.75
360.483	1260.75
360.709	1589.75
360.936	1623.75
361.163	1420.75
361.39	1116.75
361.616	1052.75
361.843	1233.75
362.07	1460.75
362.296	1352.75
362.523	1058.75
362.749	914.75
362.976	980.75
363.203	1213.75
363.429	1321.75
363.656	1050.75
363.882	965.75
364.109	998.75
364.335	1001.75
364.562	989.75
364.788	1103.75
365.015	1264.75
365.241	1154.75
365.468	930.75
365.694	845.75
365.92	792.75
366.147	793.75
366.373	800.75
366.599	773.75
366.826	810.75
367.052	815.75
367.278	846.75
367.505	820.75
367.731	885.75
367.957	1017.75
368.184	986.75
368.41	1006.75
368.636	1009.75
368.862	1050.75
369.089	1006.75
369.315	885.75
369.541	890.75
369.767	871.75
369.993	860.75
370.219	839.75
370.445	918.75
370.672	991.75
370.898	1079.75
371.124	1052.75
371.35	946.75
371.576	852.75
371.802	971.75
372.028	1145.75
372.254	1294.75
372.48	1137.75
372.706	1007.75
372.932	1086.75
373.158	1158.75
373.384	1345.75
373.61	1773.75
373.835	1852.75
374.061	1320.75
374.287	1132.75
374.513	1337.75
374.739	1648.75
374.965	1680.75
375.191	1635.75
375.416	1146.75
375.642	1049.75
375.868	1194.75
376.094	1335.75
376.319	1200.75
376.545	1268.75
376.771	1311.75
376.997	1151.75
377.222	833.75
377.448	753.75
377.674	762.75
377.899	751.75
378.125	734.75
378.35	750.75
378.576	801.75
378.802	821.75
379.027	932.75
379.253	880.75
379.478	897.75
379.704	1028.75
379.929	1084.75
380.155	1068.75
380.38	935.75
380.606	1004.75
380.831	1094.75
381.057	985.75
381.282	989.75
381.507	1129.75
381.733	1435.75
381.958	1531.75
382.184	1584.75
382.409	1676.75
382.634	1644.75
382.86	1710.75
383.085	1416.75
383.31	1139.75
383.535	1178.75
383.761	1216.75
383.986	1132.75
384.211	1400.75
384.436	1369.75
384.662	1040.75
384.887	974.75
385.112	1022.75
385.337	1023.75
385.562	976.75
385.787	1069.75
386.013	1192.75
386.238	1195.75
386.463	1020.75
386.688	972.75
386.913	939.75
387.138	893.75
387.363	970.75
387.588	970.75
387.813	975.75
388.038	1086.75
388.263	969.75
388.488	942.75
388.713	1100.75
388.938	1207.75
389.163	1035.75
389.387	882.75
389.612	922.75
389.837	944.75
390.062	971.75
390.287	972.75
390.512	1010.75
390.736	930.75
390.961	879.75
391.186	861.75
391.411	846.75
391.636	860.75
391.86	922.75
392.085	1024.75
392.31	970.75
392.534	956.75
392.759	950.75
392.984	982.75
393.208	969.75
393.433	860.75
393.658	815.75
393.882	822.75
394.107	796.75
394.331	828.75
394.556	791.75
394.78	810.75
395.005	844.75
395.229	894.75
395.454	853.75
395.678	866.75
395.903	901.75
396.127	896.75
396.352	893.75
396.576	988.75
396.801	974.75
397.025	1102.75
397.249	1097.75
397.474	924.75
397.698	914.75
397.922	980.75
398.147	918.75
398.371	930.75
398.595	977.75
398.82	964.75
399.044	951.75
399.268	1011.75
399.492	1055.75
399.717	1061.75
399.941	1104.75
400.165	1048.75
400.389	1023.75
400.613	1045.75
400.837	1037.75
401.062	928.75
401.286	878.75
401.51	889.75
401.734	899.75
401.958	925.75
402.182	902.75
402.406	920.75
402.63	903.75
402.854	947.75
403.078	1053.75
403.302	1296.75
403.526	1334.75
403.75	1188.75
403.974	1043.75
404.198	1108.75
404.422	1199.75
404.645	1425.75
404.869	1568.75
405.093	1153.75
405.317	984.75
405.541	978.75
405.765	1000.75
405.988	1012.75
406.212	1084.75
406.436	1293.75
406.66	1412.75
406.883	1097.75
407.107	1184.75
407.331	1356.75
407.555	1271.75
407.778	1086.75
408.002	1039.75
408.226	1052.75
408.449	1047.75
408.673	1024.75
408.896	927.75
409.12	917.75
409.344	898.75
409.567	910.75
409.791	882.75
410.014	888.75
410.238	890.75
410.461	869.75
410.685	882.75
410.908	892.75
411.132	924.75
411.355	971.75
411.578	961.75
411.802	921.75
412.025	1002.75
412.249	950.75
412.472	935.75
412.695	959.75
412.919	965.75
413.142	953.75
413.365	1042.75
413.589	1055.75
413.812	964.75
414.035	918.75
414.258	956.75
414.482	1049.75
414.705	1021.75
414.928	920.75
415.151	871.75
415.374	880.75
415.597	942.75
415.821	890.75
416.044	891.75
416.267	894.75
416.49	865.75
416.713	873.75
416.936	849.75
417.159	849.75
417.382	862.75
417.605	898.75
417.828	912.75
418.051	893.75
418.274	935.75
418.497	950.75
418.72	942.75
418.943	956.75
419.166	1008.75
419.389	1031.75
419.611	974.75
419.834	1038.75
420.057	1089.75
420.28	1089.75
420.503	1026.75
420.726	905.75
420.948	866.75
421.171	869.75
421.394	906.75
421.617	843.75
421.839	878.75
422.062	951.75
422.285	937.75
422.507	932.75
422.73	938.75
422.953	959.75
423.175	928.75
423.398	923.75
423.621	1013.75
423.843	1049.75
424.066	1015.75
424.288	939.75
424.511	895.75
424.733	916.75
424.956	940.75
425.178	1087.75
425.401	1193.75
425.623	1342.75
425.846	1162.75
426.068	1000.75
426.291	1109.75
426.513	1026.75
426.735	940.75
426.958	967.75
427.18	1124.75
427.402	1494.75
427.625	1438.75
427.847	1161.75
428.069	918.75
428.292	880.75
428.514	924.75
428.736	854.75
428.958	944.75
429.181	1109.75
429.403	979.75
429.625	907.75
429.847	893.75
430.069	886.75
430.292	893.75
430.514	910.75
430.736	936.75
430.958	1180.75
431.18	1060.75
431.402	837.75
431.624	808.75
431.846	818.75
432.068	807.75
432.29	830.75
432.512	900.75
432.734	1191.75
432.956	1114.75
433.178	898.75
433.4	849.75
433.622	826.75
433.844	881.75
434.066	901.75
434.287	897.75
434.509	882.75
434.731	938.75
434.953	899.75
435.175	909.75
435.397	1024.75
435.618	888.75
435.84	842.75
436.062	839.75
436.284	846.75
436.505	768.75
436.727	790.75
436.949	829.75
437.17	860.75
437.392	854.75
437.614	823.75
437.835	818.75
438.057	837.75
438.278	985.75
438.5	1382.75
438.721	1381.75
438.943	937.75
439.165	822.75
439.386	812.75
439.608	808.75
439.829	798.75
440.05	825.75
440.272	877.75
440.493	994.75
440.715	1213.75
440.936	999.75
441.158	842.75
441.379	868.75
441.6	1011.75
441.822	1018.75
442.043	889.75
442.264	887.75
442.486	880.75
442.707	893.75
442.928	885.75
443.149	892.75
443.371	892.75
443.592	920.75
443.813	930.75
444.034	899.75
444.255	889.75
444.476	935.75
444.698	976.75
444.919	927.75
445.14	1079.75
445.361	1009.75
445.582	960.75
445.803	951.75
446.024	933.75
446.245	969.75
446.466	917.75
446.687	892.75
446.908	895.75
447.129	844.75
447.35	804.75
447.571	790.75
447.792	790.75
448.013	768.75
448.234	777.75
448.455	765.75
448.675	775.75
448.896	821.75
449.117	792.75
449.338	805.75
449.559	821.75
449.779	884.75
450	850.75
450.221	842.75
450.442	796.75
450.662	816.75
450.883	788.75
451.104	812.75
451.324	782.75
451.545	816.75
451.766	822.75
451.986	797.75
452.207	788.75
452.428	791.75
452.648	764.75
452.869	809.75
453.089	834.75
453.31	846.75
453.53	757.75
453.751	750.75
453.971	725.75
454.192	749.75
454.412	816.75
454.633	767.75
454.853	763.75
455.073	725.75
455.294	734.75
455.514	721.75
455.734	797.75
455.955	814.75
456.175	843.75
456.395	753.75
456.616	707.75
456.836	702.75
457.056	696.75
457.276	710.75
457.497	721.75
457.717	705.75
457.937	724.75
458.157	691.75
458.377	737.75
458.598	744.75
458.818	767.75
459.038	823.75
459.258	842.75
459.478	833.75
459.698	902.75
459.918	860.75
460.138	892.75
460.358	885.75
460.578	874.75
460.798	890.75
461.018	912.75
461.238	862.75
461.458	894.75
461.678	888.75
461.898	933.75
462.118	920.75
462.338	961.75
462.558	950.75
462.777	994.75
462.997	1004.75
463.217	1013.75
463.437	1040.75
463.657	1000.75
463.876	995.75
464.096	984.75
464.316	967.75
464.536	954.75
464.755	1004.75
464.975	1024.75
465.195	973.75
465.414	1004.75
465.634	968.75
465.854	948.75
466.073	883.75
466.293	875.75
466.512	916.75
466.732	1032.75
466.951	1024.75
467.171	920.75
467.391	868.75
467.61	856.75
467.829	935.75
468.049	941.75
468.268	860.75
468.488	868.75
468.707	914.75
468.927	1060.75
469.146	1126.75
469.365	1056.75
469.585	961.75
469.804	1052.75
470.023	1093.75
470.243	978.75
470.462	924.75
470.681	917.75
470.901	935.75
471.12	963.75
471.339	949.75
471.558	897.75
471.777	936.75
471.997	1011.75
472.216	1144.75
472.435	1074.75
472.654	964.75
472.873	958.75
473.092	986.75
473.311	1038.75
473.53	931.75
473.749	947.75
473.968	968.75
474.187	982.75
474.406	927.75
474.625	924.75
474.844	956.75
475.063	1044.75
475.282	1045.75
475.501	1077.75
475.72	1142.75
475.939	1101.75
476.158	1112.75
476.377	1218.75
476.596	1428.75
476.814	1521.75
477.033	1225.75
477.252	1068.75
477.471	999.75
477.69	1017.75
477.908	1122.75
478.127	1180.75
478.346	1049.75
478.564	1153.75
478.783	1095.75
479.002	1108.75
479.22	1255.75
479.439	1434.75
479.658	1226.75
479.876	1145.75
480.095	1172.75
480.313	1240.75
480.532	1123.75
480.751	1087.75
480.969	1133.75
481.188	1262.75
481.406	1308.75
481.624	1262.75
481.843	1152.75
482.061	1078.75
482.28	1193.75
482.498	1474.75
482.717	1388.75
482.935	1200.75
483.153	1162.75
483.372	1056.75
483.59	1064.75
483.808	1087.75
484.027	1034.75
484.245	1006.75
484.463	989.75
484.681	1008.75
484.9	1106.75
485.118	1178.75
485.336	1109.75
485.554	1051.75
485.772	1091.75
485.99	1152.75
486.209	1252.75
486.427	1232.75
486.645	1191.75
486.863	1225.75
487.081	1231.75
487.299	1351.75
487.517	1333.75
487.735	1196.75
487.953	1262.75
488.171	1246.75
488.389	1202.75
488.607	1140.75
488.825	1189.75
489.043	1264.75
489.261	1463.75
489.479	1545.75
489.696	1294.75
489.914	1196.75
490.132	1128.75
490.35	1129.75
490.568	1153.75
490.786	1122.75
491.003	1132.75
491.221	1168.75
491.439	1152.75
491.657	1125.75
491.874	1239.75
492.092	1497.75
492.31	1788.75
492.527	1743.75
492.745	1522.75
492.963	1350.75
493.18	1295.75
493.398	1300.75
493.615	1281.75
493.833	1235.75
494.05	1245.75
494.268	1294.75
494.485	1221.75
494.703	1228.75
494.92	1256.75
495.138	1225.75
495.355	1240.75
495.573	1249.75
495.79	1400.75
496.008	1774.75
496.225	1572.75
496.442	1361.75
496.66	1340.75
496.877	1427.75
497.094	1426.75
497.312	1305.75
497.529	1302.75
497.746	1333.75
497.963	1395.75
498.181	1464.75
498.398	1617.75
498.615	1655.75
498.832	1692.75
499.049	1719.75
499.267	1584.75
499.484	1557.75
499.701	1607.75
499.918	1747.75
500.135	1918.75
500.352	1903.75
500.569	1973.75
500.786	2032.75
501.003	2044.75
501.22	1800.75
501.437	1693.75
501.654	1673.75
501.871	1606.75
502.088	1622.75
502.305	1564.75
502.522	1487.75
502.739	1504.75
502.956	1427.75
503.172	1335.75
503.389	1299.75
503.606	1277.75
503.823	1316.75
504.04	1333.75
504.256	1310.75
504.473	1341.75
504.69	1355.75
504.907	1376.75
505.123	1356.75
505.34	1478.75
505.557	1418.75
505.773	1329.75
505.99	1267.75
506.207	1354.75
506.423	1240.75
506.64	1179.75
506.856	1260.75
507.073	1373.75
507.289	1358.75
507.506	1338.75
507.722	1424.75
507.939	1446.75
508.155	1452.75
508.372	1343.75
508.588	1294.75
508.805	1218.75
509.021	1235.75
509.238	1174.75
509.454	1185.75
509.67	1201.75
509.887	1216.75
510.103	1357.75
510.319	1310.75
510.536	1193.75
510.752	1092.75
510.968	1044.75
511.184	1040.75
511.401	1046.75
511.617	1032.75
511.833	1038.75
512.049	1044.75
512.265	1089.75
512.481	1127.75
512.698	1232.75
512.914	1346.75
513.13	1270.75
513.346	1123.75
513.562	1186.75
513.778	1164.75
513.994	1168.75
514.21	1245.75
514.426	1197.75
514.642	1123.75
514.858	1116.75
515.074	1218.75
515.29	1282.75
515.506	1433.75
515.721	1340.75
515.937	1262.75
516.153	1178.75
516.369	1179.75
516.585	1222.75
516.801	1378.75
517.016	1622.75
517.232	1552.75
517.448	1532.75
517.664	1352.75
517.879	1277.75
518.095	1288.75
518.311	1278.75
518.527	1340.75
518.742	1385.75
518.958	1482.75
519.173	1423.75
519.389	1360.75
519.605	1400.75
519.82	1474.75
520.036	1744.75
520.251	1716.75
520.467	1550.75
520.682	2325.75
520.898	2877.75
521.113	2696.75
521.329	1745.75
521.544	1575.75
521.76	1556.75
521.975	1369.75
522.19	1315.75
522.406	1325.75
522.621	1476.75
522.836	1518.75
523.052	1548.75
523.267	1291.75
523.482	1289.75
523.698	1369.75
523.913	1368.75
524.128	1239.75
524.343	1183.75
524.559	1184.75
524.774	1160.75
524.989	1154.75
525.204	1196.75
525.419	1344.75
525.634	1223.75
525.849	1245.75
526.064	1281.75
526.28	1260.75
526.495	1499.75
526.71	1540.75
526.925	1365.75
527.14	1382.75
527.355	1358.75
527.57	1163.75
527.785	1228.75
527.999	1120.75
528.214	1097.75
528.429	1075.75
528.644	1097.75
528.859	1027.75
529.074	1018.75
529.289	986.75
529.503	1001.75
529.718	1030.75
529.933	1149.75
530.148	1216.75
530.363	1046.75
530.577	1042.75
530.792	1027.75
531.007	1005.75
531.221	987.75
531.436	985.75
531.651	971.75
531.865	1010.75
532.08	1022.75
532.295	995.75
532.509	1041.75
532.724	1182.75
532.938	1307.75
533.153	1508.75
533.367	1228.75
533.582	1169.75
533.796	1105.75
534.011	1033.75
534.225	1043.75
534.44	1077.75
534.654	1092.75
534.868	1226.75
535.083	1118.75
535.297	1026.75
535.511	1026.75
535.726	1179.75
535.94	1070.75
536.154	998.75
536.369	1003.75
536.583	1004.75
536.797	1026.75
537.011	1028.75
537.225	1119.75
537.44	1173.75
537.654	1054.75
537.868	1022.75
538.082	1008.75
538.296	989.75
538.51	1094.75
538.724	1095.75
538.938	1080.75
539.153	993.75
539.367	984.75
539.581	1020.75
539.795	1026.75
540.009	1133.75
540.222	1064.75
540.436	1034.75
540.65	1138.75
540.864	1174.75
541.078	1176.75
541.292	1351.75
541.506	1108.75
541.72	1065.75
541.934	1052.75
542.147	997.75
542.361	1062.75
542.575	1056.75
542.789	1056.75
543.002	971.75
543.216	1062.75
543.43	972.75
543.644	955.75
543.857	929.75
544.071	939.75
544.285	957.75
544.498	905.75
544.712	913.75
544.925	999.75
545.139	948.75
545.352	908.75
545.566	928.75
545.779	1041.75
545.993	978.75
546.206	897.75
546.42	871.75
546.633	883.75
546.847	856.75
547.06	844.75
547.274	850.75
547.487	904.75
547.7	942.75
547.914	1007.75
548.127	1131.75
548.34	1085.75
548.554	940.75
548.767	987.75
548.98	1053.75
549.193	972.75
549.407	1026.75
549.62	1180.75
549.833	1119.75
550.046	1166.75
550.259	1162.75
550.473	1035.75
550.686	983.75
550.899	1018.75
551.112	971.75
551.325	1065.75
551.538	1088.75
551.751	931.75
551.964	889.75
552.177	878.75
552.39	903.75
552.603	897.75
552.816	937.75
553.029	904.75
553.242	881.75
553.455	950.75
553.667	1038.75
553.88	953.75
554.093	882.75
554.306	817.75
554.519	795.75
554.732	774.75
554.944	791.75
555.157	782.75
555.37	792.75
555.583	764.75
555.795	776.75
556.008	793.75
556.221	818.75
556.433	796.75
556.646	776.75
556.859	800.75
557.071	808.75
557.284	800.75
557.496	831.75
557.709	793.75
557.921	792.75
558.134	739.75
558.346	722.75
558.559	723.75
558.771	783.75
558.984	814.75
559.196	767.75
559.409	757.75
559.621	708.75
559.833	696.75
560.046	726.75
560.258	727.75
560.47	766.75
560.683	711.75
560.895	697.75
561.107	688.75
561.32	693.75
561.532	688.75
561.744	777.75
561.956	809.75
562.168	717.75
562.381	674.75
562.593	722.75
562.805	735.75
563.017	720.75
563.229	690.75
563.441	679.75
563.653	694.75
563.865	682.75
564.077	708.75
564.289	695.75
564.501	713.75
564.713	764.75
564.925	736.75
565.137	681.75
565.349	707.75
565.561	706.75
565.773	713.75
565.985	722.75
566.197	786.75
566.408	841.75
566.62	850.75
566.832	836.75
567.044	852.75
567.255	882.75
567.467	956.75
567.679	868.75
567.891	878.75
568.102	884.75
568.314	918.75
568.526	850.75
568.737	840.75
568.949	890.75
569.161	772.75
569.372	695.75
569.584	701.75
569.795	692.75
570.007	700.75
570.218	731.75
570.43	724.75
570.641	674.75
570.853	656.75
571.064	662.75
571.276	699.75
571.487	746.75
571.698	665.75
571.91	658.75
572.121	679.75
572.333	613.75
572.544	630.75
572.755	632.75
572.966	626.75
573.178	609.75
573.389	658.75
573.6	660.75
573.811	649.75
574.023	592.75
574.234	565.75
574.445	570.75
574.656	560.75
574.867	581.75
575.078	594.75
575.289	599.75
575.501	641.75
575.712	578.75
575.923	595.75
576.134	551.75
576.345	540.75
576.556	561.75
576.767	558.75
576.978	546.75
577.188	520.75
577.399	501.75
577.61	529.75
577.821	544.75
578.032	543.75
578.243	576.75
578.454	587.75
578.665	564.75
578.875	573.75
579.086	545.75
579.297	556.75
579.508	564.75
579.718	563.75
579.929	574.75
580.14	548.75
580.35	520.75
580.561	503.75
580.772	510.75
580.982	498.75
581.193	486.75
581.403	466.75
581.614	469.75
581.825	479.75
582.035	478.75
582.246	472.75
582.456	487.75
582.667	466.75
582.877	464.75
583.087	481.75
583.298	474.75
583.508	448.75
583.719	456.75
583.929	460.75
584.139	474.75
584.35	449.75
584.56	470.75
584.77	445.75
584.981	467.75
585.191	467.75
585.401	469.75
585.611	468.75
585.821	488.75
586.032	504.75
586.242	484.75
586.452	479.75
586.662	450.75
586.872	495.75
587.082	469.75
587.292	476.75
587.502	477.75
587.713	442.75
587.923	438.75
588.133	495.75
588.343	496.75
588.553	466.75
588.762	444.75
588.972	455.75
589.182	466.75
589.392	470.75
589.602	465.75
589.812	489.75
590.022	514.75
590.232	508.75
590.441	448.75
590.651	468.75
590.861	441.75
591.071	458.75
591.281	458.75
591.49	479.75
591.7	437.75
591.91	454.75
592.119	444.75
592.329	453.75
592.539	463.75
592.748	462.75
592.958	476.75
593.167	463.75
593.377	488.75
593.587	490.75
593.796	483.75
594.006	447.75
594.215	460.75
594.424	483.75
594.634	499.75
594.843	486.75
595.053	449.75
595.262	436.75
595.472	433.75
595.681	438.75
595.89	442.75
596.1	434.75
596.309	466.75
596.518	439.75
596.727	418.75
596.937	420.75
597.146	433.75
597.355	506.75
597.564	414.75
597.774	425.75
597.983	400.75
598.192	416.75
598.401	392.75
598.61	385.75
598.819	390.75
599.028	396.75
599.237	414.75
599.446	392.75
599.655	382.75
599.864	387.75
600.073	390.75
600.282	374.75
600.491	377.75
600.7	405.75
600.909	401.75
601.118	386.75
601.327	380.75
601.536	378.75
601.745	405.75
601.953	404.75
602.162	374.75
602.371	405.75
602.58	416.75
602.789	386.75
602.997	363.75
603.206	390.75
603.415	384.75
603.623	368.75
603.832	358.75
604.041	344.75
604.249	380.75
604.458	400.75
604.666	380.75
604.875	355.75
605.084	350.75
605.292	354.75
605.501	389.75
605.709	361.75
605.918	364.75
606.126	368.75
606.334	345.75
606.543	372.75
606.751	359.75
606.96	349.75
607.168	349.75
607.376	330.75
607.585	339.75
607.793	350.75
608.001	365.75
608.21	359.75
608.418	368.75
608.626	368.75
608.834	346.75
609.043	350.75
609.251	348.75
609.459	347.75
609.667	343.75
609.875	349.75
610.083	340.75
610.291	368.75
610.499	347.75
610.707	340.75
610.916	344.75
611.124	341.75
611.332	333.75
611.54	337.75
611.748	326.75
611.955	327.75
612.163	330.75
612.371	339.75
612.579	338.75
612.787	315.75
612.995	339.75
613.203	320.75
613.411	325.75
613.618	333.75
613.826	349.75
614.034	344.75
614.242	345.75
614.449	335.75
614.657	323.75
614.865	325.75
615.072	336.75
615.28	319.75
615.488	328.75
615.695	326.75
615.903	346.75
616.111	316.75
616.318	324.75
616.526	331.75
616.733	330.75
616.941	325.75
617.148	356.75
617.356	334.75
617.563	319.75
617.771	312.75
617.978	320.75
618.185	320.75
618.393	314.75
618.6	319.75
618.807	315.75
619.015	343.75
619.222	307.75
619.429	344.75
619.637	310.75
619.844	301.75
620.051	315.75
620.258	310.75
620.466	312.75
620.673	301.75
620.88	296.75
621.087	288.75
621.294	288.75
621.501	303.75
621.708	306.75
621.915	281.75
622.122	283.75
622.329	279.75
622.536	299.75
622.743	277.75
622.95	295.75
623.157	290.75
623.364	324.75
623.571	293.75
623.778	290.75
623.985	303.75
624.192	306.75
624.399	304.75
624.606	297.75
624.812	300.75
625.019	294.75
625.226	304.75
625.433	293.75
625.639	281.75
625.846	282.75
626.053	294.75
626.259	272.75
626.466	280.75
626.673	312.75
626.879	297.75
627.086	275.75
627.293	258.75
627.499	264.75
627.706	279.75
627.912	273.75
628.119	265.75
628.325	282.75
628.532	250.75
628.738	257.75
628.945	257.75
629.151	271.75
629.357	272.75
629.564	279.75
629.77	261.75
629.976	279.75
630.183	243.75
630.389	265.75
630.595	261.75
630.802	255.75
631.008	265.75
631.214	256.75
631.42	246.75
631.627	240.75
631.833	245.75
632.039	244.75
632.245	239.75
632.451	259.75
632.657	259.75
632.863	247.75
633.069	227.75
633.275	240.75
633.481	259.75
633.688	254.75
633.893	261.75
634.099	264.75
634.305	256.75
634.511	250.75
634.717	224.75
634.923	224.75
635.129	224.75
635.335	231.75
635.541	243.75
635.747	228.75
635.952	249.75
636.158	238.75
636.364	218.75
636.57	242.75
636.775	227.75
636.981	242.75
637.187	226.75
637.392	254.75
637.598	225.75
637.804	227.75
638.009	224.75
638.215	234.75
638.421	227.75
638.626	231.75
638.832	210.75
639.037	216.75
639.243	209.75
639.448	238.75
639.654	241.75
639.859	225.75
640.065	229.75
640.27	233.75
640.475	246.75
640.681	227.75
640.886	231.75
641.091	228.75
641.297	244.75
641.502	229.75
641.707	227.75
641.913	222.75
642.118	215.75
642.323	230.75
642.528	238.75
642.733	225.75
642.939	198.75
643.144	205.75
643.349	229.75
643.554	231.75
643.759	226.75
643.964	211.75
644.169	219.75
644.374	200.75
644.579	220.75
644.784	192.75
644.989	215.75
645.194	211.75
645.399	202.75
645.604	207.75
645.809	208.75
646.014	209.75
646.219	218.75
646.423	199.75
646.628	220.75
646.833	210.75
647.038	204.75
647.243	214.75
647.447	208.75
647.652	214.75
647.857	214.75
648.062	213.75
648.266	213.75
648.471	206.75
648.676	216.75
648.88	206.75
649.085	217.75
649.289	201.75
649.494	204.75
649.698	213.75
649.903	210.75
650.107	206.75
650.312	202.75
650.516	199.75
650.721	194.75
650.925	189.75
651.13	184.75
651.334	195.75
651.539	190.75
651.743	180.75
651.947	182.75
652.152	184.75
652.356	169.75
652.56	178.75
652.764	185.75
652.969	173.75
653.173	164.75
653.377	148.75
653.581	168.75
653.785	169.75
653.99	174.75
654.194	158.75
654.398	175.75
654.602	170.75
654.806	156.75
655.01	158.75
655.214	156.75
655.418	160.75
655.622	162.75
655.826	157.75
656.03	148.75
656.234	166.75
656.438	176.75
656.642	142.75
656.846	161.75
657.049	157.75
657.253	141.75
657.457	142.75
657.661	145.75
657.865	145.75
658.068	145.75
658.272	128.75
658.476	105.75
658.68	117.75
658.883	116.75
659.087	111.75
659.291	114.75
659.494	99.75
659.698	98.75
659.901	116.75
660.105	112.75
660.309	113.75
660.512	93.75
660.716	91.75
660.919	96.75
661.123	108.75
661.326	99.75
661.53	102.75
661.733	95.75
661.936	86.75
662.14	88.75
662.343	95.75
662.546	92.75
662.75	83.75
662.953	85.75
663.156	93.75
663.36	101.75
663.563	94.75
663.766	84.75
663.969	80.75
664.173	71.75
664.376	85.75
664.579	80.75
664.782	88.75
664.985	81.75
665.188	90.75
665.391	81.75
665.594	90.75
665.797	71.75
666	82.75
666.203	77.75
666.406	77.75
666.609	82.75
666.812	93.75
667.015	88.75
667.218	73.75
667.421	82.75
667.624	78.75
667.827	83.75
668.03	75.75
668.232	86.75
668.435	79.75
668.638	83.75
668.841	90.75
669.043	73.75
669.246	73.75
669.449	95.75
669.651	88.75
669.854	83.75
670.057	67.75
670.259	72.75
670.462	83.75
670.665	86.75
670.867	96.75
671.07	72.75
671.272	88.75
671.475	88.75
671.677	77.75
671.88	86.75
672.082	78.75
672.284	74.75
672.487	87.75
672.689	60.75
672.892	80.75
