Data from NickelSpatula.Lamp.E10.P2_HRD10591_11-57-07-533.txt Node
Date: Tue Jul 23 11:57:07 EDT 2019
User: cochatt
Spectrometer: HR+D1059
Trigger mode: 1
Integration Time (sec): 1.000000E-1
Scans to average: 1
Electric dark correction enabled: true
Nonlinearity correction enabled: false
Boxcar width: 0
XAxis mode: Wavelengths
Number of Pixels in Spectrum: 2048
>>>>>Begin Spectral Data<<<<<
223.165	-18.75
223.4	-18.75
223.635	-18.75
223.869	-8.75
224.104	-26.75
224.338	-20.75
224.573	-4.75
224.808	-8.75
225.042	-14.75
225.277	-8.75
225.511	-5.75
225.746	1.25
225.98	12.25
226.215	17.25
226.449	15.25
226.683	17.25
226.918	26.25
227.152	28.25
227.387	33.25
227.621	39.25
227.856	46.25
228.09	55.25
228.324	45.25
228.559	55.25
228.793	75.25
229.027	153.25
229.262	157.25
229.496	168.25
229.73	163.25
229.964	194.25
230.199	229.25
230.433	207.25
230.667	205.25
230.901	177.25
231.136	197.25
231.37	209.25
231.604	226.25
231.838	241.25
232.072	241.25
232.306	237.25
232.541	236.25
232.775	225.25
233.009	254.25
233.243	285.25
233.477	317.25
233.711	366.25
233.945	342.25
234.179	328.25
234.413	336.25
234.647	381.25
234.881	435.25
235.115	393.25
235.349	391.25
235.583	362.25
235.817	351.25
236.051	380.25
236.285	430.25
236.519	471.25
236.753	409.25
236.987	417.25
237.221	406.25
237.455	423.25
237.689	431.25
237.922	441.25
238.156	477.25
238.39	562.25
238.624	629.25
238.858	575.25
239.091	475.25
239.325	487.25
239.559	471.25
239.793	523.25
240.027	661.25
240.26	601.25
240.494	587.25
240.728	574.25
240.961	673.25
241.195	614.25
241.429	622.25
241.662	593.25
241.896	513.25
242.13	483.25
242.363	438.25
242.597	476.25
242.83	522.25
243.064	531.25
243.298	579.25
243.531	615.25
243.765	615.25
243.998	617.25
244.232	607.25
244.465	595.25
244.699	571.25
244.932	651.25
245.166	612.25
245.399	547.25
245.633	517.25
245.866	558.25
246.099	611.25
246.333	691.25
246.566	748.25
246.8	750.25
247.033	716.25
247.266	695.25
247.5	660.25
247.733	647.25
247.966	625.25
248.2	671.25
248.433	763.25
248.666	818.25
248.899	812.25
249.133	844.25
249.366	983.25
249.599	1002.25
249.832	937.25
250.066	820.25
250.299	814.25
250.532	822.25
250.765	805.25
250.998	725.25
251.231	706.25
251.465	754.25
251.698	809.25
251.931	777.25
252.164	812.25
252.397	897.25
252.63	1009.25
252.863	1116.25
253.096	1171.25
253.329	1115.25
253.562	1073.25
253.795	1203.25
254.028	1300.25
254.261	1359.25
254.494	1222.25
254.727	1137.25
254.96	1049.25
255.193	1150.25
255.426	1121.25
255.659	845.25
255.892	787.25
256.124	869.25
256.357	1003.25
256.59	1147.25
256.823	1142.25
257.056	947.25
257.289	918.25
257.521	938.25
257.754	1102.25
257.987	1258.25
258.22	1120.25
258.452	979.25
258.685	1106.25
258.918	1276.25
259.151	1227.25
259.383	1301.25
259.616	1495.25
259.849	1531.25
260.081	1659.25
260.314	1844.25
260.547	1447.25
260.779	1456.25
261.012	1707.25
261.244	1555.25
261.477	1638.25
261.71	1510.25
261.942	1277.25
262.175	1247.25
262.407	1205.25
262.64	1259.25
262.872	1462.25
263.105	1573.25
263.337	1679.25
263.57	1506.25
263.802	1009.25
264.035	890.25
264.267	857.25
264.499	769.25
264.732	703.25
264.964	693.25
265.197	724.25
265.429	797.25
265.661	804.25
265.894	843.25
266.126	895.25
266.358	1014.25
266.591	1230.25
266.823	1456.25
267.055	1373.25
267.287	1209.25
267.52	1220.25
267.752	1326.25
267.984	1409.25
268.216	1339.25
268.448	1089.25
268.681	1102.25
268.913	1182.25
269.145	1248.25
269.377	1299.25
269.609	1299.25
269.841	1211.25
270.073	1302.25
270.306	1353.25
270.538	1377.25
270.77	1398.25
271.002	1385.25
271.234	1451.25
271.466	1485.25
271.698	1416.25
271.93	1379.25
272.162	1391.25
272.394	1353.25
272.626	1353.25
272.858	1385.25
273.09	1436.25
273.322	1271.25
273.553	1219.25
273.785	1461.25
274.017	1869.25
274.249	2340.25
274.481	2410.25
274.713	2606.25
274.945	3026.25
275.176	3123.25
275.408	2687.25
275.64	2558.25
275.872	2522.25
276.104	2137.25
276.335	1873.25
276.567	1825.25
276.799	1923.25
277.031	2026.25
277.262	1559.25
277.494	1213.25
277.726	1179.25
277.957	1297.25
278.189	1446.25
278.421	1440.25
278.652	1407.25
278.884	1319.25
279.115	1234.25
279.347	1186.25
279.579	1157.25
279.81	1191.25
280.042	1178.25
280.273	1229.25
280.505	1113.25
280.736	1025.25
280.968	1007.25
281.199	1086.25
281.431	1224.25
281.662	1198.25
281.894	1152.25
282.125	1221.25
282.356	1337.25
282.588	1379.25
282.819	1243.25
283.051	1315.25
283.282	1651.25
283.513	1897.25
283.745	2154.25
283.976	2155.25
284.207	1975.25
284.439	2051.25
284.67	1935.25
284.901	1741.25
285.132	1910.25
285.364	1965.25
285.595	1835.25
285.826	1927.25
286.057	1990.25
286.288	1901.25
286.52	1976.25
286.751	2093.25
286.982	2070.25
287.213	1802.25
287.444	1725.25
287.675	1806.25
287.906	1804.25
288.138	1530.25
288.369	1350.25
288.6	1270.25
288.831	1312.25
289.062	1574.25
289.293	1685.25
289.524	1585.25
289.755	1582.25
289.986	1614.25
290.217	1457.25
290.448	1101.25
290.679	949.25
290.91	895.25
291.141	901.25
291.371	953.25
291.602	966.25
291.833	958.25
292.064	1049.25
292.295	1211.25
292.526	1338.25
292.757	1359.25
292.987	1527.25
293.218	1524.25
293.449	1580.25
293.68	1667.25
293.91	1574.25
294.141	1581.25
294.372	1516.25
294.603	1410.25
294.833	1567.25
295.064	1804.25
295.295	1721.25
295.525	1274.25
295.756	1107.25
295.987	979.25
296.217	993.25
296.448	993.25
296.679	1018.25
296.909	1188.25
297.14	1211.25
297.37	1358.25
297.601	1268.25
297.831	1138.25
298.062	1234.25
298.292	1366.25
298.523	1484.25
298.753	1675.25
298.984	1534.25
299.214	1217.25
299.445	1017.25
299.675	975.25
299.905	975.25
300.136	996.25
300.366	1124.25
300.597	1099.25
300.827	970.25
301.057	936.25
301.288	978.25
301.518	1031.25
301.748	1147.25
301.979	1221.25
302.209	1326.25
302.439	1340.25
302.669	1165.25
302.9	1183.25
303.13	1111.25
303.36	1095.25
303.59	1023.25
303.82	1065.25
304.051	1182.25
304.281	1289.25
304.511	1219.25
304.741	1099.25
304.971	1171.25
305.201	1221.25
305.431	1157.25
305.661	1011.25
305.891	1027.25
306.121	1021.25
306.352	918.25
306.582	861.25
306.812	829.25
307.042	793.25
307.272	792.25
307.502	770.25
307.731	829.25
307.961	889.25
308.191	805.25
308.421	781.25
308.651	771.25
308.881	733.25
309.111	757.25
309.341	781.25
309.571	881.25
309.8	870.25
310.03	883.25
310.26	953.25
310.49	913.25
310.72	866.25
310.949	844.25
311.179	860.25
311.409	909.25
311.639	1083.25
311.868	1373.25
312.098	1762.25
312.328	1897.25
312.557	1818.25
312.787	1823.25
313.017	1619.25
313.246	1723.25
313.476	1909.25
313.706	1549.25
313.935	1271.25
314.165	1043.25
314.394	947.25
314.624	929.25
314.853	976.25
315.083	1042.25
315.312	993.25
315.542	1006.25
315.771	915.25
316.001	848.25
316.23	830.25
316.46	799.25
316.689	852.25
316.919	853.25
317.148	870.25
317.377	839.25
317.607	872.25
317.836	917.25
318.065	1067.25
318.295	1162.25
318.524	1101.25
318.753	936.25
318.983	898.25
319.212	899.25
319.441	960.25
319.67	1066.25
319.9	1173.25
320.129	1068.25
320.358	932.25
320.587	933.25
320.816	977.25
321.046	1101.25
321.275	1228.25
321.504	1228.25
321.733	1193.25
321.962	1139.25
322.191	1103.25
322.42	1059.25
322.649	1030.25
322.878	1144.25
323.108	1130.25
323.337	1045.25
323.566	1035.25
323.795	1009.25
324.024	985.25
324.253	966.25
324.482	967.25
324.71	998.25
324.939	1172.25
325.168	1047.25
325.397	905.25
325.626	897.25
325.855	883.25
326.084	904.25
326.313	827.25
326.542	782.25
326.77	846.25
326.999	895.25
327.228	891.25
327.457	981.25
327.686	960.25
327.914	870.25
328.143	798.25
328.372	801.25
328.6	818.25
328.829	862.25
329.058	874.25
329.287	855.25
329.515	878.25
329.744	840.25
329.972	824.25
330.201	780.25
330.43	837.25
330.658	893.25
330.887	1005.25
331.115	990.25
331.344	1020.25
331.572	926.25
331.801	884.25
332.03	841.25
332.258	878.25
332.486	926.25
332.715	955.25
332.943	876.25
333.172	887.25
333.4	925.25
333.629	1025.25
333.857	1103.25
334.085	1069.25
334.314	1082.25
334.542	1036.25
334.771	949.25
334.999	901.25
335.227	891.25
335.455	922.25
335.684	1003.25
335.912	1171.25
336.14	1265.25
336.369	1230.25
336.597	1189.25
336.825	1307.25
337.053	1457.25
337.281	1181.25
337.51	984.25
337.738	953.25
337.966	1027.25
338.194	1149.25
338.422	1061.25
338.65	921.25
338.878	863.25
339.106	901.25
339.334	959.25
339.562	1012.25
339.79	975.25
340.018	937.25
340.246	1002.25
340.474	1147.25
340.702	1211.25
340.93	1281.25
341.158	1257.25
341.386	1074.25
341.614	1059.25
341.842	1069.25
342.07	1115.25
342.298	1264.25
342.526	1301.25
342.754	1152.25
342.981	1037.25
343.209	998.25
343.437	1080.25
343.665	1151.25
343.893	1151.25
344.12	1300.25
344.348	1505.25
344.576	1337.25
344.804	1109.25
345.031	984.25
345.259	949.25
345.487	939.25
345.714	971.25
345.942	1069.25
346.17	1149.25
346.397	1084.25
346.625	939.25
346.853	920.25
347.08	902.25
347.308	980.25
347.535	1064.25
347.763	1101.25
347.99	978.25
348.218	910.25
348.445	949.25
348.673	959.25
348.9	937.25
349.128	1008.25
349.355	1025.25
349.583	981.25
349.81	973.25
350.037	894.25
350.265	843.25
350.492	771.25
350.72	773.25
350.947	802.25
351.174	879.25
351.402	901.25
351.629	904.25
351.856	871.25
352.083	830.25
352.311	925.25
352.538	980.25
352.765	1059.25
352.992	974.25
353.22	910.25
353.447	918.25
353.674	919.25
353.901	892.25
354.128	932.25
354.355	937.25
354.583	911.25
354.81	936.25
355.037	958.25
355.264	959.25
355.491	1007.25
355.718	1087.25
355.945	1061.25
356.172	1013.25
356.399	1013.25
356.626	1241.25
356.853	1465.25
357.08	1538.25
357.307	1585.25
357.534	1250.25
357.761	1252.25
357.988	1607.25
358.215	1833.25
358.441	1747.25
358.668	1473.25
358.895	1345.25
359.122	1113.25
359.349	1111.25
359.576	1197.25
359.802	1004.25
360.029	903.25
360.256	988.25
360.483	1153.25
360.709	1455.25
360.936	1503.25
361.163	1313.25
361.39	1047.25
361.616	999.25
361.843	1127.25
362.07	1356.25
362.296	1253.25
362.523	1006.25
362.749	872.25
362.976	922.25
363.203	1110.25
363.429	1235.25
363.656	987.25
363.882	910.25
364.109	908.25
364.335	946.25
364.562	926.25
364.788	1045.25
365.015	1201.25
365.241	1078.25
365.468	898.25
365.694	787.25
365.92	785.25
366.147	770.25
366.373	754.25
366.599	780.25
366.826	780.25
367.052	797.25
367.278	801.25
367.505	775.25
367.731	850.25
367.957	950.25
368.184	961.25
368.41	933.25
368.636	962.25
368.862	997.25
369.089	968.25
369.315	869.25
369.541	818.25
369.767	823.25
369.993	838.25
370.219	833.25
370.445	855.25
370.672	952.25
370.898	1003.25
371.124	999.25
371.35	908.25
371.576	852.25
371.802	915.25
372.028	1093.25
372.254	1191.25
372.48	1081.25
372.706	972.25
372.932	990.25
373.158	1062.25
373.384	1221.25
373.61	1619.25
373.835	1630.25
374.061	1243.25
374.287	1059.25
374.513	1250.25
374.739	1442.25
374.965	1551.25
375.191	1505.25
375.416	1060.25
375.642	964.25
375.868	1110.25
376.094	1250.25
376.319	1075.25
376.545	1192.25
376.771	1260.25
376.997	1063.25
377.222	842.25
377.448	750.25
377.674	741.25
377.899	751.25
378.125	714.25
378.35	738.25
378.576	777.25
378.802	805.25
379.027	862.25
379.253	854.25
379.478	867.25
379.704	970.25
379.929	1039.25
380.155	1027.25
380.38	877.25
380.606	947.25
380.831	1045.25
381.057	978.25
381.282	906.25
381.507	1061.25
381.733	1338.25
381.958	1420.25
382.184	1499.25
382.409	1530.25
382.634	1482.25
382.86	1582.25
383.085	1283.25
383.31	1035.25
383.535	1134.25
383.761	1161.25
383.986	1080.25
384.211	1302.25
384.436	1262.25
384.662	973.25
384.887	961.25
385.112	975.25
385.337	998.25
385.562	920.25
385.787	1013.25
386.013	1164.25
386.238	1153.25
386.463	968.25
386.688	923.25
386.913	905.25
387.138	859.25
387.363	937.25
387.588	925.25
387.813	960.25
388.038	1028.25
388.263	933.25
388.488	912.25
388.713	1027.25
388.938	1117.25
389.163	988.25
389.387	909.25
389.612	872.25
389.837	907.25
390.062	926.25
390.287	915.25
390.512	946.25
390.736	907.25
390.961	850.25
391.186	833.25
391.411	811.25
391.636	837.25
391.86	886.25
392.085	979.25
392.31	962.25
392.534	882.25
392.759	905.25
392.984	931.25
393.208	935.25
393.433	866.25
393.658	795.25
393.882	787.25
394.107	786.25
394.331	799.25
394.556	786.25
394.78	799.25
395.005	848.25
395.229	851.25
395.454	864.25
395.678	855.25
395.903	893.25
396.127	865.25
396.352	882.25
396.576	961.25
396.801	955.25
397.025	1057.25
397.249	1078.25
397.474	911.25
397.698	922.25
397.922	965.25
398.147	898.25
398.371	909.25
398.595	955.25
398.82	947.25
399.044	942.25
399.268	987.25
399.492	1025.25
399.717	1048.25
399.941	1080.25
400.165	1035.25
400.389	1027.25
400.613	1033.25
400.837	1000.25
401.062	938.25
401.286	914.25
401.51	871.25
401.734	898.25
401.958	921.25
402.182	872.25
402.406	861.25
402.63	917.25
402.854	925.25
403.078	1066.25
403.302	1252.25
403.526	1276.25
403.75	1172.25
403.974	1031.25
404.198	1087.25
404.422	1187.25
404.645	1334.25
404.869	1466.25
405.093	1156.25
405.317	985.25
405.541	969.25
405.765	1002.25
405.988	972.25
406.212	1048.25
406.436	1212.25
406.66	1321.25
406.883	1093.25
407.107	1146.25
407.331	1244.25
407.555	1240.25
407.778	1083.25
408.002	1045.25
408.226	1045.25
408.449	1009.25
408.673	991.25
408.896	920.25
409.12	911.25
409.344	931.25
409.567	873.25
409.791	880.25
410.014	877.25
410.238	879.25
410.461	911.25
410.685	875.25
410.908	887.25
411.132	917.25
411.355	913.25
411.578	949.25
411.802	935.25
412.025	978.25
412.249	955.25
412.472	943.25
412.695	979.25
412.919	953.25
413.142	987.25
413.365	1009.25
413.589	1013.25
413.812	965.25
414.035	919.25
414.258	915.25
414.482	1018.25
414.705	1013.25
414.928	892.25
415.151	891.25
415.374	855.25
415.597	882.25
415.821	894.25
416.044	885.25
416.267	881.25
416.49	854.25
416.713	859.25
416.936	856.25
417.159	861.25
417.382	882.25
417.605	861.25
417.828	885.25
418.051	903.25
418.274	922.25
418.497	901.25
418.72	892.25
418.943	935.25
419.166	972.25
419.389	1019.25
419.611	973.25
419.834	990.25
420.057	1052.25
420.28	1039.25
420.503	994.25
420.726	891.25
420.948	864.25
421.171	888.25
421.394	899.25
421.617	859.25
421.839	869.25
422.062	934.25
422.285	924.25
422.507	917.25
422.73	962.25
422.953	918.25
423.175	928.25
423.398	933.25
423.621	990.25
423.843	1018.25
424.066	974.25
424.288	907.25
424.511	901.25
424.733	932.25
424.956	921.25
425.178	1007.25
425.401	1176.25
425.623	1292.25
425.846	1112.25
426.068	968.25
426.291	1061.25
426.513	979.25
426.735	951.25
426.958	981.25
427.18	1115.25
427.402	1377.25
427.625	1349.25
427.847	1137.25
428.069	903.25
428.292	874.25
428.514	861.25
428.736	857.25
428.958	924.25
429.181	1070.25
429.403	959.25
429.625	879.25
429.847	854.25
430.069	893.25
430.292	876.25
430.514	863.25
430.736	909.25
430.958	1129.25
431.18	999.25
431.402	836.25
431.624	806.25
431.846	798.25
432.068	785.25
432.29	835.25
432.512	889.25
432.734	1129.25
432.956	1064.25
433.178	884.25
433.4	842.25
433.622	828.25
433.844	858.25
434.066	938.25
434.287	905.25
434.509	866.25
434.731	923.25
434.953	874.25
435.175	910.25
435.397	993.25
435.618	870.25
435.84	829.25
436.062	836.25
436.284	801.25
436.505	793.25
436.727	792.25
436.949	794.25
437.17	863.25
437.392	854.25
437.614	819.25
437.835	807.25
438.057	849.25
438.278	957.25
438.5	1279.25
438.721	1289.25
438.943	923.25
439.165	807.25
439.386	779.25
439.608	786.25
439.829	783.25
440.05	790.25
440.272	828.25
440.493	973.25
440.715	1154.25
440.936	949.25
441.158	857.25
441.379	862.25
441.6	960.25
441.822	996.25
442.043	877.25
442.264	874.25
442.486	858.25
442.707	858.25
442.928	875.25
443.149	892.25
443.371	857.25
443.592	912.25
443.813	937.25
444.034	913.25
444.255	925.25
444.476	926.25
444.698	932.25
444.919	965.25
445.14	991.25
445.361	983.25
445.582	938.25
445.803	920.25
446.024	907.25
446.245	949.25
446.466	881.25
446.687	844.25
446.908	889.25
447.129	843.25
447.35	824.25
447.571	819.25
447.792	825.25
448.013	788.25
448.234	791.25
448.455	784.25
448.675	789.25
448.896	808.25
449.117	765.25
449.338	800.25
449.559	833.25
449.779	868.25
450	872.25
450.221	843.25
450.442	817.25
450.662	815.25
450.883	793.25
451.104	810.25
451.324	775.25
451.545	812.25
451.766	776.25
451.986	778.25
452.207	773.25
452.428	789.25
452.648	759.25
452.869	808.25
453.089	814.25
453.31	808.25
453.53	731.25
453.751	732.25
453.971	733.25
454.192	764.25
454.412	788.25
454.633	741.25
454.853	753.25
455.073	726.25
455.294	733.25
455.514	722.25
455.734	747.25
455.955	776.25
456.175	818.25
456.395	767.25
456.616	733.25
456.836	693.25
457.056	701.25
457.276	715.25
457.497	717.25
457.717	715.25
457.937	716.25
458.157	725.25
458.377	735.25
458.598	736.25
458.818	763.25
459.038	797.25
459.258	827.25
459.478	857.25
459.698	900.25
459.918	912.25
460.138	892.25
460.358	876.25
460.578	850.25
460.798	843.25
461.018	883.25
461.238	840.25
461.458	845.25
461.678	859.25
461.898	930.25
462.118	903.25
462.338	936.25
462.558	954.25
462.777	1005.25
462.997	1007.25
463.217	1031.25
463.437	1031.25
463.657	1040.25
463.876	971.25
464.096	951.25
464.316	979.25
464.536	986.25
464.755	977.25
464.975	997.25
465.195	935.25
465.414	986.25
465.634	949.25
465.854	936.25
466.073	859.25
466.293	881.25
466.512	915.25
466.732	991.25
466.951	1027.25
467.171	894.25
467.391	847.25
467.61	834.25
467.829	923.25
468.049	917.25
468.268	853.25
468.488	851.25
468.707	912.25
468.927	1049.25
469.146	1122.25
469.365	977.25
469.585	956.25
469.804	1028.25
470.023	1094.25
470.243	941.25
470.462	907.25
470.681	877.25
470.901	909.25
471.12	990.25
471.339	965.25
471.558	899.25
471.777	889.25
471.997	1003.25
472.216	1125.25
472.435	1034.25
472.654	972.25
472.873	924.25
473.092	986.25
473.311	1029.25
473.53	945.25
473.749	914.25
473.968	953.25
474.187	966.25
474.406	914.25
474.625	919.25
474.844	946.25
475.063	1026.25
475.282	1028.25
475.501	1083.25
475.72	1085.25
475.939	1070.25
476.158	1071.25
476.377	1267.25
476.596	1380.25
476.814	1453.25
477.033	1208.25
477.252	1043.25
477.471	997.25
477.69	1007.25
477.908	1089.25
478.127	1129.25
478.346	1039.25
478.564	1128.25
478.783	1079.25
479.002	1107.25
479.22	1269.25
479.439	1393.25
479.658	1225.25
479.876	1124.25
480.095	1181.25
480.313	1207.25
480.532	1107.25
480.751	1103.25
480.969	1109.25
481.188	1251.25
481.406	1293.25
481.624	1198.25
481.843	1087.25
482.061	1048.25
482.28	1172.25
482.498	1415.25
482.717	1358.25
482.935	1167.25
483.153	1131.25
483.372	1058.25
483.59	1061.25
483.808	1048.25
484.027	1030.25
484.245	985.25
484.463	969.25
484.681	1028.25
484.9	1107.25
485.118	1203.25
485.336	1061.25
485.554	1027.25
485.772	1068.25
485.99	1156.25
486.209	1214.25
486.427	1205.25
486.645	1190.25
486.863	1205.25
487.081	1194.25
487.299	1302.25
487.517	1268.25
487.735	1185.25
487.953	1216.25
488.171	1235.25
488.389	1163.25
488.607	1089.25
488.825	1124.25
489.043	1240.25
489.261	1374.25
489.479	1466.25
489.696	1248.25
489.914	1125.25
490.132	1106.25
490.35	1129.25
490.568	1121.25
490.786	1138.25
491.003	1132.25
491.221	1147.25
491.439	1127.25
491.657	1117.25
491.874	1201.25
492.092	1430.25
492.31	1663.25
492.527	1623.25
492.745	1448.25
492.963	1321.25
493.18	1285.25
493.398	1283.25
493.615	1256.25
493.833	1260.25
494.05	1232.25
494.268	1228.25
494.485	1197.25
494.703	1197.25
494.92	1167.25
495.138	1174.25
495.355	1199.25
495.573	1214.25
495.79	1333.25
496.008	1644.25
496.225	1479.25
496.442	1325.25
496.66	1325.25
496.877	1405.25
497.094	1362.25
497.312	1281.25
497.529	1273.25
497.746	1302.25
497.963	1332.25
498.181	1443.25
498.398	1569.25
498.615	1602.25
498.832	1666.25
499.049	1701.25
499.267	1521.25
499.484	1567.25
499.701	1582.25
499.918	1706.25
500.135	1891.25
500.352	1909.25
500.569	1960.25
500.786	1989.25
501.003	1987.25
501.22	1810.25
501.437	1703.25
501.654	1633.25
501.871	1574.25
502.088	1625.25
502.305	1497.25
502.522	1495.25
502.739	1499.25
502.956	1349.25
503.172	1380.25
503.389	1327.25
503.606	1263.25
503.823	1258.25
504.04	1300.25
504.256	1301.25
504.473	1343.25
504.69	1341.25
504.907	1384.25
505.123	1344.25
505.34	1441.25
505.557	1387.25
505.773	1287.25
505.99	1272.25
506.207	1348.25
506.423	1244.25
506.64	1157.25
506.856	1190.25
507.073	1322.25
507.289	1288.25
507.506	1313.25
507.722	1389.25
507.939	1430.25
508.155	1443.25
508.372	1244.25
508.588	1228.25
508.805	1239.25
509.021	1203.25
509.238	1166.25
509.454	1201.25
509.67	1177.25
509.887	1182.25
510.103	1331.25
510.319	1291.25
510.536	1163.25
510.752	1059.25
510.968	1015.25
511.184	1035.25
511.401	1062.25
511.617	995.25
511.833	1031.25
512.049	1073.25
512.265	1118.25
512.481	1115.25
512.698	1241.25
512.914	1356.25
513.13	1238.25
513.346	1109.25
513.562	1161.25
513.778	1151.25
513.994	1127.25
514.21	1174.25
514.426	1149.25
514.642	1133.25
514.858	1129.25
515.074	1165.25
515.29	1243.25
515.506	1422.25
515.721	1336.25
515.937	1241.25
516.153	1141.25
516.369	1130.25
516.585	1175.25
516.801	1337.25
517.016	1541.25
517.232	1489.25
517.448	1481.25
517.664	1340.25
517.879	1299.25
518.095	1247.25
518.311	1253.25
518.527	1275.25
518.742	1365.25
518.958	1444.25
519.173	1390.25
519.389	1343.25
519.605	1347.25
519.82	1480.25
520.036	1680.25
520.251	1645.25
520.467	1536.25
520.682	2217.25
520.898	2617.25
521.113	2476.25
521.329	1627.25
521.544	1507.25
521.76	1446.25
521.975	1313.25
522.19	1257.25
522.406	1309.25
522.621	1429.25
522.836	1454.25
523.052	1449.25
523.267	1262.25
523.482	1273.25
523.698	1337.25
523.913	1310.25
524.128	1197.25
524.343	1173.25
524.559	1134.25
524.774	1115.25
524.989	1145.25
525.204	1164.25
525.419	1304.25
525.634	1206.25
525.849	1225.25
526.064	1229.25
526.28	1240.25
526.495	1432.25
526.71	1454.25
526.925	1294.25
527.14	1331.25
527.355	1311.25
527.57	1127.25
527.785	1165.25
527.999	1108.25
528.214	1043.25
528.429	1070.25
528.644	1063.25
528.859	1018.25
529.074	989.25
529.289	987.25
529.503	976.25
529.718	995.25
529.933	1161.25
530.148	1168.25
530.363	1028.25
530.577	1033.25
530.792	993.25
531.007	985.25
531.221	968.25
531.436	974.25
531.651	987.25
531.865	1003.25
532.08	1012.25
532.295	976.25
532.509	1037.25
532.724	1140.25
532.938	1216.25
533.153	1403.25
533.367	1166.25
533.582	1156.25
533.796	1041.25
534.011	1033.25
534.225	1040.25
534.44	1049.25
534.654	1099.25
534.868	1226.25
535.083	1116.25
535.297	1004.25
535.511	1022.25
535.726	1114.25
535.94	1044.25
536.154	1026.25
536.369	972.25
536.583	975.25
536.797	982.25
537.011	1011.25
537.225	1067.25
537.44	1143.25
537.654	1011.25
537.868	1007.25
538.082	995.25
538.296	951.25
538.51	1058.25
538.724	1060.25
538.938	1061.25
539.153	958.25
539.367	951.25
539.581	965.25
539.795	1019.25
540.009	1117.25
540.222	1053.25
540.436	1007.25
540.65	1082.25
540.864	1135.25
541.078	1181.25
541.292	1268.25
541.506	1093.25
541.72	993.25
541.934	1016.25
542.147	1013.25
542.361	1034.25
542.575	1013.25
542.789	1009.25
543.002	945.25
543.216	1036.25
543.43	945.25
543.644	937.25
543.857	927.25
544.071	949.25
544.285	940.25
544.498	917.25
544.712	925.25
544.925	966.25
545.139	955.25
545.352	889.25
545.566	908.25
545.779	1037.25
545.993	948.25
546.206	881.25
546.42	854.25
546.633	848.25
546.847	844.25
547.06	860.25
547.274	899.25
547.487	864.25
547.7	936.25
547.914	1011.25
548.127	1092.25
548.34	1057.25
548.554	972.25
548.767	986.25
548.98	1016.25
549.193	984.25
549.407	1025.25
549.62	1171.25
549.833	1085.25
550.046	1178.25
550.259	1151.25
550.473	1028.25
550.686	989.25
550.899	990.25
551.112	970.25
551.325	1057.25
551.538	1069.25
551.751	911.25
551.964	892.25
552.177	893.25
552.39	878.25
552.603	889.25
552.816	922.25
553.029	866.25
553.242	890.25
553.455	939.25
553.667	994.25
553.88	975.25
554.093	904.25
554.306	821.25
554.519	800.25
554.732	811.25
554.944	776.25
555.157	789.25
555.37	755.25
555.583	783.25
555.795	787.25
556.008	791.25
556.221	795.25
556.433	787.25
556.646	769.25
556.859	797.25
557.071	801.25
557.284	814.25
557.496	818.25
557.709	817.25
557.921	797.25
558.134	758.25
558.346	728.25
558.559	749.25
558.771	755.25
558.984	795.25
559.196	777.25
559.409	723.25
559.621	694.25
559.833	717.25
560.046	726.25
560.258	717.25
560.47	742.25
560.683	715.25
560.895	674.25
561.107	669.25
561.32	663.25
561.532	699.25
561.744	725.25
561.956	742.25
562.168	699.25
562.381	709.25
562.593	719.25
562.805	753.25
563.017	727.25
563.229	668.25
563.441	664.25
563.653	670.25
563.865	708.25
564.077	708.25
564.289	682.25
564.501	683.25
564.713	761.25
564.925	730.25
565.137	710.25
565.349	691.25
565.561	710.25
565.773	716.25
565.985	726.25
566.197	778.25
566.408	817.25
566.62	852.25
566.832	847.25
567.044	846.25
567.255	896.25
567.467	990.25
567.679	901.25
567.891	866.25
568.102	876.25
568.314	907.25
568.526	843.25
568.737	802.25
568.949	877.25
569.161	757.25
569.372	709.25
569.584	683.25
569.795	683.25
570.007	709.25
570.218	761.25
570.43	721.25
570.641	704.25
570.853	686.25
571.064	669.25
571.276	707.25
571.487	703.25
571.698	665.25
571.91	641.25
572.121	671.25
572.333	627.25
572.544	615.25
572.755	625.25
572.966	629.25
573.178	606.25
573.389	645.25
573.6	651.25
573.811	611.25
574.023	565.25
574.234	597.25
574.445	584.25
574.656	571.25
574.867	570.25
575.078	594.25
575.289	601.25
575.501	633.25
575.712	584.25
575.923	569.25
576.134	555.25
576.345	569.25
576.556	556.25
576.767	534.25
576.978	525.25
577.188	534.25
577.399	540.25
577.61	524.25
577.821	514.25
578.032	536.25
578.243	546.25
578.454	583.25
578.665	571.25
578.875	557.25
579.086	567.25
579.297	557.25
579.508	592.25
579.718	565.25
579.929	551.25
580.14	526.25
580.35	544.25
580.561	479.25
580.772	501.25
580.982	481.25
581.193	470.25
581.403	480.25
581.614	466.25
581.825	468.25
582.035	466.25
582.246	444.25
582.456	483.25
582.667	471.25
582.877	479.25
583.087	456.25
583.298	445.25
583.508	463.25
583.719	446.25
583.929	455.25
584.139	456.25
584.35	449.25
584.56	480.25
584.77	471.25
584.981	479.25
585.191	458.25
585.401	467.25
585.611	487.25
585.821	484.25
586.032	509.25
586.242	480.25
586.452	470.25
586.662	467.25
586.872	483.25
587.082	509.25
587.292	483.25
587.502	481.25
587.713	470.25
587.923	477.25
588.133	507.25
588.343	478.25
588.553	457.25
588.762	446.25
588.972	446.25
589.182	458.25
589.392	454.25
589.602	455.25
589.812	480.25
590.022	499.25
590.232	511.25
590.441	483.25
590.651	444.25
590.861	459.25
591.071	458.25
591.281	461.25
591.49	445.25
591.7	466.25
591.91	444.25
592.119	455.25
592.329	462.25
592.539	469.25
592.748	475.25
592.958	477.25
593.167	490.25
593.377	481.25
593.587	489.25
593.796	483.25
594.006	466.25
594.215	486.25
594.424	503.25
594.634	505.25
594.843	495.25
595.053	478.25
595.262	447.25
595.472	453.25
595.681	449.25
595.89	439.25
596.1	417.25
596.309	457.25
596.518	440.25
596.727	430.25
596.937	427.25
597.146	445.25
597.355	454.25
597.564	433.25
597.774	423.25
597.983	410.25
598.192	416.25
598.401	417.25
598.61	401.25
598.819	399.25
599.028	397.25
599.237	384.25
599.446	381.25
599.655	386.25
599.864	370.25
600.073	381.25
600.282	381.25
600.491	382.25
600.7	389.25
600.909	403.25
601.118	373.25
601.327	363.25
601.536	391.25
601.745	389.25
601.953	400.25
602.162	401.25
602.371	399.25
602.58	407.25
602.789	381.25
602.997	379.25
603.206	372.25
603.415	379.25
603.623	375.25
603.832	360.25
604.041	379.25
604.249	363.25
604.458	400.25
604.666	369.25
604.875	330.25
605.084	387.25
605.292	370.25
605.501	376.25
605.709	373.25
605.918	373.25
606.126	357.25
606.334	361.25
606.543	358.25
606.751	366.25
606.96	341.25
607.168	348.25
607.376	335.25
607.585	351.25
607.793	347.25
608.001	353.25
608.21	342.25
608.418	355.25
608.626	361.25
608.834	349.25
609.043	356.25
609.251	338.25
609.459	329.25
609.667	334.25
609.875	350.25
610.083	338.25
610.291	359.25
610.499	343.25
610.707	341.25
610.916	320.25
611.124	331.25
611.332	335.25
611.54	340.25
611.748	332.25
611.955	324.25
612.163	346.25
612.371	354.25
612.579	341.25
612.787	326.25
612.995	332.25
613.203	329.25
613.411	327.25
613.618	319.25
613.826	338.25
614.034	366.25
614.242	348.25
614.449	301.25
614.657	330.25
614.865	346.25
615.072	317.25
615.28	332.25
615.488	325.25
615.695	334.25
615.903	333.25
616.111	355.25
616.318	311.25
616.526	330.25
616.733	328.25
616.941	342.25
617.148	343.25
617.356	311.25
617.563	338.25
617.771	324.25
617.978	332.25
618.185	311.25
618.393	335.25
618.6	321.25
618.807	330.25
619.015	332.25
619.222	333.25
619.429	332.25
619.637	326.25
619.844	327.25
620.051	315.25
620.258	318.25
620.466	311.25
620.673	305.25
620.88	302.25
621.087	299.25
621.294	293.25
621.501	294.25
621.708	309.25
621.915	291.25
622.122	294.25
622.329	301.25
622.536	292.25
622.743	306.25
622.95	300.25
623.157	307.25
623.364	306.25
623.571	285.25
623.778	297.25
623.985	313.25
624.192	324.25
624.399	313.25
624.606	300.25
624.812	315.25
625.019	319.25
625.226	314.25
625.433	325.25
625.639	294.25
625.846	281.25
626.053	305.25
626.259	295.25
626.466	309.25
626.673	314.25
626.879	294.25
627.086	286.25
627.293	264.25
627.499	289.25
627.706	277.25
627.912	276.25
628.119	266.25
628.325	269.25
628.532	278.25
628.738	272.25
628.945	265.25
629.151	272.25
629.357	265.25
629.564	267.25
629.77	267.25
629.976	270.25
630.183	254.25
630.389	253.25
630.595	273.25
630.802	265.25
631.008	259.25
631.214	258.25
631.42	260.25
631.627	273.25
631.833	273.25
632.039	236.25
632.245	263.25
632.451	262.25
632.657	271.25
632.863	252.25
633.069	260.25
633.275	266.25
633.481	241.25
633.688	237.25
633.893	261.25
634.099	249.25
634.305	244.25
634.511	233.25
634.717	238.25
634.923	233.25
635.129	237.25
635.335	232.25
635.541	239.25
635.747	252.25
635.952	247.25
636.158	255.25
636.364	251.25
636.57	242.25
636.775	230.25
636.981	244.25
637.187	224.25
637.392	247.25
637.598	233.25
637.804	237.25
638.009	213.25
638.215	232.25
638.421	235.25
638.626	237.25
638.832	243.25
639.037	227.25
639.243	229.25
639.448	237.25
639.654	245.25
639.859	222.25
640.065	227.25
640.27	216.25
640.475	224.25
640.681	228.25
640.886	224.25
641.091	230.25
641.297	230.25
641.502	214.25
641.707	219.25
641.913	234.25
642.118	237.25
642.323	237.25
642.528	231.25
642.733	227.25
642.939	228.25
643.144	225.25
643.349	241.25
643.554	223.25
643.759	221.25
643.964	206.25
644.169	227.25
644.374	228.25
644.579	225.25
644.784	211.25
644.989	222.25
645.194	213.25
645.399	211.25
645.604	221.25
645.809	231.25
646.014	207.25
646.219	208.25
646.423	211.25
646.628	209.25
646.833	205.25
647.038	201.25
647.243	222.25
647.447	215.25
647.652	211.25
647.857	205.25
648.062	205.25
648.266	215.25
648.471	221.25
648.676	232.25
648.88	208.25
649.085	219.25
649.289	209.25
649.494	208.25
649.698	230.25
649.903	224.25
650.107	201.25
650.312	201.25
650.516	211.25
650.721	189.25
650.925	207.25
651.13	205.25
651.334	194.25
651.539	203.25
651.743	193.25
651.947	190.25
652.152	181.25
652.356	174.25
652.56	185.25
652.764	185.25
652.969	176.25
653.173	201.25
653.377	169.25
653.581	181.25
653.785	157.25
653.99	165.25
654.194	145.25
654.398	163.25
654.602	173.25
654.806	163.25
655.01	165.25
655.214	166.25
655.418	158.25
655.622	155.25
655.826	171.25
656.03	170.25
656.234	165.25
656.438	156.25
656.642	164.25
656.846	150.25
657.049	153.25
657.253	139.25
657.457	138.25
657.661	143.25
657.865	147.25
658.068	118.25
658.272	121.25
658.476	131.25
658.68	122.25
658.883	119.25
659.087	121.25
659.291	114.25
659.494	128.25
659.698	129.25
659.901	114.25
660.105	108.25
660.309	107.25
660.512	96.25
660.716	91.25
660.919	104.25
661.123	110.25
661.326	106.25
661.53	113.25
661.733	97.25
661.936	89.25
662.14	95.25
662.343	96.25
662.546	101.25
662.75	94.25
662.953	90.25
663.156	94.25
663.36	85.25
663.563	86.25
663.766	93.25
663.969	97.25
664.173	79.25
664.376	81.25
664.579	83.25
664.782	91.25
664.985	82.25
665.188	99.25
665.391	91.25
665.594	90.25
665.797	81.25
666	85.25
666.203	87.25
666.406	98.25
666.609	85.25
666.812	96.25
667.015	78.25
667.218	94.25
667.421	78.25
667.624	90.25
667.827	94.25
668.03	80.25
668.232	92.25
668.435	83.25
668.638	97.25
668.841	91.25
669.043	94.25
669.246	96.25
669.449	103.25
669.651	92.25
669.854	85.25
670.057	81.25
670.259	94.25
670.462	83.25
670.665	81.25
670.867	87.25
671.07	94.25
671.272	75.25
671.475	90.25
671.677	89.25
671.88	87.25
672.082	84.25
672.284	82.25
672.487	84.25
672.689	94.25
672.892	87.25
