Data from NickelSpatula_HRD10591_16-35-26-126.txt Node
Date: Mon Jul 22 16:35:26 EDT 2019
User: cochatt
Spectrometer: HR+D1059
Trigger mode: 1
Integration Time (sec): 1.000000E-1
Scans to average: 1
Electric dark correction enabled: true
Nonlinearity correction enabled: false
Boxcar width: 0
XAxis mode: Wavelengths
Number of Pixels in Spectrum: 2048
>>>>>Begin Spectral Data<<<<<
223.165	-21.12
223.4	-21.12
223.635	-21.12
223.869	-11.12
224.104	-11.12
224.338	-16.12
224.573	-6.12
224.808	-15.12
225.042	-14.12
225.277	-9.12
225.511	-9.12
225.746	13.88
225.98	20.88
226.215	7.88
226.449	4.88
226.683	30.88
226.918	11.88
227.152	22.88
227.387	41.88
227.621	27.88
227.856	26.88
228.09	43.88
228.324	60.88
228.559	52.88
228.793	62.88
229.027	61.88
229.262	77.88
229.496	80.88
229.73	89.88
229.964	94.88
230.199	77.88
230.433	95.88
230.667	99.88
230.901	103.88
231.136	94.88
231.37	102.88
231.604	105.88
231.838	108.88
232.072	95.88
232.306	113.88
232.541	115.88
232.775	110.88
233.009	109.88
233.243	95.88
233.477	100.88
233.711	122.88
233.945	115.88
234.179	125.88
234.413	132.88
234.647	129.88
234.881	135.88
235.115	129.88
235.349	131.88
235.583	133.88
235.817	126.88
236.051	116.88
236.285	135.88
236.519	144.88
236.753	133.88
236.987	125.88
237.221	118.88
237.455	147.88
237.689	138.88
237.922	149.88
238.156	141.88
238.39	148.88
238.624	169.88
238.858	169.88
239.091	140.88
239.325	162.88
239.559	150.88
239.793	152.88
240.027	165.88
240.26	166.88
240.494	144.88
240.728	151.88
240.961	181.88
241.195	174.88
241.429	171.88
241.662	154.88
241.896	141.88
242.13	148.88
242.363	142.88
242.597	143.88
242.83	162.88
243.064	141.88
243.298	165.88
243.531	169.88
243.765	162.88
243.998	171.88
244.232	158.88
244.465	167.88
244.699	172.88
244.932	183.88
245.166	178.88
245.399	164.88
245.633	158.88
245.866	173.88
246.099	173.88
246.333	183.88
246.566	197.88
246.8	197.88
247.033	186.88
247.266	183.88
247.5	172.88
247.733	170.88
247.966	161.88
248.2	186.88
248.433	206.88
248.666	213.88
248.899	201.88
249.133	207.88
249.366	236.88
249.599	232.88
249.832	223.88
250.066	209.88
250.299	206.88
250.532	198.88
250.765	206.88
250.998	192.88
251.231	164.88
251.465	198.88
251.698	201.88
251.931	207.88
252.164	197.88
252.397	225.88
252.63	245.88
252.863	275.88
253.096	260.88
253.329	270.88
253.562	261.88
253.795	287.88
254.028	305.88
254.261	321.88
254.494	286.88
254.727	264.88
254.96	256.88
255.193	291.88
255.426	273.88
255.659	217.88
255.892	193.88
256.124	217.88
256.357	241.88
256.59	260.88
256.823	256.88
257.056	217.88
257.289	235.88
257.521	231.88
257.754	252.88
257.987	294.88
258.22	261.88
258.452	217.88
258.685	286.88
258.918	282.88
259.151	284.88
259.383	275.88
259.616	327.88
259.849	319.88
260.081	330.88
260.314	372.88
260.547	313.88
260.779	314.88
261.012	369.88
261.244	337.88
261.477	333.88
261.71	332.88
261.942	266.88
262.175	275.88
262.407	272.88
262.64	293.88
262.872	301.88
263.105	341.88
263.337	353.88
263.57	321.88
263.802	242.88
264.035	205.88
264.267	223.88
264.499	185.88
264.732	173.88
264.964	177.88
265.197	177.88
265.429	196.88
265.661	213.88
265.894	204.88
266.126	207.88
266.358	241.88
266.591	281.88
266.823	325.88
267.055	313.88
267.287	293.88
267.52	293.88
267.752	298.88
267.984	315.88
268.216	303.88
268.448	267.88
268.681	279.88
268.913	277.88
269.145	278.88
269.377	289.88
269.609	293.88
269.841	282.88
270.073	292.88
270.306	317.88
270.538	335.88
270.77	316.88
271.002	309.88
271.234	332.88
271.466	325.88
271.698	323.88
271.93	304.88
272.162	285.88
272.394	291.88
272.626	303.88
272.858	314.88
273.09	324.88
273.322	295.88
273.553	279.88
273.785	316.88
274.017	377.88
274.249	450.88
274.481	489.88
274.713	516.88
274.945	567.88
275.176	591.88
275.408	538.88
275.64	491.88
275.872	510.88
276.104	441.88
276.335	385.88
276.567	387.88
276.799	399.88
277.031	436.88
277.262	331.88
277.494	269.88
277.726	245.88
277.957	270.88
278.189	309.88
278.421	309.88
278.652	331.88
278.884	299.88
279.115	267.88
279.347	266.88
279.579	293.88
279.81	279.88
280.042	280.88
280.273	307.88
280.505	261.88
280.736	247.88
280.968	239.88
281.199	242.88
281.431	280.88
281.662	287.88
281.894	265.88
282.125	276.88
282.356	294.88
282.588	318.88
282.819	277.88
283.051	296.88
283.282	350.88
283.513	393.88
283.745	432.88
283.976	411.88
284.207	393.88
284.439	429.88
284.67	409.88
284.901	362.88
285.132	379.88
285.364	393.88
285.595	386.88
285.826	405.88
286.057	418.88
286.288	393.88
286.52	403.88
286.751	411.88
286.982	418.88
287.213	380.88
287.444	369.88
287.675	366.88
287.906	382.88
288.138	328.88
288.369	285.88
288.6	270.88
288.831	287.88
289.062	340.88
289.293	363.88
289.524	343.88
289.755	343.88
289.986	351.88
290.217	307.88
290.448	261.88
290.679	226.88
290.91	206.88
291.141	209.88
291.371	204.88
291.602	222.88
291.833	213.88
292.064	227.88
292.295	269.88
292.526	302.88
292.757	318.88
292.987	325.88
293.218	333.88
293.449	338.88
293.68	351.88
293.91	340.88
294.141	347.88
294.372	331.88
294.603	298.88
294.833	317.88
295.064	389.88
295.295	379.88
295.525	289.88
295.756	253.88
295.987	234.88
296.217	223.88
296.448	233.88
296.679	231.88
296.909	248.88
297.14	275.88
297.37	309.88
297.601	281.88
297.831	248.88
298.062	257.88
298.292	293.88
298.523	301.88
298.753	358.88
298.984	315.88
299.214	267.88
299.445	226.88
299.675	223.88
299.905	209.88
300.136	210.88
300.366	232.88
300.597	234.88
300.827	205.88
301.057	207.88
301.288	218.88
301.518	213.88
301.748	259.88
301.979	281.88
302.209	277.88
302.439	289.88
302.669	258.88
302.9	245.88
303.13	254.88
303.36	225.88
303.59	230.88
303.82	234.88
304.051	271.88
304.281	277.88
304.511	290.88
304.741	239.88
304.971	245.88
305.201	261.88
305.431	264.88
305.661	233.88
305.891	218.88
306.121	210.88
306.352	209.88
306.582	201.88
306.812	188.88
307.042	191.88
307.272	181.88
307.502	181.88
307.731	186.88
307.961	188.88
308.191	203.88
308.421	174.88
308.651	173.88
308.881	173.88
309.111	192.88
309.341	195.88
309.571	198.88
309.8	200.88
310.03	197.88
310.26	206.88
310.49	196.88
310.72	186.88
310.949	194.88
311.179	194.88
311.409	191.88
311.639	231.88
311.868	268.88
312.098	336.88
312.328	379.88
312.557	385.88
312.787	381.88
313.017	315.88
313.246	366.88
313.476	382.88
313.706	318.88
313.935	248.88
314.165	222.88
314.394	210.88
314.624	211.88
314.853	203.88
315.083	221.88
315.312	209.88
315.542	204.88
315.771	199.88
316.001	187.88
316.23	158.88
316.46	185.88
316.689	203.88
316.919	192.88
317.148	198.88
317.377	190.88
317.607	174.88
317.836	209.88
318.065	226.88
318.295	256.88
318.524	234.88
318.753	210.88
318.983	187.88
319.212	193.88
319.441	196.88
319.67	217.88
319.9	231.88
320.129	222.88
320.358	204.88
320.587	197.88
320.816	203.88
321.046	242.88
321.275	266.88
321.504	269.88
321.733	246.88
321.962	244.88
322.191	231.88
322.42	248.88
322.649	216.88
322.878	261.88
323.108	239.88
323.337	213.88
323.566	234.88
323.795	213.88
324.024	207.88
324.253	227.88
324.482	211.88
324.71	206.88
324.939	236.88
325.168	224.88
325.397	193.88
325.626	201.88
325.855	184.88
326.084	193.88
326.313	181.88
326.542	164.88
326.77	184.88
326.999	181.88
327.228	202.88
327.457	202.88
327.686	197.88
327.914	181.88
328.143	172.88
328.372	188.88
328.6	194.88
328.829	180.88
329.058	183.88
329.287	180.88
329.515	169.88
329.744	181.88
329.972	187.88
330.201	173.88
330.43	180.88
330.658	182.88
330.887	220.88
331.115	198.88
331.344	210.88
331.572	198.88
331.801	198.88
332.03	179.88
332.258	174.88
332.486	205.88
332.715	191.88
332.943	194.88
333.172	194.88
333.4	216.88
333.629	206.88
333.857	228.88
334.085	225.88
334.314	230.88
334.542	216.88
334.771	211.88
334.999	185.88
335.227	198.88
335.455	198.88
335.684	214.88
335.912	242.88
336.14	265.88
336.369	253.88
336.597	238.88
336.825	288.88
337.053	289.88
337.281	246.88
337.51	202.88
337.738	183.88
337.966	200.88
338.194	234.88
338.422	235.88
338.65	193.88
338.878	188.88
339.106	194.88
339.334	198.88
339.562	213.88
339.79	193.88
340.018	182.88
340.246	197.88
340.474	243.88
340.702	243.88
340.93	241.88
341.158	261.88
341.386	213.88
341.614	219.88
341.842	217.88
342.07	212.88
342.298	258.88
342.526	275.88
342.754	226.88
342.981	210.88
343.209	206.88
343.437	229.88
343.665	220.88
343.893	244.88
344.12	252.88
344.348	303.88
344.576	283.88
344.804	231.88
345.031	195.88
345.259	209.88
345.487	194.88
345.714	217.88
345.942	229.88
346.17	251.88
346.397	219.88
346.625	183.88
346.853	191.88
347.08	178.88
347.308	196.88
347.535	218.88
347.763	215.88
347.99	191.88
348.218	198.88
348.445	198.88
348.673	196.88
348.9	209.88
349.128	193.88
349.355	206.88
349.583	195.88
349.81	202.88
350.037	205.88
350.265	174.88
350.492	191.88
350.72	173.88
350.947	178.88
351.174	183.88
351.402	190.88
351.629	213.88
351.856	190.88
352.083	187.88
352.311	200.88
352.538	213.88
352.765	226.88
352.992	226.88
353.22	197.88
353.447	218.88
353.674	222.88
353.901	189.88
354.128	212.88
354.355	202.88
354.583	199.88
354.81	229.88
355.037	221.88
355.264	215.88
355.491	211.88
355.718	223.88
355.945	230.88
356.172	234.88
356.399	215.88
356.626	243.88
356.853	286.88
357.08	331.88
357.307	330.88
357.534	268.88
357.761	286.88
357.988	356.88
358.215	366.88
358.441	367.88
358.668	312.88
358.895	277.88
359.122	234.88
359.349	245.88
359.576	270.88
359.802	230.88
360.029	204.88
360.256	206.88
360.483	238.88
360.709	310.88
360.936	316.88
361.163	287.88
361.39	226.88
361.616	210.88
361.843	235.88
362.07	266.88
362.296	267.88
362.523	222.88
362.749	196.88
362.976	197.88
363.203	239.88
363.429	248.88
363.656	201.88
363.882	186.88
364.109	217.88
364.335	213.88
364.562	198.88
364.788	229.88
365.015	237.88
365.241	231.88
365.468	198.88
365.694	166.88
365.92	177.88
366.147	166.88
366.373	181.88
366.599	166.88
366.826	181.88
367.052	174.88
367.278	174.88
367.505	167.88
367.731	189.88
367.957	194.88
368.184	202.88
368.41	209.88
368.636	211.88
368.862	220.88
369.089	201.88
369.315	181.88
369.541	185.88
369.767	195.88
369.993	181.88
370.219	178.88
370.445	184.88
370.672	179.88
370.898	201.88
371.124	214.88
371.35	197.88
371.576	186.88
371.802	174.88
372.028	210.88
372.254	227.88
372.48	222.88
372.706	204.88
372.932	218.88
373.158	222.88
373.384	252.88
373.61	311.88
373.835	326.88
374.061	246.88
374.287	235.88
374.513	273.88
374.739	302.88
374.965	309.88
375.191	306.88
375.416	223.88
375.642	219.88
375.868	232.88
376.094	258.88
376.319	228.88
376.545	242.88
376.771	250.88
376.997	227.88
377.222	177.88
377.448	183.88
377.674	163.88
377.899	152.88
378.125	176.88
378.35	177.88
378.576	161.88
378.802	181.88
379.027	198.88
379.253	198.88
379.478	199.88
379.704	218.88
379.929	213.88
380.155	222.88
380.38	204.88
380.606	203.88
380.831	230.88
381.057	215.88
381.282	189.88
381.507	219.88
381.733	272.88
381.958	273.88
382.184	280.88
382.409	312.88
382.634	306.88
382.86	311.88
383.085	267.88
383.31	226.88
383.535	231.88
383.761	237.88
383.986	234.88
384.211	275.88
384.436	271.88
384.662	234.88
384.887	214.88
385.112	226.88
385.337	212.88
385.562	195.88
385.787	235.88
386.013	241.88
386.238	228.88
386.463	206.88
386.688	200.88
386.913	190.88
387.138	168.88
387.363	196.88
387.588	211.88
387.813	197.88
388.038	209.88
388.263	207.88
388.488	207.88
388.713	230.88
388.938	261.88
389.163	210.88
389.387	183.88
389.612	199.88
389.837	205.88
390.062	191.88
390.287	184.88
390.512	227.88
390.736	210.88
390.961	192.88
391.186	170.88
391.411	186.88
391.636	158.88
391.86	189.88
392.085	212.88
392.31	210.88
392.534	191.88
392.759	195.88
392.984	206.88
393.208	196.88
393.433	186.88
393.658	157.88
393.882	167.88
394.107	173.88
394.331	176.88
394.556	160.88
394.78	170.88
395.005	169.88
395.229	175.88
395.454	180.88
395.678	190.88
395.903	187.88
396.127	186.88
396.352	183.88
396.576	211.88
396.801	216.88
397.025	234.88
397.249	219.88
397.474	196.88
397.698	193.88
397.922	193.88
398.147	183.88
398.371	186.88
398.595	218.88
398.82	204.88
399.044	203.88
399.268	214.88
399.492	214.88
399.717	224.88
399.941	229.88
400.165	203.88
400.389	211.88
400.613	214.88
400.837	208.88
401.062	187.88
401.286	189.88
401.51	190.88
401.734	188.88
401.958	210.88
402.182	194.88
402.406	199.88
402.63	193.88
402.854	201.88
403.078	227.88
403.302	285.88
403.526	303.88
403.75	252.88
403.974	226.88
404.198	221.88
404.422	254.88
404.645	264.88
404.869	305.88
405.093	261.88
405.317	203.88
405.541	190.88
405.765	198.88
405.988	218.88
406.212	233.88
406.436	239.88
406.66	272.88
406.883	216.88
407.107	214.88
407.331	244.88
407.555	248.88
407.778	225.88
408.002	205.88
408.226	221.88
408.449	215.88
408.673	220.88
408.896	198.88
409.12	186.88
409.344	207.88
409.567	179.88
409.791	182.88
410.014	185.88
410.238	203.88
410.461	180.88
410.685	204.88
410.908	194.88
411.132	207.88
411.355	203.88
411.578	208.88
411.802	189.88
412.025	205.88
412.249	200.88
412.472	193.88
412.695	209.88
412.919	209.88
413.142	223.88
413.365	221.88
413.589	215.88
413.812	198.88
414.035	193.88
414.258	209.88
414.482	211.88
414.705	211.88
414.928	185.88
415.151	188.88
415.374	184.88
415.597	206.88
415.821	194.88
416.044	191.88
416.267	198.88
416.49	195.88
416.713	190.88
416.936	203.88
417.159	174.88
417.382	174.88
417.605	211.88
417.828	213.88
418.051	196.88
418.274	205.88
418.497	189.88
418.72	187.88
418.943	229.88
419.166	209.88
419.389	205.88
419.611	223.88
419.834	212.88
420.057	224.88
420.28	241.88
420.503	206.88
420.726	186.88
420.948	176.88
421.171	214.88
421.394	177.88
421.617	189.88
421.839	195.88
422.062	211.88
422.285	200.88
422.507	211.88
422.73	203.88
422.953	196.88
423.175	200.88
423.398	205.88
423.621	205.88
423.843	215.88
424.066	202.88
424.288	210.88
424.511	199.88
424.733	182.88
424.956	204.88
425.178	217.88
425.401	259.88
425.623	277.88
425.846	247.88
426.068	214.88
426.291	252.88
426.513	213.88
426.735	199.88
426.958	205.88
427.18	223.88
427.402	285.88
427.625	299.88
427.847	250.88
428.069	202.88
428.292	195.88
428.514	202.88
428.736	195.88
428.958	214.88
429.181	236.88
429.403	200.88
429.625	191.88
429.847	193.88
430.069	192.88
430.292	207.88
430.514	178.88
430.736	197.88
430.958	225.88
431.18	223.88
431.402	170.88
431.624	194.88
431.846	179.88
432.068	182.88
432.29	174.88
432.512	190.88
432.734	224.88
432.956	228.88
433.178	176.88
433.4	165.88
433.622	187.88
433.844	202.88
434.066	202.88
434.287	204.88
434.509	216.88
434.731	213.88
434.953	210.88
435.175	217.88
435.397	236.88
435.618	197.88
435.84	172.88
436.062	177.88
436.284	166.88
436.505	174.88
436.727	174.88
436.949	177.88
437.17	181.88
437.392	193.88
437.614	185.88
437.835	183.88
438.057	188.88
438.278	201.88
438.5	270.88
438.721	280.88
438.943	192.88
439.165	179.88
439.386	177.88
439.608	168.88
439.829	180.88
440.05	181.88
440.272	175.88
440.493	215.88
440.715	241.88
440.936	205.88
441.158	191.88
441.379	189.88
441.6	213.88
441.822	227.88
442.043	184.88
442.264	185.88
442.486	216.88
442.707	180.88
442.928	200.88
443.149	214.88
443.371	185.88
443.592	183.88
443.813	196.88
444.034	193.88
444.255	191.88
444.476	202.88
444.698	195.88
444.919	201.88
445.14	307.88
445.361	279.88
445.582	229.88
445.803	203.88
446.024	202.88
446.245	217.88
446.466	204.88
446.687	185.88
446.908	174.88
447.129	172.88
447.35	177.88
447.571	186.88
447.792	189.88
448.013	177.88
448.234	168.88
448.455	166.88
448.675	172.88
448.896	191.88
449.117	177.88
449.338	180.88
449.559	180.88
449.779	196.88
450	198.88
450.221	170.88
450.442	174.88
450.662	179.88
450.883	172.88
451.104	189.88
451.324	179.88
451.545	185.88
451.766	185.88
451.986	177.88
452.207	182.88
452.428	184.88
452.648	173.88
452.869	181.88
453.089	205.88
453.31	179.88
453.53	180.88
453.751	171.88
453.971	165.88
454.192	181.88
454.412	217.88
454.633	166.88
454.853	198.88
455.073	158.88
455.294	157.88
455.514	165.88
455.734	166.88
455.955	179.88
456.175	179.88
456.395	155.88
456.616	153.88
456.836	178.88
457.056	164.88
457.276	165.88
457.497	179.88
457.717	167.88
457.937	179.88
458.157	167.88
458.377	165.88
458.598	167.88
458.818	160.88
459.038	183.88
459.258	197.88
459.478	193.88
459.698	198.88
459.918	193.88
460.138	189.88
460.358	192.88
460.578	200.88
460.798	168.88
461.018	186.88
461.238	179.88
461.458	186.88
461.678	188.88
461.898	206.88
462.118	199.88
462.338	203.88
462.558	191.88
462.777	217.88
462.997	214.88
463.217	206.88
463.437	211.88
463.657	215.88
463.876	209.88
464.096	203.88
464.316	200.88
464.536	206.88
464.755	219.88
464.975	218.88
465.195	212.88
465.414	207.88
465.634	222.88
465.854	202.88
466.073	182.88
466.293	186.88
466.512	201.88
466.732	211.88
466.951	221.88
467.171	195.88
467.391	188.88
467.61	189.88
467.829	196.88
468.049	185.88
468.268	181.88
468.488	170.88
468.707	186.88
468.927	210.88
469.146	233.88
469.365	231.88
469.585	214.88
469.804	211.88
470.023	214.88
470.243	202.88
470.462	198.88
470.681	183.88
470.901	204.88
471.12	217.88
471.339	225.88
471.558	204.88
471.777	196.88
471.997	209.88
472.216	225.88
472.435	230.88
472.654	210.88
472.873	221.88
473.092	213.88
473.311	222.88
473.53	213.88
473.749	205.88
473.968	236.88
474.187	197.88
474.406	194.88
474.625	197.88
474.844	205.88
475.063	209.88
475.282	218.88
475.501	237.88
475.72	255.88
475.939	228.88
476.158	230.88
476.377	266.88
476.596	291.88
476.814	310.88
477.033	260.88
477.252	232.88
477.471	208.88
477.69	210.88
477.908	219.88
478.127	229.88
478.346	213.88
478.564	237.88
478.783	233.88
479.002	230.88
479.22	257.88
479.439	293.88
479.658	258.88
479.876	226.88
480.095	246.88
480.313	243.88
480.532	223.88
480.751	221.88
480.969	229.88
481.188	237.88
481.406	238.88
481.624	244.88
481.843	221.88
482.061	217.88
482.28	251.88
482.498	291.88
482.717	306.88
482.935	234.88
483.153	216.88
483.372	214.88
483.59	222.88
483.808	221.88
484.027	213.88
484.245	192.88
484.463	189.88
484.681	206.88
484.9	215.88
485.118	243.88
485.336	235.88
485.554	212.88
485.772	234.88
485.99	236.88
486.209	259.88
486.427	258.88
486.645	235.88
486.863	238.88
487.081	242.88
487.299	271.88
487.517	273.88
487.735	247.88
487.953	248.88
488.171	246.88
488.389	224.88
488.607	214.88
488.825	244.88
489.043	257.88
489.261	309.88
489.479	316.88
489.696	254.88
489.914	218.88
490.132	212.88
490.35	220.88
490.568	230.88
490.786	225.88
491.003	226.88
491.221	241.88
491.439	237.88
491.657	213.88
491.874	233.88
492.092	295.88
492.31	344.88
492.527	334.88
492.745	297.88
492.963	277.88
493.18	242.88
493.398	246.88
493.615	262.88
493.833	227.88
494.05	244.88
494.268	244.88
494.485	247.88
494.703	243.88
494.92	221.88
495.138	221.88
495.355	245.88
495.573	245.88
495.79	277.88
496.008	354.88
496.225	286.88
496.442	269.88
496.66	262.88
496.877	266.88
497.094	266.88
497.312	256.88
497.529	261.88
497.746	244.88
497.963	255.88
498.181	269.88
498.398	310.88
498.615	308.88
498.832	329.88
499.049	329.88
499.267	301.88
499.484	296.88
499.701	307.88
499.918	340.88
500.135	367.88
500.352	386.88
500.569	397.88
500.786	409.88
501.003	395.88
501.22	352.88
501.437	327.88
501.654	310.88
501.871	314.88
502.088	297.88
502.305	254.88
502.522	281.88
502.739	279.88
502.956	267.88
503.172	266.88
503.389	248.88
503.606	230.88
503.823	249.88
504.04	257.88
504.256	259.88
504.473	252.88
504.69	246.88
504.907	285.88
505.123	268.88
505.34	279.88
505.557	275.88
505.773	260.88
505.99	246.88
506.207	260.88
506.423	254.88
506.64	252.88
506.856	232.88
507.073	279.88
507.289	259.88
507.506	267.88
507.722	277.88
507.939	284.88
508.155	282.88
508.372	262.88
508.588	238.88
508.805	233.88
509.021	252.88
509.238	264.88
509.454	235.88
509.67	229.88
509.887	244.88
510.103	257.88
510.319	261.88
510.536	243.88
510.752	224.88
510.968	212.88
511.184	209.88
511.401	191.88
511.617	218.88
511.833	210.88
512.049	226.88
512.265	218.88
512.481	230.88
512.698	223.88
512.914	266.88
513.13	240.88
513.346	222.88
513.562	234.88
513.778	252.88
513.994	219.88
514.21	265.88
514.426	261.88
514.642	234.88
514.858	218.88
515.074	225.88
515.29	268.88
515.506	290.88
515.721	256.88
515.937	238.88
516.153	251.88
516.369	232.88
516.585	242.88
516.801	263.88
517.016	322.88
517.232	298.88
517.448	313.88
517.664	259.88
517.879	261.88
518.095	261.88
518.311	269.88
518.527	288.88
518.742	275.88
518.958	295.88
519.173	276.88
519.389	265.88
519.605	269.88
519.82	301.88
520.036	320.88
520.251	313.88
520.467	310.88
520.682	491.88
520.898	593.88
521.113	590.88
521.329	374.88
521.544	314.88
521.76	308.88
521.975	279.88
522.19	269.88
522.406	281.88
522.621	290.88
522.836	309.88
523.052	300.88
523.267	271.88
523.482	275.88
523.698	283.88
523.913	265.88
524.128	241.88
524.343	219.88
524.559	251.88
524.774	232.88
524.989	238.88
525.204	253.88
525.419	265.88
525.634	258.88
525.849	250.88
526.064	271.88
526.28	270.88
526.495	290.88
526.71	317.88
526.925	283.88
527.14	309.88
527.355	294.88
527.57	230.88
527.785	257.88
527.999	249.88
528.214	230.88
528.429	236.88
528.644	241.88
528.859	214.88
529.074	202.88
529.289	195.88
529.503	212.88
529.718	220.88
529.933	263.88
530.148	296.88
530.363	236.88
530.577	215.88
530.792	238.88
531.007	221.88
531.221	216.88
531.436	204.88
531.651	224.88
531.865	196.88
532.08	220.88
532.295	211.88
532.509	206.88
532.724	261.88
532.938	309.88
533.153	336.88
533.367	257.88
533.582	243.88
533.796	229.88
534.011	211.88
534.225	214.88
534.44	234.88
534.654	246.88
534.868	305.88
535.083	254.88
535.297	224.88
535.511	209.88
535.726	238.88
535.94	231.88
536.154	207.88
536.369	206.88
536.583	221.88
536.797	217.88
537.011	207.88
537.225	216.88
537.44	255.88
537.654	216.88
537.868	215.88
538.082	226.88
538.296	212.88
538.51	237.88
538.724	244.88
538.938	233.88
539.153	223.88
539.367	214.88
539.581	206.88
539.795	210.88
540.009	236.88
540.222	241.88
540.436	234.88
540.65	269.88
540.864	253.88
541.078	267.88
541.292	303.88
541.506	234.88
541.72	226.88
541.934	223.88
542.147	203.88
542.361	217.88
542.575	242.88
542.789	236.88
543.002	204.88
543.216	223.88
543.43	205.88
543.644	223.88
543.857	198.88
544.071	203.88
544.285	211.88
544.498	195.88
544.712	201.88
544.925	236.88
545.139	191.88
545.352	202.88
545.566	200.88
545.779	228.88
545.993	211.88
546.206	189.88
546.42	206.88
546.633	189.88
546.847	181.88
547.06	182.88
547.274	187.88
547.487	193.88
547.7	190.88
547.914	213.88
548.127	226.88
548.34	222.88
548.554	217.88
548.767	215.88
548.98	226.88
549.193	212.88
549.407	193.88
549.62	265.88
549.833	227.88
550.046	243.88
550.259	247.88
550.473	222.88
550.686	198.88
550.899	222.88
551.112	212.88
551.325	217.88
551.538	227.88
551.751	206.88
551.964	206.88
552.177	199.88
552.39	189.88
552.603	207.88
552.816	206.88
553.029	186.88
553.242	186.88
553.455	191.88
553.667	199.88
553.88	210.88
554.093	223.88
554.306	179.88
554.519	188.88
554.732	186.88
554.944	179.88
555.157	172.88
555.37	161.88
555.583	178.88
555.795	178.88
556.008	171.88
556.221	184.88
556.433	190.88
556.646	182.88
556.859	173.88
557.071	187.88
557.284	175.88
557.496	191.88
557.709	196.88
557.921	197.88
558.134	172.88
558.346	164.88
558.559	174.88
558.771	178.88
558.984	186.88
559.196	168.88
559.409	199.88
559.621	174.88
559.833	174.88
560.046	168.88
560.258	170.88
560.47	170.88
560.683	175.88
560.895	172.88
561.107	179.88
561.32	173.88
561.532	165.88
561.744	182.88
561.956	181.88
562.168	183.88
562.381	166.88
562.593	165.88
562.805	179.88
563.017	164.88
563.229	161.88
563.441	165.88
563.653	174.88
563.865	170.88
564.077	147.88
564.289	164.88
564.501	173.88
564.713	172.88
564.925	183.88
565.137	154.88
565.349	171.88
565.561	174.88
565.773	179.88
565.985	187.88
566.197	190.88
566.408	189.88
566.62	207.88
566.832	190.88
567.044	199.88
567.255	224.88
567.467	227.88
567.679	207.88
567.891	220.88
568.102	220.88
568.314	209.88
568.526	195.88
568.737	194.88
568.949	201.88
569.161	190.88
569.372	166.88
569.584	183.88
569.795	155.88
570.007	186.88
570.218	186.88
570.43	180.88
570.641	181.88
570.853	164.88
571.064	164.88
571.276	171.88
571.487	175.88
571.698	167.88
571.91	169.88
572.121	157.88
572.333	150.88
572.544	161.88
572.755	150.88
572.966	153.88
573.178	157.88
573.389	159.88
573.6	163.88
573.811	167.88
574.023	146.88
574.234	143.88
574.445	161.88
574.656	131.88
574.867	148.88
575.078	156.88
575.289	158.88
575.501	180.88
575.712	167.88
575.923	157.88
576.134	149.88
576.345	136.88
576.556	158.88
576.767	143.88
576.978	149.88
577.188	150.88
577.399	162.88
577.61	149.88
577.821	152.88
578.032	157.88
578.243	158.88
578.454	148.88
578.665	169.88
578.875	160.88
579.086	151.88
579.297	151.88
579.508	158.88
579.718	139.88
579.929	155.88
580.14	151.88
580.35	153.88
580.561	129.88
580.772	141.88
580.982	141.88
581.193	137.88
581.403	148.88
581.614	151.88
581.825	129.88
582.035	127.88
582.246	139.88
582.456	150.88
582.667	142.88
582.877	146.88
583.087	129.88
583.298	117.88
583.508	135.88
583.719	127.88
583.929	129.88
584.139	138.88
584.35	135.88
584.56	147.88
584.77	130.88
584.981	135.88
585.191	135.88
585.401	138.88
585.611	128.88
585.821	158.88
586.032	149.88
586.242	141.88
586.452	147.88
586.662	145.88
586.872	162.88
587.082	162.88
587.292	141.88
587.502	143.88
587.713	133.88
587.923	130.88
588.133	141.88
588.343	143.88
588.553	137.88
588.762	149.88
588.972	127.88
589.182	129.88
589.392	131.88
589.602	142.88
589.812	141.88
590.022	148.88
590.232	149.88
590.441	144.88
590.651	132.88
590.861	129.88
591.071	131.88
591.281	133.88
591.49	123.88
591.7	133.88
591.91	150.88
592.119	137.88
592.329	129.88
592.539	133.88
592.748	123.88
592.958	135.88
593.167	127.88
593.377	129.88
593.587	141.88
593.796	155.88
594.006	148.88
594.215	151.88
594.424	137.88
594.634	127.88
594.843	153.88
595.053	134.88
595.262	118.88
595.472	126.88
595.681	147.88
595.89	135.88
596.1	129.88
596.309	117.88
596.518	124.88
596.727	130.88
596.937	135.88
597.146	125.88
597.355	141.88
597.564	121.88
597.774	140.88
597.983	118.88
598.192	121.88
598.401	127.88
598.61	132.88
598.819	134.88
599.028	110.88
599.237	135.88
599.446	112.88
599.655	125.88
599.864	123.88
600.073	117.88
600.282	129.88
600.491	119.88
600.7	126.88
600.909	120.88
601.118	133.88
601.327	118.88
601.536	127.88
601.745	138.88
601.953	133.88
602.162	131.88
602.371	148.88
602.58	142.88
602.789	137.88
602.997	123.88
603.206	130.88
603.415	130.88
603.623	127.88
603.832	120.88
604.041	129.88
604.249	119.88
604.458	123.88
604.666	131.88
604.875	133.88
605.084	121.88
605.292	104.88
605.501	130.88
605.709	136.88
605.918	127.88
606.126	132.88
606.334	128.88
606.543	142.88
606.751	123.88
606.96	125.88
607.168	103.88
607.376	123.88
607.585	127.88
607.793	130.88
608.001	127.88
608.21	133.88
608.418	129.88
608.626	108.88
608.834	119.88
609.043	99.88
609.251	118.88
609.459	121.88
609.667	122.88
609.875	123.88
610.083	117.88
610.291	129.88
610.499	123.88
610.707	114.88
610.916	113.88
611.124	130.88
611.332	129.88
611.54	117.88
611.748	126.88
611.955	117.88
612.163	109.88
612.371	111.88
612.579	115.88
612.787	119.88
612.995	115.88
613.203	124.88
613.411	120.88
613.618	123.88
613.826	130.88
614.034	127.88
614.242	140.88
614.449	124.88
614.657	111.88
614.865	108.88
615.072	115.88
615.28	141.88
615.488	127.88
615.695	106.88
615.903	109.88
616.111	123.88
616.318	115.88
616.526	120.88
616.733	118.88
616.941	99.88
617.148	106.88
617.356	113.88
617.563	104.88
617.771	110.88
617.978	95.88
618.185	122.88
618.393	111.88
618.6	118.88
618.807	117.88
619.015	108.88
619.222	121.88
619.429	109.88
619.637	122.88
619.844	118.88
620.051	103.88
620.258	109.88
620.466	122.88
620.673	111.88
620.88	113.88
621.087	104.88
621.294	96.88
621.501	111.88
621.708	113.88
621.915	115.88
622.122	107.88
622.329	122.88
622.536	127.88
622.743	110.88
622.95	124.88
623.157	101.88
623.364	111.88
623.571	110.88
623.778	122.88
623.985	107.88
624.192	106.88
624.399	110.88
624.606	115.88
624.812	127.88
625.019	117.88
625.226	115.88
625.433	110.88
625.639	114.88
625.846	117.88
626.053	110.88
626.259	113.88
626.466	124.88
626.673	125.88
626.879	117.88
627.086	117.88
627.293	122.88
627.499	104.88
627.706	113.88
627.912	122.88
628.119	122.88
628.325	111.88
628.532	115.88
628.738	103.88
628.945	109.88
629.151	112.88
629.357	113.88
629.564	117.88
629.77	94.88
629.976	106.88
630.183	107.88
630.389	117.88
630.595	108.88
630.802	90.88
631.008	117.88
631.214	107.88
631.42	111.88
631.627	102.88
631.833	114.88
632.039	105.88
632.245	85.88
632.451	99.88
632.657	100.88
632.863	92.88
633.069	106.88
633.275	106.88
633.481	116.88
633.688	98.88
633.893	108.88
634.099	107.88
634.305	117.88
634.511	99.88
634.717	111.88
634.923	104.88
635.129	116.88
635.335	100.88
635.541	104.88
635.747	99.88
635.952	110.88
636.158	104.88
636.364	107.88
636.57	99.88
636.775	110.88
636.981	93.88
637.187	95.88
637.392	101.88
637.598	100.88
637.804	115.88
638.009	100.88
638.215	103.88
638.421	93.88
638.626	95.88
638.832	109.88
639.037	105.88
639.243	94.88
639.448	116.88
639.654	102.88
639.859	101.88
640.065	91.88
640.27	108.88
640.475	110.88
640.681	102.88
640.886	102.88
641.091	95.88
641.297	104.88
641.502	106.88
641.707	102.88
641.913	105.88
642.118	100.88
642.323	96.88
642.528	98.88
642.733	108.88
642.939	112.88
643.144	97.88
643.349	121.88
643.554	105.88
643.759	102.88
643.964	95.88
644.169	95.88
644.374	103.88
644.579	98.88
644.784	101.88
644.989	100.88
645.194	93.88
645.399	114.88
645.604	108.88
645.809	99.88
646.014	94.88
646.219	98.88
646.423	96.88
646.628	106.88
646.833	121.88
647.038	117.88
647.243	113.88
647.447	99.88
647.652	82.88
647.857	100.88
648.062	103.88
648.266	96.88
648.471	90.88
648.676	98.88
648.88	91.88
649.085	98.88
649.289	95.88
649.494	86.88
649.698	101.88
649.903	113.88
650.107	117.88
650.312	118.88
650.516	103.88
650.721	95.88
650.925	90.88
651.13	83.88
651.334	93.88
651.539	93.88
651.743	99.88
651.947	91.88
652.152	97.88
652.356	90.88
652.56	100.88
652.764	100.88
652.969	94.88
653.173	85.88
653.377	92.88
653.581	90.88
653.785	98.88
653.99	106.88
654.194	90.88
654.398	97.88
654.602	92.88
654.806	89.88
655.01	92.88
655.214	105.88
655.418	102.88
655.622	100.88
655.826	105.88
656.03	99.88
656.234	89.88
656.438	86.88
656.642	102.88
656.846	100.88
657.049	90.88
657.253	91.88
657.457	94.88
657.661	100.88
657.865	103.88
658.068	98.88
658.272	88.88
658.476	93.88
658.68	88.88
658.883	86.88
659.087	92.88
659.291	92.88
659.494	79.88
659.698	92.88
659.901	89.88
660.105	97.88
660.309	90.88
660.512	82.88
660.716	98.88
660.919	90.88
661.123	74.88
661.326	80.88
661.53	85.88
661.733	90.88
661.936	79.88
662.14	86.88
662.343	79.88
662.546	86.88
662.75	91.88
662.953	92.88
663.156	78.88
663.36	93.88
663.563	83.88
663.766	87.88
663.969	78.88
664.173	69.88
664.376	81.88
664.579	82.88
664.782	82.88
664.985	87.88
665.188	91.88
665.391	85.88
665.594	82.88
665.797	94.88
666	73.88
666.203	80.88
666.406	79.88
666.609	83.88
666.812	71.88
667.015	88.88
667.218	81.88
667.421	94.88
667.624	90.88
667.827	83.88
668.03	86.88
668.232	75.88
668.435	90.88
668.638	91.88
668.841	94.88
669.043	79.88
669.246	61.88
669.449	88.88
669.651	85.88
669.854	79.88
670.057	97.88
670.259	75.88
670.462	74.88
670.665	81.88
670.867	82.88
671.07	70.88
671.272	94.88
671.475	97.88
671.677	81.88
671.88	81.88
672.082	88.88
672.284	77.88
672.487	72.88
672.689	75.88
672.892	77.88
