Data from NickelSpatula.Lamp.E10.P2_HRD10591_11-58-07-530.txt Node
Date: Tue Jul 23 11:58:07 EDT 2019
User: cochatt
Spectrometer: HR+D1059
Trigger mode: 1
Integration Time (sec): 1.000000E-1
Scans to average: 1
Electric dark correction enabled: true
Nonlinearity correction enabled: false
Boxcar width: 0
XAxis mode: Wavelengths
Number of Pixels in Spectrum: 2048
>>>>>Begin Spectral Data<<<<<
223.165	-6.44
223.4	-6.44
223.635	-6.44
223.869	-3.44
224.104	-13.44
224.338	-22.44
224.573	-7.44
224.808	-18.44
225.042	-13.44
225.277	-20.44
225.511	14.56
225.746	0.56
225.98	4.56
226.215	0.56
226.449	2.56
226.683	30.56
226.918	21.56
227.152	30.56
227.387	38.56
227.621	42.56
227.856	53.56
228.09	46.56
228.324	49.56
228.559	52.56
228.793	76.56
229.027	151.56
229.262	144.56
229.496	150.56
229.73	150.56
229.964	195.56
230.199	228.56
230.433	213.56
230.667	212.56
230.901	204.56
231.136	195.56
231.37	216.56
231.604	224.56
231.838	229.56
232.072	247.56
232.306	260.56
232.541	255.56
232.775	247.56
233.009	282.56
233.243	291.56
233.477	290.56
233.711	328.56
233.945	330.56
234.179	307.56
234.413	356.56
234.647	382.56
234.881	466.56
235.115	423.56
235.349	407.56
235.583	367.56
235.817	366.56
236.051	387.56
236.285	405.56
236.519	467.56
236.753	445.56
236.987	437.56
237.221	394.56
237.455	414.56
237.689	437.56
237.922	457.56
238.156	480.56
238.39	544.56
238.624	673.56
238.858	585.56
239.091	491.56
239.325	488.56
239.559	478.56
239.793	549.56
240.027	651.56
240.26	609.56
240.494	580.56
240.728	577.56
240.961	698.56
241.195	657.56
241.429	638.56
241.662	612.56
241.896	529.56
242.13	457.56
242.363	454.56
242.597	480.56
242.83	538.56
243.064	539.56
243.298	612.56
243.531	622.56
243.765	639.56
243.998	633.56
244.232	591.56
244.465	600.56
244.699	582.56
244.932	652.56
245.166	627.56
245.399	555.56
245.633	539.56
245.866	565.56
246.099	617.56
246.333	731.56
246.566	772.56
246.8	787.56
247.033	749.56
247.266	679.56
247.5	706.56
247.733	669.56
247.966	664.56
248.2	696.56
248.433	772.56
248.666	836.56
248.899	850.56
249.133	888.56
249.366	992.56
249.599	1077.56
249.832	942.56
250.066	832.56
250.299	849.56
250.532	839.56
250.765	782.56
250.998	741.56
251.231	695.56
251.465	807.56
251.698	840.56
251.931	811.56
252.164	829.56
252.397	925.56
252.63	1054.56
252.863	1144.56
253.096	1215.56
253.329	1139.56
253.562	1116.56
253.795	1247.56
254.028	1375.56
254.261	1431.56
254.494	1275.56
254.727	1153.56
254.96	1144.56
255.193	1199.56
255.426	1132.56
255.659	873.56
255.892	804.56
256.124	884.56
256.357	1011.56
256.59	1212.56
256.823	1147.56
257.056	976.56
257.289	941.56
257.521	963.56
257.754	1121.56
257.987	1326.56
258.22	1117.56
258.452	1031.56
258.685	1129.56
258.918	1312.56
259.151	1269.56
259.383	1341.56
259.616	1537.56
259.849	1556.56
260.081	1696.56
260.314	1897.56
260.547	1490.56
260.779	1473.56
261.012	1720.56
261.244	1655.56
261.477	1660.56
261.71	1560.56
261.942	1327.56
262.175	1325.56
262.407	1211.56
262.64	1273.56
262.872	1503.56
263.105	1657.56
263.337	1737.56
263.57	1537.56
263.802	1044.56
264.035	931.56
264.267	867.56
264.499	769.56
264.732	716.56
264.964	706.56
265.197	736.56
265.429	778.56
265.661	840.56
265.894	870.56
266.126	956.56
266.358	1040.56
266.591	1250.56
266.823	1536.56
267.055	1467.56
267.287	1250.56
267.52	1234.56
267.752	1331.56
267.984	1457.56
268.216	1369.56
268.448	1114.56
268.681	1116.56
268.913	1236.56
269.145	1304.56
269.377	1282.56
269.609	1312.56
269.841	1199.56
270.073	1330.56
270.306	1392.56
270.538	1368.56
270.77	1407.56
271.002	1431.56
271.234	1472.56
271.466	1516.56
271.698	1427.56
271.93	1447.56
272.162	1463.56
272.394	1433.56
272.626	1413.56
272.858	1458.56
273.09	1478.56
273.322	1330.56
273.553	1267.56
273.785	1496.56
274.017	1985.56
274.249	2448.56
274.481	2523.56
274.713	2747.56
274.945	3206.56
275.176	3289.56
275.408	2938.56
275.64	2657.56
275.872	2675.56
276.104	2235.56
276.335	1916.56
276.567	1911.56
276.799	1975.56
277.031	2080.56
277.262	1577.56
277.494	1243.56
277.726	1223.56
277.957	1364.56
278.189	1510.56
278.421	1510.56
278.652	1469.56
278.884	1338.56
279.115	1263.56
279.347	1208.56
279.579	1225.56
279.81	1186.56
280.042	1217.56
280.273	1251.56
280.505	1177.56
280.736	1010.56
280.968	1037.56
281.199	1145.56
281.431	1274.56
281.662	1247.56
281.894	1209.56
282.125	1271.56
282.356	1357.56
282.588	1380.56
282.819	1262.56
283.051	1414.56
283.282	1705.56
283.513	1995.56
283.745	2223.56
283.976	2195.56
284.207	2043.56
284.439	2108.56
284.67	2056.56
284.901	1793.56
285.132	1947.56
285.364	2067.56
285.595	1895.56
285.826	1997.56
286.057	2043.56
286.288	1971.56
286.52	2007.56
286.751	2127.56
286.982	2144.56
287.213	1879.56
287.444	1781.56
287.675	1857.56
287.906	1871.56
288.138	1575.56
288.369	1346.56
288.6	1308.56
288.831	1375.56
289.062	1589.56
289.293	1675.56
289.524	1644.56
289.755	1627.56
289.986	1659.56
290.217	1459.56
290.448	1113.56
290.679	991.56
290.91	936.56
291.141	945.56
291.371	968.56
291.602	982.56
291.833	984.56
292.064	1070.56
292.295	1225.56
292.526	1421.56
292.757	1467.56
292.987	1585.56
293.218	1583.56
293.449	1637.56
293.68	1719.56
293.91	1621.56
294.141	1648.56
294.372	1520.56
294.603	1412.56
294.833	1611.56
295.064	1869.56
295.295	1745.56
295.525	1350.56
295.756	1180.56
295.987	1024.56
296.217	1022.56
296.448	1054.56
296.679	1096.56
296.909	1235.56
297.14	1319.56
297.37	1431.56
297.601	1395.56
297.831	1201.56
298.062	1240.56
298.292	1457.56
298.523	1571.56
298.753	1790.56
298.984	1593.56
299.214	1263.56
299.445	1079.56
299.675	1041.56
299.905	1008.56
300.136	1100.56
300.366	1201.56
300.597	1150.56
300.827	998.56
301.057	972.56
301.288	984.56
301.518	1063.56
301.748	1217.56
301.979	1340.56
302.209	1428.56
302.439	1428.56
302.669	1257.56
302.9	1238.56
303.13	1141.56
303.36	1086.56
303.59	1069.56
303.82	1095.56
304.051	1244.56
304.281	1359.56
304.511	1289.56
304.741	1169.56
304.971	1182.56
305.201	1295.56
305.431	1224.56
305.661	1101.56
305.891	1083.56
306.121	1112.56
306.352	956.56
306.582	870.56
306.812	837.56
307.042	846.56
307.272	845.56
307.502	809.56
307.731	891.56
307.961	921.56
308.191	846.56
308.421	803.56
308.651	795.56
308.881	799.56
309.111	767.56
309.341	791.56
309.571	881.56
309.8	936.56
310.03	926.56
310.26	985.56
310.49	971.56
310.72	879.56
310.949	846.56
311.179	880.56
311.409	950.56
311.639	1116.56
311.868	1395.56
312.098	1779.56
312.328	1956.56
312.557	1866.56
312.787	1884.56
313.017	1661.56
313.246	1828.56
313.476	2004.56
313.706	1602.56
313.935	1335.56
314.165	1056.56
314.394	968.56
314.624	992.56
314.853	1058.56
315.083	1059.56
315.312	1002.56
315.542	1031.56
315.771	954.56
316.001	873.56
316.23	850.56
316.46	832.56
316.689	870.56
316.919	902.56
317.148	910.56
317.377	858.56
317.607	892.56
317.836	955.56
318.065	1111.56
318.295	1229.56
318.524	1151.56
318.753	996.56
318.983	942.56
319.212	927.56
319.441	1003.56
319.67	1143.56
319.9	1222.56
320.129	1164.56
320.358	983.56
320.587	947.56
320.816	1014.56
321.046	1188.56
321.275	1318.56
321.504	1316.56
321.733	1288.56
321.962	1212.56
322.191	1167.56
322.42	1108.56
322.649	1077.56
322.878	1223.56
323.108	1190.56
323.337	1076.56
323.566	1091.56
323.795	1024.56
324.024	997.56
324.253	963.56
324.482	983.56
324.71	1069.56
324.939	1207.56
325.168	1108.56
325.397	932.56
325.626	921.56
325.855	910.56
326.084	943.56
326.313	871.56
326.542	809.56
326.77	878.56
326.999	915.56
327.228	947.56
327.457	1046.56
327.686	994.56
327.914	895.56
328.143	842.56
328.372	819.56
328.6	864.56
328.829	882.56
329.058	887.56
329.287	895.56
329.515	900.56
329.744	883.56
329.972	856.56
330.201	817.56
330.43	837.56
330.658	971.56
330.887	1068.56
331.115	1070.56
331.344	1003.56
331.572	974.56
331.801	895.56
332.03	847.56
332.258	861.56
332.486	943.56
332.715	984.56
332.943	903.56
333.172	924.56
333.4	926.56
333.629	1012.56
333.857	1107.56
334.085	1125.56
334.314	1101.56
334.542	1057.56
334.771	991.56
334.999	945.56
335.227	913.56
335.455	943.56
335.684	1034.56
335.912	1195.56
336.14	1311.56
336.369	1255.56
336.597	1208.56
336.825	1381.56
337.053	1531.56
337.281	1227.56
337.51	989.56
337.738	971.56
337.966	1072.56
338.194	1159.56
338.422	1089.56
338.65	941.56
338.878	882.56
339.106	912.56
339.334	1004.56
339.562	1104.56
339.79	1001.56
340.018	979.56
340.246	1063.56
340.474	1193.56
340.702	1278.56
340.93	1326.56
341.158	1315.56
341.386	1103.56
341.614	1131.56
341.842	1103.56
342.07	1144.56
342.298	1367.56
342.526	1416.56
342.754	1175.56
342.981	1121.56
343.209	1053.56
343.437	1127.56
343.665	1179.56
343.893	1191.56
344.12	1381.56
344.348	1585.56
344.576	1411.56
344.804	1200.56
345.031	1049.56
345.259	979.56
345.487	973.56
345.714	1041.56
345.942	1121.56
346.17	1174.56
346.397	1118.56
346.625	983.56
346.853	967.56
347.08	953.56
347.308	1016.56
347.535	1139.56
347.763	1141.56
347.99	1016.56
348.218	919.56
348.445	948.56
348.673	991.56
348.9	957.56
349.128	1052.56
349.355	1068.56
349.583	1047.56
349.81	1010.56
350.037	945.56
350.265	827.56
350.492	803.56
350.72	779.56
350.947	826.56
351.174	908.56
351.402	947.56
351.629	971.56
351.856	953.56
352.083	888.56
352.311	998.56
352.538	1091.56
352.765	1116.56
352.992	1037.56
353.22	971.56
353.447	981.56
353.674	919.56
353.901	945.56
354.128	1000.56
354.355	1029.56
354.583	996.56
354.81	968.56
355.037	1020.56
355.264	1019.56
355.491	1058.56
355.718	1193.56
355.945	1149.56
356.172	1099.56
356.399	1083.56
356.626	1327.56
356.853	1617.56
357.08	1720.56
357.307	1754.56
357.534	1370.56
357.761	1397.56
357.988	1710.56
358.215	2086.56
358.441	1909.56
358.668	1654.56
358.895	1485.56
359.122	1229.56
359.349	1214.56
359.576	1299.56
359.802	1101.56
360.029	959.56
360.256	1042.56
360.483	1277.56
360.709	1618.56
360.936	1653.56
361.163	1449.56
361.39	1143.56
361.616	1044.56
361.843	1230.56
362.07	1498.56
362.296	1370.56
362.523	1075.56
362.749	982.56
362.976	973.56
363.203	1190.56
363.429	1311.56
363.656	1125.56
363.882	960.56
364.109	998.56
364.335	1013.56
364.562	960.56
364.788	1115.56
365.015	1322.56
365.241	1141.56
365.468	940.56
365.694	829.56
365.92	808.56
366.147	759.56
366.373	759.56
366.599	788.56
366.826	796.56
367.052	838.56
367.278	817.56
367.505	834.56
367.731	899.56
367.957	1023.56
368.184	1040.56
368.41	1012.56
368.636	1027.56
368.862	1041.56
369.089	997.56
369.315	898.56
369.541	875.56
369.767	885.56
369.993	856.56
370.219	864.56
370.445	913.56
370.672	997.56
370.898	1061.56
371.124	1082.56
371.35	943.56
371.576	882.56
371.802	984.56
372.028	1160.56
372.254	1332.56
372.48	1128.56
372.706	1027.56
372.932	1096.56
373.158	1129.56
373.384	1350.56
373.61	1797.56
373.835	1860.56
374.061	1360.56
374.287	1163.56
374.513	1376.56
374.739	1653.56
374.965	1673.56
375.191	1666.56
375.416	1157.56
375.642	1025.56
375.868	1203.56
376.094	1349.56
376.319	1169.56
376.545	1289.56
376.771	1347.56
376.997	1132.56
377.222	867.56
377.448	737.56
377.674	723.56
377.899	739.56
378.125	746.56
378.35	763.56
378.576	769.56
378.802	870.56
379.027	903.56
379.253	883.56
379.478	916.56
379.704	1033.56
379.929	1088.56
380.155	1102.56
380.38	950.56
380.606	999.56
380.831	1095.56
381.057	1043.56
381.282	992.56
381.507	1161.56
381.733	1456.56
381.958	1515.56
382.184	1629.56
382.409	1684.56
382.634	1674.56
382.86	1753.56
383.085	1459.56
383.31	1142.56
383.535	1237.56
383.761	1231.56
383.986	1138.56
384.211	1423.56
384.436	1372.56
384.662	1078.56
384.887	1027.56
385.112	1035.56
385.337	1052.56
385.562	1005.56
385.787	1067.56
386.013	1221.56
386.238	1279.56
386.463	1051.56
386.688	1021.56
386.913	957.56
387.138	914.56
387.363	986.56
387.588	987.56
387.813	992.56
388.038	1124.56
388.263	993.56
388.488	955.56
388.713	1093.56
388.938	1198.56
389.163	1011.56
389.387	907.56
389.612	924.56
389.837	958.56
390.062	967.56
390.287	1004.56
390.512	1000.56
390.736	957.56
390.961	886.56
391.186	860.56
391.411	847.56
391.636	826.56
391.86	942.56
392.085	997.56
392.31	991.56
392.534	941.56
392.759	916.56
392.984	995.56
393.208	958.56
393.433	881.56
393.658	830.56
393.882	794.56
394.107	795.56
394.331	794.56
394.556	806.56
394.78	830.56
395.005	873.56
395.229	889.56
395.454	862.56
395.678	919.56
395.903	917.56
396.127	900.56
396.352	904.56
396.576	985.56
396.801	966.56
397.025	1115.56
397.249	1140.56
397.474	925.56
397.698	911.56
397.922	991.56
398.147	917.56
398.371	928.56
398.595	976.56
398.82	940.56
399.044	925.56
399.268	1015.56
399.492	1061.56
399.717	1067.56
399.941	1096.56
400.165	1060.56
400.389	1063.56
400.613	1055.56
400.837	1028.56
401.062	921.56
401.286	923.56
401.51	899.56
401.734	918.56
401.958	902.56
402.182	893.56
402.406	923.56
402.63	936.56
402.854	949.56
403.078	1090.56
403.302	1317.56
403.526	1331.56
403.75	1189.56
403.974	1062.56
404.198	1073.56
404.422	1222.56
404.645	1421.56
404.869	1597.56
405.093	1166.56
405.317	987.56
405.541	965.56
405.765	998.56
405.988	1041.56
406.212	1073.56
406.436	1292.56
406.66	1413.56
406.883	1143.56
407.107	1184.56
407.331	1396.56
407.555	1280.56
407.778	1078.56
408.002	1045.56
408.226	1028.56
408.449	1052.56
408.673	1023.56
408.896	949.56
409.12	911.56
409.344	919.56
409.567	879.56
409.791	886.56
410.014	923.56
410.238	884.56
410.461	896.56
410.685	901.56
410.908	931.56
411.132	930.56
411.355	936.56
411.578	949.56
411.802	947.56
412.025	1005.56
412.249	975.56
412.472	935.56
412.695	939.56
412.919	969.56
413.142	984.56
413.365	1064.56
413.589	1076.56
413.812	954.56
414.035	918.56
414.258	927.56
414.482	1031.56
414.705	1080.56
414.928	911.56
415.151	874.56
415.374	896.56
415.597	942.56
415.821	907.56
416.044	877.56
416.267	906.56
416.49	875.56
416.713	854.56
416.936	843.56
417.159	895.56
417.382	913.56
417.605	911.56
417.828	923.56
418.051	923.56
418.274	946.56
418.497	934.56
418.72	929.56
418.943	980.56
419.166	983.56
419.389	1023.56
419.611	998.56
419.834	1009.56
420.057	1105.56
420.28	1086.56
420.503	1028.56
420.726	917.56
420.948	882.56
421.171	879.56
421.394	885.56
421.617	879.56
421.839	887.56
422.062	950.56
422.285	962.56
422.507	941.56
422.73	955.56
422.953	975.56
423.175	960.56
423.398	942.56
423.621	1022.56
423.843	1046.56
424.066	985.56
424.288	949.56
424.511	916.56
424.733	921.56
424.956	934.56
425.178	1078.56
425.401	1218.56
425.623	1375.56
425.846	1161.56
426.068	1008.56
426.291	1147.56
426.513	1007.56
426.735	951.56
426.958	1021.56
427.18	1106.56
427.402	1485.56
427.625	1481.56
427.847	1183.56
428.069	931.56
428.292	917.56
428.514	897.56
428.736	892.56
428.958	947.56
429.181	1107.56
429.403	971.56
429.625	900.56
429.847	899.56
430.069	920.56
430.292	913.56
430.514	898.56
430.736	900.56
430.958	1183.56
431.18	1103.56
431.402	870.56
431.624	836.56
431.846	841.56
432.068	790.56
432.29	825.56
432.512	911.56
432.734	1206.56
432.956	1120.56
433.178	871.56
433.4	851.56
433.622	855.56
433.844	867.56
434.066	933.56
434.287	930.56
434.509	913.56
434.731	949.56
434.953	887.56
435.175	929.56
435.397	1025.56
435.618	895.56
435.84	839.56
436.062	861.56
436.284	875.56
436.505	789.56
436.727	783.56
436.949	803.56
437.17	814.56
437.392	840.56
437.614	846.56
437.835	811.56
438.057	854.56
438.278	976.56
438.5	1407.56
438.721	1360.56
438.943	951.56
439.165	777.56
439.386	755.56
439.608	777.56
439.829	785.56
440.05	781.56
440.272	851.56
440.493	983.56
440.715	1230.56
440.936	976.56
441.158	876.56
441.379	863.56
441.6	1003.56
441.822	1041.56
442.043	887.56
442.264	877.56
442.486	862.56
442.707	880.56
442.928	838.56
443.149	879.56
443.371	912.56
443.592	927.56
443.813	919.56
444.034	912.56
444.255	900.56
444.476	936.56
444.698	920.56
444.919	968.56
445.14	1048.56
445.361	990.56
445.582	953.56
445.803	964.56
446.024	936.56
446.245	957.56
446.466	923.56
446.687	872.56
446.908	873.56
447.129	852.56
447.35	816.56
447.571	795.56
447.792	795.56
448.013	780.56
448.234	791.56
448.455	789.56
448.675	811.56
448.896	813.56
449.117	799.56
449.338	815.56
449.559	816.56
449.779	867.56
450	854.56
450.221	850.56
450.442	827.56
450.662	801.56
450.883	807.56
451.104	843.56
451.324	804.56
451.545	829.56
451.766	799.56
451.986	808.56
452.207	773.56
452.428	782.56
452.648	734.56
452.869	835.56
453.089	867.56
453.31	840.56
453.53	757.56
453.751	748.56
453.971	735.56
454.192	769.56
454.412	796.56
454.633	760.56
454.853	748.56
455.073	736.56
455.294	728.56
455.514	735.56
455.734	806.56
455.955	816.56
456.175	828.56
456.395	769.56
456.616	695.56
456.836	711.56
457.056	710.56
457.276	703.56
457.497	707.56
457.717	710.56
457.937	733.56
458.157	706.56
458.377	709.56
458.598	722.56
458.818	752.56
459.038	821.56
459.258	833.56
459.478	852.56
459.698	914.56
459.918	891.56
460.138	889.56
460.358	899.56
460.578	885.56
460.798	865.56
461.018	883.56
461.238	839.56
461.458	866.56
461.678	886.56
461.898	931.56
462.118	911.56
462.338	958.56
462.558	981.56
462.777	1001.56
462.997	1045.56
463.217	1017.56
463.437	1019.56
463.657	1012.56
463.876	974.56
464.096	988.56
464.316	980.56
464.536	956.56
464.755	1042.56
464.975	1000.56
465.195	955.56
465.414	1019.56
465.634	969.56
465.854	925.56
466.073	862.56
466.293	871.56
466.512	938.56
466.732	1001.56
466.951	1047.56
467.171	920.56
467.391	883.56
467.61	896.56
467.829	949.56
468.049	923.56
468.268	883.56
468.488	879.56
468.707	898.56
468.927	1101.56
469.146	1163.56
469.365	1027.56
469.585	945.56
469.804	1025.56
470.023	1108.56
470.243	986.56
470.462	911.56
470.681	926.56
470.901	947.56
471.12	998.56
471.339	968.56
471.558	923.56
471.777	945.56
471.997	1016.56
472.216	1102.56
472.435	1073.56
472.654	997.56
472.873	966.56
473.092	979.56
473.311	1057.56
473.53	931.56
473.749	937.56
473.968	997.56
474.187	977.56
474.406	949.56
474.625	934.56
474.844	969.56
475.063	1023.56
475.282	1015.56
475.501	1067.56
475.72	1125.56
475.939	1083.56
476.158	1099.56
476.377	1265.56
476.596	1440.56
476.814	1513.56
477.033	1262.56
477.252	1049.56
477.471	991.56
477.69	990.56
477.908	1106.56
478.127	1149.56
478.346	1066.56
478.564	1157.56
478.783	1101.56
479.002	1133.56
479.22	1305.56
479.439	1414.56
479.658	1217.56
479.876	1112.56
480.095	1205.56
480.313	1255.56
480.532	1123.56
480.751	1089.56
480.969	1141.56
481.188	1302.56
481.406	1331.56
481.624	1262.56
481.843	1124.56
482.061	1055.56
482.28	1246.56
482.498	1477.56
482.717	1370.56
482.935	1205.56
483.153	1128.56
483.372	1048.56
483.59	1073.56
483.808	1037.56
484.027	1023.56
484.245	992.56
484.463	993.56
484.681	1028.56
484.9	1101.56
485.118	1160.56
485.336	1103.56
485.554	1049.56
485.772	1087.56
485.99	1175.56
486.209	1269.56
486.427	1225.56
486.645	1199.56
486.863	1243.56
487.081	1223.56
487.299	1363.56
487.517	1355.56
487.735	1229.56
487.953	1256.56
488.171	1259.56
488.389	1183.56
488.607	1120.56
488.825	1176.56
489.043	1250.56
489.261	1443.56
489.479	1515.56
489.696	1288.56
489.914	1192.56
490.132	1133.56
490.35	1114.56
490.568	1166.56
490.786	1137.56
491.003	1135.56
491.221	1195.56
491.439	1153.56
491.657	1113.56
491.874	1203.56
492.092	1505.56
492.31	1812.56
492.527	1768.56
492.745	1517.56
492.963	1320.56
493.18	1319.56
493.398	1320.56
493.615	1267.56
493.833	1232.56
494.05	1244.56
494.268	1264.56
494.485	1263.56
494.703	1221.56
494.92	1250.56
495.138	1210.56
495.355	1235.56
495.573	1242.56
495.79	1422.56
496.008	1815.56
496.225	1550.56
496.442	1381.56
496.66	1349.56
496.877	1389.56
497.094	1399.56
497.312	1297.56
497.529	1294.56
497.746	1340.56
497.963	1391.56
498.181	1466.56
498.398	1561.56
498.615	1693.56
498.832	1690.56
499.049	1707.56
499.267	1531.56
499.484	1528.56
499.701	1615.56
499.918	1749.56
500.135	1895.56
500.352	1929.56
500.569	1990.56
500.786	2040.56
501.003	2008.56
501.22	1799.56
501.437	1743.56
501.654	1669.56
501.871	1637.56
502.088	1667.56
502.305	1524.56
502.522	1519.56
502.739	1487.56
502.956	1385.56
503.172	1397.56
503.389	1310.56
503.606	1277.56
503.823	1291.56
504.04	1318.56
504.256	1313.56
504.473	1353.56
504.69	1376.56
504.907	1383.56
505.123	1368.56
505.34	1469.56
505.557	1465.56
505.773	1360.56
505.99	1288.56
506.207	1350.56
506.423	1262.56
506.64	1195.56
506.856	1262.56
507.073	1399.56
507.289	1352.56
507.506	1329.56
507.722	1433.56
507.939	1440.56
508.155	1462.56
508.372	1348.56
508.588	1264.56
508.805	1231.56
509.021	1218.56
509.238	1188.56
509.454	1165.56
509.67	1179.56
509.887	1183.56
510.103	1295.56
510.319	1328.56
510.536	1191.56
510.752	1079.56
510.968	1059.56
511.184	1035.56
511.401	1040.56
511.617	1040.56
511.833	1029.56
512.049	1053.56
512.265	1096.56
512.481	1124.56
512.698	1270.56
512.914	1359.56
513.13	1236.56
513.346	1134.56
513.562	1198.56
513.778	1171.56
513.994	1149.56
514.21	1277.56
514.426	1232.56
514.642	1162.56
514.858	1184.56
515.074	1194.56
515.29	1288.56
515.506	1422.56
515.721	1359.56
515.937	1277.56
516.153	1164.56
516.369	1178.56
516.585	1237.56
516.801	1401.56
517.016	1608.56
517.232	1552.56
517.448	1530.56
517.664	1391.56
517.879	1327.56
518.095	1281.56
518.311	1321.56
518.527	1341.56
518.742	1405.56
518.958	1434.56
519.173	1394.56
519.389	1339.56
519.605	1377.56
519.82	1523.56
520.036	1738.56
520.251	1697.56
520.467	1588.56
520.682	2383.56
520.898	2915.56
521.113	2788.56
521.329	1729.56
521.544	1571.56
521.76	1527.56
521.975	1337.56
522.19	1311.56
522.406	1305.56
522.621	1447.56
522.836	1535.56
523.052	1579.56
523.267	1287.56
523.482	1284.56
523.698	1398.56
523.913	1356.56
524.128	1232.56
524.343	1165.56
524.559	1203.56
524.774	1137.56
524.989	1191.56
525.204	1186.56
525.419	1342.56
525.634	1262.56
525.849	1271.56
526.064	1277.56
526.28	1298.56
526.495	1516.56
526.71	1532.56
526.925	1373.56
527.14	1397.56
527.355	1355.56
527.57	1155.56
527.785	1213.56
527.999	1147.56
528.214	1085.56
528.429	1074.56
528.644	1092.56
528.859	1034.56
529.074	1008.56
529.289	979.56
529.503	969.56
529.718	1000.56
529.933	1190.56
530.148	1187.56
530.363	1051.56
530.577	1039.56
530.792	1000.56
531.007	1004.56
531.221	1005.56
531.436	974.56
531.651	991.56
531.865	1017.56
532.08	1045.56
532.295	1006.56
532.509	1037.56
532.724	1145.56
532.938	1326.56
533.153	1508.56
533.367	1209.56
533.582	1183.56
533.796	1079.56
534.011	1059.56
534.225	1041.56
534.44	1088.56
534.654	1096.56
534.868	1235.56
535.083	1119.56
535.297	1025.56
535.511	984.56
535.726	1133.56
535.94	1079.56
536.154	1045.56
536.369	1009.56
536.583	1024.56
536.797	1023.56
537.011	1009.56
537.225	1121.56
537.44	1210.56
537.654	1039.56
537.868	1029.56
538.082	1003.56
538.296	1032.56
538.51	1095.56
538.724	1106.56
538.938	1059.56
539.153	1014.56
539.367	965.56
539.581	970.56
539.795	1051.56
540.009	1153.56
540.222	1057.56
540.436	1042.56
540.65	1155.56
540.864	1177.56
541.078	1191.56
541.292	1359.56
541.506	1095.56
541.72	1086.56
541.934	1055.56
542.147	1041.56
542.361	1033.56
542.575	1053.56
542.789	1007.56
543.002	965.56
543.216	1095.56
543.43	947.56
543.644	967.56
543.857	932.56
544.071	933.56
544.285	962.56
544.498	943.56
544.712	905.56
544.925	969.56
545.139	966.56
545.352	914.56
545.566	922.56
545.779	1077.56
545.993	981.56
546.206	870.56
546.42	873.56
546.633	881.56
546.847	841.56
547.06	859.56
547.274	864.56
547.487	911.56
547.7	960.56
547.914	982.56
548.127	1138.56
548.34	1089.56
548.554	943.56
548.767	1017.56
548.98	1067.56
549.193	1008.56
549.407	1007.56
549.62	1177.56
549.833	1132.56
550.046	1184.56
550.259	1160.56
550.473	1030.56
550.686	945.56
550.899	1004.56
551.112	1011.56
551.325	1052.56
551.538	1124.56
551.751	955.56
551.964	871.56
552.177	901.56
552.39	861.56
552.603	895.56
552.816	954.56
553.029	905.56
553.242	879.56
553.455	949.56
553.667	1035.56
553.88	962.56
554.093	922.56
554.306	824.56
554.519	823.56
554.732	813.56
554.944	801.56
555.157	794.56
555.37	794.56
555.583	773.56
555.795	781.56
556.008	835.56
556.221	815.56
556.433	819.56
556.646	762.56
556.859	793.56
557.071	803.56
557.284	827.56
557.496	837.56
557.709	823.56
557.921	789.56
558.134	756.56
558.346	722.56
558.559	733.56
558.771	781.56
558.984	811.56
559.196	753.56
559.409	752.56
559.621	696.56
559.833	717.56
560.046	723.56
560.258	738.56
560.47	767.56
560.683	728.56
560.895	665.56
561.107	684.56
561.32	683.56
561.532	694.56
561.744	769.56
561.956	801.56
562.168	726.56
562.381	708.56
562.593	736.56
562.805	739.56
563.017	703.56
563.229	667.56
563.441	692.56
563.653	687.56
563.865	688.56
564.077	687.56
564.289	680.56
564.501	705.56
564.713	767.56
564.925	733.56
565.137	681.56
565.349	710.56
565.561	707.56
565.773	699.56
565.985	731.56
566.197	790.56
566.408	843.56
566.62	852.56
566.832	851.56
567.044	877.56
567.255	905.56
567.467	1020.56
567.679	877.56
567.891	865.56
568.102	905.56
568.314	911.56
568.526	848.56
568.737	831.56
568.949	868.56
569.161	765.56
569.372	708.56
569.584	700.56
569.795	696.56
570.007	706.56
570.218	763.56
570.43	748.56
570.641	693.56
570.853	660.56
571.064	644.56
571.276	674.56
571.487	701.56
571.698	681.56
571.91	691.56
572.121	661.56
572.333	627.56
572.544	623.56
572.755	624.56
572.966	627.56
573.178	622.56
573.389	641.56
573.6	616.56
573.811	621.56
574.023	581.56
574.234	573.56
574.445	570.56
574.656	571.56
574.867	569.56
575.078	595.56
575.289	581.56
575.501	621.56
575.712	610.56
575.923	573.56
576.134	549.56
576.345	571.56
576.556	567.56
576.767	550.56
576.978	545.56
577.188	539.56
577.399	538.56
577.61	560.56
577.821	526.56
578.032	528.56
578.243	571.56
578.454	568.56
578.665	569.56
578.875	563.56
579.086	533.56
579.297	565.56
579.508	577.56
579.718	571.56
579.929	551.56
580.14	525.56
580.35	518.56
580.561	478.56
580.772	516.56
580.982	467.56
581.193	491.56
581.403	476.56
581.614	440.56
581.825	473.56
582.035	471.56
582.246	457.56
582.456	485.56
582.667	455.56
582.877	447.56
583.087	441.56
583.298	458.56
583.508	467.56
583.719	445.56
583.929	475.56
584.139	449.56
584.35	454.56
584.56	472.56
584.77	455.56
584.981	465.56
585.191	465.56
585.401	462.56
585.611	479.56
585.821	480.56
586.032	468.56
586.242	479.56
586.452	467.56
586.662	470.56
586.872	511.56
587.082	515.56
587.292	477.56
587.502	439.56
587.713	473.56
587.923	465.56
588.133	505.56
588.343	486.56
588.553	463.56
588.762	467.56
588.972	457.56
589.182	467.56
589.392	453.56
589.602	464.56
589.812	467.56
590.022	502.56
590.232	509.56
590.441	467.56
590.651	461.56
590.861	444.56
591.071	479.56
591.281	458.56
591.49	459.56
591.7	448.56
591.91	436.56
592.119	457.56
592.329	459.56
592.539	454.56
592.748	468.56
592.958	468.56
593.167	475.56
593.377	494.56
593.587	484.56
593.796	484.56
594.006	466.56
594.215	478.56
594.424	468.56
594.634	514.56
594.843	469.56
595.053	463.56
595.262	438.56
595.472	452.56
595.681	425.56
595.89	440.56
596.1	450.56
596.309	449.56
596.518	433.56
596.727	433.56
596.937	420.56
597.146	453.56
597.355	483.56
597.564	434.56
597.774	400.56
597.983	415.56
598.192	414.56
598.401	386.56
598.61	389.56
598.819	409.56
599.028	394.56
599.237	404.56
599.446	370.56
599.655	371.56
599.864	376.56
600.073	372.56
600.282	384.56
600.491	381.56
600.7	385.56
600.909	378.56
601.118	399.56
601.327	382.56
601.536	372.56
601.745	372.56
601.953	393.56
602.162	403.56
602.371	415.56
602.58	396.56
602.789	393.56
602.997	376.56
603.206	372.56
603.415	369.56
603.623	367.56
603.832	368.56
604.041	349.56
604.249	369.56
604.458	385.56
604.666	368.56
604.875	349.56
605.084	351.56
605.292	373.56
605.501	355.56
605.709	371.56
605.918	376.56
606.126	356.56
606.334	349.56
606.543	350.56
606.751	346.56
606.96	352.56
607.168	345.56
607.376	347.56
607.585	344.56
607.793	348.56
608.001	340.56
608.21	356.56
608.418	348.56
608.626	357.56
608.834	350.56
609.043	359.56
609.251	348.56
609.459	334.56
609.667	350.56
609.875	339.56
610.083	341.56
610.291	333.56
610.499	357.56
610.707	361.56
610.916	326.56
611.124	330.56
611.332	338.56
611.54	344.56
611.748	336.56
611.955	341.56
612.163	334.56
612.371	342.56
612.579	332.56
612.787	322.56
612.995	319.56
613.203	325.56
613.411	335.56
613.618	329.56
613.826	364.56
614.034	356.56
614.242	329.56
614.449	317.56
614.657	307.56
614.865	329.56
615.072	335.56
615.28	336.56
615.488	323.56
615.695	321.56
615.903	317.56
616.111	316.56
616.318	335.56
616.526	316.56
616.733	310.56
616.941	305.56
617.148	309.56
617.356	320.56
617.563	324.56
617.771	302.56
617.978	316.56
618.185	288.56
618.393	295.56
618.6	319.56
618.807	318.56
619.015	315.56
619.222	303.56
619.429	313.56
619.637	316.56
619.844	283.56
620.051	313.56
620.258	289.56
620.466	290.56
620.673	316.56
620.88	280.56
621.087	296.56
621.294	308.56
621.501	292.56
621.708	297.56
621.915	289.56
622.122	291.56
622.329	280.56
622.536	292.56
622.743	280.56
622.95	274.56
623.157	307.56
623.364	331.56
623.571	312.56
623.778	299.56
623.985	323.56
624.192	289.56
624.399	301.56
624.606	301.56
624.812	302.56
625.019	307.56
625.226	314.56
625.433	327.56
625.639	289.56
625.846	263.56
626.053	275.56
626.259	263.56
626.466	266.56
626.673	296.56
626.879	281.56
627.086	284.56
627.293	288.56
627.499	280.56
627.706	274.56
627.912	261.56
628.119	269.56
628.325	251.56
628.532	248.56
628.738	254.56
628.945	275.56
629.151	265.56
629.357	257.56
629.564	259.56
629.77	253.56
629.976	248.56
630.183	263.56
630.389	269.56
630.595	285.56
630.802	246.56
631.008	256.56
631.214	256.56
631.42	263.56
631.627	247.56
631.833	262.56
632.039	264.56
632.245	239.56
632.451	238.56
632.657	257.56
632.863	240.56
633.069	252.56
633.275	239.56
633.481	247.56
633.688	254.56
633.893	248.56
634.099	243.56
634.305	241.56
634.511	228.56
634.717	223.56
634.923	228.56
635.129	234.56
635.335	224.56
635.541	228.56
635.747	230.56
635.952	231.56
636.158	238.56
636.364	222.56
636.57	238.56
636.775	227.56
636.981	237.56
637.187	210.56
637.392	214.56
637.598	234.56
637.804	231.56
638.009	232.56
638.215	226.56
638.421	228.56
638.626	224.56
638.832	210.56
639.037	215.56
639.243	214.56
639.448	220.56
639.654	241.56
639.859	230.56
640.065	243.56
640.27	243.56
640.475	227.56
640.681	214.56
640.886	215.56
641.091	217.56
641.297	222.56
641.502	235.56
641.707	229.56
641.913	218.56
642.118	240.56
642.323	231.56
642.528	219.56
642.733	212.56
642.939	205.56
643.144	219.56
643.349	214.56
643.554	217.56
643.759	214.56
643.964	216.56
644.169	213.56
644.374	208.56
644.579	211.56
644.784	215.56
644.989	226.56
645.194	212.56
645.399	222.56
645.604	213.56
645.809	212.56
646.014	215.56
646.219	190.56
646.423	215.56
646.628	213.56
646.833	215.56
647.038	215.56
647.243	197.56
647.447	220.56
647.652	198.56
647.857	212.56
648.062	207.56
648.266	213.56
648.471	202.56
648.676	225.56
648.88	208.56
649.085	217.56
649.289	198.56
649.494	224.56
649.698	224.56
649.903	211.56
650.107	203.56
650.312	193.56
650.516	211.56
650.721	194.56
650.925	193.56
651.13	205.56
651.334	181.56
651.539	175.56
651.743	190.56
651.947	177.56
652.152	161.56
652.356	175.56
652.56	166.56
652.764	177.56
652.969	175.56
653.173	183.56
653.377	180.56
653.581	158.56
653.785	168.56
653.99	163.56
654.194	159.56
654.398	151.56
654.602	151.56
654.806	160.56
655.01	154.56
655.214	175.56
655.418	152.56
655.622	161.56
655.826	143.56
656.03	160.56
656.234	157.56
656.438	168.56
656.642	153.56
656.846	165.56
657.049	165.56
657.253	145.56
657.457	137.56
657.661	127.56
657.865	129.56
658.068	124.56
658.272	126.56
658.476	132.56
658.68	118.56
658.883	116.56
659.087	104.56
659.291	121.56
659.494	109.56
659.698	113.56
659.901	103.56
660.105	111.56
660.309	111.56
660.512	101.56
660.716	115.56
660.919	105.56
661.123	93.56
661.326	94.56
661.53	101.56
661.733	90.56
661.936	95.56
662.14	99.56
662.343	85.56
662.546	98.56
662.75	88.56
662.953	98.56
663.156	83.56
663.36	92.56
663.563	93.56
663.766	78.56
663.969	73.56
664.173	72.56
664.376	78.56
664.579	83.56
664.782	90.56
664.985	88.56
665.188	92.56
665.391	75.56
665.594	83.56
665.797	74.56
666	77.56
666.203	74.56
666.406	80.56
666.609	89.56
666.812	81.56
667.015	79.56
667.218	84.56
667.421	79.56
667.624	97.56
667.827	88.56
668.03	83.56
668.232	80.56
668.435	78.56
668.638	85.56
668.841	69.56
669.043	83.56
669.246	81.56
669.449	81.56
669.651	82.56
669.854	86.56
670.057	82.56
670.259	78.56
670.462	73.56
670.665	72.56
670.867	83.56
671.07	72.56
671.272	89.56
671.475	76.56
671.677	99.56
671.88	100.56
672.082	87.56
672.284	74.56
672.487	88.56
672.689	73.56
672.892	79.56
