Data from NickelSpatula.Lamp.E10.P2_HRD10591_11-56-57-567.txt Node
Date: Tue Jul 23 11:56:57 EDT 2019
User: cochatt
Spectrometer: HR+D1059
Trigger mode: 1
Integration Time (sec): 1.000000E-1
Scans to average: 1
Electric dark correction enabled: true
Nonlinearity correction enabled: false
Boxcar width: 0
XAxis mode: Wavelengths
Number of Pixels in Spectrum: 2048
>>>>>Begin Spectral Data<<<<<
223.165	-18.88
223.4	-18.88
223.635	-18.88
223.869	-19.88
224.104	-23.88
224.338	-10.88
224.573	-3.88
224.808	-8.88
225.042	0.12
225.277	-14.88
225.511	-5.88
225.746	4.12
225.98	-3.88
226.215	10.12
226.449	18.12
226.683	21.12
226.918	22.12
227.152	35.12
227.387	29.12
227.621	59.12
227.856	42.12
228.09	52.12
228.324	51.12
228.559	60.12
228.793	80.12
229.027	141.12
229.262	152.12
229.496	177.12
229.73	165.12
229.964	188.12
230.199	187.12
230.433	200.12
230.667	189.12
230.901	200.12
231.136	192.12
231.37	201.12
231.604	213.12
231.838	233.12
232.072	228.12
232.306	250.12
232.541	231.12
232.775	224.12
233.009	259.12
233.243	282.12
233.477	312.12
233.711	329.12
233.945	287.12
234.179	309.12
234.413	330.12
234.647	357.12
234.881	413.12
235.115	395.12
235.349	392.12
235.583	326.12
235.817	328.12
236.051	360.12
236.285	388.12
236.519	445.12
236.753	399.12
236.987	396.12
237.221	369.12
237.455	398.12
237.689	380.12
237.922	457.12
238.156	450.12
238.39	509.12
238.624	593.12
238.858	523.12
239.091	446.12
239.325	492.12
239.559	445.12
239.793	521.12
240.027	607.12
240.26	572.12
240.494	530.12
240.728	556.12
240.961	646.12
241.195	611.12
241.429	584.12
241.662	557.12
241.896	480.12
242.13	452.12
242.363	422.12
242.597	448.12
242.83	502.12
243.064	499.12
243.298	576.12
243.531	613.12
243.765	595.12
243.998	576.12
244.232	564.12
244.465	558.12
244.699	537.12
244.932	593.12
245.166	577.12
245.399	518.12
245.633	525.12
245.866	549.12
246.099	590.12
246.333	663.12
246.566	716.12
246.8	701.12
247.033	690.12
247.266	641.12
247.5	619.12
247.733	623.12
247.966	634.12
248.2	647.12
248.433	718.12
248.666	765.12
248.899	768.12
249.133	791.12
249.366	914.12
249.599	935.12
249.832	856.12
250.066	721.12
250.299	757.12
250.532	782.12
250.765	752.12
250.998	692.12
251.231	670.12
251.465	743.12
251.698	798.12
251.931	762.12
252.164	762.12
252.397	881.12
252.63	977.12
252.863	1038.12
253.096	1100.12
253.329	1053.12
253.562	1010.12
253.795	1144.12
254.028	1236.12
254.261	1280.12
254.494	1124.12
254.727	1074.12
254.96	1016.12
255.193	1079.12
255.426	1040.12
255.659	810.12
255.892	758.12
256.124	822.12
256.357	953.12
256.59	1107.12
256.823	1069.12
257.056	895.12
257.289	842.12
257.521	921.12
257.754	1092.12
257.987	1222.12
258.22	1076.12
258.452	940.12
258.685	1032.12
258.918	1190.12
259.151	1164.12
259.383	1268.12
259.616	1422.12
259.849	1447.12
260.081	1591.12
260.314	1789.12
260.547	1384.12
260.779	1432.12
261.012	1610.12
261.244	1543.12
261.477	1489.12
261.71	1430.12
261.942	1176.12
262.175	1188.12
262.407	1163.12
262.64	1172.12
262.872	1391.12
263.105	1485.12
263.337	1579.12
263.57	1397.12
263.802	994.12
264.035	851.12
264.267	824.12
264.499	740.12
264.732	668.12
264.964	665.12
265.197	683.12
265.429	740.12
265.661	782.12
265.894	813.12
266.126	864.12
266.358	977.12
266.591	1158.12
266.823	1384.12
267.055	1336.12
267.287	1178.12
267.52	1208.12
267.752	1287.12
267.984	1376.12
268.216	1301.12
268.448	1075.12
268.681	1062.12
268.913	1123.12
269.145	1207.12
269.377	1228.12
269.609	1264.12
269.841	1162.12
270.073	1229.12
270.306	1308.12
270.538	1314.12
270.77	1362.12
271.002	1357.12
271.234	1417.12
271.466	1412.12
271.698	1333.12
271.93	1296.12
272.162	1312.12
272.394	1273.12
272.626	1283.12
272.858	1350.12
273.09	1362.12
273.322	1202.12
273.553	1171.12
273.785	1312.12
274.017	1752.12
274.249	2167.12
274.481	2297.12
274.713	2466.12
274.945	2800.12
275.176	2976.12
275.408	2600.12
275.64	2371.12
275.872	2380.12
276.104	2034.12
276.335	1778.12
276.567	1757.12
276.799	1862.12
277.031	1930.12
277.262	1466.12
277.494	1180.12
277.726	1140.12
277.957	1262.12
278.189	1377.12
278.421	1387.12
278.652	1335.12
278.884	1277.12
279.115	1158.12
279.347	1138.12
279.579	1126.12
279.81	1122.12
280.042	1150.12
280.273	1176.12
280.505	1101.12
280.736	961.12
280.968	974.12
281.199	1058.12
281.431	1187.12
281.662	1170.12
281.894	1114.12
282.125	1179.12
282.356	1282.12
282.588	1326.12
282.819	1164.12
283.051	1288.12
283.282	1636.12
283.513	1845.12
283.745	2018.12
283.976	2050.12
284.207	1876.12
284.439	1946.12
284.67	1876.12
284.901	1645.12
285.132	1788.12
285.364	1864.12
285.595	1740.12
285.826	1824.12
286.057	1908.12
286.288	1849.12
286.52	1863.12
286.751	1961.12
286.982	1930.12
287.213	1725.12
287.444	1665.12
287.675	1715.12
287.906	1720.12
288.138	1456.12
288.369	1317.12
288.6	1234.12
288.831	1300.12
289.062	1511.12
289.293	1672.12
289.524	1543.12
289.755	1522.12
289.986	1557.12
290.217	1368.12
290.448	1050.12
290.679	916.12
290.91	876.12
291.141	888.12
291.371	914.12
291.602	905.12
291.833	952.12
292.064	982.12
292.295	1142.12
292.526	1312.12
292.757	1346.12
292.987	1462.12
293.218	1466.12
293.449	1526.12
293.68	1603.12
293.91	1517.12
294.141	1595.12
294.372	1452.12
294.603	1372.12
294.833	1464.12
295.064	1718.12
295.295	1677.12
295.525	1253.12
295.756	1128.12
295.987	928.12
296.217	917.12
296.448	953.12
296.679	994.12
296.909	1092.12
297.14	1161.12
297.37	1292.12
297.601	1235.12
297.831	1070.12
298.062	1130.12
298.292	1316.12
298.523	1387.12
298.753	1557.12
298.984	1406.12
299.214	1139.12
299.445	979.12
299.675	918.12
299.905	919.12
300.136	944.12
300.366	1001.12
300.597	1024.12
300.827	902.12
301.057	875.12
301.288	895.12
301.518	928.12
301.748	1066.12
301.979	1151.12
302.209	1187.12
302.439	1223.12
302.669	1079.12
302.9	1100.12
303.13	1052.12
303.36	1015.12
303.59	968.12
303.82	1013.12
304.051	1108.12
304.281	1230.12
304.511	1168.12
304.741	1045.12
304.971	1092.12
305.201	1195.12
305.431	1129.12
305.661	946.12
305.891	937.12
306.121	988.12
306.352	872.12
306.582	800.12
306.812	797.12
307.042	793.12
307.272	737.12
307.502	722.12
307.731	775.12
307.961	851.12
308.191	801.12
308.421	726.12
308.651	749.12
308.881	710.12
309.111	743.12
309.341	756.12
309.571	831.12
309.8	856.12
310.03	840.12
310.26	848.12
310.49	851.12
310.72	810.12
310.949	808.12
311.179	824.12
311.409	869.12
311.639	1010.12
311.868	1266.12
312.098	1621.12
312.328	1798.12
312.557	1698.12
312.787	1714.12
313.017	1556.12
313.246	1702.12
313.476	1802.12
313.706	1506.12
313.935	1196.12
314.165	988.12
314.394	907.12
314.624	883.12
314.853	946.12
315.083	955.12
315.312	922.12
315.542	939.12
315.771	873.12
316.001	808.12
316.23	790.12
316.46	771.12
316.689	786.12
316.919	840.12
317.148	846.12
317.377	825.12
317.607	832.12
317.836	901.12
318.065	990.12
318.295	1119.12
318.524	1044.12
318.753	888.12
318.983	880.12
319.212	845.12
319.441	882.12
319.67	996.12
319.9	1047.12
320.129	1011.12
320.358	900.12
320.587	864.12
320.816	921.12
321.046	1030.12
321.275	1128.12
321.504	1143.12
321.733	1074.12
321.962	1042.12
322.191	1010.12
322.42	954.12
322.649	941.12
322.878	1062.12
323.108	1013.12
323.337	1002.12
323.566	963.12
323.795	975.12
324.024	918.12
324.253	878.12
324.482	877.12
324.71	941.12
324.939	1045.12
325.168	969.12
325.397	829.12
325.626	820.12
325.855	812.12
326.084	843.12
326.313	824.12
326.542	763.12
326.77	822.12
326.999	816.12
327.228	867.12
327.457	916.12
327.686	885.12
327.914	794.12
328.143	772.12
328.372	775.12
328.6	766.12
328.829	810.12
329.058	826.12
329.287	830.12
329.515	845.12
329.744	821.12
329.972	781.12
330.201	746.12
330.43	758.12
330.658	885.12
330.887	954.12
331.115	944.12
331.344	945.12
331.572	925.12
331.801	832.12
332.03	834.12
332.258	840.12
332.486	888.12
332.715	892.12
332.943	844.12
333.172	864.12
333.4	882.12
333.629	977.12
333.857	1051.12
334.085	1026.12
334.314	1047.12
334.542	1003.12
334.771	925.12
334.999	899.12
335.227	878.12
335.455	868.12
335.684	965.12
335.912	1110.12
336.14	1197.12
336.369	1172.12
336.597	1116.12
336.825	1259.12
337.053	1395.12
337.281	1119.12
337.51	941.12
337.738	933.12
337.966	951.12
338.194	1050.12
338.422	996.12
338.65	894.12
338.878	823.12
339.106	874.12
339.334	924.12
339.562	960.12
339.79	945.12
340.018	896.12
340.246	932.12
340.474	1104.12
340.702	1111.12
340.93	1169.12
341.158	1119.12
341.386	981.12
341.614	956.12
341.842	972.12
342.07	1021.12
342.298	1163.12
342.526	1238.12
342.754	1054.12
342.981	969.12
343.209	954.12
343.437	980.12
343.665	1064.12
343.893	1042.12
344.12	1189.12
344.348	1400.12
344.576	1236.12
344.804	1032.12
345.031	953.12
345.259	884.12
345.487	893.12
345.714	917.12
345.942	963.12
346.17	1064.12
346.397	1020.12
346.625	906.12
346.853	888.12
347.08	849.12
347.308	868.12
347.535	998.12
347.763	1000.12
347.99	874.12
348.218	849.12
348.445	890.12
348.673	890.12
348.9	893.12
349.128	954.12
349.355	918.12
349.583	946.12
349.81	908.12
350.037	851.12
350.265	750.12
350.492	738.12
350.72	745.12
350.947	760.12
351.174	796.12
351.402	855.12
351.629	854.12
351.856	797.12
352.083	785.12
352.311	843.12
352.538	921.12
352.765	961.12
352.992	883.12
353.22	841.12
353.447	869.12
353.674	823.12
353.901	850.12
354.128	848.12
354.355	850.12
354.583	841.12
354.81	902.12
355.037	917.12
355.264	887.12
355.491	890.12
355.718	964.12
355.945	942.12
356.172	941.12
356.399	929.12
356.626	1106.12
356.853	1283.12
357.08	1344.12
357.307	1403.12
357.534	1114.12
357.761	1145.12
357.988	1430.12
358.215	1603.12
358.441	1496.12
358.668	1304.12
358.895	1211.12
359.122	999.12
359.349	988.12
359.576	1101.12
359.802	925.12
360.029	830.12
360.256	881.12
360.483	1061.12
360.709	1280.12
360.936	1293.12
361.163	1161.12
361.39	942.12
361.616	896.12
361.843	1021.12
362.07	1208.12
362.296	1134.12
362.523	921.12
362.749	829.12
362.976	842.12
363.203	1008.12
363.429	1114.12
363.656	917.12
363.882	846.12
364.109	870.12
364.335	852.12
364.562	844.12
364.788	948.12
365.015	1088.12
365.241	953.12
365.468	845.12
365.694	746.12
365.92	747.12
366.147	736.12
366.373	714.12
366.599	761.12
366.826	743.12
367.052	738.12
367.278	748.12
367.505	766.12
367.731	816.12
367.957	867.12
368.184	893.12
368.41	867.12
368.636	885.12
368.862	934.12
369.089	860.12
369.315	785.12
369.541	798.12
369.767	801.12
369.993	776.12
370.219	770.12
370.445	810.12
370.672	893.12
370.898	917.12
371.124	909.12
371.35	832.12
371.576	812.12
371.802	864.12
372.028	962.12
372.254	1092.12
372.48	939.12
372.706	891.12
372.932	932.12
373.158	975.12
373.384	1106.12
373.61	1402.12
373.835	1439.12
374.061	1114.12
374.287	1007.12
374.513	1093.12
374.739	1302.12
374.965	1339.12
375.191	1295.12
375.416	983.12
375.642	892.12
375.868	1042.12
376.094	1092.12
376.319	997.12
376.545	1065.12
376.771	1063.12
376.997	963.12
377.222	766.12
377.448	712.12
377.674	707.12
377.899	714.12
378.125	694.12
378.35	700.12
378.576	741.12
378.802	766.12
379.027	824.12
379.253	779.12
379.478	804.12
379.704	888.12
379.929	903.12
380.155	932.12
380.38	813.12
380.606	859.12
380.831	936.12
381.057	887.12
381.282	861.12
381.507	985.12
381.733	1178.12
381.958	1188.12
382.184	1266.12
382.409	1350.12
382.634	1292.12
382.86	1369.12
383.085	1162.12
383.31	982.12
383.535	1028.12
383.761	1062.12
383.986	977.12
384.211	1143.12
384.436	1123.12
384.662	897.12
384.887	872.12
385.112	890.12
385.337	904.12
385.562	891.12
385.787	960.12
386.013	1042.12
386.238	1031.12
386.463	909.12
386.688	881.12
386.913	828.12
387.138	827.12
387.363	851.12
387.588	862.12
387.813	880.12
388.038	952.12
388.263	880.12
388.488	862.12
388.713	944.12
388.938	1030.12
389.163	884.12
389.387	808.12
389.612	843.12
389.837	844.12
390.062	837.12
390.287	882.12
390.512	892.12
390.736	850.12
390.961	840.12
391.186	801.12
391.411	789.12
391.636	816.12
391.86	854.12
392.085	908.12
392.31	905.12
392.534	860.12
392.759	820.12
392.984	896.12
393.208	893.12
393.433	819.12
393.658	756.12
393.882	754.12
394.107	764.12
394.331	781.12
394.556	759.12
394.78	764.12
395.005	790.12
395.229	820.12
395.454	830.12
395.678	817.12
395.903	854.12
396.127	841.12
396.352	828.12
396.576	888.12
396.801	862.12
397.025	966.12
397.249	981.12
397.474	861.12
397.698	857.12
397.922	918.12
398.147	842.12
398.371	854.12
398.595	882.12
398.82	912.12
399.044	919.12
399.268	966.12
399.492	1013.12
399.717	999.12
399.941	1054.12
400.165	1039.12
400.389	970.12
400.613	971.12
400.837	953.12
401.062	869.12
401.286	857.12
401.51	862.12
401.734	897.12
401.958	869.12
402.182	873.12
402.406	877.12
402.63	850.12
402.854	898.12
403.078	993.12
403.302	1184.12
403.526	1234.12
403.75	1134.12
403.974	1023.12
404.198	1009.12
404.422	1122.12
404.645	1215.12
404.869	1323.12
405.093	1060.12
405.317	944.12
405.541	953.12
405.765	947.12
405.988	989.12
406.212	997.12
406.436	1137.12
406.66	1229.12
406.883	1031.12
407.107	1072.12
407.331	1189.12
407.555	1172.12
407.778	1049.12
408.002	1028.12
408.226	1007.12
408.449	992.12
408.673	977.12
408.896	903.12
409.12	884.12
409.344	873.12
409.567	881.12
409.791	888.12
410.014	878.12
410.238	868.12
410.461	868.12
410.685	857.12
410.908	880.12
411.132	894.12
411.355	893.12
411.578	901.12
411.802	898.12
412.025	911.12
412.249	929.12
412.472	939.12
412.695	910.12
412.919	925.12
413.142	908.12
413.365	954.12
413.589	975.12
413.812	935.12
414.035	880.12
414.258	905.12
414.482	939.12
414.705	976.12
414.928	864.12
415.151	837.12
415.374	848.12
415.597	882.12
415.821	881.12
416.044	853.12
416.267	857.12
416.49	845.12
416.713	854.12
416.936	837.12
417.159	840.12
417.382	853.12
417.605	847.12
417.828	866.12
418.051	875.12
418.274	880.12
418.497	857.12
418.72	878.12
418.943	874.12
419.166	938.12
419.389	964.12
419.611	954.12
419.834	980.12
420.057	992.12
420.28	972.12
420.503	907.12
420.726	883.12
420.948	842.12
421.171	864.12
421.394	844.12
421.617	812.12
421.839	851.12
422.062	889.12
422.285	906.12
422.507	880.12
422.73	917.12
422.953	916.12
423.175	925.12
423.398	900.12
423.621	931.12
423.843	996.12
424.066	880.12
424.288	857.12
424.511	862.12
424.733	885.12
424.956	912.12
425.178	957.12
425.401	1065.12
425.623	1202.12
425.846	1019.12
426.068	922.12
426.291	1002.12
426.513	937.12
426.735	892.12
426.958	916.12
427.18	1029.12
427.402	1261.12
427.625	1248.12
427.847	1053.12
428.069	867.12
428.292	876.12
428.514	843.12
428.736	819.12
428.958	896.12
429.181	980.12
429.403	877.12
429.625	845.12
429.847	811.12
430.069	833.12
430.292	862.12
430.514	842.12
430.736	886.12
430.958	1024.12
431.18	941.12
431.402	818.12
431.624	766.12
431.846	801.12
432.068	766.12
432.29	779.12
432.512	859.12
432.734	1037.12
432.956	974.12
433.178	851.12
433.4	828.12
433.622	826.12
433.844	836.12
434.066	859.12
434.287	876.12
434.509	876.12
434.731	883.12
434.953	831.12
435.175	903.12
435.397	969.12
435.618	853.12
435.84	798.12
436.062	790.12
436.284	788.12
436.505	763.12
436.727	785.12
436.949	779.12
437.17	818.12
437.392	800.12
437.614	802.12
437.835	779.12
438.057	816.12
438.278	859.12
438.5	1156.12
438.721	1151.12
438.943	856.12
439.165	781.12
439.386	777.12
439.608	773.12
439.829	743.12
440.05	771.12
440.272	820.12
440.493	908.12
440.715	1082.12
440.936	904.12
441.158	840.12
441.379	849.12
441.6	919.12
441.822	964.12
442.043	853.12
442.264	857.12
442.486	857.12
442.707	854.12
442.928	866.12
443.149	858.12
443.371	885.12
443.592	896.12
443.813	908.12
444.034	858.12
444.255	880.12
444.476	900.12
444.698	934.12
444.919	944.12
445.14	1050.12
445.361	1001.12
445.582	943.12
445.803	903.12
446.024	882.12
446.245	905.12
446.466	888.12
446.687	842.12
446.908	841.12
447.129	842.12
447.35	804.12
447.571	773.12
447.792	773.12
448.013	786.12
448.234	736.12
448.455	733.12
448.675	750.12
448.896	792.12
449.117	782.12
449.338	806.12
449.559	796.12
449.779	840.12
450	852.12
450.221	808.12
450.442	774.12
450.662	776.12
450.883	792.12
451.104	800.12
451.324	791.12
451.545	778.12
451.766	778.12
451.986	753.12
452.207	755.12
452.428	754.12
452.648	748.12
452.869	728.12
453.089	814.12
453.31	782.12
453.53	718.12
453.751	711.12
453.971	703.12
454.192	713.12
454.412	729.12
454.633	718.12
454.853	736.12
455.073	709.12
455.294	733.12
455.514	723.12
455.734	744.12
455.955	781.12
456.175	794.12
456.395	724.12
456.616	686.12
456.836	674.12
457.056	686.12
457.276	684.12
457.497	692.12
457.717	689.12
457.937	725.12
458.157	723.12
458.377	717.12
458.598	752.12
458.818	729.12
459.038	786.12
459.258	780.12
459.478	817.12
459.698	860.12
459.918	889.12
460.138	842.12
460.358	884.12
460.578	826.12
460.798	851.12
461.018	882.12
461.238	853.12
461.458	848.12
461.678	870.12
461.898	918.12
462.118	899.12
462.338	917.12
462.558	931.12
462.777	957.12
462.997	985.12
463.217	988.12
463.437	1003.12
463.657	1005.12
463.876	967.12
464.096	912.12
464.316	937.12
464.536	937.12
464.755	954.12
464.975	950.12
465.195	946.12
465.414	993.12
465.634	912.12
465.854	891.12
466.073	851.12
466.293	830.12
466.512	876.12
466.732	953.12
466.951	972.12
467.171	898.12
467.391	850.12
467.61	861.12
467.829	897.12
468.049	871.12
468.268	855.12
468.488	858.12
468.707	884.12
468.927	1008.12
469.146	1056.12
469.365	969.12
469.585	900.12
469.804	976.12
470.023	1010.12
470.243	919.12
470.462	900.12
470.681	810.12
470.901	870.12
471.12	900.12
471.339	912.12
471.558	902.12
471.777	894.12
471.997	955.12
472.216	1068.12
472.435	1012.12
472.654	964.12
472.873	911.12
473.092	972.12
473.311	993.12
473.53	913.12
473.749	878.12
473.968	908.12
474.187	885.12
474.406	876.12
474.625	878.12
474.844	876.12
475.063	964.12
475.282	978.12
475.501	1017.12
475.72	1044.12
475.939	1036.12
476.158	1038.12
476.377	1158.12
476.596	1330.12
476.814	1392.12
477.033	1166.12
477.252	1034.12
477.471	945.12
477.69	978.12
477.908	1057.12
478.127	1116.12
478.346	1010.12
478.564	1084.12
478.783	1044.12
479.002	1056.12
479.22	1210.12
479.439	1337.12
479.658	1145.12
479.876	1070.12
480.095	1198.12
480.313	1170.12
480.532	1067.12
480.751	1041.12
480.969	1082.12
481.188	1197.12
481.406	1264.12
481.624	1152.12
481.843	1072.12
482.061	1040.12
482.28	1154.12
482.498	1368.12
482.717	1307.12
482.935	1133.12
483.153	1078.12
483.372	1003.12
483.59	1016.12
483.808	1012.12
484.027	988.12
484.245	958.12
484.463	956.12
484.681	981.12
484.9	1052.12
485.118	1120.12
485.336	1037.12
485.554	1043.12
485.772	1040.12
485.99	1111.12
486.209	1160.12
486.427	1138.12
486.645	1140.12
486.863	1178.12
487.081	1158.12
487.299	1242.12
487.517	1200.12
487.735	1128.12
487.953	1176.12
488.171	1181.12
488.389	1152.12
488.607	1050.12
488.825	1097.12
489.043	1137.12
489.261	1293.12
489.479	1363.12
489.696	1204.12
489.914	1115.12
490.132	1075.12
490.35	1066.12
490.568	1072.12
490.786	1074.12
491.003	1098.12
491.221	1133.12
491.439	1116.12
491.657	1115.12
491.874	1158.12
492.092	1341.12
492.31	1517.12
492.527	1526.12
492.745	1413.12
492.963	1241.12
493.18	1225.12
493.398	1227.12
493.615	1247.12
493.833	1172.12
494.05	1152.12
494.268	1183.12
494.485	1219.12
494.703	1166.12
494.92	1169.12
495.138	1144.12
495.355	1148.12
495.573	1163.12
495.79	1249.12
496.008	1471.12
496.225	1362.12
496.442	1275.12
496.66	1249.12
496.877	1364.12
497.094	1308.12
497.312	1265.12
497.529	1236.12
497.746	1255.12
497.963	1258.12
498.181	1388.12
498.398	1452.12
498.615	1556.12
498.832	1586.12
499.049	1631.12
499.267	1474.12
499.484	1537.12
499.701	1581.12
499.918	1705.12
500.135	1857.12
500.352	1847.12
500.569	1843.12
500.786	1926.12
501.003	1979.12
501.22	1756.12
501.437	1659.12
501.654	1590.12
501.871	1540.12
502.088	1563.12
502.305	1422.12
502.522	1457.12
502.739	1441.12
502.956	1322.12
503.172	1324.12
503.389	1229.12
503.606	1248.12
503.823	1248.12
504.04	1283.12
504.256	1278.12
504.473	1270.12
504.69	1281.12
504.907	1300.12
505.123	1315.12
505.34	1328.12
505.557	1350.12
505.773	1277.12
505.99	1239.12
506.207	1248.12
506.423	1204.12
506.64	1114.12
506.856	1186.12
507.073	1306.12
507.289	1248.12
507.506	1252.12
507.722	1322.12
507.939	1345.12
508.155	1345.12
508.372	1253.12
508.588	1189.12
508.805	1152.12
509.021	1174.12
509.238	1131.12
509.454	1139.12
509.67	1118.12
509.887	1170.12
510.103	1246.12
510.319	1237.12
510.536	1121.12
510.752	1056.12
510.968	992.12
511.184	982.12
511.401	997.12
511.617	1027.12
511.833	1035.12
512.049	1029.12
512.265	1017.12
512.481	1080.12
512.698	1181.12
512.914	1286.12
513.13	1180.12
513.346	1092.12
513.562	1116.12
513.778	1096.12
513.994	1076.12
514.21	1099.12
514.426	1116.12
514.642	1069.12
514.858	1092.12
515.074	1110.12
515.29	1209.12
515.506	1357.12
515.721	1255.12
515.937	1190.12
516.153	1129.12
516.369	1114.12
516.585	1138.12
516.801	1283.12
517.016	1436.12
517.232	1403.12
517.448	1424.12
517.664	1286.12
517.879	1241.12
518.095	1223.12
518.311	1242.12
518.527	1286.12
518.742	1333.12
518.958	1408.12
519.173	1332.12
519.389	1249.12
519.605	1268.12
519.82	1396.12
520.036	1578.12
520.251	1548.12
520.467	1430.12
520.682	2054.12
520.898	2389.12
521.113	2266.12
521.329	1556.12
521.544	1447.12
521.76	1385.12
521.975	1257.12
522.19	1185.12
522.406	1234.12
522.621	1366.12
522.836	1376.12
523.052	1372.12
523.267	1170.12
523.482	1188.12
523.698	1253.12
523.913	1250.12
524.128	1154.12
524.343	1089.12
524.559	1099.12
524.774	1078.12
524.989	1120.12
525.204	1147.12
525.419	1251.12
525.634	1136.12
525.849	1161.12
526.064	1162.12
526.28	1194.12
526.495	1350.12
526.71	1365.12
526.925	1211.12
527.14	1214.12
527.355	1196.12
527.57	1068.12
527.785	1148.12
527.999	1056.12
528.214	1052.12
528.429	1001.12
528.644	1033.12
528.859	978.12
529.074	948.12
529.289	948.12
529.503	936.12
529.718	989.12
529.933	1086.12
530.148	1122.12
530.363	995.12
530.577	967.12
530.792	980.12
531.007	916.12
531.221	952.12
531.436	965.12
531.651	925.12
531.865	985.12
532.08	964.12
532.295	974.12
532.509	962.12
532.724	1059.12
532.938	1185.12
533.153	1320.12
533.367	1120.12
533.582	1097.12
533.796	999.12
534.011	980.12
534.225	1028.12
534.44	1006.12
534.654	1017.12
534.868	1150.12
535.083	1036.12
535.297	972.12
535.511	977.12
535.726	1120.12
535.94	1038.12
536.154	1005.12
536.369	935.12
536.583	966.12
536.797	928.12
537.011	957.12
537.225	995.12
537.44	1044.12
537.654	965.12
537.868	938.12
538.082	976.12
538.296	950.12
538.51	990.12
538.724	1019.12
538.938	1005.12
539.153	912.12
539.367	937.12
539.581	910.12
539.795	958.12
540.009	1020.12
540.222	978.12
540.436	969.12
540.65	1044.12
540.864	1050.12
541.078	1098.12
541.292	1208.12
541.506	1021.12
541.72	995.12
541.934	1010.12
542.147	963.12
542.361	960.12
542.575	1007.12
542.789	965.12
543.002	896.12
543.216	982.12
543.43	893.12
543.644	878.12
543.857	858.12
544.071	907.12
544.285	922.12
544.498	859.12
544.712	870.12
544.925	903.12
545.139	873.12
545.352	829.12
545.566	871.12
545.779	963.12
545.993	894.12
546.206	859.12
546.42	822.12
546.633	821.12
546.847	816.12
547.06	816.12
547.274	825.12
547.487	864.12
547.7	906.12
547.914	963.12
548.127	1043.12
548.34	1019.12
548.554	904.12
548.767	939.12
548.98	1012.12
549.193	952.12
549.407	977.12
549.62	1138.12
549.833	1057.12
550.046	1074.12
550.259	1106.12
550.473	998.12
550.686	946.12
550.899	929.12
551.112	934.12
551.325	1004.12
551.538	1043.12
551.751	908.12
551.964	871.12
552.177	863.12
552.39	843.12
552.603	873.12
552.816	881.12
553.029	866.12
553.242	842.12
553.455	917.12
553.667	986.12
553.88	946.12
554.093	865.12
554.306	829.12
554.519	769.12
554.732	792.12
554.944	756.12
555.157	774.12
555.37	772.12
555.583	761.12
555.795	770.12
556.008	778.12
556.221	774.12
556.433	738.12
556.646	724.12
556.859	744.12
557.071	768.12
557.284	777.12
557.496	770.12
557.709	768.12
557.921	763.12
558.134	739.12
558.346	728.12
558.559	690.12
558.771	749.12
558.984	787.12
559.196	737.12
559.409	698.12
559.621	679.12
559.833	699.12
560.046	686.12
560.258	715.12
560.47	722.12
560.683	684.12
560.895	669.12
561.107	660.12
561.32	648.12
561.532	680.12
561.744	709.12
561.956	733.12
562.168	679.12
562.381	671.12
562.593	703.12
562.805	708.12
563.017	686.12
563.229	658.12
563.441	661.12
563.653	663.12
563.865	670.12
564.077	684.12
564.289	671.12
564.501	702.12
564.713	733.12
564.925	693.12
565.137	712.12
565.349	682.12
565.561	695.12
565.773	718.12
565.985	706.12
566.197	730.12
566.408	818.12
566.62	833.12
566.832	816.12
567.044	853.12
567.255	874.12
567.467	960.12
567.679	890.12
567.891	866.12
568.102	892.12
568.314	887.12
568.526	827.12
568.737	814.12
568.949	804.12
569.161	749.12
569.372	688.12
569.584	684.12
569.795	675.12
570.007	669.12
570.218	713.12
570.43	709.12
570.641	688.12
570.853	664.12
571.064	643.12
571.276	641.12
571.487	675.12
571.698	653.12
571.91	655.12
572.121	649.12
572.333	601.12
572.544	625.12
572.755	624.12
572.966	602.12
573.178	611.12
573.389	644.12
573.6	632.12
573.811	628.12
574.023	588.12
574.234	556.12
574.445	568.12
574.656	553.12
574.867	564.12
575.078	578.12
575.289	578.12
575.501	606.12
575.712	542.12
575.923	545.12
576.134	554.12
576.345	545.12
576.556	549.12
576.767	523.12
576.978	512.12
577.188	519.12
577.399	518.12
577.61	534.12
577.821	540.12
578.032	539.12
578.243	562.12
578.454	543.12
578.665	538.12
578.875	565.12
579.086	557.12
579.297	533.12
579.508	549.12
579.718	540.12
579.929	538.12
580.14	507.12
580.35	517.12
580.561	469.12
580.772	500.12
580.982	466.12
581.193	487.12
581.403	479.12
581.614	467.12
581.825	456.12
582.035	469.12
582.246	476.12
582.456	460.12
582.667	477.12
582.877	461.12
583.087	455.12
583.298	453.12
583.508	457.12
583.719	459.12
583.929	438.12
584.139	459.12
584.35	465.12
584.56	486.12
584.77	458.12
584.981	456.12
585.191	451.12
585.401	456.12
585.611	487.12
585.821	483.12
586.032	484.12
586.242	469.12
586.452	466.12
586.662	460.12
586.872	481.12
587.082	466.12
587.292	453.12
587.502	454.12
587.713	448.12
587.923	472.12
588.133	503.12
588.343	490.12
588.553	466.12
588.762	435.12
588.972	435.12
589.182	465.12
589.392	453.12
589.602	457.12
589.812	469.12
590.022	513.12
590.232	496.12
590.441	470.12
590.651	454.12
590.861	469.12
591.071	450.12
591.281	430.12
591.49	448.12
591.7	446.12
591.91	466.12
592.119	453.12
592.329	436.12
592.539	445.12
592.748	463.12
592.958	450.12
593.167	472.12
593.377	453.12
593.587	483.12
593.796	453.12
594.006	455.12
594.215	468.12
594.424	499.12
594.634	497.12
594.843	486.12
595.053	432.12
595.262	442.12
595.472	443.12
595.681	449.12
595.89	429.12
596.1	420.12
596.309	432.12
596.518	437.12
596.727	416.12
596.937	410.12
597.146	428.12
597.355	442.12
597.564	447.12
597.774	422.12
597.983	405.12
598.192	408.12
598.401	378.12
598.61	382.12
598.819	375.12
599.028	381.12
599.237	368.12
599.446	386.12
599.655	382.12
599.864	386.12
600.073	371.12
600.282	375.12
600.491	382.12
600.7	379.12
600.909	396.12
601.118	386.12
601.327	366.12
601.536	367.12
601.745	390.12
601.953	392.12
602.162	381.12
602.371	373.12
602.58	380.12
602.789	368.12
602.997	363.12
603.206	361.12
603.415	361.12
603.623	335.12
603.832	353.12
604.041	355.12
604.249	379.12
604.458	376.12
604.666	358.12
604.875	344.12
605.084	334.12
605.292	353.12
605.501	368.12
605.709	370.12
605.918	358.12
606.126	366.12
606.334	348.12
606.543	375.12
606.751	346.12
606.96	354.12
607.168	358.12
607.376	354.12
607.585	346.12
607.793	327.12
608.001	343.12
608.21	332.12
608.418	371.12
608.626	363.12
608.834	320.12
609.043	346.12
609.251	355.12
609.459	347.12
609.667	338.12
609.875	336.12
610.083	357.12
610.291	371.12
610.499	355.12
610.707	316.12
610.916	334.12
611.124	334.12
611.332	322.12
611.54	331.12
611.748	357.12
611.955	347.12
612.163	340.12
612.371	320.12
612.579	334.12
612.787	331.12
612.995	343.12
613.203	352.12
613.411	328.12
613.618	326.12
613.826	338.12
614.034	348.12
614.242	339.12
614.449	344.12
614.657	334.12
614.865	315.12
615.072	312.12
615.28	318.12
615.488	306.12
615.695	337.12
615.903	336.12
616.111	317.12
616.318	319.12
616.526	340.12
616.733	324.12
616.941	340.12
617.148	307.12
617.356	325.12
617.563	303.12
617.771	312.12
617.978	309.12
618.185	310.12
618.393	313.12
618.6	313.12
618.807	317.12
619.015	318.12
619.222	316.12
619.429	314.12
619.637	312.12
619.844	312.12
620.051	300.12
620.258	282.12
620.466	295.12
620.673	285.12
620.88	274.12
621.087	289.12
621.294	299.12
621.501	300.12
621.708	294.12
621.915	298.12
622.122	307.12
622.329	295.12
622.536	290.12
622.743	282.12
622.95	296.12
623.157	282.12
623.364	304.12
623.571	306.12
623.778	288.12
623.985	308.12
624.192	314.12
624.399	295.12
624.606	285.12
624.812	286.12
625.019	298.12
625.226	305.12
625.433	308.12
625.639	289.12
625.846	285.12
626.053	276.12
626.259	279.12
626.466	278.12
626.673	297.12
626.879	278.12
627.086	268.12
627.293	282.12
627.499	273.12
627.706	274.12
627.912	280.12
628.119	281.12
628.325	265.12
628.532	247.12
628.738	259.12
628.945	264.12
629.151	265.12
629.357	247.12
629.564	243.12
629.77	254.12
629.976	257.12
630.183	260.12
630.389	262.12
630.595	280.12
630.802	263.12
631.008	249.12
631.214	268.12
631.42	251.12
631.627	254.12
631.833	242.12
632.039	258.12
632.245	258.12
632.451	245.12
632.657	230.12
632.863	257.12
633.069	258.12
633.275	245.12
633.481	236.12
633.688	237.12
633.893	240.12
634.099	230.12
634.305	259.12
634.511	241.12
634.717	237.12
634.923	246.12
635.129	225.12
635.335	242.12
635.541	242.12
635.747	242.12
635.952	246.12
636.158	258.12
636.364	249.12
636.57	232.12
636.775	235.12
636.981	231.12
637.187	242.12
637.392	225.12
637.598	244.12
637.804	220.12
638.009	233.12
638.215	230.12
638.421	222.12
638.626	232.12
638.832	228.12
639.037	210.12
639.243	244.12
639.448	228.12
639.654	251.12
639.859	234.12
640.065	233.12
640.27	235.12
640.475	214.12
640.681	233.12
640.886	198.12
641.091	219.12
641.297	232.12
641.502	212.12
641.707	217.12
641.913	220.12
642.118	205.12
642.323	218.12
642.528	232.12
642.733	212.12
642.939	225.12
643.144	217.12
643.349	235.12
643.554	216.12
643.759	210.12
643.964	217.12
644.169	203.12
644.374	203.12
644.579	209.12
644.784	202.12
644.989	223.12
645.194	211.12
645.399	210.12
645.604	209.12
645.809	226.12
646.014	205.12
646.219	198.12
646.423	193.12
646.628	197.12
646.833	216.12
647.038	202.12
647.243	209.12
647.447	213.12
647.652	215.12
647.857	201.12
648.062	226.12
648.266	211.12
648.471	221.12
648.676	229.12
648.88	201.12
649.085	206.12
649.289	219.12
649.494	213.12
649.698	202.12
649.903	209.12
650.107	202.12
650.312	195.12
650.516	197.12
650.721	200.12
650.925	194.12
651.13	195.12
651.334	190.12
651.539	192.12
651.743	172.12
651.947	186.12
652.152	199.12
652.356	189.12
652.56	169.12
652.764	186.12
652.969	184.12
653.173	174.12
653.377	185.12
653.581	168.12
653.785	162.12
653.99	159.12
654.194	156.12
654.398	180.12
654.602	167.12
654.806	153.12
655.01	167.12
655.214	162.12
655.418	164.12
655.622	160.12
655.826	157.12
656.03	170.12
656.234	164.12
656.438	157.12
656.642	173.12
656.846	152.12
657.049	147.12
657.253	152.12
657.457	154.12
657.661	141.12
657.865	140.12
658.068	138.12
658.272	127.12
658.476	124.12
658.68	116.12
658.883	106.12
659.087	114.12
659.291	116.12
659.494	121.12
659.698	114.12
659.901	117.12
660.105	120.12
660.309	114.12
660.512	104.12
660.716	104.12
660.919	109.12
661.123	105.12
661.326	118.12
661.53	104.12
661.733	94.12
661.936	84.12
662.14	82.12
662.343	106.12
662.546	87.12
662.75	87.12
662.953	87.12
663.156	101.12
663.36	103.12
663.563	90.12
663.766	85.12
663.969	71.12
664.173	94.12
664.376	93.12
664.579	88.12
664.782	84.12
664.985	101.12
665.188	92.12
665.391	99.12
665.594	97.12
665.797	82.12
666	88.12
666.203	91.12
666.406	71.12
666.609	85.12
666.812	107.12
667.015	103.12
667.218	97.12
667.421	93.12
667.624	78.12
667.827	87.12
668.03	90.12
668.232	89.12
668.435	92.12
668.638	84.12
668.841	78.12
669.043	93.12
669.246	95.12
669.449	94.12
669.651	86.12
669.854	81.12
670.057	87.12
670.259	93.12
670.462	74.12
670.665	75.12
670.867	81.12
671.07	95.12
671.272	88.12
671.475	75.12
671.677	88.12
671.88	85.12
672.082	76.12
672.284	82.12
672.487	81.12
672.689	97.12
672.892	81.12
