Data from NickelSpatula.Lamp.E10.P2_HRD10591_11-57-09-533.txt Node
Date: Tue Jul 23 11:57:09 EDT 2019
User: cochatt
Spectrometer: HR+D1059
Trigger mode: 1
Integration Time (sec): 1.000000E-1
Scans to average: 1
Electric dark correction enabled: true
Nonlinearity correction enabled: false
Boxcar width: 0
XAxis mode: Wavelengths
Number of Pixels in Spectrum: 2048
>>>>>Begin Spectral Data<<<<<
223.165	-8.69
223.4	-8.69
223.635	-8.69
223.869	-21.69
224.104	-26.69
224.338	-10.69
224.573	-12.69
224.808	-14.69
225.042	-2.69
225.277	-2.69
225.511	-12.69
225.746	3.31
225.98	16.31
226.215	21.31
226.449	2.31
226.683	20.31
226.918	25.31
227.152	24.31
227.387	32.31
227.621	29.31
227.856	22.31
228.09	31.31
228.324	58.31
228.559	56.31
228.793	73.31
229.027	126.31
229.262	135.31
229.496	151.31
229.73	162.31
229.964	184.31
230.199	198.31
230.433	219.31
230.667	197.31
230.901	200.31
231.136	205.31
231.37	195.31
231.604	222.31
231.838	236.31
232.072	249.31
232.306	241.31
232.541	240.31
232.775	233.31
233.009	260.31
233.243	299.31
233.477	313.31
233.711	338.31
233.945	323.31
234.179	305.31
234.413	328.31
234.647	381.31
234.881	459.31
235.115	447.31
235.349	401.31
235.583	356.31
235.817	330.31
236.051	373.31
236.285	397.31
236.519	448.31
236.753	413.31
236.987	425.31
237.221	404.31
237.455	389.31
237.689	416.31
237.922	473.31
238.156	466.31
238.39	561.31
238.624	658.31
238.858	590.31
239.091	481.31
239.325	485.31
239.559	482.31
239.793	542.31
240.027	629.31
240.26	605.31
240.494	550.31
240.728	603.31
240.961	689.31
241.195	617.31
241.429	620.31
241.662	600.31
241.896	493.31
242.13	463.31
242.363	454.31
242.597	473.31
242.83	525.31
243.064	526.31
243.298	598.31
243.531	622.31
243.765	651.31
243.998	628.31
244.232	585.31
244.465	573.31
244.699	564.31
244.932	629.31
245.166	609.31
245.399	515.31
245.633	537.31
245.866	563.31
246.099	602.31
246.333	697.31
246.566	749.31
246.8	734.31
247.033	722.31
247.266	683.31
247.5	682.31
247.733	646.31
247.966	629.31
248.2	655.31
248.433	753.31
248.666	815.31
248.899	820.31
249.133	827.31
249.366	952.31
249.599	1004.31
249.832	941.31
250.066	819.31
250.299	847.31
250.532	803.31
250.765	784.31
250.998	714.31
251.231	705.31
251.465	787.31
251.698	804.31
251.931	782.31
252.164	817.31
252.397	924.31
252.63	1065.31
252.863	1122.31
253.096	1152.31
253.329	1116.31
253.562	1102.31
253.795	1208.31
254.028	1321.31
254.261	1365.31
254.494	1246.31
254.727	1113.31
254.96	1090.31
255.193	1175.31
255.426	1110.31
255.659	850.31
255.892	784.31
256.124	861.31
256.357	1023.31
256.59	1176.31
256.823	1109.31
257.056	946.31
257.289	889.31
257.521	941.31
257.754	1098.31
257.987	1265.31
258.22	1086.31
258.452	986.31
258.685	1131.31
258.918	1253.31
259.151	1223.31
259.383	1291.31
259.616	1479.31
259.849	1558.31
260.081	1667.31
260.314	1863.31
260.547	1452.31
260.779	1465.31
261.012	1696.31
261.244	1612.31
261.477	1597.31
261.71	1492.31
261.942	1266.31
262.175	1293.31
262.407	1210.31
262.64	1273.31
262.872	1444.31
263.105	1643.31
263.337	1695.31
263.57	1494.31
263.802	985.31
264.035	887.31
264.267	861.31
264.499	781.31
264.732	702.31
264.964	705.31
265.197	717.31
265.429	762.31
265.661	809.31
265.894	848.31
266.126	890.31
266.358	991.31
266.591	1225.31
266.823	1459.31
267.055	1392.31
267.287	1235.31
267.52	1221.31
267.752	1297.31
267.984	1401.31
268.216	1361.31
268.448	1077.31
268.681	1089.31
268.913	1149.31
269.145	1251.31
269.377	1282.31
269.609	1308.31
269.841	1197.31
270.073	1292.31
270.306	1295.31
270.538	1358.31
270.77	1408.31
271.002	1365.31
271.234	1458.31
271.466	1508.31
271.698	1429.31
271.93	1405.31
272.162	1435.31
272.394	1390.31
272.626	1362.31
272.858	1417.31
273.09	1429.31
273.322	1279.31
273.553	1238.31
273.785	1493.31
274.017	1905.31
274.249	2397.31
274.481	2440.31
274.713	2673.31
274.945	3107.31
275.176	3233.31
275.408	2766.31
275.64	2559.31
275.872	2563.31
276.104	2204.31
276.335	1865.31
276.567	1874.31
276.799	1923.31
277.031	2002.31
277.262	1568.31
277.494	1214.31
277.726	1185.31
277.957	1296.31
278.189	1454.31
278.421	1438.31
278.652	1393.31
278.884	1305.31
279.115	1238.31
279.347	1150.31
279.579	1180.31
279.81	1211.31
280.042	1187.31
280.273	1203.31
280.505	1136.31
280.736	992.31
280.968	1004.31
281.199	1096.31
281.431	1219.31
281.662	1186.31
281.894	1140.31
282.125	1263.31
282.356	1310.31
282.588	1367.31
282.819	1189.31
283.051	1352.31
283.282	1635.31
283.513	1881.31
283.745	2125.31
283.976	2130.31
284.207	1991.31
284.439	2061.31
284.67	2003.31
284.901	1745.31
285.132	1901.31
285.364	1965.31
285.595	1816.31
285.826	1923.31
286.057	2006.31
286.288	1923.31
286.52	1942.31
286.751	2016.31
286.982	2062.31
287.213	1751.31
287.444	1716.31
287.675	1791.31
287.906	1789.31
288.138	1511.31
288.369	1345.31
288.6	1281.31
288.831	1345.31
289.062	1519.31
289.293	1635.31
289.524	1594.31
289.755	1589.31
289.986	1620.31
290.217	1403.31
290.448	1085.31
290.679	978.31
290.91	895.31
291.141	909.31
291.371	943.31
291.602	959.31
291.833	990.31
292.064	1049.31
292.295	1181.31
292.526	1370.31
292.757	1403.31
292.987	1536.31
293.218	1593.31
293.449	1557.31
293.68	1647.31
293.91	1571.31
294.141	1623.31
294.372	1506.31
294.603	1439.31
294.833	1541.31
295.064	1800.31
295.295	1730.31
295.525	1269.31
295.756	1128.31
295.987	967.31
296.217	985.31
296.448	1024.31
296.679	1061.31
296.909	1173.31
297.14	1274.31
297.37	1421.31
297.601	1323.31
297.831	1125.31
298.062	1213.31
298.292	1386.31
298.523	1477.31
298.753	1727.31
298.984	1541.31
299.214	1189.31
299.445	1075.31
299.675	1003.31
299.905	1026.31
300.136	1003.31
300.366	1139.31
300.597	1121.31
300.827	994.31
301.057	939.31
301.288	976.31
301.518	1053.31
301.748	1202.31
301.979	1297.31
302.209	1381.31
302.439	1422.31
302.669	1230.31
302.9	1175.31
303.13	1123.31
303.36	1073.31
303.59	1029.31
303.82	1079.31
304.051	1182.31
304.281	1316.31
304.511	1253.31
304.741	1148.31
304.971	1172.31
305.201	1228.31
305.431	1170.31
305.661	1038.31
305.891	1002.31
306.121	1042.31
306.352	932.31
306.582	852.31
306.812	859.31
307.042	853.31
307.272	772.31
307.502	779.31
307.731	849.31
307.961	894.31
308.191	853.31
308.421	817.31
308.651	798.31
308.881	756.31
309.111	769.31
309.341	813.31
309.571	883.31
309.8	881.31
310.03	904.31
310.26	963.31
310.49	920.31
310.72	869.31
310.949	841.31
311.179	881.31
311.409	897.31
311.639	1082.31
311.868	1356.31
312.098	1758.31
312.328	1923.31
312.557	1783.31
312.787	1833.31
313.017	1617.31
313.246	1784.31
313.476	1941.31
313.706	1573.31
313.935	1243.31
314.165	1033.31
314.394	921.31
314.624	959.31
314.853	988.31
315.083	1028.31
315.312	1011.31
315.542	981.31
315.771	950.31
316.001	844.31
316.23	863.31
316.46	838.31
316.689	837.31
316.919	855.31
317.148	852.31
317.377	875.31
317.607	838.31
317.836	941.31
318.065	1059.31
318.295	1217.31
318.524	1135.31
318.753	961.31
318.983	916.31
319.212	895.31
319.441	1008.31
319.67	1081.31
319.9	1152.31
320.129	1077.31
320.358	950.31
320.587	917.31
320.816	1038.31
321.046	1179.31
321.275	1278.31
321.504	1291.31
321.733	1268.31
321.962	1173.31
322.191	1113.31
322.42	1067.31
322.649	1133.31
322.878	1155.31
323.108	1173.31
323.337	1085.31
323.566	1069.31
323.795	1049.31
324.024	1021.31
324.253	965.31
324.482	957.31
324.71	1062.31
324.939	1183.31
325.168	1126.31
325.397	911.31
325.626	875.31
325.855	880.31
326.084	913.31
326.313	837.31
326.542	837.31
326.77	873.31
326.999	893.31
327.228	924.31
327.457	1013.31
327.686	998.31
327.914	880.31
328.143	826.31
328.372	835.31
328.6	825.31
328.829	860.31
329.058	855.31
329.287	868.31
329.515	879.31
329.744	847.31
329.972	813.31
330.201	815.31
330.43	829.31
330.658	923.31
330.887	1075.31
331.115	1003.31
331.344	976.31
331.572	961.31
331.801	868.31
332.03	828.31
332.258	861.31
332.486	937.31
332.715	954.31
332.943	894.31
333.172	874.31
333.4	920.31
333.629	967.31
333.857	1084.31
334.085	1079.31
334.314	1092.31
334.542	1031.31
334.771	971.31
334.999	909.31
335.227	921.31
335.455	943.31
335.684	1041.31
335.912	1204.31
336.14	1274.31
336.369	1213.31
336.597	1189.31
336.825	1345.31
337.053	1466.31
337.281	1207.31
337.51	944.31
337.738	956.31
337.966	1037.31
338.194	1134.31
338.422	1079.31
338.65	924.31
338.878	881.31
339.106	886.31
339.334	974.31
339.562	1051.31
339.79	988.31
340.018	934.31
340.246	1014.31
340.474	1173.31
340.702	1247.31
340.93	1300.31
341.158	1276.31
341.386	1123.31
341.614	1069.31
341.842	1062.31
342.07	1104.31
342.298	1303.31
342.526	1337.31
342.754	1195.31
342.981	1054.31
343.209	1045.31
343.437	1112.31
343.665	1169.31
343.893	1144.31
344.12	1341.31
344.348	1509.31
344.576	1349.31
344.804	1172.31
345.031	1002.31
345.259	971.31
345.487	1001.31
345.714	1030.31
345.942	1091.31
346.17	1170.31
346.397	1101.31
346.625	963.31
346.853	934.31
347.08	911.31
347.308	965.31
347.535	1100.31
347.763	1130.31
347.99	978.31
348.218	902.31
348.445	962.31
348.673	959.31
348.9	939.31
349.128	1042.31
349.355	1070.31
349.583	1005.31
349.81	976.31
350.037	902.31
350.265	809.31
350.492	771.31
350.72	775.31
350.947	803.31
351.174	870.31
351.402	923.31
351.629	958.31
351.856	923.31
352.083	870.31
352.311	939.31
352.538	1048.31
352.765	1091.31
352.992	983.31
353.22	951.31
353.447	936.31
353.674	934.31
353.901	945.31
354.128	952.31
354.355	1015.31
354.583	951.31
354.81	969.31
355.037	1012.31
355.264	982.31
355.491	1051.31
355.718	1103.31
355.945	1085.31
356.172	1047.31
356.399	1062.31
356.626	1290.31
356.853	1562.31
357.08	1643.31
357.307	1683.31
357.534	1327.31
357.761	1328.31
357.988	1673.31
358.215	1944.31
358.441	1854.31
358.668	1545.31
358.895	1405.31
359.122	1174.31
359.349	1197.31
359.576	1282.31
359.802	1063.31
360.029	907.31
360.256	974.31
360.483	1246.31
360.709	1531.31
360.936	1561.31
361.163	1379.31
361.39	1081.31
361.616	1053.31
361.843	1167.31
362.07	1437.31
362.296	1298.31
362.523	1068.31
362.749	897.31
362.976	966.31
363.203	1186.31
363.429	1288.31
363.656	1061.31
363.882	975.31
364.109	980.31
364.335	971.31
364.562	937.31
364.788	1085.31
365.015	1287.31
365.241	1113.31
365.468	925.31
365.694	844.31
365.92	805.31
366.147	764.31
366.373	763.31
366.599	781.31
366.826	796.31
367.052	817.31
367.278	820.31
367.505	823.31
367.731	898.31
367.957	978.31
368.184	1008.31
368.41	971.31
368.636	994.31
368.862	1032.31
369.089	979.31
369.315	867.31
369.541	881.31
369.767	868.31
369.993	801.31
370.219	823.31
370.445	862.31
370.672	967.31
370.898	1061.31
371.124	1058.31
371.35	912.31
371.576	853.31
371.802	943.31
372.028	1074.31
372.254	1289.31
372.48	1111.31
372.706	998.31
372.932	1055.31
373.158	1129.31
373.384	1322.31
373.61	1762.31
373.835	1752.31
374.061	1304.31
374.287	1105.31
374.513	1307.31
374.739	1556.31
374.965	1619.31
375.191	1583.31
375.416	1110.31
375.642	989.31
375.868	1147.31
376.094	1303.31
376.319	1135.31
376.545	1214.31
376.771	1294.31
376.997	1118.31
377.222	852.31
377.448	747.31
377.674	734.31
377.899	747.31
378.125	729.31
378.35	751.31
378.576	760.31
378.802	821.31
379.027	876.31
379.253	862.31
379.478	881.31
379.704	986.31
379.929	1045.31
380.155	1037.31
380.38	919.31
380.606	959.31
380.831	1080.31
381.057	996.31
381.282	957.31
381.507	1094.31
381.733	1375.31
381.958	1477.31
382.184	1547.31
382.409	1666.31
382.634	1577.31
382.86	1665.31
383.085	1315.31
383.31	1093.31
383.535	1151.31
383.761	1190.31
383.986	1119.31
384.211	1359.31
384.436	1290.31
384.662	1025.31
384.887	967.31
385.112	995.31
385.337	1004.31
385.562	958.31
385.787	1035.31
386.013	1165.31
386.238	1184.31
386.463	1015.31
386.688	951.31
386.913	930.31
387.138	889.31
387.363	945.31
387.588	957.31
387.813	965.31
388.038	1076.31
388.263	931.31
388.488	928.31
388.713	1098.31
388.938	1164.31
389.163	1008.31
389.387	921.31
389.612	945.31
389.837	941.31
390.062	918.31
390.287	969.31
390.512	983.31
390.736	934.31
390.961	876.31
391.186	818.31
391.411	804.31
391.636	852.31
391.86	887.31
392.085	990.31
392.31	953.31
392.534	947.31
392.759	909.31
392.984	942.31
393.208	928.31
393.433	868.31
393.658	825.31
393.882	781.31
394.107	752.31
394.331	777.31
394.556	815.31
394.78	829.31
395.005	819.31
395.229	831.31
395.454	861.31
395.678	874.31
395.903	934.31
396.127	846.31
396.352	885.31
396.576	955.31
396.801	955.31
397.025	1080.31
397.249	1097.31
397.474	910.31
397.698	919.31
397.922	928.31
398.147	901.31
398.371	923.31
398.595	956.31
398.82	916.31
399.044	942.31
399.268	993.31
399.492	1047.31
399.717	1073.31
399.941	1096.31
400.165	1052.31
400.389	1045.31
400.613	1046.31
400.837	1019.31
401.062	924.31
401.286	879.31
401.51	892.31
401.734	884.31
401.958	917.31
402.182	907.31
402.406	893.31
402.63	905.31
402.854	938.31
403.078	1055.31
403.302	1283.31
403.526	1364.31
403.75	1179.31
403.974	1055.31
404.198	1083.31
404.422	1215.31
404.645	1395.31
404.869	1518.31
405.093	1179.31
405.317	1001.31
405.541	1012.31
405.765	993.31
405.988	1001.31
406.212	1075.31
406.436	1267.31
406.66	1386.31
406.883	1112.31
407.107	1139.31
407.331	1338.31
407.555	1247.31
407.778	1083.31
408.002	1052.31
408.226	1041.31
408.449	1045.31
408.673	1038.31
408.896	980.31
409.12	913.31
409.344	908.31
409.567	887.31
409.791	915.31
410.014	906.31
410.238	857.31
410.461	902.31
410.685	894.31
410.908	913.31
411.132	918.31
411.355	904.31
411.578	958.31
411.802	946.31
412.025	985.31
412.249	974.31
412.472	961.31
412.695	944.31
412.919	937.31
413.142	970.31
413.365	1041.31
413.589	1045.31
413.812	959.31
414.035	918.31
414.258	906.31
414.482	1036.31
414.705	1026.31
414.928	910.31
415.151	864.31
415.374	889.31
415.597	919.31
415.821	881.31
416.044	883.31
416.267	863.31
416.49	856.31
416.713	844.31
416.936	834.31
417.159	863.31
417.382	868.31
417.605	913.31
417.828	918.31
418.051	906.31
418.274	936.31
418.497	915.31
418.72	901.31
418.943	925.31
419.166	980.31
419.389	1021.31
419.611	1005.31
419.834	1022.31
420.057	1080.31
420.28	1079.31
420.503	1001.31
420.726	886.31
420.948	854.31
421.171	877.31
421.394	897.31
421.617	876.31
421.839	881.31
422.062	941.31
422.285	904.31
422.507	927.31
422.73	940.31
422.953	947.31
423.175	919.31
423.398	958.31
423.621	988.31
423.843	1028.31
424.066	960.31
424.288	918.31
424.511	892.31
424.733	936.31
424.956	941.31
425.178	1057.31
425.401	1173.31
425.623	1365.31
425.846	1108.31
426.068	1011.31
426.291	1077.31
426.513	1036.31
426.735	922.31
426.958	993.31
427.18	1114.31
427.402	1494.31
427.625	1437.31
427.847	1137.31
428.069	894.31
428.292	909.31
428.514	901.31
428.736	859.31
428.958	933.31
429.181	1109.31
429.403	941.31
429.625	892.31
429.847	841.31
430.069	889.31
430.292	919.31
430.514	879.31
430.736	938.31
430.958	1177.31
431.18	1049.31
431.402	874.31
431.624	800.31
431.846	829.31
432.068	774.31
432.29	835.31
432.512	893.31
432.734	1175.31
432.956	1111.31
433.178	881.31
433.4	857.31
433.622	838.31
433.844	861.31
434.066	902.31
434.287	859.31
434.509	861.31
434.731	905.31
434.953	858.31
435.175	916.31
435.397	1019.31
435.618	875.31
435.84	826.31
436.062	828.31
436.284	838.31
436.505	787.31
436.727	788.31
436.949	796.31
437.17	826.31
437.392	843.31
437.614	844.31
437.835	825.31
438.057	842.31
438.278	945.31
438.5	1327.31
438.721	1336.31
438.943	921.31
439.165	804.31
439.386	774.31
439.608	795.31
439.829	791.31
440.05	798.31
440.272	858.31
440.493	967.31
440.715	1212.31
440.936	960.31
441.158	865.31
441.379	836.31
441.6	960.31
441.822	981.31
442.043	896.31
442.264	868.31
442.486	866.31
442.707	853.31
442.928	886.31
443.149	870.31
443.371	905.31
443.592	913.31
443.813	914.31
444.034	901.31
444.255	915.31
444.476	946.31
444.698	941.31
444.919	925.31
445.14	1030.31
445.361	1005.31
445.582	961.31
445.803	923.31
446.024	958.31
446.245	941.31
446.466	899.31
446.687	905.31
446.908	865.31
447.129	854.31
447.35	821.31
447.571	810.31
447.792	802.31
448.013	794.31
448.234	773.31
448.455	793.31
448.675	784.31
448.896	784.31
449.117	802.31
449.338	799.31
449.559	822.31
449.779	874.31
450	871.31
450.221	829.31
450.442	794.31
450.662	776.31
450.883	810.31
451.104	799.31
451.324	783.31
451.545	795.31
451.766	805.31
451.986	765.31
452.207	780.31
452.428	766.31
452.648	764.31
452.869	783.31
453.089	843.31
453.31	829.31
453.53	773.31
453.751	753.31
453.971	727.31
454.192	778.31
454.412	785.31
454.633	750.31
454.853	743.31
455.073	703.31
455.294	739.31
455.514	750.31
455.734	758.31
455.955	794.31
456.175	819.31
456.395	751.31
456.616	710.31
456.836	690.31
457.056	669.31
457.276	693.31
457.497	694.31
457.717	727.31
457.937	715.31
458.157	731.31
458.377	756.31
458.598	743.31
458.818	753.31
459.038	825.31
459.258	813.31
459.478	861.31
459.698	925.31
459.918	900.31
460.138	890.31
460.358	912.31
460.578	857.31
460.798	900.31
461.018	889.31
461.238	831.31
461.458	860.31
461.678	883.31
461.898	903.31
462.118	944.31
462.338	921.31
462.558	950.31
462.777	959.31
462.997	989.31
463.217	983.31
463.437	1042.31
463.657	981.31
463.876	967.31
464.096	977.31
464.316	964.31
464.536	967.31
464.755	1010.31
464.975	1022.31
465.195	954.31
465.414	963.31
465.634	953.31
465.854	936.31
466.073	865.31
466.293	854.31
466.512	931.31
466.732	1017.31
466.951	1067.31
467.171	907.31
467.391	885.31
467.61	893.31
467.829	912.31
468.049	917.31
468.268	867.31
468.488	866.31
468.707	916.31
468.927	1045.31
469.146	1129.31
469.365	1008.31
469.585	954.31
469.804	1011.31
470.023	1090.31
470.243	967.31
470.462	928.31
470.681	895.31
470.901	914.31
471.12	979.31
471.339	963.31
471.558	884.31
471.777	941.31
471.997	1037.31
472.216	1100.31
472.435	1084.31
472.654	965.31
472.873	936.31
473.092	1003.31
473.311	1037.31
473.53	923.31
473.749	953.31
473.968	978.31
474.187	968.31
474.406	946.31
474.625	892.31
474.844	958.31
475.063	1035.31
475.282	1025.31
475.501	1056.31
475.72	1123.31
475.939	1083.31
476.158	1090.31
476.377	1245.31
476.596	1421.31
476.814	1466.31
477.033	1218.31
477.252	1080.31
477.471	1001.31
477.69	1020.31
477.908	1113.31
478.127	1131.31
478.346	1042.31
478.564	1119.31
478.783	1067.31
479.002	1097.31
479.22	1253.31
479.439	1413.31
479.658	1198.31
479.876	1121.31
480.095	1187.31
480.313	1214.31
480.532	1113.31
480.751	1087.31
480.969	1092.31
481.188	1276.31
481.406	1258.31
481.624	1218.31
481.843	1108.31
482.061	1082.31
482.28	1198.31
482.498	1414.31
482.717	1389.31
482.935	1217.31
483.153	1133.31
483.372	1059.31
483.59	1049.31
483.808	1031.31
484.027	1029.31
484.245	968.31
484.463	979.31
484.681	1012.31
484.9	1094.31
485.118	1205.31
485.336	1103.31
485.554	1020.31
485.772	1054.31
485.99	1105.31
486.209	1222.31
486.427	1208.31
486.645	1172.31
486.863	1250.31
487.081	1239.31
487.299	1347.31
487.517	1286.31
487.735	1211.31
487.953	1242.31
488.171	1241.31
488.389	1199.31
488.607	1101.31
488.825	1124.31
489.043	1234.31
489.261	1413.31
489.479	1497.31
489.696	1299.31
489.914	1183.31
490.132	1105.31
490.35	1110.31
490.568	1109.31
490.786	1113.31
491.003	1124.31
491.221	1162.31
491.439	1155.31
491.657	1154.31
491.874	1220.31
492.092	1459.31
492.31	1737.31
492.527	1709.31
492.745	1479.31
492.963	1328.31
493.18	1284.31
493.398	1318.31
493.615	1276.31
493.833	1249.31
494.05	1222.31
494.268	1240.31
494.485	1253.31
494.703	1204.31
494.92	1206.31
495.138	1178.31
495.355	1214.31
495.573	1222.31
495.79	1357.31
496.008	1728.31
496.225	1541.31
496.442	1362.31
496.66	1327.31
496.877	1403.31
497.094	1420.31
497.312	1293.31
497.529	1314.31
497.746	1341.31
497.963	1333.31
498.181	1466.31
498.398	1566.31
498.615	1603.31
498.832	1662.31
499.049	1701.31
499.267	1531.31
499.484	1553.31
499.701	1610.31
499.918	1728.31
500.135	1837.31
500.352	1937.31
500.569	1950.31
500.786	2015.31
501.003	1995.31
501.22	1791.31
501.437	1743.31
501.654	1690.31
501.871	1621.31
502.088	1635.31
502.305	1533.31
502.522	1503.31
502.739	1515.31
502.956	1340.31
503.172	1396.31
503.389	1303.31
503.606	1289.31
503.823	1299.31
504.04	1305.31
504.256	1300.31
504.473	1314.31
504.69	1344.31
504.907	1380.31
505.123	1390.31
505.34	1449.31
505.557	1421.31
505.773	1332.31
505.99	1312.31
506.207	1322.31
506.423	1243.31
506.64	1174.31
506.856	1267.31
507.073	1363.31
507.289	1332.31
507.506	1302.31
507.722	1394.31
507.939	1402.31
508.155	1416.31
508.372	1308.31
508.588	1247.31
508.805	1219.31
509.021	1197.31
509.238	1171.31
509.454	1169.31
509.67	1146.31
509.887	1183.31
510.103	1361.31
510.319	1311.31
510.536	1155.31
510.752	1069.31
510.968	1044.31
511.184	1037.31
511.401	1019.31
511.617	1036.31
511.833	999.31
512.049	1054.31
512.265	1072.31
512.481	1099.31
512.698	1218.31
512.914	1333.31
513.13	1271.31
513.346	1123.31
513.562	1181.31
513.778	1149.31
513.994	1146.31
514.21	1227.31
514.426	1195.31
514.642	1154.31
514.858	1118.31
515.074	1147.31
515.29	1264.31
515.506	1429.31
515.721	1339.31
515.937	1253.31
516.153	1171.31
516.369	1177.31
516.585	1190.31
516.801	1381.31
517.016	1536.31
517.232	1541.31
517.448	1491.31
517.664	1348.31
517.879	1277.31
518.095	1279.31
518.311	1252.31
518.527	1297.31
518.742	1367.31
518.958	1429.31
519.173	1379.31
519.389	1342.31
519.605	1363.31
519.82	1479.31
520.036	1681.31
520.251	1645.31
520.467	1594.31
520.682	2305.31
520.898	2759.31
521.113	2644.31
521.329	1713.31
521.544	1519.31
521.76	1479.31
521.975	1355.31
522.19	1303.31
522.406	1310.31
522.621	1441.31
522.836	1495.31
523.052	1510.31
523.267	1238.31
523.482	1269.31
523.698	1373.31
523.913	1357.31
524.128	1210.31
524.343	1124.31
524.559	1174.31
524.774	1145.31
524.989	1149.31
525.204	1178.31
525.419	1323.31
525.634	1218.31
525.849	1219.31
526.064	1258.31
526.28	1241.31
526.495	1508.31
526.71	1449.31
526.925	1278.31
527.14	1359.31
527.355	1305.31
527.57	1122.31
527.785	1171.31
527.999	1142.31
528.214	1090.31
528.429	1062.31
528.644	1076.31
528.859	1001.31
529.074	982.31
529.289	996.31
529.503	995.31
529.718	1015.31
529.933	1145.31
530.148	1164.31
530.363	1057.31
530.577	1041.31
530.792	1004.31
531.007	977.31
531.221	929.31
531.436	981.31
531.651	997.31
531.865	1001.31
532.08	990.31
532.295	999.31
532.509	1021.31
532.724	1131.31
532.938	1281.31
533.153	1457.31
533.367	1171.31
533.582	1163.31
533.796	1088.31
534.011	1037.31
534.225	1044.31
534.44	1069.31
534.654	1065.31
534.868	1221.31
535.083	1115.31
535.297	1003.31
535.511	1035.31
535.726	1141.31
535.94	1059.31
536.154	995.31
536.369	966.31
536.583	1000.31
536.797	994.31
537.011	1049.31
537.225	1098.31
537.44	1169.31
537.654	1013.31
537.868	1019.31
538.082	1023.31
538.296	1008.31
538.51	1108.31
538.724	1098.31
538.938	1030.31
539.153	985.31
539.367	985.31
539.581	978.31
539.795	1019.31
540.009	1114.31
540.222	1061.31
540.436	1045.31
540.65	1120.31
540.864	1129.31
541.078	1177.31
541.292	1286.31
541.506	1104.31
541.72	1043.31
541.934	1037.31
542.147	1030.31
542.361	1026.31
542.575	1054.31
542.789	1016.31
543.002	963.31
543.216	1050.31
543.43	943.31
543.644	909.31
543.857	927.31
544.071	937.31
544.285	943.31
544.498	913.31
544.712	919.31
544.925	973.31
545.139	939.31
545.352	883.31
545.566	914.31
545.779	1041.31
545.993	950.31
546.206	861.31
546.42	878.31
546.633	857.31
546.847	873.31
547.06	849.31
547.274	836.31
547.487	877.31
547.7	927.31
547.914	998.31
548.127	1120.31
548.34	1100.31
548.554	970.31
548.767	1002.31
548.98	1080.31
549.193	989.31
549.407	977.31
549.62	1118.31
549.833	1097.31
550.046	1137.31
550.259	1147.31
550.473	1032.31
550.686	978.31
550.899	988.31
551.112	973.31
551.325	1015.31
551.538	1112.31
551.751	937.31
551.964	888.31
552.177	893.31
552.39	870.31
552.603	863.31
552.816	932.31
553.029	880.31
553.242	835.31
553.455	927.31
553.667	993.31
553.88	969.31
554.093	903.31
554.306	876.31
554.519	798.31
554.732	771.31
554.944	800.31
555.157	777.31
555.37	769.31
555.583	767.31
555.795	806.31
556.008	823.31
556.221	798.31
556.433	809.31
556.646	769.31
556.859	789.31
557.071	811.31
557.284	812.31
557.496	821.31
557.709	798.31
557.921	783.31
558.134	723.31
558.346	707.31
558.559	730.31
558.771	778.31
558.984	816.31
559.196	787.31
559.409	729.31
559.621	697.31
559.833	710.31
560.046	731.31
560.258	725.31
560.47	754.31
560.683	694.31
560.895	682.31
561.107	660.31
561.32	671.31
561.532	711.31
561.744	740.31
561.956	784.31
562.168	699.31
562.381	700.31
562.593	703.31
562.805	748.31
563.017	707.31
563.229	673.31
563.441	677.31
563.653	691.31
563.865	714.31
564.077	719.31
564.289	669.31
564.501	708.31
564.713	736.31
564.925	753.31
565.137	705.31
565.349	672.31
565.561	689.31
565.773	711.31
565.985	742.31
566.197	803.31
566.408	839.31
566.62	865.31
566.832	859.31
567.044	873.31
567.255	912.31
567.467	986.31
567.679	880.31
567.891	882.31
568.102	891.31
568.314	881.31
568.526	869.31
568.737	806.31
568.949	849.31
569.161	763.31
569.372	713.31
569.584	695.31
569.795	688.31
570.007	699.31
570.218	743.31
570.43	738.31
570.641	702.31
570.853	656.31
571.064	640.31
571.276	661.31
571.487	689.31
571.698	657.31
571.91	660.31
572.121	664.31
572.333	611.31
572.544	606.31
572.755	631.31
572.966	596.31
573.178	602.31
573.389	656.31
573.6	631.31
573.811	633.31
574.023	579.31
574.234	597.31
574.445	596.31
574.656	563.31
574.867	566.31
575.078	586.31
575.289	604.31
575.501	622.31
575.712	589.31
575.923	544.31
576.134	524.31
576.345	529.31
576.556	553.31
576.767	538.31
576.978	523.31
577.188	507.31
577.399	533.31
577.61	535.31
577.821	524.31
578.032	552.31
578.243	556.31
578.454	574.31
578.665	565.31
578.875	566.31
579.086	542.31
579.297	564.31
579.508	561.31
579.718	545.31
579.929	546.31
580.14	513.31
580.35	517.31
580.561	512.31
580.772	482.31
580.982	478.31
581.193	482.31
581.403	472.31
581.614	467.31
581.825	463.31
582.035	461.31
582.246	458.31
582.456	474.31
582.667	472.31
582.877	465.31
583.087	460.31
583.298	449.31
583.508	465.31
583.719	448.31
583.929	456.31
584.139	468.31
584.35	446.31
584.56	484.31
584.77	459.31
584.981	478.31
585.191	468.31
585.401	439.31
585.611	480.31
585.821	499.31
586.032	482.31
586.242	469.31
586.452	460.31
586.662	468.31
586.872	496.31
587.082	493.31
587.292	460.31
587.502	455.31
587.713	479.31
587.923	470.31
588.133	507.31
588.343	467.31
588.553	450.31
588.762	443.31
588.972	437.31
589.182	459.31
589.392	430.31
589.602	459.31
589.812	479.31
590.022	520.31
590.232	505.31
590.441	450.31
590.651	448.31
590.861	451.31
591.071	478.31
591.281	449.31
591.49	446.31
591.7	458.31
591.91	439.31
592.119	459.31
592.329	453.31
592.539	450.31
592.748	467.31
592.958	459.31
593.167	477.31
593.377	509.31
593.587	483.31
593.796	471.31
594.006	484.31
594.215	484.31
594.424	484.31
594.634	514.31
594.843	466.31
595.053	447.31
595.262	435.31
595.472	438.31
595.681	434.31
595.89	442.31
596.1	433.31
596.309	431.31
596.518	407.31
596.727	419.31
596.937	419.31
597.146	440.31
597.355	456.31
597.564	437.31
597.774	418.31
597.983	425.31
598.192	405.31
598.401	389.31
598.61	389.31
598.819	391.31
599.028	400.31
599.237	387.31
599.446	373.31
599.655	373.31
599.864	364.31
600.073	353.31
600.282	377.31
600.491	375.31
600.7	377.31
600.909	382.31
601.118	381.31
601.327	368.31
601.536	401.31
601.745	389.31
601.953	416.31
602.162	383.31
602.371	404.31
602.58	403.31
602.789	375.31
602.997	377.31
603.206	356.31
603.415	383.31
603.623	369.31
603.832	355.31
604.041	354.31
604.249	350.31
604.458	377.31
604.666	371.31
604.875	339.31
605.084	351.31
605.292	361.31
605.501	365.31
605.709	370.31
605.918	369.31
606.126	355.31
606.334	342.31
606.543	359.31
606.751	358.31
606.96	337.31
607.168	336.31
607.376	324.31
607.585	351.31
607.793	345.31
608.001	353.31
608.21	351.31
608.418	359.31
608.626	339.31
608.834	358.31
609.043	330.31
609.251	346.31
609.459	339.31
609.667	345.31
609.875	347.31
610.083	327.31
610.291	342.31
610.499	330.31
610.707	322.31
610.916	327.31
611.124	349.31
611.332	310.31
611.54	338.31
611.748	336.31
611.955	326.31
612.163	353.31
612.371	347.31
612.579	331.31
612.787	325.31
612.995	313.31
613.203	341.31
613.411	338.31
613.618	322.31
613.826	332.31
614.034	343.31
614.242	337.31
614.449	317.31
614.657	317.31
614.865	317.31
615.072	324.31
615.28	344.31
615.488	339.31
615.695	353.31
615.903	324.31
616.111	339.31
616.318	308.31
616.526	344.31
616.733	320.31
616.941	318.31
617.148	329.31
617.356	288.31
617.563	323.31
617.771	328.31
617.978	292.31
618.185	325.31
618.393	308.31
618.6	318.31
618.807	298.31
619.015	321.31
619.222	307.31
619.429	323.31
619.637	281.31
619.844	309.31
620.051	297.31
620.258	300.31
620.466	301.31
620.673	298.31
620.88	289.31
621.087	289.31
621.294	288.31
621.501	287.31
621.708	302.31
621.915	290.31
622.122	313.31
622.329	295.31
622.536	289.31
622.743	297.31
622.95	297.31
623.157	290.31
623.364	299.31
623.571	290.31
623.778	304.31
623.985	292.31
624.192	319.31
624.399	317.31
624.606	314.31
624.812	283.31
625.019	299.31
625.226	323.31
625.433	308.31
625.639	310.31
625.846	296.31
626.053	277.31
626.259	286.31
626.466	301.31
626.673	307.31
626.879	291.31
627.086	275.31
627.293	269.31
627.499	270.31
627.706	264.31
627.912	273.31
628.119	272.31
628.325	253.31
628.532	257.31
628.738	257.31
628.945	233.31
629.151	266.31
629.357	240.31
629.564	269.31
629.77	241.31
629.976	246.31
630.183	253.31
630.389	278.31
630.595	264.31
630.802	255.31
631.008	259.31
631.214	262.31
631.42	257.31
631.627	243.31
631.833	254.31
632.039	266.31
632.245	252.31
632.451	256.31
632.657	241.31
632.863	252.31
633.069	236.31
633.275	255.31
633.481	243.31
633.688	242.31
633.893	235.31
634.099	228.31
634.305	249.31
634.511	251.31
634.717	229.31
634.923	221.31
635.129	242.31
635.335	217.31
635.541	225.31
635.747	237.31
635.952	230.31
636.158	231.31
636.364	218.31
636.57	236.31
636.775	246.31
636.981	220.31
637.187	229.31
637.392	226.31
637.598	232.31
637.804	225.31
638.009	229.31
638.215	214.31
638.421	231.31
638.626	236.31
638.832	222.31
639.037	222.31
639.243	225.31
639.448	213.31
639.654	249.31
639.859	233.31
640.065	224.31
640.27	255.31
640.475	238.31
640.681	212.31
640.886	215.31
641.091	225.31
641.297	224.31
641.502	225.31
641.707	213.31
641.913	213.31
642.118	198.31
642.323	222.31
642.528	230.31
642.733	243.31
642.939	200.31
643.144	209.31
643.349	228.31
643.554	220.31
643.759	207.31
643.964	202.31
644.169	199.31
644.374	195.31
644.579	207.31
644.784	217.31
644.989	196.31
645.194	211.31
645.399	218.31
645.604	201.31
645.809	201.31
646.014	221.31
646.219	203.31
646.423	202.31
646.628	205.31
646.833	205.31
647.038	208.31
647.243	211.31
647.447	175.31
647.652	210.31
647.857	198.31
648.062	198.31
648.266	219.31
648.471	214.31
648.676	218.31
648.88	224.31
649.085	210.31
649.289	208.31
649.494	206.31
649.698	219.31
649.903	196.31
650.107	199.31
650.312	198.31
650.516	179.31
650.721	187.31
650.925	178.31
651.13	171.31
651.334	198.31
651.539	190.31
651.743	177.31
651.947	173.31
652.152	181.31
652.356	173.31
652.56	180.31
652.764	164.31
652.969	166.31
653.173	143.31
653.377	155.31
653.581	161.31
653.785	164.31
653.99	166.31
654.194	163.31
654.398	167.31
654.602	161.31
654.806	167.31
655.01	158.31
655.214	155.31
655.418	160.31
655.622	148.31
655.826	164.31
656.03	147.31
656.234	137.31
656.438	143.31
656.642	143.31
656.846	143.31
657.049	151.31
657.253	145.31
657.457	127.31
657.661	126.31
657.865	129.31
658.068	125.31
658.272	133.31
658.476	111.31
658.68	123.31
658.883	100.31
659.087	107.31
659.291	113.31
659.494	116.31
659.698	107.31
659.901	101.31
660.105	113.31
660.309	110.31
660.512	91.31
660.716	88.31
660.919	87.31
661.123	92.31
661.326	83.31
661.53	89.31
661.733	93.31
661.936	90.31
662.14	91.31
662.343	90.31
662.546	78.31
662.75	84.31
662.953	100.31
663.156	83.31
663.36	90.31
663.563	89.31
663.766	80.31
663.969	79.31
664.173	56.31
664.376	82.31
664.579	77.31
664.782	65.31
664.985	90.31
665.188	78.31
665.391	73.31
665.594	94.31
665.797	78.31
666	80.31
666.203	77.31
666.406	78.31
666.609	66.31
666.812	71.31
667.015	81.31
667.218	77.31
667.421	62.31
667.624	75.31
667.827	91.31
668.03	70.31
668.232	79.31
668.435	80.31
668.638	77.31
668.841	76.31
669.043	72.31
669.246	74.31
669.449	63.31
669.651	64.31
669.854	78.31
670.057	74.31
670.259	75.31
670.462	78.31
670.665	68.31
670.867	93.31
671.07	84.31
671.272	66.31
671.475	96.31
671.677	78.31
671.88	87.31
672.082	75.31
672.284	93.31
672.487	95.31
672.689	79.31
672.892	74.31
