Data from NickelSpatula.Lamp.E10.P2_HRD10591_11-57-34-532.txt Node
Date: Tue Jul 23 11:57:34 EDT 2019
User: cochatt
Spectrometer: HR+D1059
Trigger mode: 1
Integration Time (sec): 1.000000E-1
Scans to average: 1
Electric dark correction enabled: true
Nonlinearity correction enabled: false
Boxcar width: 0
XAxis mode: Wavelengths
Number of Pixels in Spectrum: 2048
>>>>>Begin Spectral Data<<<<<
223.165	-5.69
223.4	-5.69
223.635	-5.69
223.869	-30.69
224.104	-31.69
224.338	-3.69
224.573	-11.69
224.808	-11.69
225.042	-7.69
225.277	-0.69
225.511	-4.69
225.746	0.31
225.98	6.31
226.215	18.31
226.449	23.31
226.683	19.31
226.918	18.31
227.152	22.31
227.387	26.31
227.621	17.31
227.856	47.31
228.09	41.31
228.324	58.31
228.559	57.31
228.793	83.31
229.027	143.31
229.262	154.31
229.496	149.31
229.73	165.31
229.964	192.31
230.199	220.31
230.433	205.31
230.667	206.31
230.901	201.31
231.136	194.31
231.37	205.31
231.604	212.31
231.838	246.31
232.072	229.31
232.306	232.31
232.541	217.31
232.775	246.31
233.009	269.31
233.243	300.31
233.477	306.31
233.711	343.31
233.945	328.31
234.179	314.31
234.413	354.31
234.647	368.31
234.881	419.31
235.115	392.31
235.349	375.31
235.583	337.31
235.817	322.31
236.051	353.31
236.285	394.31
236.519	447.31
236.753	407.31
236.987	411.31
237.221	377.31
237.455	394.31
237.689	415.31
237.922	422.31
238.156	451.31
238.39	520.31
238.624	628.31
238.858	591.31
239.091	477.31
239.325	492.31
239.559	469.31
239.793	521.31
240.027	641.31
240.26	579.31
240.494	530.31
240.728	559.31
240.961	661.31
241.195	615.31
241.429	601.31
241.662	605.31
241.896	483.31
242.13	475.31
242.363	431.31
242.597	435.31
242.83	522.31
243.064	523.31
243.298	584.31
243.531	584.31
243.765	593.31
243.998	602.31
244.232	589.31
244.465	601.31
244.699	559.31
244.932	628.31
245.166	597.31
245.399	540.31
245.633	536.31
245.866	522.31
246.099	580.31
246.333	665.31
246.566	727.31
246.8	742.31
247.033	714.31
247.266	674.31
247.5	656.31
247.733	640.31
247.966	631.31
248.2	649.31
248.433	752.31
248.666	784.31
248.899	816.31
249.133	827.31
249.366	937.31
249.599	1001.31
249.832	889.31
250.066	808.31
250.299	820.31
250.532	784.31
250.765	758.31
250.998	697.31
251.231	692.31
251.465	741.31
251.698	809.31
251.931	773.31
252.164	812.31
252.397	915.31
252.63	997.31
252.863	1088.31
253.096	1134.31
253.329	1110.31
253.562	1055.31
253.795	1170.31
254.028	1281.31
254.261	1312.31
254.494	1196.31
254.727	1068.31
254.96	1094.31
255.193	1092.31
255.426	1051.31
255.659	822.31
255.892	764.31
256.124	847.31
256.357	992.31
256.59	1138.31
256.823	1052.31
257.056	926.31
257.289	874.31
257.521	904.31
257.754	1098.31
257.987	1222.31
258.22	1090.31
258.452	1001.31
258.685	1137.31
258.918	1235.31
259.151	1176.31
259.383	1223.31
259.616	1434.31
259.849	1490.31
260.081	1663.31
260.314	1783.31
260.547	1434.31
260.779	1400.31
261.012	1619.31
261.244	1516.31
261.477	1569.31
261.71	1463.31
261.942	1199.31
262.175	1220.31
262.407	1169.31
262.64	1234.31
262.872	1433.31
263.105	1574.31
263.337	1615.31
263.57	1432.31
263.802	970.31
264.035	869.31
264.267	854.31
264.499	745.31
264.732	682.31
264.964	666.31
265.197	705.31
265.429	745.31
265.661	805.31
265.894	823.31
266.126	908.31
266.358	972.31
266.591	1228.31
266.823	1407.31
267.055	1346.31
267.287	1188.31
267.52	1196.31
267.752	1260.31
267.984	1384.31
268.216	1322.31
268.448	1088.31
268.681	1080.31
268.913	1139.31
269.145	1255.31
269.377	1262.31
269.609	1222.31
269.841	1157.31
270.073	1263.31
270.306	1284.31
270.538	1350.31
270.77	1372.31
271.002	1376.31
271.234	1402.31
271.466	1456.31
271.698	1411.31
271.93	1394.31
272.162	1391.31
272.394	1353.31
272.626	1325.31
272.858	1389.31
273.09	1402.31
273.322	1260.31
273.553	1232.31
273.785	1408.31
274.017	1855.31
274.249	2263.31
274.481	2360.31
274.713	2539.31
274.945	2944.31
275.176	3056.31
275.408	2688.31
275.64	2514.31
275.872	2450.31
276.104	2119.31
276.335	1814.31
276.567	1817.31
276.799	1898.31
277.031	1911.31
277.262	1560.31
277.494	1194.31
277.726	1151.31
277.957	1279.31
278.189	1418.31
278.421	1390.31
278.652	1384.31
278.884	1331.31
279.115	1237.31
279.347	1148.31
279.579	1148.31
279.81	1170.31
280.042	1141.31
280.273	1211.31
280.505	1082.31
280.736	981.31
280.968	989.31
281.199	1073.31
281.431	1198.31
281.662	1204.31
281.894	1163.31
282.125	1207.31
282.356	1298.31
282.588	1332.31
282.819	1216.31
283.051	1316.31
283.282	1641.31
283.513	1875.31
283.745	2089.31
283.976	2063.31
284.207	1938.31
284.439	2004.31
284.67	1896.31
284.901	1700.31
285.132	1847.31
285.364	1921.31
285.595	1800.31
285.826	1887.31
286.057	1958.31
286.288	1873.31
286.52	1903.31
286.751	2000.31
286.982	1964.31
287.213	1755.31
287.444	1674.31
287.675	1761.31
287.906	1748.31
288.138	1470.31
288.369	1310.31
288.6	1232.31
288.831	1265.31
289.062	1478.31
289.293	1632.31
289.524	1565.31
289.755	1549.31
289.986	1587.31
290.217	1365.31
290.448	1079.31
290.679	948.31
290.91	888.31
291.141	911.31
291.371	934.31
291.602	959.31
291.833	956.31
292.064	1039.31
292.295	1164.31
292.526	1334.31
292.757	1431.31
292.987	1489.31
293.218	1511.31
293.449	1530.31
293.68	1606.31
293.91	1540.31
294.141	1565.31
294.372	1471.31
294.603	1408.31
294.833	1532.31
295.064	1749.31
295.295	1670.31
295.525	1250.31
295.756	1157.31
295.987	971.31
296.217	985.31
296.448	1004.31
296.679	1057.31
296.909	1193.31
297.14	1234.31
297.37	1363.31
297.601	1308.31
297.831	1133.31
298.062	1207.31
298.292	1360.31
298.523	1478.31
298.753	1702.31
298.984	1544.31
299.214	1213.31
299.445	1062.31
299.675	1004.31
299.905	989.31
300.136	1062.31
300.366	1134.31
300.597	1107.31
300.827	991.31
301.057	958.31
301.288	979.31
301.518	1058.31
301.748	1169.31
301.979	1265.31
302.209	1394.31
302.439	1381.31
302.669	1202.31
302.9	1211.31
303.13	1140.31
303.36	1068.31
303.59	1009.31
303.82	1047.31
304.051	1237.31
304.281	1308.31
304.511	1242.31
304.741	1110.31
304.971	1119.31
305.201	1262.31
305.431	1143.31
305.661	1010.31
305.891	1022.31
306.121	1032.31
306.352	948.31
306.582	852.31
306.812	837.31
307.042	827.31
307.272	797.31
307.502	822.31
307.731	844.31
307.961	901.31
308.191	812.31
308.421	792.31
308.651	802.31
308.881	734.31
309.111	767.31
309.341	774.31
309.571	858.31
309.8	880.31
310.03	898.31
310.26	961.31
310.49	938.31
310.72	836.31
310.949	832.31
311.179	837.31
311.409	895.31
311.639	1059.31
311.868	1352.31
312.098	1697.31
312.328	1869.31
312.557	1776.31
312.787	1825.31
313.017	1610.31
313.246	1753.31
313.476	1908.31
313.706	1582.31
313.935	1253.31
314.165	1037.31
314.394	934.31
314.624	922.31
314.853	990.31
315.083	985.31
315.312	969.31
315.542	989.31
315.771	921.31
316.001	851.31
316.23	830.31
316.46	812.31
316.689	837.31
316.919	839.31
317.148	862.31
317.377	825.31
317.607	823.31
317.836	937.31
318.065	1062.31
318.295	1183.31
318.524	1098.31
318.753	958.31
318.983	906.31
319.212	884.31
319.441	944.31
319.67	1094.31
319.9	1156.31
320.129	1091.31
320.358	966.31
320.587	913.31
320.816	1004.31
321.046	1127.31
321.275	1263.31
321.504	1304.31
321.733	1221.31
321.962	1189.31
322.191	1101.31
322.42	1094.31
322.649	1101.31
322.878	1174.31
323.108	1174.31
323.337	1051.31
323.566	1046.31
323.795	992.31
324.024	975.31
324.253	928.31
324.482	965.31
324.71	1025.31
324.939	1166.31
325.168	1094.31
325.397	921.31
325.626	872.31
325.855	894.31
326.084	919.31
326.313	846.31
326.542	798.31
326.77	846.31
326.999	862.31
327.228	942.31
327.457	960.31
327.686	966.31
327.914	853.31
328.143	787.31
328.372	795.31
328.6	809.31
328.829	826.31
329.058	866.31
329.287	857.31
329.515	876.31
329.744	848.31
329.972	818.31
330.201	775.31
330.43	812.31
330.658	947.31
330.887	1041.31
331.115	1009.31
331.344	982.31
331.572	932.31
331.801	872.31
332.03	817.31
332.258	868.31
332.486	938.31
332.715	922.31
332.943	894.31
333.172	870.31
333.4	938.31
333.629	1009.31
333.857	1097.31
334.085	1080.31
334.314	1052.31
334.542	975.31
334.771	925.31
334.999	903.31
335.227	872.31
335.455	945.31
335.684	992.31
335.912	1135.31
336.14	1256.31
336.369	1223.31
336.597	1160.31
336.825	1306.31
337.053	1473.31
337.281	1188.31
337.51	965.31
337.738	953.31
337.966	998.31
338.194	1125.31
338.422	1081.31
338.65	914.31
338.878	871.31
339.106	892.31
339.334	988.31
339.562	1039.31
339.79	949.31
340.018	931.31
340.246	1000.31
340.474	1142.31
340.702	1223.31
340.93	1274.31
341.158	1265.31
341.386	1058.31
341.614	1071.31
341.842	1088.31
342.07	1113.31
342.298	1263.31
342.526	1324.31
342.754	1140.31
342.981	1062.31
343.209	1018.31
343.437	1085.31
343.665	1148.31
343.893	1152.31
344.12	1312.31
344.348	1567.31
344.576	1394.31
344.804	1158.31
345.031	1011.31
345.259	944.31
345.487	978.31
345.714	1002.31
345.942	1064.31
346.17	1148.31
346.397	1090.31
346.625	967.31
346.853	913.31
347.08	913.31
347.308	982.31
347.535	1090.31
347.763	1098.31
347.99	959.31
348.218	915.31
348.445	930.31
348.673	943.31
348.9	929.31
349.128	1024.31
349.355	1051.31
349.583	1061.31
349.81	973.31
350.037	918.31
350.265	824.31
350.492	796.31
350.72	786.31
350.947	775.31
351.174	869.31
351.402	928.31
351.629	930.31
351.856	946.31
352.083	835.31
352.311	928.31
352.538	1045.31
352.765	1090.31
352.992	1001.31
353.22	938.31
353.447	966.31
353.674	909.31
353.901	905.31
354.128	935.31
354.355	991.31
354.583	967.31
354.81	935.31
355.037	985.31
355.264	993.31
355.491	1074.31
355.718	1114.31
355.945	1089.31
356.172	1046.31
356.399	1040.31
356.626	1284.31
356.853	1587.31
357.08	1656.31
357.307	1692.31
357.534	1297.31
357.761	1342.31
357.988	1684.31
358.215	1936.31
358.441	1856.31
358.668	1556.31
358.895	1430.31
359.122	1163.31
359.349	1174.31
359.576	1267.31
359.802	1047.31
360.029	944.31
360.256	1010.31
360.483	1232.31
360.709	1530.31
360.936	1588.31
361.163	1394.31
361.39	1087.31
361.616	1001.31
361.843	1162.31
362.07	1452.31
362.296	1322.31
362.523	1063.31
362.749	916.31
362.976	964.31
363.203	1172.31
363.429	1287.31
363.656	1030.31
363.882	970.31
364.109	954.31
364.335	993.31
364.562	963.31
364.788	1095.31
365.015	1273.31
365.241	1136.31
365.468	958.31
365.694	838.31
365.92	773.31
366.147	779.31
366.373	785.31
366.599	778.31
366.826	789.31
367.052	814.31
367.278	830.31
367.505	780.31
367.731	864.31
367.957	977.31
368.184	988.31
368.41	955.31
368.636	980.31
368.862	1012.31
369.089	990.31
369.315	883.31
369.541	872.31
369.767	855.31
369.993	804.31
370.219	820.31
370.445	871.31
370.672	987.31
370.898	1042.31
371.124	1071.31
371.35	934.31
371.576	861.31
371.802	966.31
372.028	1113.31
372.254	1283.31
372.48	1125.31
372.706	989.31
372.932	1044.31
373.158	1112.31
373.384	1326.31
373.61	1726.31
373.835	1790.31
374.061	1328.31
374.287	1113.31
374.513	1303.31
374.739	1598.31
374.965	1654.31
375.191	1597.31
375.416	1126.31
375.642	945.31
375.868	1161.31
376.094	1307.31
376.319	1118.31
376.545	1239.31
376.771	1300.31
376.997	1130.31
377.222	850.31
377.448	742.31
377.674	737.31
377.899	728.31
378.125	753.31
378.35	716.31
378.576	742.31
378.802	828.31
379.027	917.31
379.253	868.31
379.478	912.31
379.704	1028.31
379.929	1072.31
380.155	1053.31
380.38	937.31
380.606	958.31
380.831	1076.31
381.057	983.31
381.282	954.31
381.507	1149.31
381.733	1436.31
381.958	1460.31
382.184	1564.31
382.409	1643.31
382.634	1582.31
382.86	1660.31
383.085	1380.31
383.31	1085.31
383.535	1140.31
383.761	1170.31
383.986	1120.31
384.211	1383.31
384.436	1303.31
384.662	1001.31
384.887	973.31
385.112	1010.31
385.337	1021.31
385.562	995.31
385.787	1072.31
386.013	1200.31
386.238	1208.31
386.463	979.31
386.688	974.31
386.913	931.31
387.138	849.31
387.363	912.31
387.588	980.31
387.813	956.31
388.038	1058.31
388.263	947.31
388.488	918.31
388.713	1096.31
388.938	1150.31
389.163	993.31
389.387	907.31
389.612	912.31
389.837	912.31
390.062	917.31
390.287	956.31
390.512	987.31
390.736	956.31
390.961	886.31
391.186	838.31
391.411	842.31
391.636	861.31
391.86	868.31
392.085	973.31
392.31	977.31
392.534	906.31
392.759	911.31
392.984	949.31
393.208	936.31
393.433	843.31
393.658	800.31
393.882	795.31
394.107	785.31
394.331	815.31
394.556	778.31
394.78	794.31
395.005	841.31
395.229	864.31
395.454	842.31
395.678	862.31
395.903	904.31
396.127	828.31
396.352	876.31
396.576	966.31
396.801	980.31
397.025	1090.31
397.249	1095.31
397.474	902.31
397.698	919.31
397.922	928.31
398.147	888.31
398.371	917.31
398.595	954.31
398.82	944.31
399.044	941.31
399.268	1021.31
399.492	1038.31
399.717	1051.31
399.941	1052.31
400.165	1057.31
400.389	1033.31
400.613	1030.31
400.837	1029.31
401.062	911.31
401.286	898.31
401.51	886.31
401.734	894.31
401.958	906.31
402.182	902.31
402.406	893.31
402.63	905.31
402.854	959.31
403.078	1049.31
403.302	1293.31
403.526	1328.31
403.75	1191.31
403.974	1040.31
404.198	1079.31
404.422	1180.31
404.645	1410.31
404.869	1503.31
405.093	1128.31
405.317	986.31
405.541	973.31
405.765	992.31
405.988	1020.31
406.212	1042.31
406.436	1247.31
406.66	1369.31
406.883	1112.31
407.107	1140.31
407.331	1316.31
407.555	1252.31
407.778	1109.31
408.002	1026.31
408.226	1050.31
408.449	1006.31
408.673	1008.31
408.896	919.31
409.12	912.31
409.344	897.31
409.567	880.31
409.791	870.31
410.014	856.31
410.238	882.31
410.461	884.31
410.685	870.31
410.908	900.31
411.132	912.31
411.355	924.31
411.578	915.31
411.802	895.31
412.025	931.31
412.249	948.31
412.472	946.31
412.695	959.31
412.919	933.31
413.142	966.31
413.365	1031.31
413.589	1020.31
413.812	924.31
414.035	901.31
414.258	923.31
414.482	1020.31
414.705	1009.31
414.928	912.31
415.151	858.31
415.374	881.31
415.597	904.31
415.821	920.31
416.044	920.31
416.267	843.31
416.49	856.31
416.713	855.31
416.936	814.31
417.159	853.31
417.382	873.31
417.605	911.31
417.828	889.31
418.051	892.31
418.274	910.31
418.497	934.31
418.72	934.31
418.943	941.31
419.166	965.31
419.389	1023.31
419.611	1001.31
419.834	981.31
420.057	1093.31
420.28	1078.31
420.503	993.31
420.726	884.31
420.948	872.31
421.171	864.31
421.394	852.31
421.617	835.31
421.839	862.31
422.062	920.31
422.285	906.31
422.507	895.31
422.73	928.31
422.953	953.31
423.175	953.31
423.398	924.31
423.621	978.31
423.843	1020.31
424.066	953.31
424.288	899.31
424.511	892.31
424.733	904.31
424.956	949.31
425.178	1074.31
425.401	1163.31
425.623	1310.31
425.846	1120.31
426.068	986.31
426.291	1117.31
426.513	1030.31
426.735	927.31
426.958	998.31
427.18	1124.31
427.402	1442.31
427.625	1424.31
427.847	1187.31
428.069	888.31
428.292	883.31
428.514	884.31
428.736	858.31
428.958	932.31
429.181	1127.31
429.403	978.31
429.625	858.31
429.847	854.31
430.069	867.31
430.292	884.31
430.514	868.31
430.736	924.31
430.958	1170.31
431.18	1078.31
431.402	813.31
431.624	787.31
431.846	795.31
432.068	757.31
432.29	804.31
432.512	893.31
432.734	1189.31
432.956	1079.31
433.178	863.31
433.4	840.31
433.622	845.31
433.844	873.31
434.066	919.31
434.287	874.31
434.509	868.31
434.731	901.31
434.953	846.31
435.175	892.31
435.397	1032.31
435.618	873.31
435.84	800.31
436.062	816.31
436.284	820.31
436.505	771.31
436.727	783.31
436.949	813.31
437.17	810.31
437.392	846.31
437.614	805.31
437.835	816.31
438.057	814.31
438.278	946.31
438.5	1343.31
438.721	1334.31
438.943	936.31
439.165	804.31
439.386	771.31
439.608	791.31
439.829	769.31
440.05	799.31
440.272	842.31
440.493	976.31
440.715	1188.31
440.936	975.31
441.158	851.31
441.379	850.31
441.6	976.31
441.822	989.31
442.043	880.31
442.264	838.31
442.486	863.31
442.707	864.31
442.928	856.31
443.149	882.31
443.371	886.31
443.592	910.31
443.813	928.31
444.034	879.31
444.255	893.31
444.476	946.31
444.698	909.31
444.919	947.31
445.14	1022.31
445.361	1011.31
445.582	953.31
445.803	927.31
446.024	915.31
446.245	915.31
446.466	912.31
446.687	868.31
446.908	859.31
447.129	806.31
447.35	808.31
447.571	799.31
447.792	785.31
448.013	782.31
448.234	781.31
448.455	778.31
448.675	780.31
448.896	793.31
449.117	796.31
449.338	778.31
449.559	789.31
449.779	850.31
450	835.31
450.221	830.31
450.442	817.31
450.662	802.31
450.883	786.31
451.104	793.31
451.324	758.31
451.545	782.31
451.766	785.31
451.986	791.31
452.207	776.31
452.428	761.31
452.648	743.31
452.869	810.31
453.089	827.31
453.31	830.31
453.53	737.31
453.751	779.31
453.971	736.31
454.192	755.31
454.412	774.31
454.633	751.31
454.853	746.31
455.073	705.31
455.294	719.31
455.514	713.31
455.734	804.31
455.955	794.31
456.175	800.31
456.395	741.31
456.616	683.31
456.836	714.31
457.056	695.31
457.276	690.31
457.497	732.31
457.717	709.31
457.937	679.31
458.157	704.31
458.377	721.31
458.598	708.31
458.818	739.31
459.038	797.31
459.258	818.31
459.478	844.31
459.698	852.31
459.918	900.31
460.138	832.31
460.358	888.31
460.578	849.31
460.798	887.31
461.018	886.31
461.238	829.31
461.458	840.31
461.678	880.31
461.898	911.31
462.118	894.31
462.338	898.31
462.558	929.31
462.777	972.31
462.997	982.31
463.217	969.31
463.437	1005.31
463.657	1008.31
463.876	948.31
464.096	949.31
464.316	948.31
464.536	944.31
464.755	987.31
464.975	982.31
465.195	964.31
465.414	1007.31
465.634	950.31
465.854	926.31
466.073	844.31
466.293	864.31
466.512	885.31
466.732	997.31
466.951	1010.31
467.171	918.31
467.391	870.31
467.61	845.31
467.829	944.31
468.049	936.31
468.268	880.31
468.488	865.31
468.707	876.31
468.927	1020.31
469.146	1109.31
469.365	995.31
469.585	928.31
469.804	970.31
470.023	1086.31
470.243	936.31
470.462	896.31
470.681	892.31
470.901	890.31
471.12	963.31
471.339	940.31
471.558	898.31
471.777	912.31
471.997	956.31
472.216	1081.31
472.435	1033.31
472.654	945.31
472.873	932.31
473.092	961.31
473.311	1015.31
473.53	933.31
473.749	920.31
473.968	979.31
474.187	929.31
474.406	929.31
474.625	893.31
474.844	963.31
475.063	1012.31
475.282	975.31
475.501	1044.31
475.72	1111.31
475.939	1083.31
476.158	1084.31
476.377	1209.31
476.596	1428.31
476.814	1456.31
477.033	1186.31
477.252	1055.31
477.471	982.31
477.69	990.31
477.908	1072.31
478.127	1142.31
478.346	1035.31
478.564	1121.31
478.783	1053.31
479.002	1099.31
479.22	1240.31
479.439	1383.31
479.658	1192.31
479.876	1110.31
480.095	1181.31
480.313	1176.31
480.532	1113.31
480.751	1097.31
480.969	1117.31
481.188	1262.31
481.406	1258.31
481.624	1187.31
481.843	1089.31
482.061	1044.31
482.28	1176.31
482.498	1426.31
482.717	1341.31
482.935	1145.31
483.153	1117.31
483.372	1050.31
483.59	1037.31
483.808	1007.31
484.027	1011.31
484.245	950.31
484.463	986.31
484.681	1026.31
484.9	1074.31
485.118	1172.31
485.336	1088.31
485.554	998.31
485.772	1025.31
485.99	1151.31
486.209	1213.31
486.427	1192.31
486.645	1165.31
486.863	1208.31
487.081	1223.31
487.299	1347.31
487.517	1315.31
487.735	1184.31
487.953	1194.31
488.171	1237.31
488.389	1135.31
488.607	1076.31
488.825	1159.31
489.043	1264.31
489.261	1404.31
489.479	1503.31
489.696	1270.31
489.914	1132.31
490.132	1084.31
490.35	1076.31
490.568	1132.31
490.786	1120.31
491.003	1102.31
491.221	1155.31
491.439	1144.31
491.657	1117.31
491.874	1212.31
492.092	1430.31
492.31	1754.31
492.527	1701.31
492.745	1519.31
492.963	1294.31
493.18	1286.31
493.398	1279.31
493.615	1263.31
493.833	1203.31
494.05	1222.31
494.268	1209.31
494.485	1208.31
494.703	1181.31
494.92	1196.31
495.138	1166.31
495.355	1198.31
495.573	1210.31
495.79	1368.31
496.008	1758.31
496.225	1559.31
496.442	1313.31
496.66	1314.31
496.877	1379.31
497.094	1366.31
497.312	1298.31
497.529	1272.31
497.746	1306.31
497.963	1362.31
498.181	1407.31
498.398	1534.31
498.615	1628.31
498.832	1647.31
499.049	1655.31
499.267	1540.31
499.484	1489.31
499.701	1575.31
499.918	1706.31
500.135	1829.31
500.352	1870.31
500.569	1934.31
500.786	1950.31
501.003	1995.31
501.22	1784.31
501.437	1686.31
501.654	1628.31
501.871	1590.31
502.088	1589.31
502.305	1501.31
502.522	1487.31
502.739	1448.31
502.956	1359.31
503.172	1354.31
503.389	1293.31
503.606	1292.31
503.823	1264.31
504.04	1290.31
504.256	1264.31
504.473	1306.31
504.69	1314.31
504.907	1331.31
505.123	1312.31
505.34	1395.31
505.557	1416.31
505.773	1294.31
505.99	1250.31
506.207	1314.31
506.423	1223.31
506.64	1176.31
506.856	1211.31
507.073	1316.31
507.289	1312.31
507.506	1288.31
507.722	1394.31
507.939	1397.31
508.155	1411.31
508.372	1278.31
508.588	1244.31
508.805	1193.31
509.021	1190.31
509.238	1160.31
509.454	1153.31
509.67	1129.31
509.887	1168.31
510.103	1288.31
510.319	1282.31
510.536	1166.31
510.752	1080.31
510.968	1046.31
511.184	1008.31
511.401	999.31
511.617	1018.31
511.833	1032.31
512.049	1033.31
512.265	1072.31
512.481	1108.31
512.698	1229.31
512.914	1315.31
513.13	1208.31
513.346	1086.31
513.562	1164.31
513.778	1151.31
513.994	1152.31
514.21	1190.31
514.426	1172.31
514.642	1141.31
514.858	1135.31
515.074	1162.31
515.29	1230.31
515.506	1390.31
515.721	1289.31
515.937	1217.31
516.153	1143.31
516.369	1149.31
516.585	1175.31
516.801	1341.31
517.016	1560.31
517.232	1510.31
517.448	1524.31
517.664	1361.31
517.879	1271.31
518.095	1245.31
518.311	1255.31
518.527	1272.31
518.742	1354.31
518.958	1415.31
519.173	1372.31
519.389	1334.31
519.605	1366.31
519.82	1480.31
520.036	1678.31
520.251	1608.31
520.467	1539.31
520.682	2337.31
520.898	2828.31
521.113	2672.31
521.329	1688.31
521.544	1478.31
521.76	1466.31
521.975	1304.31
522.19	1255.31
522.406	1296.31
522.621	1381.31
522.836	1479.31
523.052	1512.31
523.267	1225.31
523.482	1257.31
523.698	1340.31
523.913	1348.31
524.128	1190.31
524.343	1144.31
524.559	1148.31
524.774	1096.31
524.989	1136.31
525.204	1154.31
525.419	1280.31
525.634	1191.31
525.849	1220.31
526.064	1200.31
526.28	1210.31
526.495	1416.31
526.71	1462.31
526.925	1313.31
527.14	1368.31
527.355	1327.31
527.57	1113.31
527.785	1158.31
527.999	1108.31
528.214	1081.31
528.429	1071.31
528.644	1039.31
528.859	1006.31
529.074	968.31
529.289	953.31
529.503	971.31
529.718	1003.31
529.933	1141.31
530.148	1168.31
530.363	1022.31
530.577	996.31
530.792	969.31
531.007	1000.31
531.221	963.31
531.436	963.31
531.651	968.31
531.865	985.31
532.08	1032.31
532.295	964.31
532.509	1030.31
532.724	1149.31
532.938	1301.31
533.153	1508.31
533.367	1206.31
533.582	1156.31
533.796	1074.31
534.011	1044.31
534.225	1034.31
534.44	1052.31
534.654	1057.31
534.868	1239.31
535.083	1080.31
535.297	1006.31
535.511	979.31
535.726	1153.31
535.94	1058.31
536.154	999.31
536.369	977.31
536.583	960.31
536.797	993.31
537.011	1040.31
537.225	1072.31
537.44	1154.31
537.654	1006.31
537.868	986.31
538.082	1000.31
538.296	973.31
538.51	1065.31
538.724	1077.31
538.938	1039.31
539.153	981.31
539.367	916.31
539.581	954.31
539.795	1021.31
540.009	1111.31
540.222	1048.31
540.436	1023.31
540.65	1101.31
540.864	1196.31
541.078	1156.31
541.292	1332.31
541.506	1096.31
541.72	1029.31
541.934	1016.31
542.147	998.31
542.361	1015.31
542.575	1007.31
542.789	1019.31
543.002	927.31
543.216	1019.31
543.43	921.31
543.644	937.31
543.857	897.31
544.071	945.31
544.285	941.31
544.498	882.31
544.712	901.31
544.925	973.31
545.139	933.31
545.352	904.31
545.566	894.31
545.779	1041.31
545.993	961.31
546.206	870.31
546.42	869.31
546.633	852.31
546.847	836.31
547.06	856.31
547.274	856.31
547.487	866.31
547.7	951.31
547.914	975.31
548.127	1081.31
548.34	1067.31
548.554	919.31
548.767	955.31
548.98	1014.31
549.193	927.31
549.407	971.31
549.62	1148.31
549.833	1074.31
550.046	1118.31
550.259	1125.31
550.473	1008.31
550.686	934.31
550.899	983.31
551.112	957.31
551.325	1008.31
551.538	1050.31
551.751	932.31
551.964	863.31
552.177	855.31
552.39	878.31
552.603	862.31
552.816	912.31
553.029	849.31
553.242	826.31
553.455	926.31
553.667	974.31
553.88	949.31
554.093	872.31
554.306	846.31
554.519	808.31
554.732	788.31
554.944	773.31
555.157	758.31
555.37	761.31
555.583	749.31
555.795	804.31
556.008	786.31
556.221	774.31
556.433	776.31
556.646	741.31
556.859	787.31
557.071	801.31
557.284	799.31
557.496	817.31
557.709	804.31
557.921	789.31
558.134	744.31
558.346	722.31
558.559	725.31
558.771	752.31
558.984	818.31
559.196	763.31
559.409	736.31
559.621	716.31
559.833	678.31
560.046	688.31
560.258	712.31
560.47	718.31
560.683	700.31
560.895	651.31
561.107	641.31
561.32	670.31
561.532	671.31
561.744	741.31
561.956	797.31
562.168	703.31
562.381	675.31
562.593	726.31
562.805	736.31
563.017	678.31
563.229	657.31
563.441	654.31
563.653	675.31
563.865	672.31
564.077	671.31
564.289	649.31
564.501	691.31
564.713	736.31
564.925	734.31
565.137	696.31
565.349	670.31
565.561	686.31
565.773	704.31
565.985	727.31
566.197	767.31
566.408	831.31
566.62	869.31
566.832	838.31
567.044	836.31
567.255	876.31
567.467	950.31
567.679	870.31
567.891	862.31
568.102	878.31
568.314	909.31
568.526	824.31
568.737	810.31
568.949	847.31
569.161	740.31
569.372	682.31
569.584	666.31
569.795	657.31
570.007	684.31
570.218	723.31
570.43	722.31
570.641	662.31
570.853	652.31
571.064	663.31
571.276	672.31
571.487	686.31
571.698	673.31
571.91	664.31
572.121	662.31
572.333	603.31
572.544	631.31
572.755	607.31
572.966	616.31
573.178	604.31
573.389	626.31
573.6	627.31
573.811	628.31
574.023	571.31
574.234	565.31
574.445	582.31
574.656	545.31
574.867	561.31
575.078	571.31
575.289	577.31
575.501	591.31
575.712	568.31
575.923	540.31
576.134	522.31
576.345	540.31
576.556	527.31
576.767	503.31
576.978	488.31
577.188	530.31
577.399	513.31
577.61	522.31
577.821	527.31
578.032	549.31
578.243	552.31
578.454	554.31
578.665	562.31
578.875	537.31
579.086	538.31
579.297	552.31
579.508	577.31
579.718	544.31
579.929	557.31
580.14	510.31
580.35	477.31
580.561	484.31
580.772	476.31
580.982	484.31
581.193	466.31
581.403	472.31
581.614	469.31
581.825	469.31
582.035	449.31
582.246	441.31
582.456	456.31
582.667	474.31
582.877	475.31
583.087	462.31
583.298	445.31
583.508	454.31
583.719	449.31
583.929	460.31
584.139	453.31
584.35	449.31
584.56	471.31
584.77	467.31
584.981	435.31
585.191	473.31
585.401	448.31
585.611	485.31
585.821	476.31
586.032	501.31
586.242	479.31
586.452	461.31
586.662	447.31
586.872	486.31
587.082	478.31
587.292	466.31
587.502	456.31
587.713	448.31
587.923	455.31
588.133	473.31
588.343	475.31
588.553	439.31
588.762	421.31
588.972	434.31
589.182	450.31
589.392	457.31
589.602	459.31
589.812	482.31
590.022	503.31
590.232	486.31
590.441	451.31
590.651	446.31
590.861	438.31
591.071	460.31
591.281	442.31
591.49	443.31
591.7	446.31
591.91	433.31
592.119	436.31
592.329	433.31
592.539	457.31
592.748	458.31
592.958	463.31
593.167	457.31
593.377	477.31
593.587	468.31
593.796	479.31
594.006	465.31
594.215	467.31
594.424	481.31
594.634	504.31
594.843	469.31
595.053	457.31
595.262	454.31
595.472	434.31
595.681	424.31
595.89	430.31
596.1	440.31
596.309	406.31
596.518	417.31
596.727	405.31
596.937	411.31
597.146	430.31
597.355	448.31
597.564	415.31
597.774	418.31
597.983	385.31
598.192	403.31
598.401	376.31
598.61	386.31
598.819	394.31
599.028	379.31
599.237	390.31
599.446	379.31
599.655	362.31
599.864	372.31
600.073	358.31
600.282	370.31
600.491	364.31
600.7	373.31
600.909	379.31
601.118	383.31
601.327	372.31
601.536	385.31
601.745	374.31
601.953	393.31
602.162	384.31
602.371	382.31
602.58	409.31
602.789	387.31
602.997	366.31
603.206	375.31
603.415	369.31
603.623	346.31
603.832	357.31
604.041	358.31
604.249	370.31
604.458	378.31
604.666	371.31
604.875	348.31
605.084	336.31
605.292	341.31
605.501	376.31
605.709	358.31
605.918	364.31
606.126	352.31
606.334	346.31
606.543	350.31
606.751	347.31
606.96	340.31
607.168	342.31
607.376	333.31
607.585	340.31
607.793	350.31
608.001	329.31
608.21	344.31
608.418	350.31
608.626	371.31
608.834	327.31
609.043	332.31
609.251	356.31
609.459	335.31
609.667	330.31
609.875	346.31
610.083	356.31
610.291	354.31
610.499	347.31
610.707	327.31
610.916	332.31
611.124	345.31
611.332	336.31
611.54	323.31
611.748	336.31
611.955	323.31
612.163	328.31
612.371	336.31
612.579	329.31
612.787	323.31
612.995	322.31
613.203	336.31
613.411	324.31
613.618	321.31
613.826	354.31
614.034	344.31
614.242	329.31
614.449	329.31
614.657	306.31
614.865	327.31
615.072	327.31
615.28	309.31
615.488	327.31
615.695	324.31
615.903	314.31
616.111	324.31
616.318	328.31
616.526	321.31
616.733	321.31
616.941	319.31
617.148	320.31
617.356	316.31
617.563	309.31
617.771	300.31
617.978	308.31
618.185	314.31
618.393	292.31
618.6	328.31
618.807	311.31
619.015	300.31
619.222	309.31
619.429	321.31
619.637	299.31
619.844	297.31
620.051	302.31
620.258	303.31
620.466	306.31
620.673	279.31
620.88	276.31
621.087	276.31
621.294	289.31
621.501	303.31
621.708	296.31
621.915	279.31
622.122	302.31
622.329	296.31
622.536	278.31
622.743	298.31
622.95	301.31
623.157	272.31
623.364	309.31
623.571	294.31
623.778	293.31
623.985	304.31
624.192	312.31
624.399	279.31
624.606	308.31
624.812	294.31
625.019	295.31
625.226	306.31
625.433	300.31
625.639	267.31
625.846	266.31
626.053	270.31
626.259	278.31
626.466	279.31
626.673	289.31
626.879	287.31
627.086	268.31
627.293	271.31
627.499	255.31
627.706	287.31
627.912	268.31
628.119	265.31
628.325	269.31
628.532	265.31
628.738	258.31
628.945	266.31
629.151	271.31
629.357	240.31
629.564	256.31
629.77	262.31
629.976	256.31
630.183	248.31
630.389	272.31
630.595	245.31
630.802	276.31
631.008	281.31
631.214	261.31
631.42	257.31
631.627	256.31
631.833	257.31
632.039	238.31
632.245	267.31
632.451	264.31
632.657	250.31
632.863	235.31
633.069	258.31
633.275	254.31
633.481	231.31
633.688	256.31
633.893	238.31
634.099	237.31
634.305	238.31
634.511	224.31
634.717	225.31
634.923	220.31
635.129	232.31
635.335	250.31
635.541	224.31
635.747	236.31
635.952	231.31
636.158	248.31
636.364	240.31
636.57	248.31
636.775	240.31
636.981	222.31
637.187	225.31
637.392	225.31
637.598	226.31
637.804	216.31
638.009	222.31
638.215	216.31
638.421	225.31
638.626	229.31
638.832	223.31
639.037	214.31
639.243	220.31
639.448	204.31
639.654	234.31
639.859	225.31
640.065	220.31
640.27	255.31
640.475	212.31
640.681	221.31
640.886	230.31
641.091	220.31
641.297	213.31
641.502	230.31
641.707	205.31
641.913	216.31
642.118	208.31
642.323	225.31
642.528	228.31
642.733	228.31
642.939	222.31
643.144	225.31
643.349	196.31
643.554	197.31
643.759	213.31
643.964	207.31
644.169	214.31
644.374	215.31
644.579	212.31
644.784	209.31
644.989	198.31
645.194	234.31
645.399	201.31
645.604	214.31
645.809	212.31
646.014	211.31
646.219	211.31
646.423	208.31
646.628	208.31
646.833	197.31
647.038	194.31
647.243	200.31
647.447	198.31
647.652	223.31
647.857	204.31
648.062	208.31
648.266	223.31
648.471	196.31
648.676	220.31
648.88	213.31
649.085	199.31
649.289	208.31
649.494	190.31
649.698	215.31
649.903	200.31
650.107	198.31
650.312	193.31
650.516	192.31
650.721	184.31
650.925	188.31
651.13	188.31
651.334	196.31
651.539	169.31
651.743	190.31
651.947	191.31
652.152	181.31
652.356	161.31
652.56	176.31
652.764	154.31
652.969	174.31
653.173	163.31
653.377	174.31
653.581	182.31
653.785	177.31
653.99	157.31
654.194	159.31
654.398	166.31
654.602	153.31
654.806	159.31
655.01	164.31
655.214	163.31
655.418	153.31
655.622	157.31
655.826	150.31
656.03	150.31
656.234	149.31
656.438	153.31
656.642	158.31
656.846	148.31
657.049	138.31
657.253	147.31
657.457	130.31
657.661	134.31
657.865	132.31
658.068	112.31
658.272	144.31
658.476	117.31
658.68	113.31
658.883	112.31
659.087	110.31
659.291	108.31
659.494	98.31
659.698	108.31
659.901	100.31
660.105	119.31
660.309	104.31
660.512	99.31
660.716	94.31
660.919	119.31
661.123	102.31
661.326	98.31
661.53	95.31
661.733	91.31
661.936	94.31
662.14	97.31
662.343	87.31
662.546	84.31
662.75	79.31
662.953	81.31
663.156	94.31
663.36	84.31
663.563	101.31
663.766	100.31
663.969	87.31
664.173	90.31
664.376	79.31
664.579	78.31
664.782	93.31
664.985	92.31
665.188	71.31
665.391	81.31
665.594	91.31
665.797	87.31
666	86.31
666.203	81.31
666.406	63.31
666.609	74.31
666.812	87.31
667.015	74.31
667.218	87.31
667.421	88.31
667.624	85.31
667.827	80.31
668.03	97.31
668.232	82.31
668.435	82.31
668.638	79.31
668.841	78.31
669.043	75.31
669.246	74.31
669.449	85.31
669.651	85.31
669.854	94.31
670.057	72.31
670.259	85.31
670.462	84.31
670.665	83.31
670.867	86.31
671.07	79.31
671.272	81.31
671.475	77.31
671.677	58.31
671.88	87.31
672.082	73.31
672.284	82.31
672.487	84.31
672.689	61.31
672.892	91.31
