Data from NickelSpatula.Lamp.E10.P2_HRD10591_11-57-10-533.txt Node
Date: Tue Jul 23 11:57:10 EDT 2019
User: cochatt
Spectrometer: HR+D1059
Trigger mode: 1
Integration Time (sec): 1.000000E-1
Scans to average: 1
Electric dark correction enabled: true
Nonlinearity correction enabled: false
Boxcar width: 0
XAxis mode: Wavelengths
Number of Pixels in Spectrum: 2048
>>>>>Begin Spectral Data<<<<<
223.165	-22.44
223.4	-22.44
223.635	-22.44
223.869	-30.44
224.104	-4.44
224.338	-4.44
224.573	-6.44
224.808	-11.44
225.042	-2.44
225.277	-11.44
225.511	-17.44
225.746	-3.44
225.98	10.56
226.215	11.56
226.449	11.56
226.683	25.56
226.918	39.56
227.152	15.56
227.387	52.56
227.621	38.56
227.856	46.56
228.09	42.56
228.324	49.56
228.559	57.56
228.793	82.56
229.027	137.56
229.262	157.56
229.496	159.56
229.73	174.56
229.964	175.56
230.199	206.56
230.433	222.56
230.667	197.56
230.901	219.56
231.136	199.56
231.37	217.56
231.604	213.56
231.838	250.56
232.072	255.56
232.306	235.56
232.541	241.56
232.775	228.56
233.009	262.56
233.243	287.56
233.477	301.56
233.711	331.56
233.945	360.56
234.179	336.56
234.413	345.56
234.647	361.56
234.881	446.56
235.115	401.56
235.349	377.56
235.583	367.56
235.817	343.56
236.051	352.56
236.285	414.56
236.519	463.56
236.753	423.56
236.987	429.56
237.221	393.56
237.455	409.56
237.689	417.56
237.922	465.56
238.156	470.56
238.39	526.56
238.624	639.56
238.858	580.56
239.091	500.56
239.325	515.56
239.559	476.56
239.793	524.56
240.027	632.56
240.26	599.56
240.494	582.56
240.728	584.56
240.961	654.56
241.195	621.56
241.429	606.56
241.662	594.56
241.896	516.56
242.13	471.56
242.363	432.56
242.597	475.56
242.83	545.56
243.064	522.56
243.298	581.56
243.531	615.56
243.765	636.56
243.998	613.56
244.232	573.56
244.465	582.56
244.699	586.56
244.932	650.56
245.166	633.56
245.399	560.56
245.633	555.56
245.866	551.56
246.099	613.56
246.333	711.56
246.566	754.56
246.8	741.56
247.033	735.56
247.266	666.56
247.5	674.56
247.733	677.56
247.966	645.56
248.2	666.56
248.433	771.56
248.666	830.56
248.899	815.56
249.133	843.56
249.366	947.56
249.599	1006.56
249.832	933.56
250.066	808.56
250.299	828.56
250.532	815.56
250.765	766.56
250.998	729.56
251.231	696.56
251.465	788.56
251.698	793.56
251.931	786.56
252.164	857.56
252.397	925.56
252.63	1061.56
252.863	1122.56
253.096	1143.56
253.329	1127.56
253.562	1097.56
253.795	1186.56
254.028	1329.56
254.261	1345.56
254.494	1216.56
254.727	1099.56
254.96	1079.56
255.193	1160.56
255.426	1104.56
255.659	856.56
255.892	762.56
256.124	864.56
256.357	1008.56
256.59	1157.56
256.823	1075.56
257.056	961.56
257.289	910.56
257.521	947.56
257.754	1115.56
257.987	1243.56
258.22	1126.56
258.452	999.56
258.685	1141.56
258.918	1255.56
259.151	1241.56
259.383	1294.56
259.616	1496.56
259.849	1555.56
260.081	1711.56
260.314	1834.56
260.547	1471.56
260.779	1446.56
261.012	1648.56
261.244	1585.56
261.477	1581.56
261.71	1473.56
261.942	1253.56
262.175	1281.56
262.407	1210.56
262.64	1242.56
262.872	1462.56
263.105	1601.56
263.337	1663.56
263.57	1474.56
263.802	1056.56
264.035	916.56
264.267	862.56
264.499	754.56
264.732	698.56
264.964	695.56
265.197	726.56
265.429	771.56
265.661	805.56
265.894	853.56
266.126	907.56
266.358	999.56
266.591	1226.56
266.823	1454.56
267.055	1405.56
267.287	1206.56
267.52	1218.56
267.752	1304.56
267.984	1467.56
268.216	1376.56
268.448	1087.56
268.681	1105.56
268.913	1189.56
269.145	1275.56
269.377	1261.56
269.609	1342.56
269.841	1241.56
270.073	1293.56
270.306	1344.56
270.538	1369.56
270.77	1397.56
271.002	1399.56
271.234	1473.56
271.466	1501.56
271.698	1455.56
271.93	1407.56
272.162	1411.56
272.394	1363.56
272.626	1361.56
272.858	1408.56
273.09	1443.56
273.322	1291.56
273.553	1247.56
273.785	1479.56
274.017	1903.56
274.249	2355.56
274.481	2401.56
274.713	2624.56
274.945	3021.56
275.176	3150.56
275.408	2747.56
275.64	2557.56
275.872	2577.56
276.104	2202.56
276.335	1903.56
276.567	1886.56
276.799	1952.56
277.031	2057.56
277.262	1595.56
277.494	1242.56
277.726	1186.56
277.957	1320.56
278.189	1460.56
278.421	1491.56
278.652	1426.56
278.884	1365.56
279.115	1245.56
279.347	1185.56
279.579	1206.56
279.81	1234.56
280.042	1188.56
280.273	1256.56
280.505	1150.56
280.736	1019.56
280.968	1023.56
281.199	1106.56
281.431	1208.56
281.662	1191.56
281.894	1192.56
282.125	1213.56
282.356	1335.56
282.588	1357.56
282.819	1235.56
283.051	1345.56
283.282	1664.56
283.513	1901.56
283.745	2125.56
283.976	2107.56
284.207	1961.56
284.439	2048.56
284.67	1981.56
284.901	1746.56
285.132	1870.56
285.364	1954.56
285.595	1829.56
285.826	1917.56
286.057	1976.56
286.288	1926.56
286.52	1947.56
286.751	2046.56
286.982	2040.56
287.213	1799.56
287.444	1707.56
287.675	1814.56
287.906	1810.56
288.138	1529.56
288.369	1367.56
288.6	1290.56
288.831	1338.56
289.062	1558.56
289.293	1724.56
289.524	1617.56
289.755	1604.56
289.986	1641.56
290.217	1464.56
290.448	1167.56
290.679	949.56
290.91	923.56
291.141	938.56
291.371	984.56
291.602	985.56
291.833	967.56
292.064	1052.56
292.295	1207.56
292.526	1352.56
292.757	1432.56
292.987	1554.56
293.218	1573.56
293.449	1564.56
293.68	1666.56
293.91	1570.56
294.141	1628.56
294.372	1521.56
294.603	1401.56
294.833	1555.56
295.064	1813.56
295.295	1750.56
295.525	1306.56
295.756	1183.56
295.987	1001.56
296.217	1003.56
296.448	1034.56
296.679	1094.56
296.909	1183.56
297.14	1286.56
297.37	1411.56
297.601	1335.56
297.831	1151.56
298.062	1236.56
298.292	1405.56
298.523	1551.56
298.753	1747.56
298.984	1562.56
299.214	1233.56
299.445	1071.56
299.675	1019.56
299.905	1051.56
300.136	1031.56
300.366	1151.56
300.597	1156.56
300.827	1014.56
301.057	979.56
301.288	1024.56
301.518	1081.56
301.748	1173.56
301.979	1291.56
302.209	1389.56
302.439	1395.56
302.669	1226.56
302.9	1203.56
303.13	1167.56
303.36	1097.56
303.59	1051.56
303.82	1089.56
304.051	1226.56
304.281	1321.56
304.511	1269.56
304.741	1142.56
304.971	1190.56
305.201	1268.56
305.431	1206.56
305.661	1060.56
305.891	1087.56
306.121	1061.56
306.352	953.56
306.582	898.56
306.812	833.56
307.042	861.56
307.272	802.56
307.502	815.56
307.731	884.56
307.961	891.56
308.191	851.56
308.421	822.56
308.651	809.56
308.881	774.56
309.111	794.56
309.341	823.56
309.571	905.56
309.8	903.56
310.03	932.56
310.26	987.56
310.49	995.56
310.72	861.56
310.949	857.56
311.179	900.56
311.409	947.56
311.639	1113.56
311.868	1405.56
312.098	1731.56
312.328	1915.56
312.557	1852.56
312.787	1845.56
313.017	1658.56
313.246	1787.56
313.476	1908.56
313.706	1586.56
313.935	1313.56
314.165	1077.56
314.394	978.56
314.624	975.56
314.853	997.56
315.083	1026.56
315.312	983.56
315.542	1014.56
315.771	938.56
316.001	825.56
316.23	849.56
316.46	833.56
316.689	870.56
316.919	891.56
317.148	898.56
317.377	884.56
317.607	881.56
317.836	934.56
318.065	1046.56
318.295	1213.56
318.524	1129.56
318.753	978.56
318.983	915.56
319.212	915.56
319.441	1005.56
319.67	1078.56
319.9	1185.56
320.129	1142.56
320.358	976.56
320.587	953.56
320.816	1022.56
321.046	1167.56
321.275	1314.56
321.504	1300.56
321.733	1258.56
321.962	1187.56
322.191	1154.56
322.42	1094.56
322.649	1120.56
322.878	1198.56
323.108	1178.56
323.337	1090.56
323.566	1062.56
323.795	1054.56
324.024	1028.56
324.253	982.56
324.482	976.56
324.71	1081.56
324.939	1191.56
325.168	1097.56
325.397	907.56
325.626	888.56
325.855	921.56
326.084	914.56
326.313	862.56
326.542	855.56
326.77	870.56
326.999	917.56
327.228	953.56
327.457	1002.56
327.686	1017.56
327.914	878.56
328.143	806.56
328.372	841.56
328.6	855.56
328.829	864.56
329.058	895.56
329.287	895.56
329.515	881.56
329.744	866.56
329.972	842.56
330.201	818.56
330.43	854.56
330.658	937.56
330.887	1060.56
331.115	1031.56
331.344	979.56
331.572	959.56
331.801	903.56
332.03	836.56
332.258	893.56
332.486	952.56
332.715	978.56
332.943	914.56
333.172	906.56
333.4	955.56
333.629	1021.56
333.857	1091.56
334.085	1111.56
334.314	1094.56
334.542	1048.56
334.771	984.56
334.999	932.56
335.227	941.56
335.455	960.56
335.684	1008.56
335.912	1175.56
336.14	1294.56
336.369	1241.56
336.597	1195.56
336.825	1375.56
337.053	1502.56
337.281	1214.56
337.51	989.56
337.738	953.56
337.966	1069.56
338.194	1168.56
338.422	1093.56
338.65	941.56
338.878	857.56
339.106	928.56
339.334	1032.56
339.562	1077.56
339.79	989.56
340.018	959.56
340.246	1041.56
340.474	1179.56
340.702	1275.56
340.93	1320.56
341.158	1301.56
341.386	1102.56
341.614	1109.56
341.842	1118.56
342.07	1151.56
342.298	1331.56
342.526	1370.56
342.754	1188.56
342.981	1091.56
343.209	1060.56
343.437	1112.56
343.665	1187.56
343.893	1178.56
344.12	1366.56
344.348	1559.56
344.576	1419.56
344.804	1184.56
345.031	1041.56
345.259	946.56
345.487	989.56
345.714	999.56
345.942	1078.56
346.17	1188.56
346.397	1119.56
346.625	992.56
346.853	974.56
347.08	948.56
347.308	988.56
347.535	1114.56
347.763	1144.56
347.99	986.56
348.218	934.56
348.445	982.56
348.673	994.56
348.9	983.56
349.128	1038.56
349.355	1082.56
349.583	1050.56
349.81	988.56
350.037	934.56
350.265	833.56
350.492	819.56
350.72	802.56
350.947	829.56
351.174	894.56
351.402	922.56
351.629	987.56
351.856	914.56
352.083	869.56
352.311	978.56
352.538	1057.56
352.765	1137.56
352.992	1034.56
353.22	1007.56
353.447	1033.56
353.674	947.56
353.901	928.56
354.128	949.56
354.355	985.56
354.583	1008.56
354.81	985.56
355.037	1031.56
355.264	1000.56
355.491	1049.56
355.718	1133.56
355.945	1083.56
356.172	1079.56
356.399	1078.56
356.626	1303.56
356.853	1579.56
357.08	1683.56
357.307	1718.56
357.534	1345.56
357.761	1400.56
357.988	1707.56
358.215	1988.56
358.441	1849.56
358.668	1614.56
358.895	1471.56
359.122	1193.56
359.349	1177.56
359.576	1313.56
359.802	1089.56
360.029	941.56
360.256	1007.56
360.483	1225.56
360.709	1538.56
360.936	1593.56
361.163	1391.56
361.39	1079.56
361.616	1051.56
361.843	1182.56
362.07	1492.56
362.296	1315.56
362.523	1079.56
362.749	934.56
362.976	945.56
363.203	1159.56
363.429	1315.56
363.656	1058.56
363.882	994.56
364.109	1010.56
364.335	992.56
364.562	965.56
364.788	1075.56
365.015	1256.56
365.241	1130.56
365.468	947.56
365.694	851.56
365.92	822.56
366.147	758.56
366.373	788.56
366.599	795.56
366.826	786.56
367.052	813.56
367.278	856.56
367.505	822.56
367.731	916.56
367.957	1021.56
368.184	990.56
368.41	979.56
368.636	1030.56
368.862	1044.56
369.089	1005.56
369.315	906.56
369.541	850.56
369.767	899.56
369.993	842.56
370.219	881.56
370.445	913.56
370.672	991.56
370.898	1071.56
371.124	1035.56
371.35	944.56
371.576	890.56
371.802	933.56
372.028	1119.56
372.254	1255.56
372.48	1127.56
372.706	987.56
372.932	1075.56
373.158	1119.56
373.384	1333.56
373.61	1686.56
373.835	1748.56
374.061	1345.56
374.287	1154.56
374.513	1344.56
374.739	1590.56
374.965	1658.56
375.191	1596.56
375.416	1155.56
375.642	999.56
375.868	1150.56
376.094	1319.56
376.319	1142.56
376.545	1233.56
376.771	1328.56
376.997	1148.56
377.222	864.56
377.448	758.56
377.674	732.56
377.899	735.56
378.125	764.56
378.35	766.56
378.576	767.56
378.802	854.56
379.027	925.56
379.253	889.56
379.478	927.56
379.704	1021.56
379.929	1080.56
380.155	1047.56
380.38	930.56
380.606	1000.56
380.831	1099.56
381.057	1010.56
381.282	978.56
381.507	1133.56
381.733	1368.56
381.958	1491.56
382.184	1581.56
382.409	1658.56
382.634	1587.56
382.86	1685.56
383.085	1400.56
383.31	1111.56
383.535	1221.56
383.761	1199.56
383.986	1166.56
384.211	1346.56
384.436	1318.56
384.662	1056.56
384.887	983.56
385.112	1041.56
385.337	1067.56
385.562	1003.56
385.787	1098.56
386.013	1191.56
386.238	1233.56
386.463	992.56
386.688	975.56
386.913	982.56
387.138	927.56
387.363	978.56
387.588	1000.56
387.813	1010.56
388.038	1080.56
388.263	972.56
388.488	962.56
388.713	1130.56
388.938	1190.56
389.163	1019.56
389.387	905.56
389.612	906.56
389.837	965.56
390.062	947.56
390.287	989.56
390.512	989.56
390.736	944.56
390.961	898.56
391.186	848.56
391.411	838.56
391.636	888.56
391.86	939.56
392.085	988.56
392.31	1008.56
392.534	929.56
392.759	946.56
392.984	984.56
393.208	937.56
393.433	873.56
393.658	805.56
393.882	777.56
394.107	799.56
394.331	793.56
394.556	800.56
394.78	816.56
395.005	827.56
395.229	842.56
395.454	890.56
395.678	856.56
395.903	897.56
396.127	886.56
396.352	907.56
396.576	983.56
396.801	997.56
397.025	1102.56
397.249	1124.56
397.474	917.56
397.698	913.56
397.922	966.56
398.147	906.56
398.371	893.56
398.595	971.56
398.82	925.56
399.044	988.56
399.268	1022.56
399.492	1038.56
399.717	1064.56
399.941	1090.56
400.165	1073.56
400.389	1034.56
400.613	1066.56
400.837	1045.56
401.062	922.56
401.286	905.56
401.51	916.56
401.734	895.56
401.958	913.56
402.182	903.56
402.406	915.56
402.63	930.56
402.854	949.56
403.078	1100.56
403.302	1265.56
403.526	1352.56
403.75	1201.56
403.974	1064.56
404.198	1082.56
404.422	1246.56
404.645	1409.56
404.869	1522.56
405.093	1160.56
405.317	992.56
405.541	959.56
405.765	1009.56
405.988	1031.56
406.212	1082.56
406.436	1286.56
406.66	1394.56
406.883	1137.56
407.107	1169.56
407.331	1346.56
407.555	1291.56
407.778	1076.56
408.002	1066.56
408.226	1064.56
408.449	1060.56
408.673	1055.56
408.896	924.56
409.12	922.56
409.344	916.56
409.567	870.56
409.791	909.56
410.014	893.56
410.238	918.56
410.461	899.56
410.685	911.56
410.908	906.56
411.132	963.56
411.355	953.56
411.578	941.56
411.802	942.56
412.025	995.56
412.249	998.56
412.472	960.56
412.695	954.56
412.919	953.56
413.142	971.56
413.365	1044.56
413.589	1082.56
413.812	987.56
414.035	954.56
414.258	967.56
414.482	1043.56
414.705	1038.56
414.928	920.56
415.151	903.56
415.374	901.56
415.597	941.56
415.821	936.56
416.044	925.56
416.267	878.56
416.49	873.56
416.713	852.56
416.936	834.56
417.159	877.56
417.382	887.56
417.605	894.56
417.828	929.56
418.051	903.56
418.274	940.56
418.497	893.56
418.72	944.56
418.943	946.56
419.166	1018.56
419.389	1031.56
419.611	967.56
419.834	1030.56
420.057	1114.56
420.28	1079.56
420.503	1031.56
420.726	924.56
420.948	912.56
421.171	893.56
421.394	896.56
421.617	881.56
421.839	869.56
422.062	952.56
422.285	933.56
422.507	966.56
422.73	963.56
422.953	967.56
423.175	950.56
423.398	950.56
423.621	988.56
423.843	1041.56
424.066	971.56
424.288	950.56
424.511	898.56
424.733	922.56
424.956	968.56
425.178	1085.56
425.401	1215.56
425.623	1364.56
425.846	1163.56
426.068	1027.56
426.291	1121.56
426.513	1048.56
426.735	951.56
426.958	1011.56
427.18	1147.56
427.402	1464.56
427.625	1457.56
427.847	1199.56
428.069	909.56
428.292	918.56
428.514	898.56
428.736	878.56
428.958	939.56
429.181	1139.56
429.403	993.56
429.625	899.56
429.847	856.56
430.069	913.56
430.292	925.56
430.514	875.56
430.736	956.56
430.958	1163.56
431.18	1062.56
431.402	856.56
431.624	836.56
431.846	816.56
432.068	781.56
432.29	800.56
432.512	947.56
432.734	1189.56
432.956	1095.56
433.178	877.56
433.4	823.56
433.622	864.56
433.844	883.56
434.066	950.56
434.287	912.56
434.509	870.56
434.731	919.56
434.953	886.56
435.175	920.56
435.397	1046.56
435.618	925.56
435.84	817.56
436.062	870.56
436.284	841.56
436.505	802.56
436.727	785.56
436.949	817.56
437.17	869.56
437.392	877.56
437.614	877.56
437.835	831.56
438.057	854.56
438.278	983.56
438.5	1368.56
438.721	1371.56
438.943	926.56
439.165	809.56
439.386	801.56
439.608	782.56
439.829	785.56
440.05	791.56
440.272	861.56
440.493	992.56
440.715	1199.56
440.936	966.56
441.158	870.56
441.379	872.56
441.6	965.56
441.822	1041.56
442.043	898.56
442.264	905.56
442.486	866.56
442.707	895.56
442.928	886.56
443.149	886.56
443.371	907.56
443.592	954.56
443.813	946.56
444.034	901.56
444.255	906.56
444.476	938.56
444.698	952.56
444.919	965.56
445.14	1043.56
445.361	1031.56
445.582	971.56
445.803	956.56
446.024	979.56
446.245	960.56
446.466	943.56
446.687	891.56
446.908	877.56
447.129	836.56
447.35	821.56
447.571	818.56
447.792	809.56
448.013	809.56
448.234	807.56
448.455	779.56
448.675	795.56
448.896	801.56
449.117	805.56
449.338	823.56
449.559	825.56
449.779	882.56
450	885.56
450.221	838.56
450.442	826.56
450.662	817.56
450.883	808.56
451.104	814.56
451.324	805.56
451.545	833.56
451.766	808.56
451.986	785.56
452.207	776.56
452.428	794.56
452.648	774.56
452.869	822.56
453.089	829.56
453.31	858.56
453.53	742.56
453.751	765.56
453.971	755.56
454.192	769.56
454.412	796.56
454.633	783.56
454.853	778.56
455.073	721.56
455.294	767.56
455.514	778.56
455.734	768.56
455.955	820.56
456.175	841.56
456.395	775.56
456.616	709.56
456.836	706.56
457.056	703.56
457.276	701.56
457.497	741.56
457.717	746.56
457.937	723.56
458.157	730.56
458.377	753.56
458.598	739.56
458.818	761.56
459.038	829.56
459.258	837.56
459.478	863.56
459.698	942.56
459.918	927.56
460.138	897.56
460.358	917.56
460.578	873.56
460.798	907.56
461.018	913.56
461.238	837.56
461.458	875.56
461.678	913.56
461.898	970.56
462.118	961.56
462.338	955.56
462.558	966.56
462.777	1003.56
462.997	1035.56
463.217	1005.56
463.437	1041.56
463.657	1051.56
463.876	971.56
464.096	979.56
464.316	980.56
464.536	962.56
464.755	1021.56
464.975	1027.56
465.195	962.56
465.414	1023.56
465.634	990.56
465.854	960.56
466.073	889.56
466.293	878.56
466.512	954.56
466.732	1016.56
466.951	1048.56
467.171	927.56
467.391	891.56
467.61	877.56
467.829	906.56
468.049	933.56
468.268	882.56
468.488	886.56
468.707	912.56
468.927	1055.56
469.146	1142.56
469.365	1017.56
469.585	953.56
469.804	1048.56
470.023	1133.56
470.243	982.56
470.462	913.56
470.681	914.56
470.901	943.56
471.12	986.56
471.339	949.56
471.558	926.56
471.777	930.56
471.997	983.56
472.216	1087.56
472.435	1094.56
472.654	957.56
472.873	934.56
473.092	994.56
473.311	1057.56
473.53	959.56
473.749	942.56
473.968	967.56
474.187	968.56
474.406	899.56
474.625	907.56
474.844	959.56
475.063	1017.56
475.282	1019.56
475.501	1060.56
475.72	1135.56
475.939	1097.56
476.158	1114.56
476.377	1277.56
476.596	1414.56
476.814	1474.56
477.033	1221.56
477.252	1094.56
477.471	998.56
477.69	1006.56
477.908	1121.56
478.127	1145.56
478.346	1056.56
478.564	1163.56
478.783	1111.56
479.002	1125.56
479.22	1297.56
479.439	1413.56
479.658	1237.56
479.876	1104.56
480.095	1183.56
480.313	1218.56
480.532	1139.56
480.751	1098.56
480.969	1121.56
481.188	1273.56
481.406	1289.56
481.624	1219.56
481.843	1122.56
482.061	1069.56
482.28	1200.56
482.498	1450.56
482.717	1370.56
482.935	1190.56
483.153	1141.56
483.372	1060.56
483.59	1101.56
483.808	1080.56
484.027	1057.56
484.245	999.56
484.463	1011.56
484.681	1037.56
484.9	1077.56
485.118	1177.56
485.336	1106.56
485.554	1065.56
485.772	1064.56
485.99	1163.56
486.209	1201.56
486.427	1239.56
486.645	1209.56
486.863	1208.56
487.081	1207.56
487.299	1371.56
487.517	1345.56
487.735	1218.56
487.953	1224.56
488.171	1261.56
488.389	1189.56
488.607	1139.56
488.825	1192.56
489.043	1251.56
489.261	1403.56
489.479	1549.56
489.696	1273.56
489.914	1181.56
490.132	1126.56
490.35	1151.56
490.568	1124.56
490.786	1116.56
491.003	1141.56
491.221	1177.56
491.439	1151.56
491.657	1173.56
491.874	1249.56
492.092	1497.56
492.31	1739.56
492.527	1768.56
492.745	1506.56
492.963	1354.56
493.18	1303.56
493.398	1329.56
493.615	1333.56
493.833	1243.56
494.05	1227.56
494.268	1251.56
494.485	1233.56
494.703	1187.56
494.92	1255.56
495.138	1250.56
495.355	1263.56
495.573	1277.56
495.79	1384.56
496.008	1753.56
496.225	1571.56
496.442	1382.56
496.66	1371.56
496.877	1436.56
497.094	1386.56
497.312	1347.56
497.529	1300.56
497.746	1359.56
497.963	1404.56
498.181	1497.56
498.398	1560.56
498.615	1628.56
498.832	1677.56
499.049	1743.56
499.267	1578.56
499.484	1563.56
499.701	1600.56
499.918	1735.56
500.135	1909.56
500.352	1917.56
500.569	2045.56
500.786	2004.56
501.003	2026.56
501.22	1830.56
501.437	1760.56
501.654	1656.56
501.871	1669.56
502.088	1660.56
502.305	1495.56
502.522	1517.56
502.739	1483.56
502.956	1373.56
503.172	1387.56
503.389	1315.56
503.606	1287.56
503.823	1304.56
504.04	1329.56
504.256	1330.56
504.473	1357.56
504.69	1343.56
504.907	1396.56
505.123	1357.56
505.34	1449.56
505.557	1419.56
505.773	1318.56
505.99	1305.56
506.207	1362.56
506.423	1273.56
506.64	1238.56
506.856	1237.56
507.073	1349.56
507.289	1318.56
507.506	1348.56
507.722	1411.56
507.939	1415.56
508.155	1426.56
508.372	1327.56
508.588	1267.56
508.805	1236.56
509.021	1209.56
509.238	1186.56
509.454	1194.56
509.67	1156.56
509.887	1187.56
510.103	1321.56
510.319	1305.56
510.536	1171.56
510.752	1117.56
510.968	1059.56
511.184	1056.56
511.401	1041.56
511.617	1063.56
511.833	1066.56
512.049	1072.56
512.265	1098.56
512.481	1105.56
512.698	1244.56
512.914	1354.56
513.13	1242.56
513.346	1128.56
513.562	1172.56
513.778	1201.56
513.994	1172.56
514.21	1242.56
514.426	1214.56
514.642	1165.56
514.858	1139.56
515.074	1202.56
515.29	1300.56
515.506	1456.56
515.721	1311.56
515.937	1249.56
516.153	1190.56
516.369	1172.56
516.585	1205.56
516.801	1392.56
517.016	1549.56
517.232	1508.56
517.448	1533.56
517.664	1367.56
517.879	1332.56
518.095	1296.56
518.311	1311.56
518.527	1340.56
518.742	1368.56
518.958	1443.56
519.173	1411.56
519.389	1397.56
519.605	1415.56
519.82	1540.56
520.036	1714.56
520.251	1681.56
520.467	1608.56
520.682	2357.56
520.898	2851.56
521.113	2706.56
521.329	1731.56
521.544	1511.56
521.76	1494.56
521.975	1329.56
522.19	1281.56
522.406	1307.56
522.621	1441.56
522.836	1502.56
523.052	1519.56
523.267	1276.56
523.482	1309.56
523.698	1373.56
523.913	1341.56
524.128	1197.56
524.343	1171.56
524.559	1184.56
524.774	1117.56
524.989	1193.56
525.204	1219.56
525.419	1291.56
525.634	1225.56
525.849	1250.56
526.064	1247.56
526.28	1254.56
526.495	1466.56
526.71	1520.56
526.925	1335.56
527.14	1429.56
527.355	1358.56
527.57	1146.56
527.785	1221.56
527.999	1146.56
528.214	1104.56
528.429	1099.56
528.644	1034.56
528.859	994.56
529.074	981.56
529.289	1002.56
529.503	1020.56
529.718	1050.56
529.933	1191.56
530.148	1183.56
530.363	1061.56
530.577	1003.56
530.792	1019.56
531.007	1016.56
531.221	1009.56
531.436	994.56
531.651	998.56
531.865	1052.56
532.08	1048.56
532.295	1031.56
532.509	1039.56
532.724	1167.56
532.938	1311.56
533.153	1508.56
533.367	1218.56
533.582	1176.56
533.796	1073.56
534.011	1053.56
534.225	1055.56
534.44	1064.56
534.654	1120.56
534.868	1251.56
535.083	1134.56
535.297	1035.56
535.511	1034.56
535.726	1177.56
535.94	1087.56
536.154	1046.56
536.369	1023.56
536.583	1020.56
536.797	1032.56
537.011	1018.56
537.225	1071.56
537.44	1178.56
537.654	1058.56
537.868	1015.56
538.082	1021.56
538.296	1045.56
538.51	1091.56
538.724	1129.56
538.938	1071.56
539.153	1000.56
539.367	970.56
539.581	975.56
539.795	1060.56
540.009	1149.56
540.222	1058.56
540.436	1044.56
540.65	1148.56
540.864	1147.56
541.078	1184.56
541.292	1347.56
541.506	1151.56
541.72	1067.56
541.934	1032.56
542.147	1046.56
542.361	1015.56
542.575	1085.56
542.789	1047.56
543.002	976.56
543.216	1035.56
543.43	961.56
543.644	937.56
543.857	962.56
544.071	953.56
544.285	956.56
544.498	919.56
544.712	900.56
544.925	992.56
545.139	964.56
545.352	923.56
545.566	927.56
545.779	1042.56
545.993	963.56
546.206	894.56
546.42	902.56
546.633	898.56
546.847	864.56
547.06	862.56
547.274	841.56
547.487	885.56
547.7	970.56
547.914	991.56
548.127	1122.56
548.34	1069.56
548.554	973.56
548.767	992.56
548.98	1085.56
549.193	978.56
549.407	1000.56
549.62	1180.56
549.833	1079.56
550.046	1147.56
550.259	1130.56
550.473	1031.56
550.686	999.56
550.899	975.56
551.112	996.56
551.325	1021.56
551.538	1105.56
551.751	959.56
551.964	903.56
552.177	896.56
552.39	894.56
552.603	869.56
552.816	934.56
553.029	889.56
553.242	894.56
553.455	972.56
553.667	1015.56
553.88	969.56
554.093	894.56
554.306	848.56
554.519	818.56
554.732	807.56
554.944	789.56
555.157	785.56
555.37	780.56
555.583	796.56
555.795	806.56
556.008	804.56
556.221	830.56
556.433	794.56
556.646	782.56
556.859	787.56
557.071	811.56
557.284	838.56
557.496	831.56
557.709	820.56
557.921	801.56
558.134	770.56
558.346	770.56
558.559	741.56
558.771	749.56
558.984	849.56
559.196	779.56
559.409	756.56
559.621	728.56
559.833	713.56
560.046	736.56
560.258	686.56
560.47	736.56
560.683	695.56
560.895	686.56
561.107	665.56
561.32	695.56
561.532	695.56
561.744	772.56
561.956	793.56
562.168	709.56
562.381	711.56
562.593	735.56
562.805	749.56
563.017	716.56
563.229	661.56
563.441	676.56
563.653	702.56
563.865	707.56
564.077	701.56
564.289	714.56
564.501	722.56
564.713	754.56
564.925	723.56
565.137	736.56
565.349	688.56
565.561	730.56
565.773	717.56
565.985	744.56
566.197	784.56
566.408	852.56
566.62	874.56
566.832	838.56
567.044	881.56
567.255	921.56
567.467	964.56
567.679	887.56
567.891	911.56
568.102	901.56
568.314	905.56
568.526	843.56
568.737	841.56
568.949	903.56
569.161	795.56
569.372	705.56
569.584	705.56
569.795	705.56
570.007	714.56
570.218	753.56
570.43	734.56
570.641	725.56
570.853	681.56
571.064	660.56
571.276	703.56
571.487	733.56
571.698	690.56
571.91	670.56
572.121	665.56
572.333	645.56
572.544	615.56
572.755	622.56
572.966	627.56
573.178	624.56
573.389	642.56
573.6	672.56
573.811	629.56
574.023	613.56
574.234	597.56
574.445	586.56
574.656	578.56
574.867	567.56
575.078	606.56
575.289	601.56
575.501	627.56
575.712	586.56
575.923	559.56
576.134	561.56
576.345	541.56
576.556	576.56
576.767	564.56
576.978	550.56
577.188	503.56
577.399	522.56
577.61	554.56
577.821	530.56
578.032	559.56
578.243	616.56
578.454	565.56
578.665	569.56
578.875	577.56
579.086	551.56
579.297	566.56
579.508	570.56
579.718	586.56
579.929	566.56
580.14	528.56
580.35	526.56
580.561	501.56
580.772	506.56
580.982	480.56
581.193	490.56
581.403	481.56
581.614	468.56
581.825	469.56
582.035	485.56
582.246	456.56
582.456	459.56
582.667	498.56
582.877	467.56
583.087	480.56
583.298	459.56
583.508	460.56
583.719	476.56
583.929	465.56
584.139	457.56
584.35	462.56
584.56	499.56
584.77	495.56
584.981	473.56
585.191	474.56
585.401	480.56
585.611	489.56
585.821	501.56
586.032	507.56
586.242	492.56
586.452	495.56
586.662	472.56
586.872	505.56
587.082	491.56
587.292	481.56
587.502	471.56
587.713	471.56
587.923	468.56
588.133	503.56
588.343	454.56
588.553	442.56
588.762	482.56
588.972	467.56
589.182	460.56
589.392	455.56
589.602	476.56
589.812	487.56
590.022	518.56
590.232	521.56
590.441	486.56
590.651	477.56
590.861	461.56
591.071	459.56
591.281	466.56
591.49	451.56
591.7	464.56
591.91	440.56
592.119	466.56
592.329	481.56
592.539	483.56
592.748	468.56
592.958	467.56
593.167	477.56
593.377	466.56
593.587	490.56
593.796	480.56
594.006	468.56
594.215	455.56
594.424	481.56
594.634	514.56
594.843	493.56
595.053	463.56
595.262	458.56
595.472	423.56
595.681	443.56
595.89	438.56
596.1	455.56
596.309	449.56
596.518	448.56
596.727	447.56
596.937	447.56
597.146	446.56
597.355	448.56
597.564	427.56
597.774	426.56
597.983	406.56
598.192	423.56
598.401	396.56
598.61	402.56
598.819	402.56
599.028	382.56
599.237	383.56
599.446	378.56
599.655	395.56
599.864	379.56
600.073	365.56
600.282	392.56
600.491	410.56
600.7	377.56
600.909	390.56
601.118	405.56
601.327	372.56
601.536	390.56
601.745	399.56
601.953	405.56
602.162	403.56
602.371	395.56
602.58	414.56
602.789	400.56
602.997	399.56
603.206	392.56
603.415	379.56
603.623	357.56
603.832	375.56
604.041	382.56
604.249	379.56
604.458	371.56
604.666	365.56
604.875	348.56
605.084	356.56
605.292	360.56
605.501	377.56
605.709	389.56
605.918	380.56
606.126	369.56
606.334	351.56
606.543	381.56
606.751	366.56
606.96	338.56
607.168	361.56
607.376	359.56
607.585	350.56
607.793	379.56
608.001	333.56
608.21	369.56
608.418	389.56
608.626	367.56
608.834	369.56
609.043	359.56
609.251	354.56
609.459	321.56
609.667	327.56
609.875	366.56
610.083	331.56
610.291	357.56
610.499	361.56
610.707	324.56
610.916	354.56
611.124	325.56
611.332	338.56
611.54	329.56
611.748	333.56
611.955	341.56
612.163	336.56
612.371	326.56
612.579	309.56
612.787	332.56
612.995	335.56
613.203	319.56
613.411	325.56
613.618	316.56
613.826	345.56
614.034	347.56
614.242	347.56
614.449	331.56
614.657	336.56
614.865	347.56
615.072	339.56
615.28	336.56
615.488	339.56
615.695	326.56
615.903	335.56
616.111	352.56
616.318	345.56
616.526	330.56
616.733	328.56
616.941	330.56
617.148	317.56
617.356	327.56
617.563	326.56
617.771	331.56
617.978	333.56
618.185	323.56
618.393	311.56
618.6	321.56
618.807	323.56
619.015	323.56
619.222	323.56
619.429	329.56
619.637	307.56
619.844	313.56
620.051	289.56
620.258	307.56
620.466	305.56
620.673	305.56
620.88	297.56
621.087	293.56
621.294	311.56
621.501	310.56
621.708	315.56
621.915	304.56
622.122	308.56
622.329	290.56
622.536	286.56
622.743	280.56
622.95	297.56
623.157	303.56
623.364	316.56
623.571	318.56
623.778	295.56
623.985	319.56
624.192	304.56
624.399	325.56
624.606	293.56
624.812	291.56
625.019	310.56
625.226	306.56
625.433	318.56
625.639	282.56
625.846	296.56
626.053	292.56
626.259	261.56
626.466	265.56
626.673	323.56
626.879	290.56
627.086	261.56
627.293	266.56
627.499	296.56
627.706	283.56
627.912	276.56
628.119	280.56
628.325	270.56
628.532	277.56
628.738	260.56
628.945	266.56
629.151	282.56
629.357	259.56
629.564	263.56
629.77	270.56
629.976	266.56
630.183	259.56
630.389	267.56
630.595	273.56
630.802	241.56
631.008	252.56
631.214	261.56
631.42	258.56
631.627	253.56
631.833	262.56
632.039	272.56
632.245	266.56
632.451	256.56
632.657	265.56
632.863	243.56
633.069	237.56
633.275	233.56
633.481	226.56
633.688	253.56
633.893	272.56
634.099	249.56
634.305	241.56
634.511	230.56
634.717	226.56
634.923	238.56
635.129	219.56
635.335	225.56
635.541	238.56
635.747	237.56
635.952	238.56
636.158	246.56
636.364	250.56
636.57	242.56
636.775	230.56
636.981	243.56
637.187	226.56
637.392	243.56
637.598	231.56
637.804	216.56
638.009	226.56
638.215	233.56
638.421	227.56
638.626	230.56
638.832	224.56
639.037	228.56
639.243	225.56
639.448	227.56
639.654	259.56
639.859	244.56
640.065	219.56
640.27	256.56
640.475	228.56
640.681	219.56
640.886	226.56
641.091	216.56
641.297	230.56
641.502	218.56
641.707	241.56
641.913	216.56
642.118	234.56
642.323	221.56
642.528	222.56
642.733	229.56
642.939	220.56
643.144	215.56
643.349	223.56
643.554	214.56
643.759	203.56
643.964	229.56
644.169	224.56
644.374	209.56
644.579	215.56
644.784	197.56
644.989	195.56
645.194	226.56
645.399	199.56
645.604	218.56
645.809	219.56
646.014	217.56
646.219	222.56
646.423	223.56
646.628	212.56
646.833	208.56
647.038	189.56
647.243	199.56
647.447	205.56
647.652	236.56
647.857	209.56
648.062	200.56
648.266	210.56
648.471	201.56
648.676	217.56
648.88	198.56
649.085	223.56
649.289	210.56
649.494	215.56
649.698	233.56
649.903	238.56
650.107	211.56
650.312	215.56
650.516	193.56
650.721	172.56
650.925	190.56
651.13	178.56
651.334	191.56
651.539	186.56
651.743	185.56
651.947	169.56
652.152	183.56
652.356	179.56
652.56	179.56
652.764	185.56
652.969	174.56
653.173	178.56
653.377	171.56
653.581	164.56
653.785	155.56
653.99	167.56
654.194	153.56
654.398	150.56
654.602	164.56
654.806	150.56
655.01	157.56
655.214	160.56
655.418	144.56
655.622	156.56
655.826	162.56
656.03	173.56
656.234	175.56
656.438	168.56
656.642	159.56
656.846	133.56
657.049	145.56
657.253	137.56
657.457	145.56
657.661	127.56
657.865	149.56
658.068	132.56
658.272	137.56
658.476	121.56
658.68	111.56
658.883	117.56
659.087	105.56
659.291	109.56
659.494	117.56
659.698	119.56
659.901	123.56
660.105	112.56
660.309	96.56
660.512	99.56
660.716	90.56
660.919	121.56
661.123	101.56
661.326	81.56
661.53	97.56
661.733	96.56
661.936	100.56
662.14	99.56
662.343	102.56
662.546	102.56
662.75	95.56
662.953	79.56
663.156	78.56
663.36	81.56
663.563	81.56
663.766	81.56
663.969	74.56
664.173	73.56
664.376	76.56
664.579	87.56
664.782	80.56
664.985	74.56
665.188	85.56
665.391	85.56
665.594	94.56
665.797	91.56
666	80.56
666.203	81.56
666.406	88.56
666.609	98.56
666.812	86.56
667.015	76.56
667.218	80.56
667.421	92.56
667.624	75.56
667.827	79.56
668.03	74.56
668.232	64.56
668.435	85.56
668.638	74.56
668.841	80.56
669.043	79.56
669.246	69.56
669.449	85.56
669.651	75.56
669.854	85.56
670.057	92.56
670.259	72.56
670.462	77.56
670.665	96.56
670.867	87.56
671.07	88.56
671.272	89.56
671.475	98.56
671.677	96.56
671.88	84.56
672.082	85.56
672.284	79.56
672.487	97.56
672.689	82.56
672.892	83.56
