Data from NiCl2@0.25M.TitratingCurve.Agarose3%dH2O.NegLispCup.LampEnergy10.LIBS07252019_HRD10591_18-26-04-574.txt Node
Date: Thu Jul 25 18:26:04 EDT 2019
User: cochatt
Spectrometer: HR+D1059
Trigger mode: 1
Integration Time (sec): 1.000000E-1
Scans to average: 1
Electric dark correction enabled: true
Nonlinearity correction enabled: false
Boxcar width: 0
XAxis mode: Wavelengths
Number of Pixels in Spectrum: 2048
>>>>>Begin Spectral Data<<<<<
223.165	-3.25
223.4	-3.25
223.635	-3.25
223.869	-17.25
224.104	-29.25
224.338	-13.25
224.573	-9.25
224.808	-9.25
225.042	-2.25
225.277	-21.25
225.511	-8.25
225.746	-8.25
225.98	-13.25
226.215	13.75
226.449	19.75
226.683	20.75
226.918	35.75
227.152	44.75
227.387	36.75
227.621	37.75
227.856	50.75
228.09	67.75
228.324	41.75
228.559	54.75
228.793	70.75
229.027	133.75
229.262	130.75
229.496	150.75
229.73	154.75
229.964	153.75
230.199	154.75
230.433	151.75
230.667	157.75
230.901	181.75
231.136	164.75
231.37	179.75
231.604	189.75
231.838	178.75
232.072	184.75
232.306	175.75
232.541	199.75
232.775	179.75
233.009	186.75
233.243	187.75
233.477	193.75
233.711	200.75
233.945	178.75
234.179	188.75
234.413	196.75
234.647	213.75
234.881	212.75
235.115	186.75
235.349	201.75
235.583	205.75
235.817	194.75
236.051	200.75
236.285	197.75
236.519	203.75
236.753	188.75
236.987	199.75
237.221	188.75
237.455	204.75
237.689	188.75
237.922	196.75
238.156	209.75
238.39	204.75
238.624	227.75
238.858	236.75
239.091	220.75
239.325	229.75
239.559	228.75
239.793	251.75
240.027	215.75
240.26	222.75
240.494	231.75
240.728	242.75
240.961	255.75
241.195	241.75
241.429	238.75
241.662	262.75
241.896	266.75
242.13	247.75
242.363	276.75
242.597	254.75
242.83	278.75
243.064	272.75
243.298	259.75
243.531	278.75
243.765	294.75
243.998	287.75
244.232	293.75
244.465	303.75
244.699	277.75
244.932	279.75
245.166	296.75
245.399	289.75
245.633	295.75
245.866	294.75
246.099	293.75
246.333	329.75
246.566	289.75
246.8	313.75
247.033	306.75
247.266	314.75
247.5	332.75
247.733	311.75
247.966	317.75
248.2	317.75
248.433	319.75
248.666	305.75
248.899	330.75
249.133	318.75
249.366	334.75
249.599	334.75
249.832	347.75
250.066	356.75
250.299	353.75
250.532	345.75
250.765	341.75
250.998	337.75
251.231	355.75
251.465	338.75
251.698	357.75
251.931	345.75
252.164	361.75
252.397	346.75
252.63	357.75
252.863	374.75
253.096	385.75
253.329	378.75
253.562	373.75
253.795	381.75
254.028	370.75
254.261	382.75
254.494	378.75
254.727	370.75
254.96	389.75
255.193	382.75
255.426	387.75
255.659	404.75
255.892	404.75
256.124	403.75
256.357	420.75
256.59	400.75
256.823	418.75
257.056	407.75
257.289	419.75
257.521	402.75
257.754	399.75
257.987	439.75
258.22	410.75
258.452	412.75
258.685	437.75
258.918	406.75
259.151	413.75
259.383	425.75
259.616	440.75
259.849	423.75
260.081	430.75
260.314	442.75
260.547	438.75
260.779	447.75
261.012	454.75
261.244	446.75
261.477	457.75
261.71	448.75
261.942	477.75
262.175	446.75
262.407	453.75
262.64	476.75
262.872	472.75
263.105	469.75
263.337	460.75
263.57	474.75
263.802	467.75
264.035	476.75
264.267	478.75
264.499	457.75
264.732	467.75
264.964	496.75
265.197	483.75
265.429	486.75
265.661	490.75
265.894	491.75
266.126	510.75
266.358	500.75
266.591	481.75
266.823	511.75
267.055	494.75
267.287	502.75
267.52	495.75
267.752	509.75
267.984	527.75
268.216	509.75
268.448	517.75
268.681	517.75
268.913	532.75
269.145	513.75
269.377	485.75
269.609	531.75
269.841	525.75
270.073	507.75
270.306	534.75
270.538	542.75
270.77	513.75
271.002	528.75
271.234	536.75
271.466	563.75
271.698	546.75
271.93	560.75
272.162	550.75
272.394	549.75
272.626	555.75
272.858	560.75
273.09	549.75
273.322	595.75
273.553	561.75
273.785	573.75
274.017	566.75
274.249	604.75
274.481	590.75
274.713	576.75
274.945	574.75
275.176	586.75
275.408	610.75
275.64	597.75
275.872	609.75
276.104	620.75
276.335	591.75
276.567	580.75
276.799	609.75
277.031	628.75
277.262	625.75
277.494	617.75
277.726	619.75
277.957	620.75
278.189	606.75
278.421	642.75
278.652	633.75
278.884	619.75
279.115	614.75
279.347	633.75
279.579	613.75
279.81	620.75
280.042	641.75
280.273	649.75
280.505	638.75
280.736	661.75
280.968	639.75
281.199	646.75
281.431	682.75
281.662	697.75
281.894	667.75
282.125	669.75
282.356	681.75
282.588	675.75
282.819	682.75
283.051	673.75
283.282	670.75
283.513	703.75
283.745	703.75
283.976	699.75
284.207	680.75
284.439	689.75
284.67	680.75
284.901	703.75
285.132	675.75
285.364	711.75
285.595	702.75
285.826	698.75
286.057	716.75
286.288	705.75
286.52	705.75
286.751	719.75
286.982	737.75
287.213	730.75
287.444	738.75
287.675	741.75
287.906	714.75
288.138	722.75
288.369	730.75
288.6	724.75
288.831	720.75
289.062	765.75
289.293	753.75
289.524	750.75
289.755	759.75
289.986	745.75
290.217	731.75
290.448	735.75
290.679	750.75
290.91	747.75
291.141	742.75
291.371	765.75
291.602	744.75
291.833	726.75
292.064	747.75
292.295	738.75
292.526	728.75
292.757	750.75
292.987	777.75
293.218	759.75
293.449	781.75
293.68	752.75
293.91	755.75
294.141	741.75
294.372	763.75
294.603	742.75
294.833	776.75
295.064	769.75
295.295	751.75
295.525	777.75
295.756	789.75
295.987	779.75
296.217	799.75
296.448	787.75
296.679	794.75
296.909	778.75
297.14	790.75
297.37	787.75
297.601	823.75
297.831	791.75
298.062	793.75
298.292	828.75
298.523	844.75
298.753	841.75
298.984	829.75
299.214	826.75
299.445	813.75
299.675	818.75
299.905	825.75
300.136	821.75
300.366	832.75
300.597	846.75
300.827	868.75
301.057	855.75
301.288	861.75
301.518	900.75
301.748	881.75
301.979	893.75
302.209	874.75
302.439	841.75
302.669	862.75
302.9	852.75
303.13	832.75
303.36	864.75
303.59	874.75
303.82	898.75
304.051	879.75
304.281	856.75
304.511	863.75
304.741	854.75
304.971	867.75
305.201	828.75
305.431	871.75
305.661	852.75
305.891	836.75
306.121	856.75
306.352	860.75
306.582	835.75
306.812	805.75
307.042	849.75
307.272	823.75
307.502	823.75
307.731	853.75
307.961	813.75
308.191	805.75
308.421	797.75
308.651	823.75
308.881	842.75
309.111	844.75
309.341	842.75
309.571	862.75
309.8	857.75
310.03	849.75
310.26	811.75
310.49	830.75
310.72	846.75
310.949	851.75
311.179	836.75
311.409	833.75
311.639	873.75
311.868	862.75
312.098	850.75
312.328	862.75
312.557	930.75
312.787	864.75
313.017	861.75
313.246	878.75
313.476	873.75
313.706	919.75
313.935	869.75
314.165	901.75
314.394	921.75
314.624	904.75
314.853	895.75
315.083	893.75
315.312	885.75
315.542	872.75
315.771	907.75
316.001	908.75
316.23	901.75
316.46	870.75
316.689	889.75
316.919	865.75
317.148	892.75
317.377	913.75
317.607	898.75
317.836	891.75
318.065	863.75
318.295	872.75
318.524	866.75
318.753	890.75
318.983	904.75
319.212	879.75
319.441	895.75
319.67	885.75
319.9	895.75
320.129	869.75
320.358	856.75
320.587	881.75
320.816	880.75
321.046	869.75
321.275	919.75
321.504	891.75
321.733	892.75
321.962	903.75
322.191	897.75
322.42	875.75
322.649	934.75
322.878	890.75
323.108	875.75
323.337	909.75
323.566	919.75
323.795	897.75
324.024	932.75
324.253	904.75
324.482	926.75
324.71	947.75
324.939	897.75
325.168	931.75
325.397	936.75
325.626	942.75
325.855	956.75
326.084	962.75
326.313	959.75
326.542	977.75
326.77	1004.75
326.999	970.75
327.228	978.75
327.457	955.75
327.686	970.75
327.914	958.75
328.143	958.75
328.372	964.75
328.6	979.75
328.829	943.75
329.058	950.75
329.287	956.75
329.515	975.75
329.744	999.75
329.972	1004.75
330.201	1015.75
330.43	966.75
330.658	992.75
330.887	998.75
331.115	1020.75
331.344	1035.75
331.572	1031.75
331.801	1023.75
332.03	1053.75
332.258	1093.75
332.486	1093.75
332.715	1123.75
332.943	1179.75
333.172	1204.75
333.4	1231.75
333.629	1242.75
333.857	1298.75
334.085	1310.75
334.314	1329.75
334.542	1285.75
334.771	1302.75
334.999	1237.75
335.227	1250.75
335.455	1249.75
335.684	1242.75
335.912	1211.75
336.14	1208.75
336.369	1195.75
336.597	1205.75
336.825	1189.75
337.053	1172.75
337.281	1175.75
337.51	1157.75
337.738	1163.75
337.966	1126.75
338.194	1089.75
338.422	1070.75
338.65	1073.75
338.878	1069.75
339.106	1085.75
339.334	1082.75
339.562	1053.75
339.79	1014.75
340.018	1057.75
340.246	1039.75
340.474	1046.75
340.702	1023.75
340.93	1065.75
341.158	1067.75
341.386	1043.75
341.614	1043.75
341.842	1002.75
342.07	996.75
342.298	1002.75
342.526	978.75
342.754	1020.75
342.981	1039.75
343.209	1047.75
343.437	1086.75
343.665	1140.75
343.893	1198.75
344.12	1257.75
344.348	1231.75
344.576	1199.75
344.804	1134.75
345.031	1085.75
345.259	1027.75
345.487	1062.75
345.714	1039.75
345.942	1036.75
346.17	998.75
346.397	1025.75
346.625	983.75
346.853	961.75
347.08	950.75
347.308	960.75
347.535	993.75
347.763	990.75
347.99	995.75
348.218	998.75
348.445	948.75
348.673	986.75
348.9	963.75
349.128	980.75
349.355	949.75
349.583	1012.75
349.81	954.75
350.037	952.75
350.265	959.75
350.492	931.75
350.72	964.75
350.947	947.75
351.174	948.75
351.402	937.75
351.629	934.75
351.856	933.75
352.083	948.75
352.311	955.75
352.538	945.75
352.765	947.75
352.992	914.75
353.22	909.75
353.447	925.75
353.674	932.75
353.901	927.75
354.128	923.75
354.355	921.75
354.583	929.75
354.81	933.75
355.037	946.75
355.264	929.75
355.491	951.75
355.718	933.75
355.945	929.75
356.172	938.75
356.399	937.75
356.626	960.75
356.853	990.75
357.08	950.75
357.307	918.75
357.534	940.75
357.761	929.75
357.988	961.75
358.215	929.75
358.441	947.75
358.668	920.75
358.895	951.75
359.122	944.75
359.349	945.75
359.576	940.75
359.802	963.75
360.029	947.75
360.256	960.75
360.483	934.75
360.709	917.75
360.936	968.75
361.163	961.75
361.39	961.75
361.616	953.75
361.843	933.75
362.07	937.75
362.296	937.75
362.523	941.75
362.749	928.75
362.976	935.75
363.203	963.75
363.429	945.75
363.656	965.75
363.882	950.75
364.109	919.75
364.335	913.75
364.562	952.75
364.788	967.75
365.015	936.75
365.241	936.75
365.468	915.75
365.694	958.75
365.92	918.75
366.147	943.75
366.373	933.75
366.599	960.75
366.826	945.75
367.052	924.75
367.278	911.75
367.505	926.75
367.731	918.75
367.957	929.75
368.184	956.75
368.41	981.75
368.636	972.75
368.862	966.75
369.089	967.75
369.315	963.75
369.541	972.75
369.767	971.75
369.993	981.75
370.219	996.75
370.445	979.75
370.672	1012.75
370.898	1031.75
371.124	1026.75
371.35	1021.75
371.576	1038.75
371.802	1051.75
372.028	1025.75
372.254	1019.75
372.48	1034.75
372.706	1063.75
372.932	1060.75
373.158	1088.75
373.384	1057.75
373.61	1029.75
373.835	1027.75
374.061	1066.75
374.287	1050.75
374.513	1014.75
374.739	1063.75
374.965	1105.75
375.191	1143.75
375.416	1164.75
375.642	1090.75
375.868	1091.75
376.094	1092.75
376.319	1042.75
376.545	1094.75
376.771	1033.75
376.997	1041.75
377.222	1039.75
377.448	1031.75
377.674	1010.75
377.899	1057.75
378.125	1037.75
378.35	1033.75
378.576	1045.75
378.802	1014.75
379.027	1044.75
379.253	1043.75
379.478	1003.75
379.704	1000.75
379.929	1016.75
380.155	983.75
380.38	1010.75
380.606	1035.75
380.831	1013.75
381.057	1044.75
381.282	1029.75
381.507	1002.75
381.733	1042.75
381.958	1017.75
382.184	1027.75
382.409	1044.75
382.634	1026.75
382.86	1083.75
383.085	1106.75
383.31	1087.75
383.535	1125.75
383.761	1133.75
383.986	1131.75
384.211	1148.75
384.436	1171.75
384.662	1206.75
384.887	1237.75
385.112	1219.75
385.337	1225.75
385.562	1225.75
385.787	1247.75
386.013	1246.75
386.238	1252.75
386.463	1304.75
386.688	1297.75
386.913	1250.75
387.138	1277.75
387.363	1262.75
387.588	1211.75
387.813	1241.75
388.038	1260.75
388.263	1244.75
388.488	1250.75
388.713	1274.75
388.938	1252.75
389.163	1223.75
389.387	1239.75
389.612	1235.75
389.837	1228.75
390.062	1205.75
390.287	1257.75
390.512	1241.75
390.736	1273.75
390.961	1279.75
391.186	1272.75
391.411	1304.75
391.636	1353.75
391.86	1393.75
392.085	1422.75
392.31	1405.75
392.534	1405.75
392.759	1373.75
392.984	1316.75
393.208	1317.75
393.433	1311.75
393.658	1339.75
393.882	1351.75
394.107	1337.75
394.331	1327.75
394.556	1347.75
394.78	1335.75
395.005	1321.75
395.229	1382.75
395.454	1420.75
395.678	1423.75
395.903	1447.75
396.127	1415.75
396.352	1384.75
396.576	1387.75
396.801	1386.75
397.025	1373.75
397.249	1385.75
397.474	1455.75
397.698	1443.75
397.922	1431.75
398.147	1430.75
398.371	1473.75
398.595	1509.75
398.82	1610.75
399.044	1674.75
399.268	1816.75
399.492	2069.75
399.717	2263.75
399.941	2326.75
400.165	2163.75
400.389	2023.75
400.613	1875.75
400.837	1738.75
401.062	1738.75
401.286	1620.75
401.51	1609.75
401.734	1658.75
401.958	1614.75
402.182	1627.75
402.406	1653.75
402.63	1640.75
402.854	1679.75
403.078	1665.75
403.302	1733.75
403.526	1725.75
403.75	1733.75
403.974	1775.75
404.198	1783.75
404.422	1758.75
404.645	1786.75
404.869	1741.75
405.093	1814.75
405.317	1755.75
405.541	1767.75
405.765	1763.75
405.988	1755.75
406.212	1801.75
406.436	1788.75
406.66	1793.75
406.883	1817.75
407.107	1887.75
407.331	2033.75
407.555	2064.75
407.778	2079.75
408.002	2030.75
408.226	2003.75
408.449	1973.75
408.673	1861.75
408.896	1870.75
409.12	1797.75
409.344	1827.75
409.567	1810.75
409.791	1875.75
410.014	1820.75
410.238	1781.75
410.461	1771.75
410.685	1744.75
410.908	1710.75
411.132	1702.75
411.355	1633.75
411.578	1659.75
411.802	1659.75
412.025	1679.75
412.249	1697.75
412.472	1654.75
412.695	1685.75
412.919	1626.75
413.142	1603.75
413.365	1604.75
413.589	1637.75
413.812	1585.75
414.035	1565.75
414.258	1614.75
414.482	1635.75
414.705	1645.75
414.928	1617.75
415.151	1610.75
415.374	1614.75
415.597	1591.75
415.821	1572.75
416.044	1530.75
416.267	1544.75
416.49	1527.75
416.713	1490.75
416.936	1531.75
417.159	1529.75
417.382	1566.75
417.605	1542.75
417.828	1554.75
418.051	1529.75
418.274	1565.75
418.497	1567.75
418.72	1609.75
418.943	1599.75
419.166	1688.75
419.389	1852.75
419.611	1808.75
419.834	1742.75
420.057	1642.75
420.28	1593.75
420.503	1547.75
420.726	1531.75
420.948	1544.75
421.171	1553.75
421.394	1543.75
421.617	1515.75
421.839	1544.75
422.062	1582.75
422.285	1522.75
422.507	1581.75
422.73	1555.75
422.953	1563.75
423.175	1605.75
423.398	1580.75
423.621	1595.75
423.843	1601.75
424.066	1612.75
424.288	1595.75
424.511	1608.75
424.733	1598.75
424.956	1543.75
425.178	1574.75
425.401	1600.75
425.623	1599.75
425.846	1518.75
426.068	1542.75
426.291	1515.75
426.513	1502.75
426.735	1462.75
426.958	1491.75
427.18	1424.75
427.402	1438.75
427.625	1446.75
427.847	1400.75
428.069	1407.75
428.292	1413.75
428.514	1426.75
428.736	1361.75
428.958	1405.75
429.181	1362.75
429.403	1370.75
429.625	1376.75
429.847	1365.75
430.069	1382.75
430.292	1369.75
430.514	1343.75
430.736	1345.75
430.958	1381.75
431.18	1397.75
431.402	1379.75
431.624	1379.75
431.846	1400.75
432.068	1399.75
432.29	1443.75
432.512	1404.75
432.734	1419.75
432.956	1409.75
433.178	1397.75
433.4	1404.75
433.622	1404.75
433.844	1394.75
434.066	1410.75
434.287	1421.75
434.509	1477.75
434.731	1509.75
434.953	1552.75
435.175	1542.75
435.397	1555.75
435.618	1483.75
435.84	1440.75
436.062	1410.75
436.284	1416.75
436.505	1395.75
436.727	1410.75
436.949	1375.75
437.17	1395.75
437.392	1359.75
437.614	1339.75
437.835	1321.75
438.057	1346.75
438.278	1338.75
438.5	1347.75
438.721	1326.75
438.943	1317.75
439.165	1348.75
439.386	1354.75
439.608	1373.75
439.829	1382.75
440.05	1396.75
440.272	1384.75
440.493	1381.75
440.715	1422.75
440.936	1431.75
441.158	1453.75
441.379	1468.75
441.6	1541.75
441.822	1571.75
442.043	1534.75
442.264	1513.75
442.486	1473.75
442.707	1476.75
442.928	1522.75
443.149	1509.75
443.371	1484.75
443.592	1507.75
443.813	1544.75
444.034	1565.75
444.255	1612.75
444.476	1690.75
444.698	1757.75
444.919	1751.75
445.14	1779.75
445.361	1706.75
445.582	1601.75
445.803	1527.75
446.024	1530.75
446.245	1492.75
446.466	1438.75
446.687	1430.75
446.908	1421.75
447.129	1377.75
447.35	1381.75
447.571	1319.75
447.792	1303.75
448.013	1296.75
448.234	1263.75
448.455	1238.75
448.675	1279.75
448.896	1272.75
449.117	1258.75
449.338	1241.75
449.559	1202.75
449.779	1229.75
450	1202.75
450.221	1220.75
450.442	1245.75
450.662	1266.75
450.883	1237.75
451.104	1283.75
451.324	1277.75
451.545	1247.75
451.766	1260.75
451.986	1247.75
452.207	1237.75
452.428	1237.75
452.648	1251.75
452.869	1242.75
453.089	1235.75
453.31	1232.75
453.53	1203.75
453.751	1214.75
453.971	1206.75
454.192	1206.75
454.412	1218.75
454.633	1192.75
454.853	1205.75
455.073	1169.75
455.294	1193.75
455.514	1144.75
455.734	1152.75
455.955	1153.75
456.175	1170.75
456.395	1165.75
456.616	1135.75
456.836	1191.75
457.056	1125.75
457.276	1141.75
457.497	1203.75
457.717	1203.75
457.937	1165.75
458.157	1205.75
458.377	1221.75
458.598	1270.75
458.818	1300.75
459.038	1315.75
459.258	1345.75
459.478	1413.75
459.698	1447.75
459.918	1463.75
460.138	1522.75
460.358	1573.75
460.578	1633.75
460.798	1652.75
461.018	1638.75
461.238	1655.75
461.458	1653.75
461.678	1620.75
461.898	1643.75
462.118	1705.75
462.338	1771.75
462.558	1813.75
462.777	1851.75
462.997	2012.75
463.217	2100.75
463.437	2162.75
463.657	2021.75
463.876	1980.75
464.096	1966.75
464.316	1921.75
464.536	1913.75
464.755	1871.75
464.975	1803.75
465.195	1701.75
465.414	1578.75
465.634	1549.75
465.854	1469.75
466.073	1432.75
466.293	1402.75
466.512	1341.75
466.732	1349.75
466.951	1360.75
467.171	1322.75
467.391	1331.75
467.61	1307.75
467.829	1283.75
468.049	1307.75
468.268	1288.75
468.488	1294.75
468.707	1276.75
468.927	1275.75
469.146	1226.75
469.365	1301.75
469.585	1295.75
469.804	1320.75
470.023	1338.75
470.243	1337.75
470.462	1361.75
470.681	1332.75
470.901	1386.75
471.12	1380.75
471.339	1337.75
471.558	1313.75
471.777	1305.75
471.997	1322.75
472.216	1306.75
472.435	1263.75
472.654	1261.75
472.873	1229.75
473.092	1235.75
473.311	1220.75
473.53	1244.75
473.749	1236.75
473.968	1243.75
474.187	1222.75
474.406	1236.75
474.625	1262.75
474.844	1250.75
475.063	1262.75
475.282	1271.75
475.501	1261.75
475.72	1265.75
475.939	1253.75
476.158	1279.75
476.377	1313.75
476.596	1325.75
476.814	1312.75
477.033	1301.75
477.252	1368.75
477.471	1367.75
477.69	1403.75
477.908	1449.75
478.127	1484.75
478.346	1497.75
478.564	1510.75
478.783	1565.75
479.002	1577.75
479.22	1558.75
479.439	1572.75
479.658	1588.75
479.876	1568.75
480.095	1605.75
480.313	1644.75
480.532	1664.75
480.751	1631.75
480.969	1593.75
481.188	1593.75
481.406	1517.75
481.624	1508.75
481.843	1461.75
482.061	1490.75
482.28	1452.75
482.498	1424.75
482.717	1416.75
482.935	1445.75
483.153	1437.75
483.372	1452.75
483.59	1417.75
483.808	1470.75
484.027	1430.75
484.245	1493.75
484.463	1478.75
484.681	1497.75
484.9	1467.75
485.118	1525.75
485.336	1491.75
485.554	1514.75
485.772	1498.75
485.99	1540.75
486.209	1537.75
486.427	1541.75
486.645	1551.75
486.863	1547.75
487.081	1525.75
487.299	1504.75
487.517	1505.75
487.735	1480.75
487.953	1504.75
488.171	1507.75
488.389	1521.75
488.607	1470.75
488.825	1472.75
489.043	1453.75
489.261	1461.75
489.479	1494.75
489.696	1506.75
489.914	1500.75
490.132	1499.75
490.35	1490.75
490.568	1499.75
490.786	1521.75
491.003	1547.75
491.221	1526.75
491.439	1534.75
491.657	1503.75
491.874	1515.75
492.092	1549.75
492.31	1513.75
492.527	1573.75
492.745	1571.75
492.963	1566.75
493.18	1558.75
493.398	1598.75
493.615	1553.75
493.833	1617.75
494.05	1608.75
494.268	1602.75
494.485	1629.75
494.703	1597.75
494.92	1637.75
495.138	1610.75
495.355	1635.75
495.573	1654.75
495.79	1648.75
496.008	1661.75
496.225	1674.75
496.442	1687.75
496.66	1731.75
496.877	1749.75
497.094	1761.75
497.312	1826.75
497.529	1859.75
497.746	1929.75
497.963	1965.75
498.181	2019.75
498.398	2147.75
498.615	2302.75
498.832	2462.75
499.049	2586.75
499.267	2818.75
499.484	3017.75
499.701	3371.75
499.918	3686.75
500.135	4075.75
500.352	4421.75
500.569	4619.75
500.786	4585.75
501.003	4367.75
501.22	4044.75
501.437	3690.75
501.654	3285.75
501.871	3073.75
502.088	2840.75
502.305	2613.75
502.522	2422.75
502.739	2366.75
502.956	2206.75
503.172	2116.75
503.389	2008.75
503.606	1964.75
503.823	1952.75
504.04	1898.75
504.256	1921.75
504.473	1959.75
504.69	1931.75
504.907	1865.75
505.123	1791.75
505.34	1750.75
505.557	1667.75
505.773	1660.75
505.99	1633.75
506.207	1543.75
506.423	1506.75
506.64	1482.75
506.856	1469.75
507.073	1446.75
507.289	1446.75
507.506	1450.75
507.722	1440.75
507.939	1411.75
508.155	1386.75
508.372	1355.75
508.588	1346.75
508.805	1339.75
509.021	1385.75
509.238	1357.75
509.454	1346.75
509.67	1337.75
509.887	1316.75
510.103	1305.75
510.319	1277.75
510.536	1290.75
510.752	1258.75
510.968	1289.75
511.184	1300.75
511.401	1279.75
511.617	1285.75
511.833	1255.75
512.049	1257.75
512.265	1285.75
512.481	1324.75
512.698	1270.75
512.914	1284.75
513.13	1282.75
513.346	1275.75
513.562	1294.75
513.778	1289.75
513.994	1310.75
514.21	1316.75
514.426	1320.75
514.642	1310.75
514.858	1359.75
515.074	1367.75
515.29	1358.75
515.506	1373.75
515.721	1390.75
515.937	1432.75
516.153	1447.75
516.369	1483.75
516.585	1513.75
516.801	1535.75
517.016	1643.75
517.232	1673.75
517.448	1727.75
517.664	1822.75
517.879	1829.75
518.095	1762.75
518.311	1772.75
518.527	1693.75
518.742	1649.75
518.958	1571.75
519.173	1552.75
519.389	1472.75
519.605	1450.75
519.82	1427.75
520.036	1410.75
520.251	1339.75
520.467	1331.75
520.682	1346.75
520.898	1301.75
521.113	1284.75
521.329	1285.75
521.544	1260.75
521.76	1268.75
521.975	1210.75
522.19	1250.75
522.406	1223.75
522.621	1183.75
522.836	1203.75
523.052	1223.75
523.267	1191.75
523.482	1189.75
523.698	1183.75
523.913	1156.75
524.128	1198.75
524.343	1198.75
524.559	1189.75
524.774	1159.75
524.989	1178.75
525.204	1171.75
525.419	1182.75
525.634	1165.75
525.849	1149.75
526.064	1167.75
526.28	1150.75
526.495	1170.75
526.71	1155.75
526.925	1176.75
527.14	1153.75
527.355	1150.75
527.57	1165.75
527.785	1179.75
527.999	1158.75
528.214	1142.75
528.429	1131.75
528.644	1162.75
528.859	1162.75
529.074	1138.75
529.289	1149.75
529.503	1141.75
529.718	1122.75
529.933	1140.75
530.148	1182.75
530.363	1167.75
530.577	1123.75
530.792	1135.75
531.007	1168.75
531.221	1173.75
531.436	1147.75
531.651	1132.75
531.865	1151.75
532.08	1148.75
532.295	1142.75
532.509	1155.75
532.724	1130.75
532.938	1185.75
533.153	1153.75
533.367	1115.75
533.582	1123.75
533.796	1115.75
534.011	1147.75
534.225	1139.75
534.44	1127.75
534.654	1124.75
534.868	1127.75
535.083	1112.75
535.297	1107.75
535.511	1092.75
535.726	1116.75
535.94	1109.75
536.154	1090.75
536.369	1078.75
536.583	1082.75
536.797	1097.75
537.011	1091.75
537.225	1060.75
537.44	1025.75
537.654	1057.75
537.868	1044.75
538.082	1041.75
538.296	1043.75
538.51	1033.75
538.724	1060.75
538.938	1035.75
539.153	1057.75
539.367	1050.75
539.581	1046.75
539.795	1033.75
540.009	995.75
540.222	1019.75
540.436	1002.75
540.65	1027.75
540.864	1027.75
541.078	1038.75
541.292	1017.75
541.506	1033.75
541.72	989.75
541.934	1034.75
542.147	1025.75
542.361	1029.75
542.575	1015.75
542.789	1028.75
543.002	999.75
543.216	974.75
543.43	1006.75
543.644	1021.75
543.857	998.75
544.071	1004.75
544.285	1004.75
544.498	1039.75
544.712	1024.75
544.925	1031.75
545.139	1041.75
545.352	1047.75
545.566	1014.75
545.779	1053.75
545.993	1055.75
546.206	1035.75
546.42	1071.75
546.633	1054.75
546.847	1046.75
547.06	1048.75
547.274	1047.75
547.487	1054.75
547.7	1043.75
547.914	1036.75
548.127	1068.75
548.34	1048.75
548.554	1061.75
548.767	1073.75
548.98	1048.75
549.193	1065.75
549.407	1090.75
549.62	1066.75
549.833	1076.75
550.046	1074.75
550.259	1066.75
550.473	1066.75
550.686	1063.75
550.899	1031.75
551.112	1003.75
551.325	1015.75
551.538	1040.75
551.751	1037.75
551.964	1056.75
552.177	1070.75
552.39	1091.75
552.603	1113.75
552.816	1126.75
553.029	1126.75
553.242	1147.75
553.455	1161.75
553.667	1146.75
553.88	1131.75
554.093	1109.75
554.306	1095.75
554.519	1059.75
554.732	1082.75
554.944	1036.75
555.157	1031.75
555.37	1039.75
555.583	988.75
555.795	970.75
556.008	949.75
556.221	939.75
556.433	917.75
556.646	919.75
556.859	876.75
557.071	913.75
557.284	883.75
557.496	924.75
557.709	911.75
557.921	901.75
558.134	890.75
558.346	891.75
558.559	877.75
558.771	894.75
558.984	884.75
559.196	865.75
559.409	862.75
559.621	873.75
559.833	871.75
560.046	897.75
560.258	862.75
560.47	857.75
560.683	860.75
560.895	857.75
561.107	843.75
561.32	858.75
561.532	883.75
561.744	861.75
561.956	872.75
562.168	872.75
562.381	877.75
562.593	864.75
562.805	841.75
563.017	881.75
563.229	867.75
563.441	893.75
563.653	901.75
563.865	875.75
564.077	895.75
564.289	923.75
564.501	926.75
564.713	936.75
564.925	959.75
565.137	990.75
565.349	1015.75
565.561	1047.75
565.773	1078.75
565.985	1153.75
566.197	1158.75
566.408	1228.75
566.62	1318.75
566.832	1384.75
567.044	1439.75
567.255	1459.75
567.467	1485.75
567.679	1509.75
567.891	1570.75
568.102	1588.75
568.314	1539.75
568.526	1417.75
568.737	1316.75
568.949	1223.75
569.161	1153.75
569.372	1066.75
569.584	1046.75
569.795	1001.75
570.007	957.75
570.218	928.75
570.43	933.75
570.641	897.75
570.853	910.75
571.064	924.75
571.276	850.75
571.487	881.75
571.698	856.75
571.91	843.75
572.121	777.75
572.333	804.75
572.544	759.75
572.755	763.75
572.966	769.75
573.178	740.75
573.389	738.75
573.6	737.75
573.811	729.75
574.023	697.75
574.234	717.75
574.445	693.75
574.656	705.75
574.867	719.75
575.078	699.75
575.289	724.75
575.501	709.75
575.712	695.75
575.923	671.75
576.134	675.75
576.345	676.75
576.556	686.75
576.767	647.75
576.978	660.75
577.188	636.75
577.399	639.75
577.61	678.75
577.821	673.75
578.032	611.75
578.243	647.75
578.454	631.75
578.665	602.75
578.875	629.75
579.086	636.75
579.297	603.75
579.508	614.75
579.718	619.75
579.929	614.75
580.14	620.75
580.35	603.75
580.561	610.75
580.772	597.75
580.982	601.75
581.193	595.75
581.403	612.75
581.614	593.75
581.825	589.75
582.035	573.75
582.246	607.75
582.456	593.75
582.667	593.75
582.877	601.75
583.087	589.75
583.298	595.75
583.508	614.75
583.719	606.75
583.929	577.75
584.139	587.75
584.35	574.75
584.56	585.75
584.77	566.75
584.981	556.75
585.191	575.75
585.401	567.75
585.611	565.75
585.821	582.75
586.032	552.75
586.242	563.75
586.452	565.75
586.662	560.75
586.872	581.75
587.082	579.75
587.292	598.75
587.502	564.75
587.713	540.75
587.923	567.75
588.133	549.75
588.343	561.75
588.553	563.75
588.762	559.75
588.972	554.75
589.182	590.75
589.392	604.75
589.602	565.75
589.812	582.75
590.022	589.75
590.232	569.75
590.441	574.75
590.651	565.75
590.861	583.75
591.071	579.75
591.281	590.75
591.49	595.75
591.7	605.75
591.91	619.75
592.119	598.75
592.329	649.75
592.539	654.75
592.748	660.75
592.958	694.75
593.167	699.75
593.377	683.75
593.587	705.75
593.796	727.75
594.006	711.75
594.215	709.75
594.424	702.75
594.634	709.75
594.843	671.75
595.053	666.75
595.262	644.75
595.472	629.75
595.681	590.75
595.89	581.75
596.1	577.75
596.309	561.75
596.518	549.75
596.727	549.75
596.937	529.75
597.146	541.75
597.355	520.75
597.564	507.75
597.774	506.75
597.983	490.75
598.192	487.75
598.401	482.75
598.61	487.75
598.819	483.75
599.028	507.75
599.237	488.75
599.446	478.75
599.655	486.75
599.864	463.75
600.073	455.75
600.282	472.75
600.491	474.75
600.7	471.75
600.909	455.75
601.118	440.75
601.327	459.75
601.536	449.75
601.745	425.75
601.953	463.75
602.162	457.75
602.371	434.75
602.58	446.75
602.789	452.75
602.997	441.75
603.206	443.75
603.415	448.75
603.623	453.75
603.832	435.75
604.041	437.75
604.249	457.75
604.458	439.75
604.666	437.75
604.875	422.75
605.084	445.75
605.292	427.75
605.501	436.75
605.709	429.75
605.918	429.75
606.126	433.75
606.334	422.75
606.543	426.75
606.751	391.75
606.96	422.75
607.168	412.75
607.376	440.75
607.585	406.75
607.793	407.75
608.001	417.75
608.21	421.75
608.418	419.75
608.626	406.75
608.834	415.75
609.043	405.75
609.251	423.75
609.459	420.75
609.667	408.75
609.875	403.75
610.083	396.75
610.291	414.75
610.499	401.75
610.707	402.75
610.916	393.75
611.124	390.75
611.332	391.75
611.54	405.75
611.748	392.75
611.955	372.75
612.163	406.75
612.371	403.75
612.579	409.75
612.787	388.75
612.995	373.75
613.203	426.75
613.411	417.75
613.618	391.75
613.826	419.75
614.034	390.75
614.242	391.75
614.449	379.75
614.657	392.75
614.865	384.75
615.072	384.75
615.28	396.75
615.488	371.75
615.695	382.75
615.903	374.75
616.111	399.75
616.318	389.75
616.526	404.75
616.733	384.75
616.941	376.75
617.148	385.75
617.356	387.75
617.563	387.75
617.771	376.75
617.978	380.75
618.185	392.75
618.393	382.75
618.6	371.75
618.807	387.75
619.015	389.75
619.222	385.75
619.429	367.75
619.637	359.75
619.844	390.75
620.051	364.75
620.258	366.75
620.466	361.75
620.673	360.75
620.88	355.75
621.087	363.75
621.294	367.75
621.501	366.75
621.708	360.75
621.915	341.75
622.122	358.75
622.329	354.75
622.536	355.75
622.743	353.75
622.95	337.75
623.157	331.75
623.364	356.75
623.571	351.75
623.778	346.75
623.985	350.75
624.192	346.75
624.399	344.75
624.606	365.75
624.812	338.75
625.019	329.75
625.226	332.75
625.433	348.75
625.639	349.75
625.846	335.75
626.053	328.75
626.259	335.75
626.466	350.75
626.673	305.75
626.879	317.75
627.086	311.75
627.293	332.75
627.499	351.75
627.706	328.75
627.912	323.75
628.119	319.75
628.325	324.75
628.532	334.75
628.738	313.75
628.945	320.75
629.151	308.75
629.357	316.75
629.564	323.75
629.77	306.75
629.976	324.75
630.183	305.75
630.389	307.75
630.595	290.75
630.802	280.75
631.008	305.75
631.214	315.75
631.42	300.75
631.627	299.75
631.833	300.75
632.039	300.75
632.245	291.75
632.451	283.75
632.657	282.75
632.863	277.75
633.069	285.75
633.275	295.75
633.481	269.75
633.688	285.75
633.893	291.75
634.099	289.75
634.305	292.75
634.511	279.75
634.717	291.75
634.923	274.75
635.129	287.75
635.335	264.75
635.541	262.75
635.747	283.75
635.952	261.75
636.158	276.75
636.364	260.75
636.57	266.75
636.775	280.75
636.981	276.75
637.187	284.75
637.392	264.75
637.598	281.75
637.804	277.75
638.009	265.75
638.215	267.75
638.421	268.75
638.626	273.75
638.832	265.75
639.037	270.75
639.243	271.75
639.448	271.75
639.654	255.75
639.859	272.75
640.065	267.75
640.27	257.75
640.475	259.75
640.681	242.75
640.886	265.75
641.091	249.75
641.297	253.75
641.502	263.75
641.707	262.75
641.913	264.75
642.118	243.75
642.323	246.75
642.528	255.75
642.733	260.75
642.939	254.75
643.144	258.75
643.349	264.75
643.554	251.75
643.759	246.75
643.964	243.75
644.169	251.75
644.374	241.75
644.579	246.75
644.784	235.75
644.989	233.75
645.194	239.75
645.399	253.75
645.604	234.75
645.809	245.75
646.014	257.75
646.219	248.75
646.423	245.75
646.628	248.75
646.833	234.75
647.038	248.75
647.243	228.75
647.447	251.75
647.652	259.75
647.857	251.75
648.062	236.75
648.266	255.75
648.471	250.75
648.676	247.75
648.88	250.75
649.085	261.75
649.289	238.75
649.494	255.75
649.698	246.75
649.903	254.75
650.107	241.75
650.312	227.75
650.516	213.75
650.721	226.75
650.925	225.75
651.13	227.75
651.334	237.75
651.539	217.75
651.743	201.75
651.947	209.75
652.152	234.75
652.356	206.75
652.56	202.75
652.764	194.75
652.969	199.75
653.173	184.75
653.377	193.75
653.581	208.75
653.785	197.75
653.99	183.75
654.194	177.75
654.398	178.75
654.602	204.75
654.806	177.75
655.01	205.75
655.214	175.75
655.418	177.75
655.622	173.75
655.826	165.75
656.03	171.75
656.234	196.75
656.438	183.75
656.642	169.75
656.846	174.75
657.049	171.75
657.253	171.75
657.457	158.75
657.661	148.75
657.865	145.75
658.068	150.75
658.272	142.75
658.476	128.75
658.68	126.75
658.883	122.75
659.087	110.75
659.291	116.75
659.494	104.75
659.698	120.75
659.901	110.75
660.105	120.75
660.309	115.75
660.512	112.75
660.716	97.75
660.919	104.75
661.123	104.75
661.326	116.75
661.53	101.75
661.733	95.75
661.936	110.75
662.14	88.75
662.343	101.75
662.546	90.75
662.75	85.75
662.953	78.75
663.156	86.75
663.36	82.75
663.563	88.75
663.766	83.75
663.969	90.75
664.173	86.75
664.376	93.75
664.579	85.75
664.782	72.75
664.985	73.75
665.188	80.75
665.391	78.75
665.594	91.75
665.797	73.75
666	77.75
666.203	93.75
666.406	95.75
666.609	74.75
666.812	83.75
667.015	92.75
667.218	101.75
667.421	91.75
667.624	82.75
667.827	88.75
668.03	94.75
668.232	80.75
668.435	79.75
668.638	83.75
668.841	91.75
669.043	91.75
669.246	76.75
669.449	94.75
669.651	85.75
669.854	82.75
670.057	76.75
670.259	72.75
670.462	76.75
670.665	95.75
670.867	89.75
671.07	75.75
671.272	92.75
671.475	81.75
671.677	89.75
671.88	79.75
672.082	74.75
672.284	91.75
672.487	90.75
672.689	91.75
672.892	82.75
