Data from NiCl2@0.5M.TitratingCurve.Agarose3%dH2O.NegLispCup.LampEnergy10.LIBS07252019_HRD10591_18-19-23-571.txt Node
Date: Thu Jul 25 18:19:23 EDT 2019
User: cochatt
Spectrometer: HR+D1059
Trigger mode: 1
Integration Time (sec): 1.000000E-1
Scans to average: 1
Electric dark correction enabled: true
Nonlinearity correction enabled: false
Boxcar width: 0
XAxis mode: Wavelengths
Number of Pixels in Spectrum: 2048
>>>>>Begin Spectral Data<<<<<
223.165	-14.44
223.4	-14.44
223.635	-14.44
223.869	-20.44
224.104	-22.44
224.338	-14.44
224.573	-14.44
224.808	-8.44
225.042	-7.44
225.277	-12.44
225.511	2.56
225.746	4.56
225.98	-1.44
226.215	20.56
226.449	15.56
226.683	24.56
226.918	19.56
227.152	28.56
227.387	37.56
227.621	45.56
227.856	38.56
228.09	38.56
228.324	42.56
228.559	54.56
228.793	75.56
229.027	90.56
229.262	116.56
229.496	102.56
229.73	107.56
229.964	109.56
230.199	131.56
230.433	125.56
230.667	131.56
230.901	119.56
231.136	138.56
231.37	128.56
231.604	133.56
231.838	130.56
232.072	141.56
232.306	139.56
232.541	131.56
232.775	141.56
233.009	125.56
233.243	146.56
233.477	142.56
233.711	139.56
233.945	140.56
234.179	127.56
234.413	149.56
234.647	128.56
234.881	125.56
235.115	131.56
235.349	146.56
235.583	143.56
235.817	133.56
236.051	137.56
236.285	137.56
236.519	138.56
236.753	155.56
236.987	147.56
237.221	146.56
237.455	156.56
237.689	147.56
237.922	141.56
238.156	145.56
238.39	127.56
238.624	155.56
238.858	147.56
239.091	158.56
239.325	149.56
239.559	164.56
239.793	164.56
240.027	160.56
240.26	166.56
240.494	154.56
240.728	153.56
240.961	153.56
241.195	165.56
241.429	162.56
241.662	157.56
241.896	173.56
242.13	172.56
242.363	174.56
242.597	162.56
242.83	158.56
243.064	157.56
243.298	160.56
243.531	177.56
243.765	164.56
243.998	182.56
244.232	187.56
244.465	182.56
244.699	191.56
244.932	173.56
245.166	175.56
245.399	184.56
245.633	193.56
245.866	182.56
246.099	185.56
246.333	180.56
246.566	183.56
246.8	182.56
247.033	182.56
247.266	195.56
247.5	183.56
247.733	193.56
247.966	194.56
248.2	201.56
248.433	197.56
248.666	198.56
248.899	209.56
249.133	193.56
249.366	210.56
249.599	223.56
249.832	210.56
250.066	198.56
250.299	207.56
250.532	193.56
250.765	208.56
250.998	211.56
251.231	213.56
251.465	233.56
251.698	208.56
251.931	227.56
252.164	237.56
252.397	230.56
252.63	221.56
252.863	219.56
253.096	221.56
253.329	227.56
253.562	211.56
253.795	230.56
254.028	228.56
254.261	206.56
254.494	216.56
254.727	221.56
254.96	246.56
255.193	243.56
255.426	254.56
255.659	249.56
255.892	238.56
256.124	237.56
256.357	243.56
256.59	246.56
256.823	234.56
257.056	230.56
257.289	243.56
257.521	243.56
257.754	257.56
257.987	261.56
258.22	251.56
258.452	249.56
258.685	256.56
258.918	247.56
259.151	250.56
259.383	264.56
259.616	259.56
259.849	255.56
260.081	257.56
260.314	257.56
260.547	234.56
260.779	233.56
261.012	249.56
261.244	265.56
261.477	281.56
261.71	266.56
261.942	283.56
262.175	280.56
262.407	279.56
262.64	275.56
262.872	267.56
263.105	275.56
263.337	273.56
263.57	290.56
263.802	271.56
264.035	281.56
264.267	286.56
264.499	301.56
264.732	273.56
264.964	313.56
265.197	292.56
265.429	299.56
265.661	285.56
265.894	302.56
266.126	289.56
266.358	300.56
266.591	299.56
266.823	303.56
267.055	285.56
267.287	310.56
267.52	295.56
267.752	309.56
267.984	321.56
268.216	298.56
268.448	320.56
268.681	314.56
268.913	318.56
269.145	309.56
269.377	331.56
269.609	308.56
269.841	297.56
270.073	320.56
270.306	315.56
270.538	304.56
270.77	304.56
271.002	320.56
271.234	302.56
271.466	320.56
271.698	307.56
271.93	315.56
272.162	310.56
272.394	331.56
272.626	322.56
272.858	323.56
273.09	344.56
273.322	331.56
273.553	328.56
273.785	333.56
274.017	326.56
274.249	348.56
274.481	358.56
274.713	325.56
274.945	330.56
275.176	327.56
275.408	345.56
275.64	345.56
275.872	346.56
276.104	358.56
276.335	343.56
276.567	338.56
276.799	354.56
277.031	367.56
277.262	350.56
277.494	374.56
277.726	361.56
277.957	336.56
278.189	349.56
278.421	370.56
278.652	371.56
278.884	373.56
279.115	357.56
279.347	353.56
279.579	378.56
279.81	365.56
280.042	357.56
280.273	382.56
280.505	381.56
280.736	372.56
280.968	365.56
281.199	385.56
281.431	371.56
281.662	385.56
281.894	378.56
282.125	393.56
282.356	371.56
282.588	388.56
282.819	377.56
283.051	376.56
283.282	378.56
283.513	390.56
283.745	398.56
283.976	378.56
284.207	385.56
284.439	407.56
284.67	377.56
284.901	395.56
285.132	415.56
285.364	409.56
285.595	419.56
285.826	405.56
286.057	416.56
286.288	395.56
286.52	391.56
286.751	420.56
286.982	407.56
287.213	405.56
287.444	420.56
287.675	398.56
287.906	414.56
288.138	429.56
288.369	430.56
288.6	427.56
288.831	419.56
289.062	412.56
289.293	392.56
289.524	399.56
289.755	426.56
289.986	417.56
290.217	422.56
290.448	442.56
290.679	409.56
290.91	438.56
291.141	410.56
291.371	419.56
291.602	437.56
291.833	421.56
292.064	410.56
292.295	433.56
292.526	426.56
292.757	431.56
292.987	425.56
293.218	433.56
293.449	443.56
293.68	440.56
293.91	436.56
294.141	429.56
294.372	426.56
294.603	433.56
294.833	428.56
295.064	418.56
295.295	428.56
295.525	432.56
295.756	438.56
295.987	449.56
296.217	437.56
296.448	459.56
296.679	464.56
296.909	451.56
297.14	474.56
297.37	456.56
297.601	443.56
297.831	453.56
298.062	456.56
298.292	461.56
298.523	493.56
298.753	487.56
298.984	473.56
299.214	473.56
299.445	457.56
299.675	458.56
299.905	481.56
300.136	477.56
300.366	491.56
300.597	509.56
300.827	523.56
301.057	491.56
301.288	503.56
301.518	522.56
301.748	494.56
301.979	496.56
302.209	491.56
302.439	505.56
302.669	481.56
302.9	490.56
303.13	474.56
303.36	486.56
303.59	473.56
303.82	507.56
304.051	496.56
304.281	505.56
304.511	495.56
304.741	492.56
304.971	511.56
305.201	519.56
305.431	520.56
305.661	491.56
305.891	487.56
306.121	489.56
306.352	490.56
306.582	486.56
306.812	487.56
307.042	494.56
307.272	472.56
307.502	475.56
307.731	471.56
307.961	471.56
308.191	493.56
308.421	489.56
308.651	499.56
308.881	503.56
309.111	493.56
309.341	497.56
309.571	491.56
309.8	488.56
310.03	501.56
310.26	519.56
310.49	531.56
310.72	513.56
310.949	508.56
311.179	503.56
311.409	504.56
311.639	478.56
311.868	512.56
312.098	525.56
312.328	511.56
312.557	516.56
312.787	515.56
313.017	543.56
313.246	526.56
313.476	527.56
313.706	533.56
313.935	523.56
314.165	534.56
314.394	543.56
314.624	524.56
314.853	532.56
315.083	543.56
315.312	546.56
315.542	524.56
315.771	505.56
316.001	534.56
316.23	547.56
316.46	518.56
316.689	516.56
316.919	526.56
317.148	531.56
317.377	524.56
317.607	509.56
317.836	520.56
318.065	553.56
318.295	555.56
318.524	534.56
318.753	547.56
318.983	515.56
319.212	500.56
319.441	523.56
319.67	535.56
319.9	533.56
320.129	548.56
320.358	546.56
320.587	562.56
320.816	551.56
321.046	545.56
321.275	547.56
321.504	549.56
321.733	546.56
321.962	554.56
322.191	555.56
322.42	567.56
322.649	537.56
322.878	526.56
323.108	540.56
323.337	558.56
323.566	541.56
323.795	570.56
324.024	565.56
324.253	551.56
324.482	579.56
324.71	552.56
324.939	536.56
325.168	549.56
325.397	555.56
325.626	579.56
325.855	570.56
326.084	583.56
326.313	575.56
326.542	579.56
326.77	571.56
326.999	582.56
327.228	579.56
327.457	578.56
327.686	598.56
327.914	595.56
328.143	578.56
328.372	561.56
328.6	577.56
328.829	554.56
329.058	565.56
329.287	590.56
329.515	584.56
329.744	586.56
329.972	596.56
330.201	584.56
330.43	607.56
330.658	592.56
330.887	571.56
331.115	602.56
331.344	614.56
331.572	605.56
331.801	619.56
332.03	621.56
332.258	626.56
332.486	635.56
332.715	644.56
332.943	678.56
333.172	654.56
333.4	702.56
333.629	689.56
333.857	689.56
334.085	705.56
334.314	700.56
334.542	667.56
334.771	696.56
334.999	684.56
335.227	689.56
335.455	665.56
335.684	691.56
335.912	691.56
336.14	678.56
336.369	675.56
336.597	682.56
336.825	669.56
337.053	684.56
337.281	673.56
337.51	669.56
337.738	655.56
337.966	653.56
338.194	683.56
338.422	659.56
338.65	670.56
338.878	635.56
339.106	619.56
339.334	663.56
339.562	632.56
339.79	622.56
340.018	625.56
340.246	577.56
340.474	629.56
340.702	621.56
340.93	612.56
341.158	620.56
341.386	630.56
341.614	662.56
341.842	629.56
342.07	615.56
342.298	625.56
342.526	604.56
342.754	595.56
342.981	593.56
343.209	636.56
343.437	638.56
343.665	683.56
343.893	646.56
344.12	703.56
344.348	699.56
344.576	672.56
344.804	643.56
345.031	639.56
345.259	632.56
345.487	643.56
345.714	634.56
345.942	629.56
346.17	628.56
346.397	631.56
346.625	610.56
346.853	613.56
347.08	599.56
347.308	621.56
347.535	584.56
347.763	589.56
347.99	583.56
348.218	599.56
348.445	565.56
348.673	572.56
348.9	602.56
349.128	592.56
349.355	602.56
349.583	615.56
349.81	576.56
350.037	601.56
350.265	581.56
350.492	579.56
350.72	572.56
350.947	595.56
351.174	579.56
351.402	586.56
351.629	592.56
351.856	611.56
352.083	590.56
352.311	589.56
352.538	616.56
352.765	603.56
352.992	580.56
353.22	537.56
353.447	558.56
353.674	581.56
353.901	584.56
354.128	550.56
354.355	550.56
354.583	544.56
354.81	542.56
355.037	563.56
355.264	569.56
355.491	574.56
355.718	558.56
355.945	557.56
356.172	551.56
356.399	556.56
356.626	586.56
356.853	592.56
357.08	571.56
357.307	577.56
357.534	577.56
357.761	566.56
357.988	574.56
358.215	556.56
358.441	566.56
358.668	565.56
358.895	541.56
359.122	550.56
359.349	560.56
359.576	555.56
359.802	554.56
360.029	563.56
360.256	572.56
360.483	578.56
360.709	554.56
360.936	552.56
361.163	578.56
361.39	602.56
361.616	566.56
361.843	595.56
362.07	597.56
362.296	592.56
362.523	561.56
362.749	549.56
362.976	542.56
363.203	541.56
363.429	567.56
363.656	537.56
363.882	558.56
364.109	551.56
364.335	534.56
364.562	574.56
364.788	550.56
365.015	540.56
365.241	534.56
365.468	556.56
365.694	562.56
365.92	561.56
366.147	524.56
366.373	543.56
366.599	501.56
366.826	532.56
367.052	558.56
367.278	579.56
367.505	549.56
367.731	545.56
367.957	531.56
368.184	561.56
368.41	551.56
368.636	546.56
368.862	551.56
369.089	569.56
369.315	570.56
369.541	563.56
369.767	581.56
369.993	581.56
370.219	556.56
370.445	552.56
370.672	575.56
370.898	581.56
371.124	591.56
371.35	577.56
371.576	585.56
371.802	593.56
372.028	582.56
372.254	586.56
372.48	616.56
372.706	587.56
372.932	615.56
373.158	610.56
373.384	594.56
373.61	602.56
373.835	585.56
374.061	557.56
374.287	580.56
374.513	598.56
374.739	606.56
374.965	623.56
375.191	619.56
375.416	598.56
375.642	586.56
375.868	608.56
376.094	596.56
376.319	603.56
376.545	589.56
376.771	585.56
376.997	583.56
377.222	565.56
377.448	575.56
377.674	590.56
377.899	582.56
378.125	579.56
378.35	581.56
378.576	535.56
378.802	595.56
379.027	570.56
379.253	553.56
379.478	551.56
379.704	576.56
379.929	570.56
380.155	578.56
380.38	568.56
380.606	569.56
380.831	565.56
381.057	568.56
381.282	568.56
381.507	549.56
381.733	584.56
381.958	557.56
382.184	569.56
382.409	575.56
382.634	593.56
382.86	576.56
383.085	598.56
383.31	590.56
383.535	590.56
383.761	593.56
383.986	604.56
384.211	618.56
384.436	608.56
384.662	609.56
384.887	627.56
385.112	621.56
385.337	616.56
385.562	643.56
385.787	653.56
386.013	661.56
386.238	667.56
386.463	641.56
386.688	643.56
386.913	670.56
387.138	635.56
387.363	660.56
387.588	629.56
387.813	646.56
388.038	638.56
388.263	659.56
388.488	663.56
388.713	676.56
388.938	633.56
389.163	627.56
389.387	650.56
389.612	638.56
389.837	639.56
390.062	637.56
390.287	652.56
390.512	638.56
390.736	646.56
390.961	673.56
391.186	693.56
391.411	669.56
391.636	678.56
391.86	693.56
392.085	697.56
392.31	695.56
392.534	661.56
392.759	673.56
392.984	714.56
393.208	663.56
393.433	677.56
393.658	685.56
393.882	678.56
394.107	682.56
394.331	698.56
394.556	724.56
394.78	689.56
395.005	700.56
395.229	690.56
395.454	708.56
395.678	703.56
395.903	697.56
396.127	710.56
396.352	697.56
396.576	691.56
396.801	690.56
397.025	695.56
397.249	687.56
397.474	707.56
397.698	737.56
397.922	756.56
398.147	740.56
398.371	728.56
398.595	748.56
398.82	780.56
399.044	841.56
399.268	898.56
399.492	961.56
399.717	1023.56
399.941	1016.56
400.165	951.56
400.389	899.56
400.613	866.56
400.837	838.56
401.062	823.56
401.286	815.56
401.51	810.56
401.734	790.56
401.958	801.56
402.182	802.56
402.406	819.56
402.63	828.56
402.854	813.56
403.078	804.56
403.302	833.56
403.526	841.56
403.75	845.56
403.974	857.56
404.198	857.56
404.422	862.56
404.645	843.56
404.869	834.56
405.093	851.56
405.317	838.56
405.541	842.56
405.765	841.56
405.988	854.56
406.212	847.56
406.436	851.56
406.66	897.56
406.883	870.56
407.107	912.56
407.331	961.56
407.555	994.56
407.778	976.56
408.002	936.56
408.226	946.56
408.449	929.56
408.673	888.56
408.896	888.56
409.12	893.56
409.344	903.56
409.567	889.56
409.791	883.56
410.014	907.56
410.238	867.56
410.461	868.56
410.685	858.56
410.908	846.56
411.132	843.56
411.355	841.56
411.578	853.56
411.802	837.56
412.025	845.56
412.249	840.56
412.472	827.56
412.695	851.56
412.919	836.56
413.142	821.56
413.365	802.56
413.589	835.56
413.812	839.56
414.035	789.56
414.258	805.56
414.482	786.56
414.705	817.56
414.928	803.56
415.151	811.56
415.374	810.56
415.597	798.56
415.821	786.56
416.044	812.56
416.267	783.56
416.49	788.56
416.713	812.56
416.936	776.56
417.159	766.56
417.382	787.56
417.605	787.56
417.828	794.56
418.051	790.56
418.274	813.56
418.497	791.56
418.72	788.56
418.943	794.56
419.166	843.56
419.389	922.56
419.611	866.56
419.834	829.56
420.057	810.56
420.28	804.56
420.503	765.56
420.726	761.56
420.948	809.56
421.171	786.56
421.394	814.56
421.617	786.56
421.839	811.56
422.062	794.56
422.285	784.56
422.507	770.56
422.73	827.56
422.953	819.56
423.175	809.56
423.398	812.56
423.621	806.56
423.843	813.56
424.066	844.56
424.288	850.56
424.511	817.56
424.733	820.56
424.956	797.56
425.178	793.56
425.401	839.56
425.623	819.56
425.846	782.56
426.068	795.56
426.291	790.56
426.513	781.56
426.735	789.56
426.958	789.56
427.18	728.56
427.402	751.56
427.625	771.56
427.847	737.56
428.069	757.56
428.292	754.56
428.514	775.56
428.736	776.56
428.958	779.56
429.181	728.56
429.403	753.56
429.625	751.56
429.847	728.56
430.069	753.56
430.292	730.56
430.514	733.56
430.736	740.56
430.958	766.56
431.18	767.56
431.402	762.56
431.624	741.56
431.846	771.56
432.068	781.56
432.29	777.56
432.512	747.56
432.734	763.56
432.956	773.56
433.178	796.56
433.4	803.56
433.622	799.56
433.844	813.56
434.066	779.56
434.287	759.56
434.509	810.56
434.731	826.56
434.953	821.56
435.175	841.56
435.397	857.56
435.618	799.56
435.84	782.56
436.062	767.56
436.284	772.56
436.505	758.56
436.727	766.56
436.949	774.56
437.17	759.56
437.392	759.56
437.614	793.56
437.835	732.56
438.057	739.56
438.278	733.56
438.5	741.56
438.721	737.56
438.943	767.56
439.165	747.56
439.386	742.56
439.608	781.56
439.829	784.56
440.05	783.56
440.272	805.56
440.493	781.56
440.715	779.56
440.936	821.56
441.158	810.56
441.379	818.56
441.6	840.56
441.822	863.56
442.043	840.56
442.264	835.56
442.486	824.56
442.707	839.56
442.928	831.56
443.149	861.56
443.371	838.56
443.592	846.56
443.813	850.56
444.034	843.56
444.255	858.56
444.476	904.56
444.698	937.56
444.919	946.56
445.14	1059.56
445.361	949.56
445.582	872.56
445.803	839.56
446.024	796.56
446.245	821.56
446.466	803.56
446.687	790.56
446.908	797.56
447.129	770.56
447.35	785.56
447.571	777.56
447.792	755.56
448.013	757.56
448.234	738.56
448.455	746.56
448.675	738.56
448.896	730.56
449.117	718.56
449.338	739.56
449.559	737.56
449.779	724.56
450	726.56
450.221	733.56
450.442	711.56
450.662	755.56
450.883	746.56
451.104	748.56
451.324	738.56
451.545	741.56
451.766	735.56
451.986	723.56
452.207	750.56
452.428	689.56
452.648	745.56
452.869	709.56
453.089	732.56
453.31	721.56
453.53	701.56
453.751	690.56
453.971	704.56
454.192	717.56
454.412	697.56
454.633	708.56
454.853	720.56
455.073	685.56
455.294	671.56
455.514	694.56
455.734	697.56
455.955	701.56
456.175	685.56
456.395	695.56
456.616	687.56
456.836	725.56
457.056	697.56
457.276	677.56
457.497	707.56
457.717	694.56
457.937	707.56
458.157	703.56
458.377	708.56
458.598	728.56
458.818	760.56
459.038	733.56
459.258	755.56
459.478	807.56
459.698	819.56
459.918	845.56
460.138	836.56
460.358	858.56
460.578	888.56
460.798	897.56
461.018	922.56
461.238	893.56
461.458	863.56
461.678	871.56
461.898	899.56
462.118	878.56
462.338	928.56
462.558	967.56
462.777	979.56
462.997	1065.56
463.217	1076.56
463.437	1092.56
463.657	1034.56
463.876	986.56
464.096	991.56
464.316	1004.56
464.536	1005.56
464.755	956.56
464.975	949.56
465.195	903.56
465.414	854.56
465.634	825.56
465.854	823.56
466.073	830.56
466.293	800.56
466.512	796.56
466.732	791.56
466.951	792.56
467.171	765.56
467.391	778.56
467.61	791.56
467.829	789.56
468.049	789.56
468.268	782.56
468.488	761.56
468.707	772.56
468.927	760.56
469.146	765.56
469.365	761.56
469.585	774.56
469.804	773.56
470.023	788.56
470.243	782.56
470.462	781.56
470.681	781.56
470.901	794.56
471.12	790.56
471.339	806.56
471.558	788.56
471.777	764.56
471.997	777.56
472.216	729.56
472.435	766.56
472.654	754.56
472.873	759.56
473.092	757.56
473.311	741.56
473.53	769.56
473.749	757.56
473.968	760.56
474.187	748.56
474.406	743.56
474.625	780.56
474.844	775.56
475.063	746.56
475.282	748.56
475.501	754.56
475.72	771.56
475.939	785.56
476.158	789.56
476.377	812.56
476.596	791.56
476.814	799.56
477.033	783.56
477.252	814.56
477.471	813.56
477.69	831.56
477.908	829.56
478.127	858.56
478.346	846.56
478.564	866.56
478.783	910.56
479.002	919.56
479.22	945.56
479.439	908.56
479.658	907.56
479.876	875.56
480.095	907.56
480.313	952.56
480.532	909.56
480.751	944.56
480.969	901.56
481.188	857.56
481.406	905.56
481.624	871.56
481.843	870.56
482.061	863.56
482.28	866.56
482.498	857.56
482.717	887.56
482.935	865.56
483.153	873.56
483.372	879.56
483.59	902.56
483.808	897.56
484.027	882.56
484.245	878.56
484.463	893.56
484.681	911.56
484.9	908.56
485.118	892.56
485.336	887.56
485.554	885.56
485.772	891.56
485.99	903.56
486.209	895.56
486.427	906.56
486.645	917.56
486.863	927.56
487.081	933.56
487.299	941.56
487.517	902.56
487.735	932.56
487.953	926.56
488.171	922.56
488.389	891.56
488.607	910.56
488.825	896.56
489.043	893.56
489.261	901.56
489.479	916.56
489.696	919.56
489.914	918.56
490.132	921.56
490.35	919.56
490.568	917.56
490.786	935.56
491.003	935.56
491.221	940.56
491.439	977.56
491.657	961.56
491.874	960.56
492.092	972.56
492.31	949.56
492.527	971.56
492.745	975.56
492.963	974.56
493.18	930.56
493.398	933.56
493.615	968.56
493.833	978.56
494.05	969.56
494.268	991.56
494.485	952.56
494.703	957.56
494.92	993.56
495.138	956.56
495.355	983.56
495.573	961.56
495.79	981.56
496.008	997.56
496.225	999.56
496.442	1015.56
496.66	1018.56
496.877	1026.56
497.094	1030.56
497.312	1043.56
497.529	1077.56
497.746	1073.56
497.963	1104.56
498.181	1134.56
498.398	1176.56
498.615	1198.56
498.832	1285.56
499.049	1373.56
499.267	1407.56
499.484	1487.56
499.701	1631.56
499.918	1732.56
500.135	1899.56
500.352	2025.56
500.569	2089.56
500.786	2069.56
501.003	1949.56
501.22	1855.56
501.437	1669.56
501.654	1553.56
501.871	1470.56
502.088	1359.56
502.305	1345.56
502.522	1291.56
502.739	1257.56
502.956	1193.56
503.172	1126.56
503.389	1115.56
503.606	1092.56
503.823	1065.56
504.04	1077.56
504.256	1052.56
504.473	1074.56
504.69	1052.56
504.907	1055.56
505.123	1021.56
505.34	978.56
505.557	942.56
505.773	933.56
505.99	933.56
506.207	908.56
506.423	897.56
506.64	891.56
506.856	860.56
507.073	876.56
507.289	833.56
507.506	855.56
507.722	869.56
507.939	838.56
508.155	854.56
508.372	846.56
508.588	832.56
508.805	837.56
509.021	810.56
509.238	840.56
509.454	825.56
509.67	795.56
509.887	779.56
510.103	777.56
510.319	807.56
510.536	829.56
510.752	773.56
510.968	774.56
511.184	789.56
511.401	804.56
511.617	758.56
511.833	750.56
512.049	768.56
512.265	777.56
512.481	783.56
512.698	759.56
512.914	745.56
513.13	769.56
513.346	779.56
513.562	788.56
513.778	790.56
513.994	781.56
514.21	780.56
514.426	754.56
514.642	789.56
514.858	779.56
515.074	821.56
515.29	817.56
515.506	811.56
515.721	787.56
515.937	817.56
516.153	810.56
516.369	820.56
516.585	845.56
516.801	854.56
517.016	883.56
517.232	919.56
517.448	939.56
517.664	918.56
517.879	928.56
518.095	949.56
518.311	919.56
518.527	897.56
518.742	850.56
518.958	874.56
519.173	858.56
519.389	842.56
519.605	816.56
519.82	791.56
520.036	802.56
520.251	796.56
520.467	796.56
520.682	784.56
520.898	777.56
521.113	761.56
521.329	744.56
521.544	777.56
521.76	746.56
521.975	738.56
522.19	741.56
522.406	711.56
522.621	721.56
522.836	732.56
523.052	720.56
523.267	759.56
523.482	700.56
523.698	719.56
523.913	702.56
524.128	731.56
524.343	694.56
524.559	700.56
524.774	706.56
524.989	732.56
525.204	714.56
525.419	702.56
525.634	689.56
525.849	717.56
526.064	702.56
526.28	701.56
526.495	674.56
526.71	688.56
526.925	687.56
527.14	705.56
527.355	717.56
527.57	672.56
527.785	689.56
527.999	691.56
528.214	727.56
528.429	684.56
528.644	706.56
528.859	701.56
529.074	684.56
529.289	715.56
529.503	715.56
529.718	720.56
529.933	679.56
530.148	703.56
530.363	702.56
530.577	690.56
530.792	674.56
531.007	666.56
531.221	681.56
531.436	665.56
531.651	695.56
531.865	687.56
532.08	665.56
532.295	673.56
532.509	674.56
532.724	690.56
532.938	692.56
533.153	667.56
533.367	679.56
533.582	683.56
533.796	685.56
534.011	677.56
534.225	649.56
534.44	666.56
534.654	668.56
534.868	652.56
535.083	639.56
535.297	663.56
535.511	643.56
535.726	673.56
535.94	645.56
536.154	658.56
536.369	670.56
536.583	664.56
536.797	648.56
537.011	654.56
537.225	636.56
537.44	660.56
537.654	628.56
537.868	635.56
538.082	647.56
538.296	629.56
538.51	632.56
538.724	651.56
538.938	629.56
539.153	625.56
539.367	660.56
539.581	611.56
539.795	628.56
540.009	623.56
540.222	633.56
540.436	636.56
540.65	630.56
540.864	635.56
541.078	623.56
541.292	636.56
541.506	649.56
541.72	637.56
541.934	651.56
542.147	654.56
542.361	645.56
542.575	634.56
542.789	603.56
543.002	618.56
543.216	625.56
543.43	614.56
543.644	603.56
543.857	614.56
544.071	632.56
544.285	633.56
544.498	627.56
544.712	643.56
544.925	628.56
545.139	621.56
545.352	627.56
545.566	635.56
545.779	636.56
545.993	653.56
546.206	641.56
546.42	619.56
546.633	633.56
546.847	631.56
547.06	626.56
547.274	648.56
547.487	628.56
547.7	640.56
547.914	647.56
548.127	648.56
548.34	648.56
548.554	629.56
548.767	643.56
548.98	628.56
549.193	622.56
549.407	649.56
549.62	669.56
549.833	631.56
550.046	633.56
550.259	625.56
550.473	623.56
550.686	617.56
550.899	624.56
551.112	638.56
551.325	633.56
551.538	617.56
551.751	612.56
551.964	604.56
552.177	595.56
552.39	601.56
552.603	647.56
552.816	659.56
553.029	661.56
553.242	661.56
553.455	655.56
553.667	655.56
553.88	649.56
554.093	634.56
554.306	649.56
554.519	614.56
554.732	617.56
554.944	586.56
555.157	601.56
555.37	590.56
555.583	580.56
555.795	583.56
556.008	568.56
556.221	568.56
556.433	581.56
556.646	550.56
556.859	563.56
557.071	564.56
557.284	565.56
557.496	559.56
557.709	545.56
557.921	523.56
558.134	531.56
558.346	554.56
558.559	532.56
558.771	543.56
558.984	537.56
559.196	516.56
559.409	523.56
559.621	525.56
559.833	537.56
560.046	532.56
560.258	530.56
560.47	543.56
560.683	536.56
560.895	533.56
561.107	525.56
561.32	525.56
561.532	509.56
561.744	519.56
561.956	517.56
562.168	525.56
562.381	516.56
562.593	533.56
562.805	527.56
563.017	538.56
563.229	522.56
563.441	523.56
563.653	529.56
563.865	533.56
564.077	533.56
564.289	560.56
564.501	547.56
564.713	544.56
564.925	545.56
565.137	541.56
565.349	569.56
565.561	557.56
565.773	592.56
565.985	599.56
566.197	634.56
566.408	667.56
566.62	683.56
566.832	704.56
567.044	728.56
567.255	709.56
567.467	735.56
567.679	740.56
567.891	769.56
568.102	772.56
568.314	738.56
568.526	725.56
568.737	645.56
568.949	638.56
569.161	595.56
569.372	577.56
569.584	553.56
569.795	571.56
570.007	557.56
570.218	508.56
570.43	515.56
570.641	525.56
570.853	525.56
571.064	514.56
571.276	525.56
571.487	513.56
571.698	483.56
571.91	483.56
572.121	459.56
572.333	463.56
572.544	466.56
572.755	424.56
572.966	459.56
573.178	436.56
573.389	439.56
573.6	457.56
573.811	457.56
574.023	435.56
574.234	426.56
574.445	447.56
574.656	423.56
574.867	425.56
575.078	437.56
575.289	425.56
575.501	433.56
575.712	410.56
575.923	401.56
576.134	400.56
576.345	397.56
576.556	387.56
576.767	404.56
576.978	396.56
577.188	377.56
577.399	383.56
577.61	400.56
577.821	396.56
578.032	389.56
578.243	385.56
578.454	389.56
578.665	389.56
578.875	380.56
579.086	353.56
579.297	395.56
579.508	379.56
579.718	385.56
579.929	370.56
580.14	360.56
580.35	365.56
580.561	375.56
580.772	365.56
580.982	378.56
581.193	391.56
581.403	386.56
581.614	379.56
581.825	373.56
582.035	351.56
582.246	364.56
582.456	379.56
582.667	381.56
582.877	356.56
583.087	347.56
583.298	378.56
583.508	380.56
583.719	357.56
583.929	362.56
584.139	342.56
584.35	346.56
584.56	359.56
584.77	360.56
584.981	351.56
585.191	343.56
585.401	351.56
585.611	329.56
585.821	345.56
586.032	355.56
586.242	342.56
586.452	337.56
586.662	355.56
586.872	342.56
587.082	340.56
587.292	355.56
587.502	335.56
587.713	341.56
587.923	348.56
588.133	354.56
588.343	360.56
588.553	349.56
588.762	334.56
588.972	369.56
589.182	386.56
589.392	401.56
589.602	348.56
589.812	389.56
590.022	362.56
590.232	341.56
590.441	330.56
590.651	328.56
590.861	342.56
591.071	353.56
591.281	365.56
591.49	343.56
591.7	357.56
591.91	361.56
592.119	347.56
592.329	356.56
592.539	343.56
592.748	378.56
592.958	393.56
593.167	365.56
593.377	381.56
593.587	401.56
593.796	382.56
594.006	385.56
594.215	411.56
594.424	404.56
594.634	403.56
594.843	371.56
595.053	361.56
595.262	348.56
595.472	349.56
595.681	354.56
595.89	343.56
596.1	335.56
596.309	331.56
596.518	317.56
596.727	330.56
596.937	322.56
597.146	330.56
597.355	311.56
597.564	325.56
597.774	300.56
597.983	319.56
598.192	302.56
598.401	319.56
598.61	307.56
598.819	297.56
599.028	308.56
599.237	305.56
599.446	296.56
599.655	306.56
599.864	291.56
600.073	299.56
600.282	292.56
600.491	283.56
600.7	321.56
600.909	305.56
601.118	274.56
601.327	280.56
601.536	289.56
601.745	276.56
601.953	292.56
602.162	279.56
602.371	279.56
602.58	286.56
602.789	294.56
602.997	273.56
603.206	272.56
603.415	276.56
603.623	276.56
603.832	277.56
604.041	281.56
604.249	272.56
604.458	260.56
604.666	277.56
604.875	277.56
605.084	275.56
605.292	303.56
605.501	285.56
605.709	271.56
605.918	261.56
606.126	266.56
606.334	282.56
606.543	272.56
606.751	266.56
606.96	271.56
607.168	277.56
607.376	245.56
607.585	256.56
607.793	284.56
608.001	279.56
608.21	270.56
608.418	261.56
608.626	245.56
608.834	275.56
609.043	267.56
609.251	272.56
609.459	250.56
609.667	251.56
609.875	259.56
610.083	251.56
610.291	271.56
610.499	254.56
610.707	253.56
610.916	261.56
611.124	255.56
611.332	268.56
611.54	252.56
611.748	258.56
611.955	248.56
612.163	256.56
612.371	255.56
612.579	271.56
612.787	245.56
612.995	245.56
613.203	263.56
613.411	259.56
613.618	262.56
613.826	246.56
614.034	248.56
614.242	265.56
614.449	252.56
614.657	251.56
614.865	254.56
615.072	239.56
615.28	248.56
615.488	260.56
615.695	246.56
615.903	260.56
616.111	251.56
616.318	247.56
616.526	257.56
616.733	241.56
616.941	261.56
617.148	250.56
617.356	247.56
617.563	249.56
617.771	258.56
617.978	250.56
618.185	258.56
618.393	237.56
618.6	241.56
618.807	230.56
619.015	237.56
619.222	254.56
619.429	243.56
619.637	232.56
619.844	236.56
620.051	228.56
620.258	241.56
620.466	233.56
620.673	228.56
620.88	210.56
621.087	232.56
621.294	221.56
621.501	234.56
621.708	237.56
621.915	249.56
622.122	234.56
622.329	235.56
622.536	256.56
622.743	245.56
622.95	236.56
623.157	225.56
623.364	241.56
623.571	229.56
623.778	213.56
623.985	223.56
624.192	221.56
624.399	234.56
624.606	215.56
624.812	232.56
625.019	220.56
625.226	232.56
625.433	224.56
625.639	212.56
625.846	207.56
626.053	222.56
626.259	211.56
626.466	203.56
626.673	207.56
626.879	216.56
627.086	219.56
627.293	227.56
627.499	228.56
627.706	206.56
627.912	209.56
628.119	221.56
628.325	192.56
628.532	210.56
628.738	225.56
628.945	211.56
629.151	205.56
629.357	196.56
629.564	197.56
629.77	204.56
629.976	204.56
630.183	192.56
630.389	207.56
630.595	206.56
630.802	185.56
631.008	193.56
631.214	209.56
631.42	181.56
631.627	208.56
631.833	199.56
632.039	202.56
632.245	202.56
632.451	201.56
632.657	181.56
632.863	218.56
633.069	199.56
633.275	191.56
633.481	208.56
633.688	189.56
633.893	185.56
634.099	164.56
634.305	194.56
634.511	184.56
634.717	182.56
634.923	193.56
635.129	191.56
635.335	211.56
635.541	193.56
635.747	186.56
635.952	180.56
636.158	191.56
636.364	187.56
636.57	193.56
636.775	191.56
636.981	201.56
637.187	178.56
637.392	196.56
637.598	165.56
637.804	184.56
638.009	187.56
638.215	177.56
638.421	184.56
638.626	201.56
638.832	185.56
639.037	189.56
639.243	193.56
639.448	183.56
639.654	181.56
639.859	172.56
640.065	189.56
640.27	193.56
640.475	186.56
640.681	182.56
640.886	181.56
641.091	173.56
641.297	187.56
641.502	179.56
641.707	179.56
641.913	172.56
642.118	181.56
642.323	172.56
642.528	187.56
642.733	183.56
642.939	162.56
643.144	181.56
643.349	170.56
643.554	172.56
643.759	173.56
643.964	145.56
644.169	194.56
644.374	156.56
644.579	176.56
644.784	161.56
644.989	169.56
645.194	163.56
645.399	175.56
645.604	171.56
645.809	171.56
646.014	178.56
646.219	173.56
646.423	165.56
646.628	174.56
646.833	174.56
647.038	181.56
647.243	173.56
647.447	186.56
647.652	178.56
647.857	187.56
648.062	168.56
648.266	191.56
648.471	172.56
648.676	180.56
648.88	189.56
649.085	189.56
649.289	177.56
649.494	158.56
649.698	174.56
649.903	141.56
650.107	175.56
650.312	171.56
650.516	170.56
650.721	154.56
650.925	175.56
651.13	167.56
651.334	165.56
651.539	153.56
651.743	163.56
651.947	151.56
652.152	156.56
652.356	159.56
652.56	141.56
652.764	167.56
652.969	167.56
653.173	151.56
653.377	165.56
653.581	153.56
653.785	157.56
653.99	155.56
654.194	146.56
654.398	156.56
654.602	142.56
654.806	156.56
655.01	136.56
655.214	140.56
655.418	159.56
655.622	134.56
655.826	143.56
656.03	135.56
656.234	142.56
656.438	147.56
656.642	133.56
656.846	138.56
657.049	136.56
657.253	122.56
657.457	111.56
657.661	124.56
657.865	118.56
658.068	125.56
658.272	115.56
658.476	132.56
658.68	116.56
658.883	114.56
659.087	111.56
659.291	96.56
659.494	102.56
659.698	108.56
659.901	114.56
660.105	101.56
660.309	96.56
660.512	105.56
660.716	99.56
660.919	81.56
661.123	104.56
661.326	106.56
661.53	86.56
661.733	87.56
661.936	95.56
662.14	89.56
662.343	94.56
662.546	87.56
662.75	101.56
662.953	87.56
663.156	96.56
663.36	91.56
663.563	89.56
663.766	73.56
663.969	109.56
664.173	84.56
664.376	101.56
664.579	101.56
664.782	71.56
664.985	84.56
665.188	87.56
665.391	76.56
665.594	92.56
665.797	98.56
666	83.56
666.203	84.56
666.406	59.56
666.609	76.56
666.812	79.56
667.015	88.56
667.218	78.56
667.421	87.56
667.624	78.56
667.827	94.56
668.03	84.56
668.232	98.56
668.435	87.56
668.638	85.56
668.841	87.56
669.043	77.56
669.246	87.56
669.449	95.56
669.651	81.56
669.854	79.56
670.057	91.56
670.259	82.56
670.462	77.56
670.665	78.56
670.867	74.56
671.07	79.56
671.272	61.56
671.475	90.56
671.677	82.56
671.88	88.56
672.082	73.56
672.284	85.56
672.487	85.56
672.689	88.56
672.892	79.56
