Data from NiCl2@0.5M.TitratingCurve.Agarose3%dH2O.NegLispCup.LampEnergy10.LIBS07252019_HRD10591_18-21-11-572.txt Node
Date: Thu Jul 25 18:21:11 EDT 2019
User: cochatt
Spectrometer: HR+D1059
Trigger mode: 1
Integration Time (sec): 1.000000E-1
Scans to average: 1
Electric dark correction enabled: true
Nonlinearity correction enabled: false
Boxcar width: 0
XAxis mode: Wavelengths
Number of Pixels in Spectrum: 2048
>>>>>Begin Spectral Data<<<<<
223.165	-19.62
223.4	-19.62
223.635	-19.62
223.869	-14.62
224.104	-23.62
224.338	-20.62
224.573	-22.62
224.808	-11.62
225.042	2.38
225.277	-17.62
225.511	-1.62
225.746	16.38
225.98	10.38
226.215	6.38
226.449	13.38
226.683	24.38
226.918	23.38
227.152	35.38
227.387	39.38
227.621	30.38
227.856	43.38
228.09	40.38
228.324	29.38
228.559	63.38
228.793	77.38
229.027	96.38
229.262	110.38
229.496	106.38
229.73	112.38
229.964	113.38
230.199	116.38
230.433	127.38
230.667	128.38
230.901	125.38
231.136	134.38
231.37	139.38
231.604	152.38
231.838	134.38
232.072	124.38
232.306	140.38
232.541	153.38
232.775	150.38
233.009	147.38
233.243	140.38
233.477	154.38
233.711	157.38
233.945	147.38
234.179	134.38
234.413	143.38
234.647	133.38
234.881	140.38
235.115	149.38
235.349	144.38
235.583	142.38
235.817	150.38
236.051	164.38
236.285	155.38
236.519	162.38
236.753	150.38
236.987	162.38
237.221	167.38
237.455	157.38
237.689	164.38
237.922	158.38
238.156	150.38
238.39	163.38
238.624	157.38
238.858	171.38
239.091	182.38
239.325	148.38
239.559	172.38
239.793	159.38
240.027	180.38
240.26	181.38
240.494	166.38
240.728	183.38
240.961	187.38
241.195	163.38
241.429	160.38
241.662	169.38
241.896	188.38
242.13	191.38
242.363	173.38
242.597	183.38
242.83	189.38
243.064	169.38
243.298	202.38
243.531	200.38
243.765	189.38
243.998	196.38
244.232	193.38
244.465	194.38
244.699	200.38
244.932	212.38
245.166	217.38
245.399	196.38
245.633	221.38
245.866	224.38
246.099	209.38
246.333	228.38
246.566	217.38
246.8	224.38
247.033	225.38
247.266	204.38
247.5	203.38
247.733	217.38
247.966	233.38
248.2	221.38
248.433	237.38
248.666	236.38
248.899	230.38
249.133	219.38
249.366	250.38
249.599	221.38
249.832	233.38
250.066	257.38
250.299	234.38
250.532	245.38
250.765	248.38
250.998	268.38
251.231	248.38
251.465	245.38
251.698	250.38
251.931	264.38
252.164	261.38
252.397	262.38
252.63	258.38
252.863	269.38
253.096	266.38
253.329	251.38
253.562	261.38
253.795	266.38
254.028	245.38
254.261	278.38
254.494	259.38
254.727	260.38
254.96	283.38
255.193	272.38
255.426	288.38
255.659	270.38
255.892	273.38
256.124	281.38
256.357	275.38
256.59	279.38
256.823	288.38
257.056	291.38
257.289	285.38
257.521	285.38
257.754	284.38
257.987	307.38
258.22	303.38
258.452	293.38
258.685	294.38
258.918	292.38
259.151	299.38
259.383	305.38
259.616	296.38
259.849	304.38
260.081	293.38
260.314	288.38
260.547	298.38
260.779	322.38
261.012	311.38
261.244	326.38
261.477	304.38
261.71	328.38
261.942	300.38
262.175	332.38
262.407	293.38
262.64	326.38
262.872	313.38
263.105	310.38
263.337	332.38
263.57	321.38
263.802	309.38
264.035	319.38
264.267	317.38
264.499	317.38
264.732	338.38
264.964	338.38
265.197	345.38
265.429	330.38
265.661	332.38
265.894	343.38
266.126	359.38
266.358	342.38
266.591	364.38
266.823	365.38
267.055	352.38
267.287	346.38
267.52	355.38
267.752	355.38
267.984	373.38
268.216	365.38
268.448	358.38
268.681	376.38
268.913	364.38
269.145	355.38
269.377	378.38
269.609	370.38
269.841	346.38
270.073	361.38
270.306	366.38
270.538	378.38
270.77	370.38
271.002	348.38
271.234	372.38
271.466	384.38
271.698	383.38
271.93	374.38
272.162	367.38
272.394	394.38
272.626	413.38
272.858	378.38
273.09	404.38
273.322	384.38
273.553	384.38
273.785	396.38
274.017	407.38
274.249	380.38
274.481	401.38
274.713	396.38
274.945	402.38
275.176	396.38
275.408	396.38
275.64	418.38
275.872	408.38
276.104	411.38
276.335	402.38
276.567	402.38
276.799	391.38
277.031	413.38
277.262	405.38
277.494	413.38
277.726	398.38
277.957	400.38
278.189	414.38
278.421	416.38
278.652	427.38
278.884	450.38
279.115	427.38
279.347	448.38
279.579	436.38
279.81	439.38
280.042	442.38
280.273	428.38
280.505	416.38
280.736	442.38
280.968	457.38
281.199	454.38
281.431	457.38
281.662	464.38
281.894	448.38
282.125	455.38
282.356	439.38
282.588	448.38
282.819	460.38
283.051	467.38
283.282	462.38
283.513	477.38
283.745	475.38
283.976	450.38
284.207	466.38
284.439	461.38
284.67	489.38
284.901	496.38
285.132	459.38
285.364	482.38
285.595	488.38
285.826	471.38
286.057	480.38
286.288	511.38
286.52	512.38
286.751	492.38
286.982	480.38
287.213	476.38
287.444	489.38
287.675	514.38
287.906	490.38
288.138	500.38
288.369	524.38
288.6	500.38
288.831	506.38
289.062	530.38
289.293	508.38
289.524	504.38
289.755	502.38
289.986	525.38
290.217	511.38
290.448	505.38
290.679	514.38
290.91	508.38
291.141	525.38
291.371	526.38
291.602	505.38
291.833	522.38
292.064	499.38
292.295	504.38
292.526	525.38
292.757	519.38
292.987	523.38
293.218	524.38
293.449	519.38
293.68	511.38
293.91	531.38
294.141	511.38
294.372	514.38
294.603	532.38
294.833	525.38
295.064	521.38
295.295	539.38
295.525	543.38
295.756	558.38
295.987	539.38
296.217	548.38
296.448	555.38
296.679	547.38
296.909	548.38
297.14	529.38
297.37	541.38
297.601	572.38
297.831	549.38
298.062	568.38
298.292	569.38
298.523	581.38
298.753	590.38
298.984	579.38
299.214	559.38
299.445	551.38
299.675	573.38
299.905	570.38
300.136	575.38
300.366	588.38
300.597	579.38
300.827	592.38
301.057	584.38
301.288	609.38
301.518	604.38
301.748	602.38
301.979	604.38
302.209	601.38
302.439	598.38
302.669	596.38
302.9	587.38
303.13	615.38
303.36	605.38
303.59	606.38
303.82	598.38
304.051	590.38
304.281	614.38
304.511	586.38
304.741	600.38
304.971	611.38
305.201	598.38
305.431	591.38
305.661	603.38
305.891	609.38
306.121	582.38
306.352	588.38
306.582	617.38
306.812	566.38
307.042	617.38
307.272	593.38
307.502	605.38
307.731	619.38
307.961	578.38
308.191	585.38
308.421	601.38
308.651	585.38
308.881	581.38
309.111	578.38
309.341	562.38
309.571	577.38
309.8	577.38
310.03	586.38
310.26	604.38
310.49	620.38
310.72	597.38
310.949	594.38
311.179	620.38
311.409	624.38
311.639	608.38
311.868	610.38
312.098	616.38
312.328	636.38
312.557	611.38
312.787	615.38
313.017	633.38
313.246	672.38
313.476	642.38
313.706	656.38
313.935	658.38
314.165	642.38
314.394	626.38
314.624	641.38
314.853	636.38
315.083	619.38
315.312	641.38
315.542	633.38
315.771	616.38
316.001	642.38
316.23	627.38
316.46	624.38
316.689	636.38
316.919	637.38
317.148	624.38
317.377	616.38
317.607	650.38
317.836	642.38
318.065	634.38
318.295	641.38
318.524	626.38
318.753	630.38
318.983	648.38
319.212	632.38
319.441	650.38
319.67	616.38
319.9	632.38
320.129	631.38
320.358	637.38
320.587	655.38
320.816	635.38
321.046	669.38
321.275	639.38
321.504	639.38
321.733	651.38
321.962	640.38
322.191	621.38
322.42	640.38
322.649	632.38
322.878	638.38
323.108	642.38
323.337	648.38
323.566	645.38
323.795	664.38
324.024	644.38
324.253	661.38
324.482	664.38
324.71	677.38
324.939	683.38
325.168	680.38
325.397	660.38
325.626	675.38
325.855	695.38
326.084	696.38
326.313	709.38
326.542	688.38
326.77	704.38
326.999	707.38
327.228	695.38
327.457	650.38
327.686	690.38
327.914	694.38
328.143	705.38
328.372	676.38
328.6	702.38
328.829	697.38
329.058	698.38
329.287	698.38
329.515	702.38
329.744	715.38
329.972	701.38
330.201	707.38
330.43	689.38
330.658	704.38
330.887	734.38
331.115	717.38
331.344	716.38
331.572	754.38
331.801	766.38
332.03	785.38
332.258	777.38
332.486	798.38
332.715	819.38
332.943	837.38
333.172	852.38
333.4	899.38
333.629	914.38
333.857	952.38
334.085	914.38
334.314	906.38
334.542	912.38
334.771	894.38
334.999	896.38
335.227	857.38
335.455	882.38
335.684	888.38
335.912	879.38
336.14	847.38
336.369	839.38
336.597	851.38
336.825	837.38
337.053	821.38
337.281	836.38
337.51	788.38
337.738	792.38
337.966	805.38
338.194	796.38
338.422	758.38
338.65	750.38
338.878	768.38
339.106	764.38
339.334	785.38
339.562	774.38
339.79	739.38
340.018	737.38
340.246	731.38
340.474	718.38
340.702	730.38
340.93	711.38
341.158	730.38
341.386	721.38
341.614	762.38
341.842	748.38
342.07	722.38
342.298	702.38
342.526	726.38
342.754	747.38
342.981	741.38
343.209	754.38
343.437	788.38
343.665	838.38
343.893	893.38
344.12	875.38
344.348	859.38
344.576	801.38
344.804	804.38
345.031	796.38
345.259	762.38
345.487	738.38
345.714	748.38
345.942	740.38
346.17	745.38
346.397	743.38
346.625	712.38
346.853	683.38
347.08	708.38
347.308	733.38
347.535	718.38
347.763	706.38
347.99	710.38
348.218	737.38
348.445	708.38
348.673	721.38
348.9	707.38
349.128	688.38
349.355	714.38
349.583	688.38
349.81	689.38
350.037	701.38
350.265	694.38
350.492	689.38
350.72	665.38
350.947	661.38
351.174	689.38
351.402	678.38
351.629	692.38
351.856	674.38
352.083	680.38
352.311	668.38
352.538	668.38
352.765	690.38
352.992	681.38
353.22	649.38
353.447	675.38
353.674	656.38
353.901	664.38
354.128	671.38
354.355	668.38
354.583	653.38
354.81	680.38
355.037	689.38
355.264	675.38
355.491	675.38
355.718	683.38
355.945	674.38
356.172	685.38
356.399	702.38
356.626	682.38
356.853	680.38
357.08	665.38
357.307	700.38
357.534	674.38
357.761	672.38
357.988	680.38
358.215	680.38
358.441	680.38
358.668	680.38
358.895	668.38
359.122	672.38
359.349	688.38
359.576	660.38
359.802	690.38
360.029	684.38
360.256	682.38
360.483	674.38
360.709	650.38
360.936	665.38
361.163	696.38
361.39	666.38
361.616	690.38
361.843	704.38
362.07	699.38
362.296	700.38
362.523	676.38
362.749	679.38
362.976	655.38
363.203	669.38
363.429	652.38
363.656	685.38
363.882	670.38
364.109	686.38
364.335	672.38
364.562	686.38
364.788	632.38
365.015	692.38
365.241	660.38
365.468	656.38
365.694	649.38
365.92	657.38
366.147	672.38
366.373	681.38
366.599	659.38
366.826	662.38
367.052	664.38
367.278	675.38
367.505	689.38
367.731	679.38
367.957	658.38
368.184	668.38
368.41	660.38
368.636	685.38
368.862	688.38
369.089	698.38
369.315	707.38
369.541	682.38
369.767	683.38
369.993	682.38
370.219	705.38
370.445	700.38
370.672	713.38
370.898	733.38
371.124	715.38
371.35	734.38
371.576	728.38
371.802	726.38
372.028	710.38
372.254	736.38
372.48	740.38
372.706	734.38
372.932	735.38
373.158	748.38
373.384	750.38
373.61	738.38
373.835	722.38
374.061	707.38
374.287	759.38
374.513	756.38
374.739	764.38
374.965	772.38
375.191	777.38
375.416	796.38
375.642	796.38
375.868	778.38
376.094	740.38
376.319	742.38
376.545	733.38
376.771	742.38
376.997	711.38
377.222	721.38
377.448	704.38
377.674	729.38
377.899	747.38
378.125	710.38
378.35	732.38
378.576	717.38
378.802	710.38
379.027	718.38
379.253	707.38
379.478	703.38
379.704	705.38
379.929	697.38
380.155	702.38
380.38	738.38
380.606	682.38
380.831	706.38
381.057	714.38
381.282	710.38
381.507	737.38
381.733	738.38
381.958	725.38
382.184	730.38
382.409	725.38
382.634	756.38
382.86	754.38
383.085	741.38
383.31	778.38
383.535	768.38
383.761	773.38
383.986	819.38
384.211	801.38
384.436	804.38
384.662	811.38
384.887	837.38
385.112	831.38
385.337	850.38
385.562	882.38
385.787	876.38
386.013	868.38
386.238	841.38
386.463	855.38
386.688	884.38
386.913	856.38
387.138	865.38
387.363	845.38
387.588	846.38
387.813	828.38
388.038	836.38
388.263	832.38
388.488	855.38
388.713	847.38
388.938	841.38
389.163	869.38
389.387	836.38
389.612	860.38
389.837	832.38
390.062	809.38
390.287	841.38
390.512	851.38
390.736	842.38
390.961	860.38
391.186	867.38
391.411	897.38
391.636	903.38
391.86	968.38
392.085	970.38
392.31	956.38
392.534	926.38
392.759	899.38
392.984	876.38
393.208	894.38
393.433	884.38
393.658	946.38
393.882	912.38
394.107	878.38
394.331	897.38
394.556	937.38
394.78	924.38
395.005	914.38
395.229	928.38
395.454	937.38
395.678	956.38
395.903	958.38
396.127	948.38
396.352	911.38
396.576	892.38
396.801	905.38
397.025	912.38
397.249	954.38
397.474	970.38
397.698	955.38
397.922	966.38
398.147	960.38
398.371	1002.38
398.595	1036.38
398.82	1045.38
399.044	1109.38
399.268	1226.38
399.492	1435.38
399.717	1544.38
399.941	1549.38
400.165	1383.38
400.389	1266.38
400.613	1206.38
400.837	1119.38
401.062	1073.38
401.286	1086.38
401.51	1083.38
401.734	1040.38
401.958	1110.38
402.182	1092.38
402.406	1090.38
402.63	1100.38
402.854	1121.38
403.078	1141.38
403.302	1170.38
403.526	1190.38
403.75	1196.38
403.974	1189.38
404.198	1218.38
404.422	1217.38
404.645	1195.38
404.869	1189.38
405.093	1190.38
405.317	1164.38
405.541	1154.38
405.765	1183.38
405.988	1168.38
406.212	1158.38
406.436	1182.38
406.66	1218.38
406.883	1202.38
407.107	1280.38
407.331	1344.38
407.555	1405.38
407.778	1378.38
408.002	1323.38
408.226	1262.38
408.449	1256.38
408.673	1217.38
408.896	1244.38
409.12	1223.38
409.344	1177.38
409.567	1220.38
409.791	1198.38
410.014	1215.38
410.238	1195.38
410.461	1175.38
410.685	1158.38
410.908	1153.38
411.132	1159.38
411.355	1088.38
411.578	1114.38
411.802	1131.38
412.025	1122.38
412.249	1120.38
412.472	1128.38
412.695	1090.38
412.919	1090.38
413.142	1117.38
413.365	1077.38
413.589	1050.38
413.812	1042.38
414.035	1073.38
414.258	1091.38
414.482	1127.38
414.705	1107.38
414.928	1086.38
415.151	1071.38
415.374	1052.38
415.597	1080.38
415.821	1030.38
416.044	1059.38
416.267	1004.38
416.49	1035.38
416.713	1012.38
416.936	1058.38
417.159	1081.38
417.382	1056.38
417.605	1026.38
417.828	1027.38
418.051	1034.38
418.274	1062.38
418.497	1056.38
418.72	1077.38
418.943	1079.38
419.166	1162.38
419.389	1216.38
419.611	1194.38
419.834	1131.38
420.057	1128.38
420.28	1088.38
420.503	1057.38
420.726	1037.38
420.948	1091.38
421.171	1061.38
421.394	1080.38
421.617	1046.38
421.839	1074.38
422.062	1045.38
422.285	1064.38
422.507	1078.38
422.73	1112.38
422.953	1092.38
423.175	1110.38
423.398	1131.38
423.621	1124.38
423.843	1121.38
424.066	1126.38
424.288	1073.38
424.511	1117.38
424.733	1066.38
424.956	1074.38
425.178	1072.38
425.401	1060.38
425.623	1062.38
425.846	1034.38
426.068	1045.38
426.291	1030.38
426.513	1020.38
426.735	1028.38
426.958	1002.38
427.18	981.38
427.402	977.38
427.625	977.38
427.847	987.38
428.069	937.38
428.292	950.38
428.514	961.38
428.736	953.38
428.958	970.38
429.181	948.38
429.403	947.38
429.625	956.38
429.847	920.38
430.069	920.38
430.292	955.38
430.514	927.38
430.736	955.38
430.958	952.38
431.18	946.38
431.402	951.38
431.624	960.38
431.846	964.38
432.068	972.38
432.29	980.38
432.512	965.38
432.734	976.38
432.956	984.38
433.178	1004.38
433.4	984.38
433.622	974.38
433.844	957.38
434.066	984.38
434.287	990.38
434.509	1013.38
434.731	1037.38
434.953	1074.38
435.175	1097.38
435.397	1052.38
435.618	989.38
435.84	987.38
436.062	931.38
436.284	960.38
436.505	996.38
436.727	960.38
436.949	991.38
437.17	956.38
437.392	945.38
437.614	956.38
437.835	934.38
438.057	948.38
438.278	925.38
438.5	927.38
438.721	954.38
438.943	956.38
439.165	906.38
439.386	929.38
439.608	974.38
439.829	957.38
440.05	957.38
440.272	968.38
440.493	1008.38
440.715	999.38
440.936	998.38
441.158	976.38
441.379	1040.38
441.6	1076.38
441.822	1110.38
442.043	1116.38
442.264	1073.38
442.486	1038.38
442.707	1044.38
442.928	1069.38
443.149	1073.38
443.371	1050.38
443.592	1052.38
443.813	1096.38
444.034	1080.38
444.255	1124.38
444.476	1197.38
444.698	1227.38
444.919	1273.38
445.14	1346.38
445.361	1216.38
445.582	1148.38
445.803	1050.38
446.024	1043.38
446.245	1028.38
446.466	1024.38
446.687	1012.38
446.908	999.38
447.129	968.38
447.35	980.38
447.571	968.38
447.792	947.38
448.013	930.38
448.234	912.38
448.455	941.38
448.675	904.38
448.896	912.38
449.117	846.38
449.338	884.38
449.559	906.38
449.779	892.38
450	887.38
450.221	888.38
450.442	916.38
450.662	886.38
450.883	909.38
451.104	909.38
451.324	950.38
451.545	906.38
451.766	885.38
451.986	856.38
452.207	890.38
452.428	916.38
452.648	880.38
452.869	865.38
453.089	848.38
453.31	877.38
453.53	875.38
453.751	865.38
453.971	859.38
454.192	866.38
454.412	848.38
454.633	856.38
454.853	852.38
455.073	843.38
455.294	855.38
455.514	833.38
455.734	846.38
455.955	810.38
456.175	818.38
456.395	822.38
456.616	844.38
456.836	815.38
457.056	832.38
457.276	823.38
457.497	862.38
457.717	851.38
457.937	885.38
458.157	858.38
458.377	892.38
458.598	888.38
458.818	928.38
459.038	928.38
459.258	945.38
459.478	989.38
459.698	1009.38
459.918	1041.38
460.138	1033.38
460.358	1093.38
460.578	1141.38
460.798	1147.38
461.018	1178.38
461.238	1136.38
461.458	1132.38
461.678	1144.38
461.898	1143.38
462.118	1169.38
462.338	1218.38
462.558	1257.38
462.777	1292.38
462.997	1378.38
463.217	1474.38
463.437	1498.38
463.657	1375.38
463.876	1321.38
464.096	1330.38
464.316	1299.38
464.536	1296.38
464.755	1281.38
464.975	1226.38
465.195	1192.38
465.414	1153.38
465.634	1054.38
465.854	1020.38
466.073	1017.38
466.293	998.38
466.512	963.38
466.732	940.38
466.951	968.38
467.171	950.38
467.391	944.38
467.61	933.38
467.829	928.38
468.049	940.38
468.268	914.38
468.488	906.38
468.707	923.38
468.927	933.38
469.146	908.38
469.365	935.38
469.585	916.38
469.804	972.38
470.023	971.38
470.243	960.38
470.462	993.38
470.681	968.38
470.901	942.38
471.12	966.38
471.339	939.38
471.558	931.38
471.777	936.38
471.997	917.38
472.216	895.38
472.435	896.38
472.654	905.38
472.873	868.38
473.092	911.38
473.311	891.38
473.53	903.38
473.749	873.38
473.968	890.38
474.187	901.38
474.406	893.38
474.625	911.38
474.844	898.38
475.063	900.38
475.282	900.38
475.501	907.38
475.72	914.38
475.939	916.38
476.158	936.38
476.377	936.38
476.596	944.38
476.814	948.38
477.033	937.38
477.252	989.38
477.471	988.38
477.69	995.38
477.908	998.38
478.127	1060.38
478.346	1073.38
478.564	1084.38
478.783	1101.38
479.002	1126.38
479.22	1131.38
479.439	1122.38
479.658	1123.38
479.876	1110.38
480.095	1151.38
480.313	1170.38
480.532	1192.38
480.751	1210.38
480.969	1133.38
481.188	1148.38
481.406	1074.38
481.624	1070.38
481.843	1067.38
482.061	1013.38
482.28	1068.38
482.498	1003.38
482.717	1035.38
482.935	1032.38
483.153	1047.38
483.372	1040.38
483.59	1026.38
483.808	1065.38
484.027	1034.38
484.245	1017.38
484.463	1049.38
484.681	1048.38
484.9	1049.38
485.118	1052.38
485.336	1068.38
485.554	1093.38
485.772	1073.38
485.99	1097.38
486.209	1100.38
486.427	1100.38
486.645	1059.38
486.863	1080.38
487.081	1105.38
487.299	1082.38
487.517	1093.38
487.735	1101.38
487.953	1099.38
488.171	1099.38
488.389	1086.38
488.607	1061.38
488.825	1079.38
489.043	1074.38
489.261	1037.38
489.479	1064.38
489.696	1102.38
489.914	1075.38
490.132	1120.38
490.35	1093.38
490.568	1092.38
490.786	1087.38
491.003	1083.38
491.221	1117.38
491.439	1119.38
491.657	1107.38
491.874	1105.38
492.092	1094.38
492.31	1119.38
492.527	1144.38
492.745	1096.38
492.963	1140.38
493.18	1090.38
493.398	1139.38
493.615	1142.38
493.833	1154.38
494.05	1164.38
494.268	1142.38
494.485	1168.38
494.703	1148.38
494.92	1164.38
495.138	1150.38
495.355	1153.38
495.573	1182.38
495.79	1182.38
496.008	1189.38
496.225	1195.38
496.442	1203.38
496.66	1216.38
496.877	1226.38
497.094	1225.38
497.312	1267.38
497.529	1270.38
497.746	1303.38
497.963	1336.38
498.181	1430.38
498.398	1444.38
498.615	1537.38
498.832	1654.38
499.049	1789.38
499.267	1867.38
499.484	2039.38
499.701	2228.38
499.918	2424.38
500.135	2756.38
500.352	3087.38
500.569	3181.38
500.786	3124.38
501.003	2919.38
501.22	2676.38
501.437	2402.38
501.654	2132.38
501.871	1986.38
502.088	1792.38
502.305	1773.38
502.522	1641.38
502.739	1557.38
502.956	1513.38
503.172	1429.38
503.389	1379.38
503.606	1328.38
503.823	1304.38
504.04	1337.38
504.256	1350.38
504.473	1369.38
504.69	1338.38
504.907	1320.38
505.123	1241.38
505.34	1174.38
505.557	1152.38
505.773	1099.38
505.99	1085.38
506.207	1064.38
506.423	1056.38
506.64	1044.38
506.856	1037.38
507.073	1046.38
507.289	1019.38
507.506	989.38
507.722	1010.38
507.939	976.38
508.155	980.38
508.372	944.38
508.588	960.38
508.805	969.38
509.021	928.38
509.238	959.38
509.454	926.38
509.67	948.38
509.887	941.38
510.103	926.38
510.319	914.38
510.536	921.38
510.752	893.38
510.968	939.38
511.184	922.38
511.401	923.38
511.617	912.38
511.833	899.38
512.049	892.38
512.265	928.38
512.481	928.38
512.698	930.38
512.914	901.38
513.13	900.38
513.346	898.38
513.562	927.38
513.778	910.38
513.994	920.38
514.21	931.38
514.426	957.38
514.642	924.38
514.858	918.38
515.074	968.38
515.29	932.38
515.506	917.38
515.721	976.38
515.937	997.38
516.153	1022.38
516.369	1026.38
516.585	1030.38
516.801	1041.38
517.016	1117.38
517.232	1165.38
517.448	1216.38
517.664	1218.38
517.879	1216.38
518.095	1235.38
518.311	1194.38
518.527	1159.38
518.742	1147.38
518.958	1080.38
519.173	1046.38
519.389	1018.38
519.605	991.38
519.82	960.38
520.036	965.38
520.251	954.38
520.467	939.38
520.682	909.38
520.898	928.38
521.113	895.38
521.329	894.38
521.544	898.38
521.76	891.38
521.975	871.38
522.19	900.38
522.406	873.38
522.621	860.38
522.836	852.38
523.052	851.38
523.267	893.38
523.482	857.38
523.698	857.38
523.913	837.38
524.128	846.38
524.343	845.38
524.559	860.38
524.774	821.38
524.989	857.38
525.204	858.38
525.419	820.38
525.634	815.38
525.849	817.38
526.064	836.38
526.28	838.38
526.495	839.38
526.71	829.38
526.925	817.38
527.14	834.38
527.355	807.38
527.57	830.38
527.785	797.38
527.999	836.38
528.214	830.38
528.429	818.38
528.644	823.38
528.859	834.38
529.074	811.38
529.289	844.38
529.503	853.38
529.718	828.38
529.933	814.38
530.148	832.38
530.363	813.38
530.577	852.38
530.792	804.38
531.007	806.38
531.221	822.38
531.436	814.38
531.651	822.38
531.865	834.38
532.08	824.38
532.295	826.38
532.509	798.38
532.724	820.38
532.938	809.38
533.153	804.38
533.367	816.38
533.582	827.38
533.796	836.38
534.011	816.38
534.225	789.38
534.44	800.38
534.654	804.38
534.868	784.38
535.083	812.38
535.297	789.38
535.511	799.38
535.726	770.38
535.94	789.38
536.154	773.38
536.369	777.38
536.583	777.38
536.797	767.38
537.011	768.38
537.225	759.38
537.44	742.38
537.654	777.38
537.868	755.38
538.082	762.38
538.296	753.38
538.51	748.38
538.724	747.38
538.938	727.38
539.153	761.38
539.367	777.38
539.581	745.38
539.795	746.38
540.009	717.38
540.222	748.38
540.436	737.38
540.65	752.38
540.864	752.38
541.078	733.38
541.292	733.38
541.506	765.38
541.72	735.38
541.934	728.38
542.147	737.38
542.361	737.38
542.575	738.38
542.789	748.38
543.002	715.38
543.216	706.38
543.43	713.38
543.644	723.38
543.857	714.38
544.071	731.38
544.285	767.38
544.498	728.38
544.712	757.38
544.925	742.38
545.139	752.38
545.352	747.38
545.566	730.38
545.779	757.38
545.993	776.38
546.206	760.38
546.42	760.38
546.633	773.38
546.847	754.38
547.06	735.38
547.274	756.38
547.487	754.38
547.7	757.38
547.914	777.38
548.127	750.38
548.34	758.38
548.554	752.38
548.767	747.38
548.98	784.38
549.193	764.38
549.407	770.38
549.62	779.38
549.833	758.38
550.046	784.38
550.259	740.38
550.473	752.38
550.686	730.38
550.899	716.38
551.112	728.38
551.325	718.38
551.538	726.38
551.751	702.38
551.964	730.38
552.177	723.38
552.39	737.38
552.603	733.38
552.816	747.38
553.029	794.38
553.242	842.38
553.455	814.38
553.667	834.38
553.88	810.38
554.093	781.38
554.306	780.38
554.519	789.38
554.732	742.38
554.944	723.38
555.157	718.38
555.37	696.38
555.583	666.38
555.795	699.38
556.008	686.38
556.221	651.38
556.433	707.38
556.646	683.38
556.859	634.38
557.071	632.38
557.284	654.38
557.496	644.38
557.709	616.38
557.921	671.38
558.134	645.38
558.346	625.38
558.559	640.38
558.771	621.38
558.984	640.38
559.196	630.38
559.409	643.38
559.621	595.38
559.833	614.38
560.046	635.38
560.258	609.38
560.47	626.38
560.683	619.38
560.895	636.38
561.107	619.38
561.32	608.38
561.532	612.38
561.744	609.38
561.956	628.38
562.168	614.38
562.381	602.38
562.593	626.38
562.805	618.38
563.017	628.38
563.229	646.38
563.441	613.38
563.653	634.38
563.865	628.38
564.077	626.38
564.289	663.38
564.501	652.38
564.713	665.38
564.925	668.38
565.137	650.38
565.349	696.38
565.561	739.38
565.773	727.38
565.985	773.38
566.197	816.38
566.408	836.38
566.62	924.38
566.832	956.38
567.044	967.38
567.255	960.38
567.467	1041.38
567.679	1036.38
567.891	1104.38
568.102	1108.38
568.314	1066.38
568.526	975.38
568.737	912.38
568.949	852.38
569.161	771.38
569.372	720.38
569.584	701.38
569.795	676.38
570.007	657.38
570.218	644.38
570.43	621.38
570.641	601.38
570.853	620.38
571.064	618.38
571.276	638.38
571.487	608.38
571.698	576.38
571.91	572.38
572.121	563.38
572.333	536.38
572.544	559.38
572.755	530.38
572.966	532.38
573.178	508.38
573.389	516.38
573.6	522.38
573.811	521.38
574.023	517.38
574.234	526.38
574.445	514.38
574.656	500.38
574.867	535.38
575.078	505.38
575.289	495.38
575.501	488.38
575.712	489.38
575.923	481.38
576.134	466.38
576.345	476.38
576.556	481.38
576.767	462.38
576.978	470.38
577.188	470.38
577.399	458.38
577.61	458.38
577.821	460.38
578.032	467.38
578.243	463.38
578.454	481.38
578.665	479.38
578.875	466.38
579.086	439.38
579.297	468.38
579.508	449.38
579.718	461.38
579.929	444.38
580.14	438.38
580.35	418.38
580.561	436.38
580.772	438.38
580.982	444.38
581.193	430.38
581.403	430.38
581.614	433.38
581.825	420.38
582.035	415.38
582.246	421.38
582.456	427.38
582.667	430.38
582.877	417.38
583.087	412.38
583.298	406.38
583.508	425.38
583.719	426.38
583.929	414.38
584.139	411.38
584.35	414.38
584.56	422.38
584.77	412.38
584.981	405.38
585.191	416.38
585.401	413.38
585.611	404.38
585.821	420.38
586.032	401.38
586.242	421.38
586.452	420.38
586.662	398.38
586.872	391.38
587.082	410.38
587.292	394.38
587.502	406.38
587.713	401.38
587.923	410.38
588.133	407.38
588.343	403.38
588.553	388.38
588.762	392.38
588.972	411.38
589.182	456.38
589.392	459.38
589.602	422.38
589.812	456.38
590.022	434.38
590.232	392.38
590.441	410.38
590.651	418.38
590.861	409.38
591.071	418.38
591.281	417.38
591.49	401.38
591.7	422.38
591.91	432.38
592.119	421.38
592.329	443.38
592.539	444.38
592.748	457.38
592.958	474.38
593.167	476.38
593.377	491.38
593.587	476.38
593.796	502.38
594.006	508.38
594.215	507.38
594.424	515.38
594.634	502.38
594.843	476.38
595.053	467.38
595.262	443.38
595.472	447.38
595.681	422.38
595.89	404.38
596.1	403.38
596.309	394.38
596.518	388.38
596.727	374.38
596.937	392.38
597.146	385.38
597.355	372.38
597.564	352.38
597.774	370.38
597.983	379.38
598.192	368.38
598.401	376.38
598.61	360.38
598.819	359.38
599.028	341.38
599.237	359.38
599.446	342.38
599.655	341.38
599.864	341.38
600.073	360.38
600.282	327.38
600.491	322.38
600.7	345.38
600.909	325.38
601.118	321.38
601.327	326.38
601.536	332.38
601.745	350.38
601.953	313.38
602.162	329.38
602.371	318.38
602.58	321.38
602.789	338.38
602.997	327.38
603.206	323.38
603.415	328.38
603.623	331.38
603.832	327.38
604.041	335.38
604.249	317.38
604.458	315.38
604.666	315.38
604.875	304.38
605.084	312.38
605.292	302.38
605.501	317.38
605.709	313.38
605.918	308.38
606.126	323.38
606.334	326.38
606.543	327.38
606.751	303.38
606.96	326.38
607.168	293.38
607.376	309.38
607.585	309.38
607.793	329.38
608.001	311.38
608.21	304.38
608.418	289.38
608.626	313.38
608.834	302.38
609.043	310.38
609.251	309.38
609.459	309.38
609.667	305.38
609.875	291.38
610.083	308.38
610.291	310.38
610.499	309.38
610.707	304.38
610.916	314.38
611.124	288.38
611.332	290.38
611.54	307.38
611.748	309.38
611.955	305.38
612.163	292.38
612.371	270.38
612.579	286.38
612.787	293.38
612.995	291.38
613.203	300.38
613.411	301.38
613.618	292.38
613.826	307.38
614.034	296.38
614.242	289.38
614.449	302.38
614.657	281.38
614.865	307.38
615.072	287.38
615.28	291.38
615.488	289.38
615.695	298.38
615.903	279.38
616.111	297.38
616.318	309.38
616.526	297.38
616.733	301.38
616.941	286.38
617.148	292.38
617.356	290.38
617.563	299.38
617.771	290.38
617.978	282.38
618.185	294.38
618.393	285.38
618.6	266.38
618.807	269.38
619.015	273.38
619.222	285.38
619.429	276.38
619.637	280.38
619.844	287.38
620.051	293.38
620.258	264.38
620.466	270.38
620.673	270.38
620.88	268.38
621.087	269.38
621.294	283.38
621.501	275.38
621.708	266.38
621.915	276.38
622.122	262.38
622.329	268.38
622.536	285.38
622.743	269.38
622.95	277.38
623.157	277.38
623.364	249.38
623.571	266.38
623.778	256.38
623.985	273.38
624.192	280.38
624.399	257.38
624.606	248.38
624.812	242.38
625.019	255.38
625.226	256.38
625.433	253.38
625.639	245.38
625.846	241.38
626.053	263.38
626.259	248.38
626.466	254.38
626.673	255.38
626.879	247.38
627.086	243.38
627.293	245.38
627.499	237.38
627.706	237.38
627.912	243.38
628.119	250.38
628.325	239.38
628.532	247.38
628.738	224.38
628.945	206.38
629.151	240.38
629.357	224.38
629.564	231.38
629.77	230.38
629.976	238.38
630.183	243.38
630.389	212.38
630.595	229.38
630.802	218.38
631.008	225.38
631.214	205.38
631.42	214.38
631.627	234.38
631.833	234.38
632.039	227.38
632.245	228.38
632.451	228.38
632.657	217.38
632.863	221.38
633.069	199.38
633.275	211.38
633.481	236.38
633.688	223.38
633.893	225.38
634.099	205.38
634.305	210.38
634.511	227.38
634.717	207.38
634.923	235.38
635.129	213.38
635.335	228.38
635.541	212.38
635.747	196.38
635.952	219.38
636.158	216.38
636.364	212.38
636.57	198.38
636.775	219.38
636.981	197.38
637.187	198.38
637.392	199.38
637.598	206.38
637.804	222.38
638.009	216.38
638.215	212.38
638.421	209.38
638.626	210.38
638.832	205.38
639.037	208.38
639.243	209.38
639.448	213.38
639.654	210.38
639.859	200.38
640.065	201.38
640.27	217.38
640.475	203.38
640.681	222.38
640.886	192.38
641.091	194.38
641.297	196.38
641.502	201.38
641.707	198.38
641.913	187.38
642.118	212.38
642.323	213.38
642.528	212.38
642.733	198.38
642.939	204.38
643.144	187.38
643.349	187.38
643.554	190.38
643.759	185.38
643.964	190.38
644.169	192.38
644.374	193.38
644.579	190.38
644.784	189.38
644.989	188.38
645.194	188.38
645.399	195.38
645.604	197.38
645.809	190.38
646.014	198.38
646.219	185.38
646.423	197.38
646.628	193.38
646.833	195.38
647.038	193.38
647.243	177.38
647.447	179.38
647.652	196.38
647.857	204.38
648.062	188.38
648.266	200.38
648.471	190.38
648.676	208.38
648.88	201.38
649.085	209.38
649.289	203.38
649.494	195.38
649.698	195.38
649.903	194.38
650.107	194.38
650.312	196.38
650.516	184.38
650.721	184.38
650.925	169.38
651.13	182.38
651.334	176.38
651.539	181.38
651.743	183.38
651.947	185.38
652.152	159.38
652.356	165.38
652.56	158.38
652.764	166.38
652.969	172.38
653.173	173.38
653.377	164.38
653.581	158.38
653.785	168.38
653.99	157.38
654.194	168.38
654.398	149.38
654.602	160.38
654.806	162.38
655.01	165.38
655.214	157.38
655.418	153.38
655.622	147.38
655.826	144.38
656.03	163.38
656.234	146.38
656.438	164.38
656.642	162.38
656.846	167.38
657.049	160.38
657.253	157.38
657.457	151.38
657.661	135.38
657.865	143.38
658.068	127.38
658.272	107.38
658.476	124.38
658.68	126.38
658.883	131.38
659.087	122.38
659.291	120.38
659.494	118.38
659.698	110.38
659.901	115.38
660.105	106.38
660.309	101.38
660.512	105.38
660.716	102.38
660.919	107.38
661.123	107.38
661.326	100.38
661.53	88.38
661.733	105.38
661.936	86.38
662.14	86.38
662.343	84.38
662.546	82.38
662.75	88.38
662.953	98.38
663.156	83.38
663.36	72.38
663.563	72.38
663.766	80.38
663.969	82.38
664.173	93.38
664.376	79.38
664.579	82.38
664.782	90.38
664.985	90.38
665.188	89.38
665.391	84.38
665.594	87.38
665.797	77.38
666	86.38
666.203	92.38
666.406	78.38
666.609	81.38
666.812	82.38
667.015	69.38
667.218	64.38
667.421	76.38
667.624	72.38
667.827	79.38
668.03	88.38
668.232	78.38
668.435	75.38
668.638	88.38
668.841	89.38
669.043	81.38
669.246	92.38
669.449	78.38
669.651	88.38
669.854	81.38
670.057	79.38
670.259	90.38
670.462	91.38
670.665	79.38
670.867	82.38
671.07	74.38
671.272	84.38
671.475	83.38
671.677	99.38
671.88	85.38
672.082	83.38
672.284	89.38
672.487	80.38
672.689	67.38
672.892	84.38
