Data from NiCl2@0.125M.TitratingCurve.Agarose3%dH2O.NegLispCup.LampEnergy10.LIBS07252019_HRD10591_18-30-17-575.txt Node
Date: Thu Jul 25 18:30:17 EDT 2019
User: cochatt
Spectrometer: HR+D1059
Trigger mode: 1
Integration Time (sec): 1.000000E-1
Scans to average: 1
Electric dark correction enabled: true
Nonlinearity correction enabled: false
Boxcar width: 0
XAxis mode: Wavelengths
Number of Pixels in Spectrum: 2048
>>>>>Begin Spectral Data<<<<<
223.165	-15.38
223.4	-15.38
223.635	-15.38
223.869	-7.38
224.104	-8.38
224.338	-9.38
224.573	-17.38
224.808	-18.38
225.042	10.62
225.277	-6.38
225.511	-5.38
225.746	7.62
225.98	-8.38
226.215	14.62
226.449	19.62
226.683	10.62
226.918	18.62
227.152	14.62
227.387	22.62
227.621	29.62
227.856	57.62
228.09	45.62
228.324	50.62
228.559	54.62
228.793	65.62
229.027	102.62
229.262	130.62
229.496	112.62
229.73	118.62
229.964	127.62
230.199	128.62
230.433	134.62
230.667	134.62
230.901	137.62
231.136	140.62
231.37	124.62
231.604	145.62
231.838	150.62
232.072	138.62
232.306	150.62
232.541	155.62
232.775	152.62
233.009	148.62
233.243	149.62
233.477	150.62
233.711	141.62
233.945	144.62
234.179	165.62
234.413	139.62
234.647	156.62
234.881	153.62
235.115	150.62
235.349	150.62
235.583	153.62
235.817	137.62
236.051	145.62
236.285	157.62
236.519	152.62
236.753	158.62
236.987	148.62
237.221	156.62
237.455	157.62
237.689	156.62
237.922	154.62
238.156	167.62
238.39	154.62
238.624	164.62
238.858	154.62
239.091	160.62
239.325	147.62
239.559	173.62
239.793	179.62
240.027	182.62
240.26	171.62
240.494	158.62
240.728	172.62
240.961	163.62
241.195	173.62
241.429	166.62
241.662	171.62
241.896	189.62
242.13	182.62
242.363	184.62
242.597	178.62
242.83	180.62
243.064	197.62
243.298	196.62
243.531	184.62
243.765	204.62
243.998	202.62
244.232	194.62
244.465	187.62
244.699	206.62
244.932	212.62
245.166	201.62
245.399	198.62
245.633	206.62
245.866	216.62
246.099	214.62
246.333	214.62
246.566	221.62
246.8	221.62
247.033	206.62
247.266	212.62
247.5	218.62
247.733	220.62
247.966	235.62
248.2	210.62
248.433	234.62
248.666	225.62
248.899	224.62
249.133	234.62
249.366	235.62
249.599	243.62
249.832	233.62
250.066	250.62
250.299	237.62
250.532	243.62
250.765	241.62
250.998	245.62
251.231	243.62
251.465	236.62
251.698	214.62
251.931	226.62
252.164	250.62
252.397	260.62
252.63	246.62
252.863	268.62
253.096	236.62
253.329	264.62
253.562	266.62
253.795	253.62
254.028	256.62
254.261	262.62
254.494	296.62
254.727	256.62
254.96	258.62
255.193	274.62
255.426	257.62
255.659	263.62
255.892	271.62
256.124	265.62
256.357	245.62
256.59	287.62
256.823	275.62
257.056	280.62
257.289	279.62
257.521	282.62
257.754	270.62
257.987	284.62
258.22	274.62
258.452	281.62
258.685	295.62
258.918	293.62
259.151	285.62
259.383	292.62
259.616	270.62
259.849	278.62
260.081	277.62
260.314	305.62
260.547	302.62
260.779	313.62
261.012	298.62
261.244	274.62
261.477	287.62
261.71	300.62
261.942	315.62
262.175	317.62
262.407	303.62
262.64	300.62
262.872	300.62
263.105	301.62
263.337	316.62
263.57	298.62
263.802	335.62
264.035	292.62
264.267	310.62
264.499	322.62
264.732	328.62
264.964	336.62
265.197	336.62
265.429	327.62
265.661	332.62
265.894	314.62
266.126	326.62
266.358	329.62
266.591	338.62
266.823	350.62
267.055	334.62
267.287	330.62
267.52	334.62
267.752	333.62
267.984	330.62
268.216	358.62
268.448	373.62
268.681	324.62
268.913	330.62
269.145	357.62
269.377	359.62
269.609	349.62
269.841	356.62
270.073	342.62
270.306	329.62
270.538	336.62
270.77	364.62
271.002	351.62
271.234	362.62
271.466	361.62
271.698	359.62
271.93	358.62
272.162	364.62
272.394	353.62
272.626	369.62
272.858	361.62
273.09	361.62
273.322	367.62
273.553	367.62
273.785	372.62
274.017	382.62
274.249	366.62
274.481	354.62
274.713	379.62
274.945	386.62
275.176	372.62
275.408	375.62
275.64	373.62
275.872	383.62
276.104	380.62
276.335	390.62
276.567	384.62
276.799	400.62
277.031	385.62
277.262	402.62
277.494	403.62
277.726	382.62
277.957	397.62
278.189	408.62
278.421	408.62
278.652	398.62
278.884	398.62
279.115	397.62
279.347	412.62
279.579	421.62
279.81	426.62
280.042	411.62
280.273	409.62
280.505	413.62
280.736	428.62
280.968	415.62
281.199	425.62
281.431	425.62
281.662	408.62
281.894	428.62
282.125	408.62
282.356	436.62
282.588	427.62
282.819	421.62
283.051	448.62
283.282	427.62
283.513	463.62
283.745	418.62
283.976	441.62
284.207	441.62
284.439	449.62
284.67	433.62
284.901	445.62
285.132	433.62
285.364	462.62
285.595	449.62
285.826	441.62
286.057	448.62
286.288	441.62
286.52	451.62
286.751	456.62
286.982	452.62
287.213	461.62
287.444	460.62
287.675	457.62
287.906	458.62
288.138	446.62
288.369	477.62
288.6	457.62
288.831	464.62
289.062	484.62
289.293	472.62
289.524	460.62
289.755	471.62
289.986	466.62
290.217	469.62
290.448	474.62
290.679	484.62
290.91	473.62
291.141	442.62
291.371	494.62
291.602	483.62
291.833	479.62
292.064	490.62
292.295	490.62
292.526	482.62
292.757	487.62
292.987	475.62
293.218	468.62
293.449	493.62
293.68	483.62
293.91	474.62
294.141	479.62
294.372	483.62
294.603	489.62
294.833	493.62
295.064	488.62
295.295	491.62
295.525	492.62
295.756	487.62
295.987	488.62
296.217	502.62
296.448	495.62
296.679	510.62
296.909	489.62
297.14	492.62
297.37	492.62
297.601	529.62
297.831	541.62
298.062	522.62
298.292	534.62
298.523	538.62
298.753	538.62
298.984	528.62
299.214	561.62
299.445	516.62
299.675	493.62
299.905	524.62
300.136	523.62
300.366	527.62
300.597	535.62
300.827	552.62
301.057	565.62
301.288	546.62
301.518	560.62
301.748	525.62
301.979	555.62
302.209	554.62
302.439	556.62
302.669	566.62
302.9	542.62
303.13	549.62
303.36	544.62
303.59	540.62
303.82	564.62
304.051	544.62
304.281	544.62
304.511	541.62
304.741	548.62
304.971	525.62
305.201	522.62
305.431	554.62
305.661	536.62
305.891	518.62
306.121	521.62
306.352	531.62
306.582	548.62
306.812	543.62
307.042	533.62
307.272	540.62
307.502	521.62
307.731	529.62
307.961	522.62
308.191	521.62
308.421	530.62
308.651	522.62
308.881	516.62
309.111	528.62
309.341	528.62
309.571	516.62
309.8	544.62
310.03	526.62
310.26	520.62
310.49	530.62
310.72	540.62
310.949	539.62
311.179	539.62
311.409	555.62
311.639	521.62
311.868	524.62
312.098	546.62
312.328	535.62
312.557	542.62
312.787	545.62
313.017	546.62
313.246	581.62
313.476	558.62
313.706	582.62
313.935	572.62
314.165	580.62
314.394	560.62
314.624	568.62
314.853	569.62
315.083	555.62
315.312	569.62
315.542	558.62
315.771	564.62
316.001	550.62
316.23	545.62
316.46	557.62
316.689	543.62
316.919	544.62
317.148	538.62
317.377	582.62
317.607	564.62
317.836	546.62
318.065	546.62
318.295	557.62
318.524	543.62
318.753	555.62
318.983	562.62
319.212	541.62
319.441	558.62
319.67	540.62
319.9	522.62
320.129	553.62
320.358	556.62
320.587	548.62
320.816	544.62
321.046	562.62
321.275	558.62
321.504	525.62
321.733	544.62
321.962	529.62
322.191	559.62
322.42	542.62
322.649	560.62
322.878	554.62
323.108	557.62
323.337	548.62
323.566	580.62
323.795	576.62
324.024	568.62
324.253	558.62
324.482	546.62
324.71	556.62
324.939	580.62
325.168	600.62
325.397	556.62
325.626	584.62
325.855	587.62
326.084	571.62
326.313	597.62
326.542	625.62
326.77	624.62
326.999	606.62
327.228	603.62
327.457	574.62
327.686	604.62
327.914	613.62
328.143	612.62
328.372	614.62
328.6	621.62
328.829	628.62
329.058	591.62
329.287	606.62
329.515	606.62
329.744	596.62
329.972	601.62
330.201	623.62
330.43	610.62
330.658	608.62
330.887	586.62
331.115	622.62
331.344	621.62
331.572	635.62
331.801	650.62
332.03	648.62
332.258	642.62
332.486	690.62
332.715	713.62
332.943	746.62
333.172	763.62
333.4	794.62
333.629	842.62
333.857	837.62
334.085	829.62
334.314	802.62
334.542	781.62
334.771	760.62
334.999	742.62
335.227	749.62
335.455	760.62
335.684	733.62
335.912	727.62
336.14	744.62
336.369	721.62
336.597	717.62
336.825	722.62
337.053	745.62
337.281	706.62
337.51	687.62
337.738	677.62
337.966	658.62
338.194	646.62
338.422	666.62
338.65	646.62
338.878	646.62
339.106	642.62
339.334	664.62
339.562	623.62
339.79	624.62
340.018	625.62
340.246	614.62
340.474	625.62
340.702	601.62
340.93	607.62
341.158	621.62
341.386	633.62
341.614	644.62
341.842	617.62
342.07	619.62
342.298	636.62
342.526	614.62
342.754	619.62
342.981	614.62
343.209	621.62
343.437	679.62
343.665	695.62
343.893	757.62
344.12	799.62
344.348	763.62
344.576	696.62
344.804	674.62
345.031	671.62
345.259	644.62
345.487	646.62
345.714	629.62
345.942	613.62
346.17	625.62
346.397	634.62
346.625	629.62
346.853	629.62
347.08	623.62
347.308	626.62
347.535	619.62
347.763	629.62
347.99	656.62
348.218	635.62
348.445	620.62
348.673	619.62
348.9	637.62
349.128	617.62
349.355	608.62
349.583	601.62
349.81	582.62
350.037	592.62
350.265	581.62
350.492	610.62
350.72	587.62
350.947	587.62
351.174	558.62
351.402	570.62
351.629	596.62
351.856	591.62
352.083	554.62
352.311	586.62
352.538	584.62
352.765	617.62
352.992	590.62
353.22	554.62
353.447	578.62
353.674	594.62
353.901	568.62
354.128	577.62
354.355	593.62
354.583	580.62
354.81	569.62
355.037	587.62
355.264	584.62
355.491	601.62
355.718	588.62
355.945	573.62
356.172	579.62
356.399	596.62
356.626	576.62
356.853	566.62
357.08	598.62
357.307	585.62
357.534	593.62
357.761	569.62
357.988	585.62
358.215	577.62
358.441	579.62
358.668	580.62
358.895	577.62
359.122	592.62
359.349	553.62
359.576	589.62
359.802	582.62
360.029	568.62
360.256	579.62
360.483	597.62
360.709	584.62
360.936	622.62
361.163	568.62
361.39	582.62
361.616	573.62
361.843	572.62
362.07	581.62
362.296	575.62
362.523	595.62
362.749	566.62
362.976	593.62
363.203	584.62
363.429	592.62
363.656	583.62
363.882	576.62
364.109	573.62
364.335	620.62
364.562	568.62
364.788	585.62
365.015	603.62
365.241	585.62
365.468	590.62
365.694	601.62
365.92	589.62
366.147	582.62
366.373	562.62
366.599	611.62
366.826	584.62
367.052	578.62
367.278	595.62
367.505	573.62
367.731	592.62
367.957	591.62
368.184	579.62
368.41	582.62
368.636	580.62
368.862	592.62
369.089	581.62
369.315	592.62
369.541	610.62
369.767	597.62
369.993	612.62
370.219	598.62
370.445	620.62
370.672	606.62
370.898	621.62
371.124	628.62
371.35	615.62
371.576	624.62
371.802	637.62
372.028	636.62
372.254	630.62
372.48	626.62
372.706	638.62
372.932	668.62
373.158	667.62
373.384	640.62
373.61	618.62
373.835	633.62
374.061	617.62
374.287	652.62
374.513	646.62
374.739	677.62
374.965	713.62
375.191	724.62
375.416	714.62
375.642	710.62
375.868	704.62
376.094	642.62
376.319	660.62
376.545	644.62
376.771	657.62
376.997	640.62
377.222	648.62
377.448	632.62
377.674	634.62
377.899	633.62
378.125	629.62
378.35	636.62
378.576	617.62
378.802	630.62
379.027	630.62
379.253	632.62
379.478	650.62
379.704	632.62
379.929	620.62
380.155	621.62
380.38	619.62
380.606	640.62
380.831	644.62
381.057	634.62
381.282	622.62
381.507	614.62
381.733	647.62
381.958	636.62
382.184	650.62
382.409	648.62
382.634	660.62
382.86	660.62
383.085	671.62
383.31	668.62
383.535	687.62
383.761	704.62
383.986	724.62
384.211	717.62
384.436	741.62
384.662	761.62
384.887	752.62
385.112	731.62
385.337	762.62
385.562	756.62
385.787	752.62
386.013	770.62
386.238	785.62
386.463	770.62
386.688	762.62
386.913	770.62
387.138	750.62
387.363	724.62
387.588	737.62
387.813	748.62
388.038	748.62
388.263	764.62
388.488	736.62
388.713	723.62
388.938	744.62
389.163	743.62
389.387	741.62
389.612	723.62
389.837	759.62
390.062	756.62
390.287	741.62
390.512	724.62
390.736	772.62
390.961	770.62
391.186	782.62
391.411	819.62
391.636	818.62
391.86	854.62
392.085	875.62
392.31	848.62
392.534	836.62
392.759	840.62
392.984	830.62
393.208	797.62
393.433	796.62
393.658	801.62
393.882	797.62
394.107	810.62
394.331	824.62
394.556	822.62
394.78	810.62
395.005	829.62
395.229	832.62
395.454	850.62
395.678	855.62
395.903	865.62
396.127	854.62
396.352	810.62
396.576	800.62
396.801	793.62
397.025	819.62
397.249	814.62
397.474	832.62
397.698	854.62
397.922	851.62
398.147	834.62
398.371	857.62
398.595	902.62
398.82	914.62
399.044	1004.62
399.268	1083.62
399.492	1308.62
399.717	1490.62
399.941	1496.62
400.165	1299.62
400.389	1161.62
400.613	1031.62
400.837	979.62
401.062	964.62
401.286	946.62
401.51	935.62
401.734	968.62
401.958	1003.62
402.182	974.62
402.406	982.62
402.63	1006.62
402.854	1058.62
403.078	1060.62
403.302	1064.62
403.526	1098.62
403.75	1109.62
403.974	1128.62
404.198	1116.62
404.422	1142.62
404.645	1133.62
404.869	1108.62
405.093	1103.62
405.317	1108.62
405.541	1050.62
405.765	1060.62
405.988	1050.62
406.212	1042.62
406.436	1037.62
406.66	1094.62
406.883	1088.62
407.107	1184.62
407.331	1233.62
407.555	1251.62
407.778	1224.62
408.002	1228.62
408.226	1159.62
408.449	1181.62
408.673	1099.62
408.896	1060.62
409.12	1080.62
409.344	1119.62
409.567	1099.62
409.791	1126.62
410.014	1110.62
410.238	1082.62
410.461	1112.62
410.685	1092.62
410.908	1029.62
411.132	1023.62
411.355	1000.62
411.578	1026.62
411.802	988.62
412.025	991.62
412.249	1038.62
412.472	1033.62
412.695	962.62
412.919	960.62
413.142	945.62
413.365	944.62
413.589	956.62
413.812	921.62
414.035	934.62
414.258	962.62
414.482	945.62
414.705	978.62
414.928	940.62
415.151	981.62
415.374	940.62
415.597	951.62
415.821	947.62
416.044	958.62
416.267	923.62
416.49	921.62
416.713	928.62
416.936	979.62
417.159	946.62
417.382	940.62
417.605	952.62
417.828	944.62
418.051	929.62
418.274	950.62
418.497	948.62
418.72	986.62
418.943	988.62
419.166	1034.62
419.389	1117.62
419.611	1080.62
419.834	1020.62
420.057	983.62
420.28	949.62
420.503	933.62
420.726	983.62
420.948	934.62
421.171	972.62
421.394	943.62
421.617	942.62
421.839	965.62
422.062	962.62
422.285	959.62
422.507	963.62
422.73	1017.62
422.953	994.62
423.175	1018.62
423.398	1015.62
423.621	1012.62
423.843	1041.62
424.066	1054.62
424.288	1057.62
424.511	1006.62
424.733	999.62
424.956	990.62
425.178	1008.62
425.401	993.62
425.623	960.62
425.846	952.62
426.068	931.62
426.291	910.62
426.513	902.62
426.735	895.62
426.958	888.62
427.18	876.62
427.402	869.62
427.625	886.62
427.847	820.62
428.069	859.62
428.292	870.62
428.514	851.62
428.736	863.62
428.958	849.62
429.181	823.62
429.403	848.62
429.625	820.62
429.847	827.62
430.069	845.62
430.292	850.62
430.514	829.62
430.736	845.62
430.958	848.62
431.18	822.62
431.402	836.62
431.624	849.62
431.846	841.62
432.068	861.62
432.29	897.62
432.512	869.62
432.734	871.62
432.956	864.62
433.178	858.62
433.4	829.62
433.622	868.62
433.844	895.62
434.066	872.62
434.287	871.62
434.509	912.62
434.731	897.62
434.953	951.62
435.175	965.62
435.397	963.62
435.618	926.62
435.84	904.62
436.062	877.62
436.284	860.62
436.505	847.62
436.727	854.62
436.949	877.62
437.17	869.62
437.392	848.62
437.614	826.62
437.835	835.62
438.057	838.62
438.278	826.62
438.5	813.62
438.721	837.62
438.943	824.62
439.165	795.62
439.386	837.62
439.608	855.62
439.829	868.62
440.05	845.62
440.272	871.62
440.493	871.62
440.715	876.62
440.936	888.62
441.158	888.62
441.379	961.62
441.6	973.62
441.822	977.62
442.043	972.62
442.264	975.62
442.486	931.62
442.707	968.62
442.928	978.62
443.149	986.62
443.371	943.62
443.592	977.62
443.813	973.62
444.034	985.62
444.255	1022.62
444.476	1069.62
444.698	1133.62
444.919	1201.62
445.14	1267.62
445.361	1121.62
445.582	1007.62
445.803	964.62
446.024	914.62
446.245	942.62
446.466	904.62
446.687	872.62
446.908	876.62
447.129	849.62
447.35	863.62
447.571	836.62
447.792	790.62
448.013	810.62
448.234	833.62
448.455	820.62
448.675	792.62
448.896	788.62
449.117	791.62
449.338	802.62
449.559	786.62
449.779	797.62
450	801.62
450.221	795.62
450.442	814.62
450.662	778.62
450.883	838.62
451.104	822.62
451.324	846.62
451.545	836.62
451.766	832.62
451.986	826.62
452.207	809.62
452.428	815.62
452.648	791.62
452.869	764.62
453.089	791.62
453.31	818.62
453.53	777.62
453.751	786.62
453.971	786.62
454.192	790.62
454.412	792.62
454.633	775.62
454.853	743.62
455.073	763.62
455.294	746.62
455.514	726.62
455.734	764.62
455.955	707.62
456.175	757.62
456.395	749.62
456.616	737.62
456.836	754.62
457.056	741.62
457.276	736.62
457.497	735.62
457.717	740.62
457.937	720.62
458.157	750.62
458.377	769.62
458.598	776.62
458.818	789.62
459.038	834.62
459.258	879.62
459.478	854.62
459.698	912.62
459.918	914.62
460.138	939.62
460.358	998.62
460.578	1016.62
460.798	1044.62
461.018	1048.62
461.238	1048.62
461.458	1002.62
461.678	988.62
461.898	1010.62
462.118	1036.62
462.338	1072.62
462.558	1126.62
462.777	1158.62
462.997	1318.62
463.217	1375.62
463.437	1421.62
463.657	1286.62
463.876	1261.62
464.096	1201.62
464.316	1194.62
464.536	1229.62
464.755	1167.62
464.975	1128.62
465.195	1079.62
465.414	1026.62
465.634	948.62
465.854	918.62
466.073	877.62
466.293	865.62
466.512	856.62
466.732	840.62
466.951	823.62
467.171	841.62
467.391	818.62
467.61	829.62
467.829	835.62
468.049	829.62
468.268	808.62
468.488	782.62
468.707	784.62
468.927	785.62
469.146	765.62
469.365	838.62
469.585	831.62
469.804	844.62
470.023	864.62
470.243	852.62
470.462	876.62
470.681	870.62
470.901	871.62
471.12	852.62
471.339	838.62
471.558	794.62
471.777	810.62
471.997	814.62
472.216	797.62
472.435	791.62
472.654	800.62
472.873	743.62
473.092	766.62
473.311	768.62
473.53	754.62
473.749	787.62
473.968	764.62
474.187	769.62
474.406	747.62
474.625	776.62
474.844	769.62
475.063	763.62
475.282	769.62
475.501	809.62
475.72	801.62
475.939	786.62
476.158	821.62
476.377	813.62
476.596	824.62
476.814	817.62
477.033	825.62
477.252	844.62
477.471	847.62
477.69	835.62
477.908	909.62
478.127	904.62
478.346	905.62
478.564	915.62
478.783	968.62
479.002	972.62
479.22	971.62
479.439	983.62
479.658	960.62
479.876	977.62
480.095	961.62
480.313	1033.62
480.532	1044.62
480.751	1069.62
480.969	1013.62
481.188	982.62
481.406	940.62
481.624	918.62
481.843	904.62
482.061	901.62
482.28	891.62
482.498	891.62
482.717	841.62
482.935	891.62
483.153	891.62
483.372	889.62
483.59	890.62
483.808	901.62
484.027	877.62
484.245	876.62
484.463	896.62
484.681	918.62
484.9	922.62
485.118	920.62
485.336	903.62
485.554	926.62
485.772	951.62
485.99	960.62
486.209	961.62
486.427	958.62
486.645	976.62
486.863	967.62
487.081	951.62
487.299	922.62
487.517	925.62
487.735	927.62
487.953	927.62
488.171	949.62
488.389	921.62
488.607	935.62
488.825	906.62
489.043	920.62
489.261	907.62
489.479	903.62
489.696	913.62
489.914	887.62
490.132	936.62
490.35	940.62
490.568	949.62
490.786	937.62
491.003	942.62
491.221	925.62
491.439	934.62
491.657	905.62
491.874	929.62
492.092	934.62
492.31	944.62
492.527	964.62
492.745	947.62
492.963	937.62
493.18	969.62
493.398	951.62
493.615	968.62
493.833	951.62
494.05	983.62
494.268	987.62
494.485	971.62
494.703	952.62
494.92	968.62
495.138	959.62
495.355	964.62
495.573	982.62
495.79	979.62
496.008	982.62
496.225	952.62
496.442	1028.62
496.66	992.62
496.877	980.62
497.094	1030.62
497.312	1066.62
497.529	1056.62
497.746	1078.62
497.963	1115.62
498.181	1142.62
498.398	1210.62
498.615	1312.62
498.832	1364.62
499.049	1465.62
499.267	1601.62
499.484	1744.62
499.701	1920.62
499.918	2112.62
500.135	2551.62
500.352	2960.62
500.569	3146.62
500.786	3089.62
501.003	2918.62
501.22	2562.62
501.437	2175.62
501.654	1903.62
501.871	1745.62
502.088	1561.62
502.305	1470.62
502.522	1360.62
502.739	1358.62
502.956	1230.62
503.172	1212.62
503.389	1174.62
503.606	1130.62
503.823	1099.62
504.04	1119.62
504.256	1092.62
504.473	1126.62
504.69	1187.62
504.907	1168.62
505.123	1110.62
505.34	1031.62
505.557	965.62
505.773	965.62
505.99	927.62
506.207	901.62
506.423	877.62
506.64	872.62
506.856	896.62
507.073	888.62
507.289	871.62
507.506	900.62
507.722	858.62
507.939	849.62
508.155	855.62
508.372	834.62
508.588	820.62
508.805	833.62
509.021	814.62
509.238	820.62
509.454	813.62
509.67	820.62
509.887	818.62
510.103	800.62
510.319	787.62
510.536	810.62
510.752	804.62
510.968	784.62
511.184	802.62
511.401	778.62
511.617	785.62
511.833	790.62
512.049	799.62
512.265	788.62
512.481	776.62
512.698	768.62
512.914	805.62
513.13	767.62
513.346	762.62
513.562	773.62
513.778	793.62
513.994	786.62
514.21	790.62
514.426	813.62
514.642	821.62
514.858	805.62
515.074	815.62
515.29	842.62
515.506	829.62
515.721	838.62
515.937	861.62
516.153	845.62
516.369	860.62
516.585	900.62
516.801	929.62
517.016	977.62
517.232	1004.62
517.448	1070.62
517.664	1100.62
517.879	1119.62
518.095	1146.62
518.311	1105.62
518.527	1020.62
518.742	995.62
518.958	955.62
519.173	909.62
519.389	910.62
519.605	894.62
519.82	842.62
520.036	838.62
520.251	823.62
520.467	798.62
520.682	815.62
520.898	815.62
521.113	767.62
521.329	760.62
521.544	790.62
521.76	780.62
521.975	756.62
522.19	760.62
522.406	767.62
522.621	761.62
522.836	742.62
523.052	754.62
523.267	763.62
523.482	751.62
523.698	728.62
523.913	735.62
524.128	740.62
524.343	734.62
524.559	712.62
524.774	714.62
524.989	731.62
525.204	735.62
525.419	732.62
525.634	729.62
525.849	732.62
526.064	723.62
526.28	732.62
526.495	745.62
526.71	705.62
526.925	710.62
527.14	718.62
527.355	721.62
527.57	714.62
527.785	736.62
527.999	729.62
528.214	704.62
528.429	716.62
528.644	747.62
528.859	714.62
529.074	721.62
529.289	697.62
529.503	720.62
529.718	733.62
529.933	735.62
530.148	714.62
530.363	741.62
530.577	714.62
530.792	703.62
531.007	714.62
531.221	728.62
531.436	702.62
531.651	733.62
531.865	728.62
532.08	724.62
532.295	712.62
532.509	710.62
532.724	722.62
532.938	695.62
533.153	711.62
533.367	728.62
533.582	709.62
533.796	714.62
534.011	726.62
534.225	706.62
534.44	708.62
534.654	699.62
534.868	712.62
535.083	696.62
535.297	700.62
535.511	687.62
535.726	698.62
535.94	675.62
536.154	675.62
536.369	685.62
536.583	681.62
536.797	694.62
537.011	660.62
537.225	672.62
537.44	665.62
537.654	653.62
537.868	641.62
538.082	656.62
538.296	686.62
538.51	657.62
538.724	686.62
538.938	660.62
539.153	654.62
539.367	667.62
539.581	636.62
539.795	631.62
540.009	645.62
540.222	650.62
540.436	645.62
540.65	654.62
540.864	648.62
541.078	635.62
541.292	662.62
541.506	666.62
541.72	655.62
541.934	659.62
542.147	638.62
542.361	637.62
542.575	615.62
542.789	636.62
543.002	635.62
543.216	656.62
543.43	642.62
543.644	628.62
543.857	660.62
544.071	642.62
544.285	632.62
544.498	633.62
544.712	624.62
544.925	677.62
545.139	669.62
545.352	671.62
545.566	652.62
545.779	668.62
545.993	657.62
546.206	654.62
546.42	665.62
546.633	660.62
546.847	670.62
547.06	673.62
547.274	643.62
547.487	641.62
547.7	686.62
547.914	648.62
548.127	673.62
548.34	685.62
548.554	652.62
548.767	652.62
548.98	642.62
549.193	668.62
549.407	692.62
549.62	679.62
549.833	702.62
550.046	653.62
550.259	677.62
550.473	653.62
550.686	620.62
550.899	646.62
551.112	633.62
551.325	632.62
551.538	643.62
551.751	659.62
551.964	652.62
552.177	658.62
552.39	641.62
552.603	671.62
552.816	696.62
553.029	696.62
553.242	717.62
553.455	733.62
553.667	733.62
553.88	735.62
554.093	713.62
554.306	672.62
554.519	658.62
554.732	664.62
554.944	628.62
555.157	657.62
555.37	622.62
555.583	621.62
555.795	610.62
556.008	605.62
556.221	587.62
556.433	590.62
556.646	583.62
556.859	574.62
557.071	582.62
557.284	573.62
557.496	572.62
557.709	554.62
557.921	552.62
558.134	560.62
558.346	554.62
558.559	581.62
558.771	568.62
558.984	567.62
559.196	544.62
559.409	555.62
559.621	547.62
559.833	538.62
560.046	566.62
560.258	528.62
560.47	544.62
560.683	550.62
560.895	543.62
561.107	547.62
561.32	552.62
561.532	547.62
561.744	556.62
561.956	526.62
562.168	544.62
562.381	526.62
562.593	576.62
562.805	582.62
563.017	556.62
563.229	568.62
563.441	572.62
563.653	564.62
563.865	571.62
564.077	546.62
564.289	546.62
564.501	571.62
564.713	598.62
564.925	572.62
565.137	598.62
565.349	594.62
565.561	637.62
565.773	656.62
565.985	674.62
566.197	694.62
566.408	772.62
566.62	857.62
566.832	900.62
567.044	920.62
567.255	941.62
567.467	934.62
567.679	991.62
567.891	1080.62
568.102	1116.62
568.314	1050.62
568.526	938.62
568.737	862.62
568.949	767.62
569.161	694.62
569.372	653.62
569.584	629.62
569.795	616.62
570.007	572.62
570.218	558.62
570.43	576.62
570.641	560.62
570.853	563.62
571.064	568.62
571.276	561.62
571.487	552.62
571.698	526.62
571.91	489.62
572.121	508.62
572.333	495.62
572.544	500.62
572.755	479.62
572.966	513.62
573.178	482.62
573.389	482.62
573.6	469.62
573.811	453.62
574.023	472.62
574.234	470.62
574.445	462.62
574.656	472.62
574.867	463.62
575.078	448.62
575.289	446.62
575.501	458.62
575.712	431.62
575.923	450.62
576.134	441.62
576.345	445.62
576.556	439.62
576.767	431.62
576.978	428.62
577.188	428.62
577.399	443.62
577.61	417.62
577.821	425.62
578.032	434.62
578.243	418.62
578.454	425.62
578.665	419.62
578.875	422.62
579.086	420.62
579.297	388.62
579.508	423.62
579.718	419.62
579.929	422.62
580.14	398.62
580.35	411.62
580.561	403.62
580.772	407.62
580.982	407.62
581.193	408.62
581.403	399.62
581.614	382.62
581.825	388.62
582.035	386.62
582.246	396.62
582.456	412.62
582.667	384.62
582.877	388.62
583.087	380.62
583.298	388.62
583.508	365.62
583.719	402.62
583.929	387.62
584.139	385.62
584.35	368.62
584.56	382.62
584.77	381.62
584.981	391.62
585.191	376.62
585.401	376.62
585.611	368.62
585.821	362.62
586.032	364.62
586.242	382.62
586.452	384.62
586.662	381.62
586.872	385.62
587.082	392.62
587.292	382.62
587.502	368.62
587.713	380.62
587.923	354.62
588.133	376.62
588.343	365.62
588.553	370.62
588.762	380.62
588.972	368.62
589.182	373.62
589.392	369.62
589.602	392.62
589.812	392.62
590.022	374.62
590.232	376.62
590.441	353.62
590.651	392.62
590.861	385.62
591.071	370.62
591.281	395.62
591.49	404.62
591.7	406.62
591.91	386.62
592.119	387.62
592.329	396.62
592.539	432.62
592.748	441.62
592.958	471.62
593.167	482.62
593.377	469.62
593.587	485.62
593.796	476.62
594.006	473.62
594.215	492.62
594.424	509.62
594.634	479.62
594.843	468.62
595.053	440.62
595.262	418.62
595.472	410.62
595.681	397.62
595.89	382.62
596.1	385.62
596.309	363.62
596.518	367.62
596.727	364.62
596.937	355.62
597.146	364.62
597.355	357.62
597.564	347.62
597.774	344.62
597.983	335.62
598.192	343.62
598.401	340.62
598.61	330.62
598.819	338.62
599.028	329.62
599.237	325.62
599.446	315.62
599.655	311.62
599.864	299.62
600.073	320.62
600.282	317.62
600.491	314.62
600.7	315.62
600.909	303.62
601.118	306.62
601.327	317.62
601.536	312.62
601.745	325.62
601.953	325.62
602.162	288.62
602.371	310.62
602.58	317.62
602.789	309.62
602.997	311.62
603.206	313.62
603.415	298.62
603.623	315.62
603.832	304.62
604.041	312.62
604.249	293.62
604.458	298.62
604.666	288.62
604.875	280.62
605.084	317.62
605.292	297.62
605.501	288.62
605.709	283.62
605.918	294.62
606.126	304.62
606.334	277.62
606.543	290.62
606.751	281.62
606.96	291.62
607.168	314.62
607.376	275.62
607.585	285.62
607.793	273.62
608.001	310.62
608.21	287.62
608.418	281.62
608.626	288.62
608.834	268.62
609.043	288.62
609.251	298.62
609.459	290.62
609.667	281.62
609.875	281.62
610.083	295.62
610.291	280.62
610.499	272.62
610.707	294.62
610.916	278.62
611.124	295.62
611.332	292.62
611.54	267.62
611.748	284.62
611.955	282.62
612.163	280.62
612.371	280.62
612.579	268.62
612.787	276.62
612.995	280.62
613.203	285.62
613.411	279.62
613.618	277.62
613.826	281.62
614.034	284.62
614.242	289.62
614.449	286.62
614.657	284.62
614.865	289.62
615.072	252.62
615.28	266.62
615.488	263.62
615.695	278.62
615.903	270.62
616.111	272.62
616.318	271.62
616.526	280.62
616.733	279.62
616.941	270.62
617.148	293.62
617.356	294.62
617.563	274.62
617.771	273.62
617.978	306.62
618.185	280.62
618.393	281.62
618.6	272.62
618.807	280.62
619.015	265.62
619.222	274.62
619.429	271.62
619.637	271.62
619.844	259.62
620.051	259.62
620.258	261.62
620.466	248.62
620.673	254.62
620.88	274.62
621.087	272.62
621.294	255.62
621.501	272.62
621.708	256.62
621.915	256.62
622.122	258.62
622.329	254.62
622.536	253.62
622.743	272.62
622.95	251.62
623.157	248.62
623.364	262.62
623.571	251.62
623.778	251.62
623.985	239.62
624.192	244.62
624.399	231.62
624.606	272.62
624.812	239.62
625.019	237.62
625.226	235.62
625.433	249.62
625.639	239.62
625.846	248.62
626.053	234.62
626.259	235.62
626.466	255.62
626.673	239.62
626.879	235.62
627.086	245.62
627.293	235.62
627.499	234.62
627.706	270.62
627.912	258.62
628.119	239.62
628.325	246.62
628.532	240.62
628.738	224.62
628.945	235.62
629.151	229.62
629.357	222.62
629.564	232.62
629.77	229.62
629.976	224.62
630.183	217.62
630.389	225.62
630.595	218.62
630.802	218.62
631.008	205.62
631.214	213.62
631.42	218.62
631.627	218.62
631.833	222.62
632.039	227.62
632.245	205.62
632.451	206.62
632.657	213.62
632.863	219.62
633.069	210.62
633.275	218.62
633.481	210.62
633.688	217.62
633.893	215.62
634.099	213.62
634.305	202.62
634.511	216.62
634.717	208.62
634.923	190.62
635.129	206.62
635.335	194.62
635.541	213.62
635.747	221.62
635.952	217.62
636.158	201.62
636.364	197.62
636.57	226.62
636.775	216.62
636.981	201.62
637.187	201.62
637.392	204.62
637.598	200.62
637.804	209.62
638.009	201.62
638.215	209.62
638.421	215.62
638.626	196.62
638.832	206.62
639.037	205.62
639.243	193.62
639.448	194.62
639.654	185.62
639.859	196.62
640.065	190.62
640.27	194.62
640.475	185.62
640.681	187.62
640.886	187.62
641.091	178.62
641.297	197.62
641.502	205.62
641.707	204.62
641.913	207.62
642.118	204.62
642.323	198.62
642.528	195.62
642.733	188.62
642.939	182.62
643.144	190.62
643.349	189.62
643.554	209.62
643.759	204.62
643.964	189.62
644.169	184.62
644.374	188.62
644.579	205.62
644.784	187.62
644.989	160.62
645.194	205.62
645.399	198.62
645.604	185.62
645.809	192.62
646.014	180.62
646.219	200.62
646.423	190.62
646.628	197.62
646.833	175.62
647.038	194.62
647.243	199.62
647.447	190.62
647.652	190.62
647.857	203.62
648.062	193.62
648.266	205.62
648.471	205.62
648.676	208.62
648.88	205.62
649.085	189.62
649.289	184.62
649.494	205.62
649.698	164.62
649.903	180.62
650.107	181.62
650.312	184.62
650.516	188.62
650.721	175.62
650.925	168.62
651.13	191.62
651.334	168.62
651.539	169.62
651.743	164.62
651.947	176.62
652.152	177.62
652.356	169.62
652.56	169.62
652.764	160.62
652.969	138.62
653.173	168.62
653.377	147.62
653.581	143.62
653.785	144.62
653.99	155.62
654.194	144.62
654.398	136.62
654.602	143.62
654.806	137.62
655.01	143.62
655.214	156.62
655.418	152.62
655.622	138.62
655.826	147.62
656.03	148.62
656.234	142.62
656.438	136.62
656.642	136.62
656.846	150.62
657.049	125.62
657.253	139.62
657.457	142.62
657.661	128.62
657.865	124.62
658.068	127.62
658.272	143.62
658.476	104.62
658.68	112.62
658.883	108.62
659.087	121.62
659.291	112.62
659.494	126.62
659.698	101.62
659.901	93.62
660.105	102.62
660.309	89.62
660.512	95.62
660.716	113.62
660.919	91.62
661.123	95.62
661.326	101.62
661.53	91.62
661.733	91.62
661.936	104.62
662.14	90.62
662.343	95.62
662.546	98.62
662.75	83.62
662.953	91.62
663.156	81.62
663.36	99.62
663.563	81.62
663.766	102.62
663.969	82.62
664.173	98.62
664.376	74.62
664.579	89.62
664.782	87.62
664.985	100.62
665.188	78.62
665.391	84.62
665.594	88.62
665.797	89.62
666	90.62
666.203	97.62
666.406	96.62
666.609	88.62
666.812	84.62
667.015	83.62
667.218	92.62
667.421	75.62
667.624	82.62
667.827	84.62
668.03	70.62
668.232	89.62
668.435	76.62
668.638	74.62
668.841	86.62
669.043	85.62
669.246	82.62
669.449	76.62
669.651	81.62
669.854	91.62
670.057	96.62
670.259	85.62
670.462	95.62
670.665	85.62
670.867	87.62
671.07	78.62
671.272	73.62
671.475	87.62
671.677	80.62
671.88	80.62
672.082	88.62
672.284	81.62
672.487	92.62
672.689	88.62
672.892	90.62
