Data from NiCl2@0.125M.TitratingCurve.Agarose3%dH2O.NegLispCup.LampEnergy10.LIBS07252019_HRD10591_18-29-21-574.txt Node
Date: Thu Jul 25 18:29:21 EDT 2019
User: cochatt
Spectrometer: HR+D1059
Trigger mode: 1
Integration Time (sec): 1.000000E-1
Scans to average: 1
Electric dark correction enabled: true
Nonlinearity correction enabled: false
Boxcar width: 0
XAxis mode: Wavelengths
Number of Pixels in Spectrum: 2048
>>>>>Begin Spectral Data<<<<<
223.165	-10.31
223.4	-10.31
223.635	-10.31
223.869	-19.31
224.104	-12.31
224.338	-12.31
224.573	-11.31
224.808	-17.31
225.042	-12.31
225.277	-6.31
225.511	-10.31
225.746	-6.31
225.98	4.69
226.215	23.69
226.449	14.69
226.683	24.69
226.918	23.69
227.152	26.69
227.387	36.69
227.621	39.69
227.856	51.69
228.09	61.69
228.324	46.69
228.559	59.69
228.793	60.69
229.027	98.69
229.262	97.69
229.496	102.69
229.73	124.69
229.964	136.69
230.199	124.69
230.433	134.69
230.667	139.69
230.901	147.69
231.136	137.69
231.37	148.69
231.604	135.69
231.838	142.69
232.072	151.69
232.306	162.69
232.541	160.69
232.775	151.69
233.009	150.69
233.243	156.69
233.477	156.69
233.711	145.69
233.945	160.69
234.179	147.69
234.413	153.69
234.647	162.69
234.881	160.69
235.115	149.69
235.349	143.69
235.583	174.69
235.817	163.69
236.051	161.69
236.285	169.69
236.519	155.69
236.753	166.69
236.987	173.69
237.221	157.69
237.455	162.69
237.689	179.69
237.922	166.69
238.156	162.69
238.39	187.69
238.624	173.69
238.858	159.69
239.091	179.69
239.325	188.69
239.559	179.69
239.793	172.69
240.027	199.69
240.26	202.69
240.494	181.69
240.728	181.69
240.961	195.69
241.195	200.69
241.429	190.69
241.662	191.69
241.896	197.69
242.13	214.69
242.363	186.69
242.597	206.69
242.83	213.69
243.064	213.69
243.298	202.69
243.531	210.69
243.765	201.69
243.998	211.69
244.232	215.69
244.465	208.69
244.699	225.69
244.932	222.69
245.166	214.69
245.399	218.69
245.633	206.69
245.866	227.69
246.099	201.69
246.333	226.69
246.566	230.69
246.8	233.69
247.033	241.69
247.266	241.69
247.5	241.69
247.733	251.69
247.966	230.69
248.2	236.69
248.433	236.69
248.666	256.69
248.899	235.69
249.133	250.69
249.366	244.69
249.599	266.69
249.832	249.69
250.066	252.69
250.299	236.69
250.532	248.69
250.765	254.69
250.998	254.69
251.231	266.69
251.465	263.69
251.698	271.69
251.931	278.69
252.164	258.69
252.397	280.69
252.63	281.69
252.863	277.69
253.096	280.69
253.329	283.69
253.562	291.69
253.795	307.69
254.028	279.69
254.261	276.69
254.494	289.69
254.727	291.69
254.96	286.69
255.193	271.69
255.426	298.69
255.659	269.69
255.892	295.69
256.124	303.69
256.357	279.69
256.59	297.69
256.823	307.69
257.056	311.69
257.289	306.69
257.521	298.69
257.754	324.69
257.987	311.69
258.22	302.69
258.452	298.69
258.685	321.69
258.918	311.69
259.151	306.69
259.383	326.69
259.616	321.69
259.849	326.69
260.081	326.69
260.314	334.69
260.547	327.69
260.779	322.69
261.012	331.69
261.244	337.69
261.477	329.69
261.71	323.69
261.942	312.69
262.175	333.69
262.407	357.69
262.64	340.69
262.872	326.69
263.105	340.69
263.337	353.69
263.57	333.69
263.802	344.69
264.035	333.69
264.267	339.69
264.499	349.69
264.732	355.69
264.964	351.69
265.197	373.69
265.429	353.69
265.661	359.69
265.894	355.69
266.126	350.69
266.358	351.69
266.591	363.69
266.823	377.69
267.055	365.69
267.287	344.69
267.52	371.69
267.752	382.69
267.984	347.69
268.216	367.69
268.448	391.69
268.681	380.69
268.913	373.69
269.145	386.69
269.377	375.69
269.609	386.69
269.841	363.69
270.073	378.69
270.306	357.69
270.538	377.69
270.77	389.69
271.002	391.69
271.234	365.69
271.466	377.69
271.698	403.69
271.93	392.69
272.162	393.69
272.394	407.69
272.626	378.69
272.858	395.69
273.09	404.69
273.322	411.69
273.553	397.69
273.785	404.69
274.017	391.69
274.249	402.69
274.481	414.69
274.713	402.69
274.945	430.69
275.176	418.69
275.408	413.69
275.64	413.69
275.872	395.69
276.104	407.69
276.335	411.69
276.567	430.69
276.799	419.69
277.031	423.69
277.262	435.69
277.494	422.69
277.726	438.69
277.957	444.69
278.189	451.69
278.421	417.69
278.652	442.69
278.884	443.69
279.115	441.69
279.347	445.69
279.579	442.69
279.81	443.69
280.042	450.69
280.273	453.69
280.505	446.69
280.736	457.69
280.968	449.69
281.199	457.69
281.431	440.69
281.662	457.69
281.894	474.69
282.125	470.69
282.356	465.69
282.588	476.69
282.819	476.69
283.051	465.69
283.282	478.69
283.513	494.69
283.745	488.69
283.976	478.69
284.207	471.69
284.439	458.69
284.67	488.69
284.901	492.69
285.132	496.69
285.364	480.69
285.595	469.69
285.826	490.69
286.057	491.69
286.288	484.69
286.52	503.69
286.751	514.69
286.982	514.69
287.213	505.69
287.444	497.69
287.675	504.69
287.906	508.69
288.138	506.69
288.369	522.69
288.6	519.69
288.831	511.69
289.062	535.69
289.293	526.69
289.524	539.69
289.755	531.69
289.986	530.69
290.217	543.69
290.448	513.69
290.679	526.69
290.91	506.69
291.141	539.69
291.371	523.69
291.602	563.69
291.833	526.69
292.064	521.69
292.295	531.69
292.526	521.69
292.757	526.69
292.987	543.69
293.218	524.69
293.449	523.69
293.68	533.69
293.91	517.69
294.141	550.69
294.372	542.69
294.603	531.69
294.833	557.69
295.064	527.69
295.295	558.69
295.525	550.69
295.756	523.69
295.987	542.69
296.217	555.69
296.448	579.69
296.679	572.69
296.909	538.69
297.14	554.69
297.37	545.69
297.601	574.69
297.831	562.69
298.062	579.69
298.292	577.69
298.523	627.69
298.753	615.69
298.984	584.69
299.214	576.69
299.445	570.69
299.675	574.69
299.905	584.69
300.136	589.69
300.366	580.69
300.597	597.69
300.827	606.69
301.057	625.69
301.288	617.69
301.518	581.69
301.748	625.69
301.979	594.69
302.209	598.69
302.439	614.69
302.669	582.69
302.9	587.69
303.13	600.69
303.36	587.69
303.59	582.69
303.82	602.69
304.051	616.69
304.281	596.69
304.511	581.69
304.741	603.69
304.971	579.69
305.201	585.69
305.431	583.69
305.661	587.69
305.891	595.69
306.121	591.69
306.352	570.69
306.582	598.69
306.812	604.69
307.042	583.69
307.272	594.69
307.502	578.69
307.731	587.69
307.961	558.69
308.191	586.69
308.421	586.69
308.651	558.69
308.881	572.69
309.111	567.69
309.341	583.69
309.571	568.69
309.8	583.69
310.03	572.69
310.26	585.69
310.49	583.69
310.72	567.69
310.949	575.69
311.179	608.69
311.409	621.69
311.639	590.69
311.868	594.69
312.098	601.69
312.328	619.69
312.557	599.69
312.787	617.69
313.017	620.69
313.246	611.69
313.476	612.69
313.706	623.69
313.935	625.69
314.165	635.69
314.394	636.69
314.624	638.69
314.853	600.69
315.083	614.69
315.312	626.69
315.542	619.69
315.771	601.69
316.001	610.69
316.23	612.69
316.46	610.69
316.689	609.69
316.919	582.69
317.148	609.69
317.377	617.69
317.607	589.69
317.836	598.69
318.065	589.69
318.295	577.69
318.524	609.69
318.753	597.69
318.983	599.69
319.212	598.69
319.441	600.69
319.67	593.69
319.9	607.69
320.129	595.69
320.358	613.69
320.587	609.69
320.816	582.69
321.046	620.69
321.275	614.69
321.504	599.69
321.733	614.69
321.962	609.69
322.191	601.69
322.42	607.69
322.649	618.69
322.878	617.69
323.108	631.69
323.337	634.69
323.566	597.69
323.795	637.69
324.024	629.69
324.253	606.69
324.482	611.69
324.71	620.69
324.939	622.69
325.168	633.69
325.397	615.69
325.626	633.69
325.855	642.69
326.084	660.69
326.313	681.69
326.542	668.69
326.77	677.69
326.999	661.69
327.228	635.69
327.457	646.69
327.686	645.69
327.914	647.69
328.143	669.69
328.372	648.69
328.6	677.69
328.829	661.69
329.058	646.69
329.287	667.69
329.515	672.69
329.744	652.69
329.972	661.69
330.201	659.69
330.43	677.69
330.658	667.69
330.887	675.69
331.115	685.69
331.344	705.69
331.572	697.69
331.801	727.69
332.03	726.69
332.258	732.69
332.486	757.69
332.715	809.69
332.943	796.69
333.172	854.69
333.4	890.69
333.629	911.69
333.857	916.69
334.085	919.69
334.314	867.69
334.542	857.69
334.771	839.69
334.999	835.69
335.227	831.69
335.455	833.69
335.684	811.69
335.912	809.69
336.14	828.69
336.369	817.69
336.597	788.69
336.825	802.69
337.053	790.69
337.281	763.69
337.51	780.69
337.738	735.69
337.966	723.69
338.194	720.69
338.422	716.69
338.65	728.69
338.878	691.69
339.106	723.69
339.334	720.69
339.562	718.69
339.79	695.69
340.018	668.69
340.246	671.69
340.474	671.69
340.702	676.69
340.93	660.69
341.158	693.69
341.386	702.69
341.614	679.69
341.842	667.69
342.07	666.69
342.298	683.69
342.526	668.69
342.754	687.69
342.981	690.69
343.209	712.69
343.437	730.69
343.665	748.69
343.893	836.69
344.12	873.69
344.348	829.69
344.576	781.69
344.804	753.69
345.031	719.69
345.259	694.69
345.487	707.69
345.714	667.69
345.942	697.69
346.17	664.69
346.397	657.69
346.625	673.69
346.853	661.69
347.08	656.69
347.308	695.69
347.535	655.69
347.763	697.69
347.99	679.69
348.218	674.69
348.445	659.69
348.673	681.69
348.9	661.69
349.128	694.69
349.355	669.69
349.583	651.69
349.81	661.69
350.037	634.69
350.265	649.69
350.492	648.69
350.72	637.69
350.947	641.69
351.174	634.69
351.402	621.69
351.629	631.69
351.856	654.69
352.083	637.69
352.311	634.69
352.538	591.69
352.765	649.69
352.992	621.69
353.22	658.69
353.447	654.69
353.674	643.69
353.901	629.69
354.128	645.69
354.355	631.69
354.583	632.69
354.81	633.69
355.037	646.69
355.264	643.69
355.491	637.69
355.718	635.69
355.945	634.69
356.172	647.69
356.399	651.69
356.626	652.69
356.853	630.69
357.08	652.69
357.307	645.69
357.534	638.69
357.761	648.69
357.988	650.69
358.215	635.69
358.441	637.69
358.668	612.69
358.895	638.69
359.122	620.69
359.349	637.69
359.576	609.69
359.802	635.69
360.029	629.69
360.256	648.69
360.483	621.69
360.709	628.69
360.936	615.69
361.163	639.69
361.39	635.69
361.616	664.69
361.843	629.69
362.07	635.69
362.296	621.69
362.523	643.69
362.749	641.69
362.976	641.69
363.203	632.69
363.429	595.69
363.656	637.69
363.882	621.69
364.109	614.69
364.335	617.69
364.562	611.69
364.788	626.69
365.015	649.69
365.241	620.69
365.468	635.69
365.694	625.69
365.92	645.69
366.147	617.69
366.373	615.69
366.599	631.69
366.826	614.69
367.052	659.69
367.278	643.69
367.505	635.69
367.731	642.69
367.957	619.69
368.184	629.69
368.41	637.69
368.636	621.69
368.862	663.69
369.089	645.69
369.315	657.69
369.541	656.69
369.767	671.69
369.993	662.69
370.219	683.69
370.445	653.69
370.672	682.69
370.898	678.69
371.124	711.69
371.35	704.69
371.576	740.69
371.802	686.69
372.028	705.69
372.254	683.69
372.48	731.69
372.706	702.69
372.932	738.69
373.158	723.69
373.384	738.69
373.61	698.69
373.835	714.69
374.061	698.69
374.287	701.69
374.513	714.69
374.739	729.69
374.965	743.69
375.191	793.69
375.416	795.69
375.642	761.69
375.868	774.69
376.094	716.69
376.319	702.69
376.545	711.69
376.771	683.69
376.997	698.69
377.222	701.69
377.448	699.69
377.674	699.69
377.899	691.69
378.125	701.69
378.35	686.69
378.576	669.69
378.802	665.69
379.027	664.69
379.253	674.69
379.478	670.69
379.704	682.69
379.929	709.69
380.155	691.69
380.38	686.69
380.606	675.69
380.831	688.69
381.057	706.69
381.282	697.69
381.507	675.69
381.733	687.69
381.958	701.69
382.184	723.69
382.409	722.69
382.634	716.69
382.86	717.69
383.085	722.69
383.31	736.69
383.535	778.69
383.761	789.69
383.986	769.69
384.211	773.69
384.436	805.69
384.662	819.69
384.887	844.69
385.112	821.69
385.337	855.69
385.562	854.69
385.787	840.69
386.013	839.69
386.238	841.69
386.463	857.69
386.688	865.69
386.913	842.69
387.138	849.69
387.363	835.69
387.588	840.69
387.813	831.69
388.038	822.69
388.263	843.69
388.488	842.69
388.713	833.69
388.938	827.69
389.163	803.69
389.387	789.69
389.612	789.69
389.837	821.69
390.062	803.69
390.287	818.69
390.512	784.69
390.736	806.69
390.961	823.69
391.186	848.69
391.411	897.69
391.636	887.69
391.86	923.69
392.085	966.69
392.31	983.69
392.534	933.69
392.759	923.69
392.984	907.69
393.208	900.69
393.433	894.69
393.658	899.69
393.882	899.69
394.107	897.69
394.331	898.69
394.556	921.69
394.78	902.69
395.005	873.69
395.229	900.69
395.454	917.69
395.678	944.69
395.903	947.69
396.127	919.69
396.352	902.69
396.576	859.69
396.801	870.69
397.025	871.69
397.249	892.69
397.474	906.69
397.698	930.69
397.922	927.69
398.147	910.69
398.371	955.69
398.595	972.69
398.82	1014.69
399.044	1085.69
399.268	1199.69
399.492	1398.69
399.717	1646.69
399.941	1629.69
400.165	1443.69
400.389	1250.69
400.613	1169.69
400.837	1087.69
401.062	1073.69
401.286	1054.69
401.51	1054.69
401.734	1045.69
401.958	1049.69
402.182	1045.69
402.406	1056.69
402.63	1081.69
402.854	1141.69
403.078	1140.69
403.302	1147.69
403.526	1192.69
403.75	1237.69
403.974	1233.69
404.198	1198.69
404.422	1257.69
404.645	1276.69
404.869	1181.69
405.093	1196.69
405.317	1182.69
405.541	1205.69
405.765	1155.69
405.988	1158.69
406.212	1155.69
406.436	1124.69
406.66	1153.69
406.883	1194.69
407.107	1255.69
407.331	1315.69
407.555	1423.69
407.778	1387.69
408.002	1341.69
408.226	1271.69
408.449	1252.69
408.673	1219.69
408.896	1218.69
409.12	1162.69
409.344	1186.69
409.567	1176.69
409.791	1215.69
410.014	1226.69
410.238	1192.69
410.461	1154.69
410.685	1185.69
410.908	1149.69
411.132	1118.69
411.355	1075.69
411.578	1090.69
411.802	1094.69
412.025	1130.69
412.249	1076.69
412.472	1116.69
412.695	1078.69
412.919	1046.69
413.142	1044.69
413.365	1025.69
413.589	1066.69
413.812	1038.69
414.035	1042.69
414.258	1042.69
414.482	1037.69
414.705	1078.69
414.928	1081.69
415.151	1062.69
415.374	1028.69
415.597	1052.69
415.821	1043.69
416.044	1004.69
416.267	1027.69
416.49	1027.69
416.713	1039.69
416.936	1044.69
417.159	1005.69
417.382	1057.69
417.605	1025.69
417.828	1048.69
418.051	1051.69
418.274	1068.69
418.497	1056.69
418.72	1074.69
418.943	1071.69
419.166	1141.69
419.389	1214.69
419.611	1187.69
419.834	1150.69
420.057	1099.69
420.28	1102.69
420.503	1037.69
420.726	1068.69
420.948	1025.69
421.171	1036.69
421.394	1053.69
421.617	1033.69
421.839	1056.69
422.062	1044.69
422.285	1029.69
422.507	1065.69
422.73	1069.69
422.953	1088.69
423.175	1113.69
423.398	1128.69
423.621	1132.69
423.843	1164.69
424.066	1139.69
424.288	1145.69
424.511	1117.69
424.733	1098.69
424.956	1114.69
425.178	1077.69
425.401	1075.69
425.623	1064.69
425.846	1039.69
426.068	1029.69
426.291	995.69
426.513	987.69
426.735	1001.69
426.958	1010.69
427.18	965.69
427.402	949.69
427.625	942.69
427.847	918.69
428.069	970.69
428.292	945.69
428.514	929.69
428.736	930.69
428.958	944.69
429.181	906.69
429.403	940.69
429.625	905.69
429.847	912.69
430.069	899.69
430.292	917.69
430.514	911.69
430.736	922.69
430.958	936.69
431.18	882.69
431.402	919.69
431.624	918.69
431.846	941.69
432.068	961.69
432.29	942.69
432.512	920.69
432.734	952.69
432.956	915.69
433.178	947.69
433.4	942.69
433.622	959.69
433.844	952.69
434.066	951.69
434.287	965.69
434.509	979.69
434.731	1033.69
434.953	1013.69
435.175	1120.69
435.397	1048.69
435.618	965.69
435.84	969.69
436.062	950.69
436.284	950.69
436.505	947.69
436.727	912.69
436.949	915.69
437.17	946.69
437.392	927.69
437.614	914.69
437.835	904.69
438.057	901.69
438.278	900.69
438.5	870.69
438.721	911.69
438.943	926.69
439.165	904.69
439.386	933.69
439.608	937.69
439.829	933.69
440.05	948.69
440.272	969.69
440.493	955.69
440.715	966.69
440.936	976.69
441.158	1001.69
441.379	1019.69
441.6	1081.69
441.822	1109.69
442.043	1094.69
442.264	1063.69
442.486	1027.69
442.707	1067.69
442.928	1029.69
443.149	1050.69
443.371	1045.69
443.592	1076.69
443.813	1066.69
444.034	1067.69
444.255	1124.69
444.476	1183.69
444.698	1257.69
444.919	1333.69
445.14	1400.69
445.361	1229.69
445.582	1140.69
445.803	1043.69
446.024	1002.69
446.245	996.69
446.466	978.69
446.687	935.69
446.908	969.69
447.129	925.69
447.35	907.69
447.571	931.69
447.792	878.69
448.013	891.69
448.234	890.69
448.455	914.69
448.675	882.69
448.896	867.69
449.117	874.69
449.338	851.69
449.559	894.69
449.779	841.69
450	846.69
450.221	871.69
450.442	903.69
450.662	869.69
450.883	913.69
451.104	917.69
451.324	941.69
451.545	897.69
451.766	912.69
451.986	899.69
452.207	873.69
452.428	857.69
452.648	895.69
452.869	835.69
453.089	861.69
453.31	853.69
453.53	846.69
453.751	851.69
453.971	842.69
454.192	850.69
454.412	851.69
454.633	825.69
454.853	817.69
455.073	801.69
455.294	833.69
455.514	806.69
455.734	817.69
455.955	808.69
456.175	809.69
456.395	812.69
456.616	828.69
456.836	841.69
457.056	806.69
457.276	798.69
457.497	826.69
457.717	804.69
457.937	817.69
458.157	817.69
458.377	806.69
458.598	859.69
458.818	865.69
459.038	905.69
459.258	931.69
459.478	941.69
459.698	965.69
459.918	995.69
460.138	1049.69
460.358	1116.69
460.578	1107.69
460.798	1129.69
461.018	1147.69
461.238	1123.69
461.458	1097.69
461.678	1090.69
461.898	1149.69
462.118	1127.69
462.338	1195.69
462.558	1211.69
462.777	1299.69
462.997	1411.69
463.217	1528.69
463.437	1590.69
463.657	1413.69
463.876	1354.69
464.096	1324.69
464.316	1329.69
464.536	1337.69
464.755	1318.69
464.975	1219.69
465.195	1172.69
465.414	1093.69
465.634	1038.69
465.854	1015.69
466.073	978.69
466.293	943.69
466.512	926.69
466.732	906.69
466.951	914.69
467.171	905.69
467.391	933.69
467.61	900.69
467.829	888.69
468.049	890.69
468.268	862.69
468.488	843.69
468.707	867.69
468.927	862.69
469.146	885.69
469.365	905.69
469.585	867.69
469.804	897.69
470.023	892.69
470.243	933.69
470.462	971.69
470.681	954.69
470.901	933.69
471.12	933.69
471.339	902.69
471.558	867.69
471.777	899.69
471.997	858.69
472.216	863.69
472.435	876.69
472.654	842.69
472.873	867.69
473.092	839.69
473.311	857.69
473.53	835.69
473.749	822.69
473.968	826.69
474.187	846.69
474.406	825.69
474.625	844.69
474.844	827.69
475.063	841.69
475.282	854.69
475.501	847.69
475.72	843.69
475.939	871.69
476.158	890.69
476.377	893.69
476.596	869.69
476.814	897.69
477.033	883.69
477.252	925.69
477.471	899.69
477.69	920.69
477.908	952.69
478.127	1007.69
478.346	1004.69
478.564	1006.69
478.783	1007.69
479.002	1058.69
479.22	1068.69
479.439	1061.69
479.658	1044.69
479.876	1049.69
480.095	1058.69
480.313	1110.69
480.532	1134.69
480.751	1140.69
480.969	1094.69
481.188	1021.69
481.406	999.69
481.624	978.69
481.843	965.69
482.061	941.69
482.28	933.69
482.498	934.69
482.717	923.69
482.935	937.69
483.153	935.69
483.372	941.69
483.59	937.69
483.808	954.69
484.027	968.69
484.245	972.69
484.463	949.69
484.681	967.69
484.9	980.69
485.118	998.69
485.336	975.69
485.554	1010.69
485.772	1003.69
485.99	1011.69
486.209	1043.69
486.427	1055.69
486.645	999.69
486.863	981.69
487.081	1003.69
487.299	995.69
487.517	990.69
487.735	982.69
487.953	1024.69
488.171	983.69
488.389	997.69
488.607	986.69
488.825	993.69
489.043	982.69
489.261	949.69
489.479	965.69
489.696	974.69
489.914	1014.69
490.132	1011.69
490.35	992.69
490.568	997.69
490.786	999.69
491.003	1012.69
491.221	1019.69
491.439	1001.69
491.657	982.69
491.874	1029.69
492.092	1017.69
492.31	1030.69
492.527	1003.69
492.745	1036.69
492.963	1023.69
493.18	1021.69
493.398	1034.69
493.615	1034.69
493.833	1042.69
494.05	1047.69
494.268	1077.69
494.485	1049.69
494.703	1052.69
494.92	1034.69
495.138	1066.69
495.355	1073.69
495.573	1065.69
495.79	1089.69
496.008	1088.69
496.225	1062.69
496.442	1105.69
496.66	1077.69
496.877	1091.69
497.094	1104.69
497.312	1155.69
497.529	1162.69
497.746	1186.69
497.963	1227.69
498.181	1271.69
498.398	1301.69
498.615	1397.69
498.832	1511.69
499.049	1636.69
499.267	1748.69
499.484	1930.69
499.701	2141.69
499.918	2372.69
500.135	2766.69
500.352	3274.69
500.569	3442.69
500.786	3389.69
501.003	3099.69
501.22	2767.69
501.437	2393.69
501.654	2093.69
501.871	1897.69
502.088	1719.69
502.305	1617.69
502.522	1534.69
502.739	1479.69
502.956	1393.69
503.172	1320.69
503.389	1260.69
503.606	1237.69
503.823	1212.69
504.04	1199.69
504.256	1222.69
504.473	1286.69
504.69	1277.69
504.907	1247.69
505.123	1186.69
505.34	1138.69
505.557	1035.69
505.773	1037.69
505.99	1017.69
506.207	994.69
506.423	975.69
506.64	978.69
506.856	982.69
507.073	923.69
507.289	954.69
507.506	963.69
507.722	949.69
507.939	931.69
508.155	917.69
508.372	897.69
508.588	899.69
508.805	873.69
509.021	882.69
509.238	880.69
509.454	856.69
509.67	883.69
509.887	846.69
510.103	881.69
510.319	866.69
510.536	862.69
510.752	857.69
510.968	847.69
511.184	862.69
511.401	862.69
511.617	842.69
511.833	859.69
512.049	859.69
512.265	857.69
512.481	862.69
512.698	871.69
512.914	870.69
513.13	862.69
513.346	853.69
513.562	841.69
513.778	874.69
513.994	874.69
514.21	857.69
514.426	872.69
514.642	877.69
514.858	859.69
515.074	867.69
515.29	892.69
515.506	895.69
515.721	906.69
515.937	953.69
516.153	949.69
516.369	980.69
516.585	997.69
516.801	1034.69
517.016	1052.69
517.232	1140.69
517.448	1199.69
517.664	1227.69
517.879	1250.69
518.095	1249.69
518.311	1194.69
518.527	1150.69
518.742	1115.69
518.958	1050.69
519.173	1016.69
519.389	952.69
519.605	946.69
519.82	926.69
520.036	893.69
520.251	866.69
520.467	867.69
520.682	854.69
520.898	856.69
521.113	851.69
521.329	859.69
521.544	842.69
521.76	842.69
521.975	814.69
522.19	833.69
522.406	818.69
522.621	852.69
522.836	812.69
523.052	838.69
523.267	805.69
523.482	830.69
523.698	817.69
523.913	812.69
524.128	801.69
524.343	803.69
524.559	770.69
524.774	807.69
524.989	834.69
525.204	801.69
525.419	797.69
525.634	797.69
525.849	786.69
526.064	773.69
526.28	773.69
526.495	774.69
526.71	798.69
526.925	791.69
527.14	757.69
527.355	773.69
527.57	760.69
527.785	803.69
527.999	774.69
528.214	784.69
528.429	777.69
528.644	796.69
528.859	758.69
529.074	771.69
529.289	792.69
529.503	775.69
529.718	781.69
529.933	773.69
530.148	760.69
530.363	776.69
530.577	758.69
530.792	781.69
531.007	762.69
531.221	777.69
531.436	774.69
531.651	802.69
531.865	778.69
532.08	792.69
532.295	793.69
532.509	777.69
532.724	762.69
532.938	780.69
533.153	768.69
533.367	762.69
533.582	797.69
533.796	760.69
534.011	778.69
534.225	752.69
534.44	733.69
534.654	780.69
534.868	759.69
535.083	753.69
535.297	765.69
535.511	739.69
535.726	765.69
535.94	737.69
536.154	721.69
536.369	718.69
536.583	692.69
536.797	748.69
537.011	729.69
537.225	718.69
537.44	728.69
537.654	709.69
537.868	731.69
538.082	717.69
538.296	703.69
538.51	695.69
538.724	710.69
538.938	702.69
539.153	685.69
539.367	707.69
539.581	702.69
539.795	695.69
540.009	693.69
540.222	708.69
540.436	693.69
540.65	692.69
540.864	693.69
541.078	674.69
541.292	714.69
541.506	696.69
541.72	696.69
541.934	696.69
542.147	713.69
542.361	701.69
542.575	675.69
542.789	675.69
543.002	697.69
543.216	697.69
543.43	694.69
543.644	674.69
543.857	654.69
544.071	685.69
544.285	682.69
544.498	703.69
544.712	713.69
544.925	708.69
545.139	691.69
545.352	705.69
545.566	733.69
545.779	697.69
545.993	739.69
546.206	716.69
546.42	702.69
546.633	720.69
546.847	709.69
547.06	698.69
547.274	709.69
547.487	699.69
547.7	677.69
547.914	708.69
548.127	733.69
548.34	729.69
548.554	728.69
548.767	709.69
548.98	730.69
549.193	708.69
549.407	708.69
549.62	724.69
549.833	753.69
550.046	741.69
550.259	729.69
550.473	702.69
550.686	720.69
550.899	668.69
551.112	686.69
551.325	682.69
551.538	686.69
551.751	737.69
551.964	731.69
552.177	707.69
552.39	726.69
552.603	722.69
552.816	761.69
553.029	740.69
553.242	785.69
553.455	790.69
553.667	789.69
553.88	774.69
554.093	773.69
554.306	747.69
554.519	728.69
554.732	716.69
554.944	703.69
555.157	685.69
555.37	684.69
555.583	687.69
555.795	674.69
556.008	655.69
556.221	636.69
556.433	616.69
556.646	611.69
556.859	608.69
557.071	641.69
557.284	620.69
557.496	621.69
557.709	620.69
557.921	616.69
558.134	617.69
558.346	595.69
558.559	621.69
558.771	627.69
558.984	587.69
559.196	585.69
559.409	585.69
559.621	598.69
559.833	580.69
560.046	612.69
560.258	602.69
560.47	600.69
560.683	603.69
560.895	605.69
561.107	595.69
561.32	597.69
561.532	580.69
561.744	570.69
561.956	569.69
562.168	615.69
562.381	601.69
562.593	593.69
562.805	602.69
563.017	600.69
563.229	596.69
563.441	583.69
563.653	588.69
563.865	603.69
564.077	629.69
564.289	621.69
564.501	605.69
564.713	631.69
564.925	647.69
565.137	664.69
565.349	673.69
565.561	669.69
565.773	724.69
565.985	723.69
566.197	798.69
566.408	856.69
566.62	879.69
566.832	950.69
567.044	997.69
567.255	1021.69
567.467	1013.69
567.679	1107.69
567.891	1215.69
568.102	1233.69
568.314	1155.69
568.526	980.69
568.737	929.69
568.949	827.69
569.161	782.69
569.372	716.69
569.584	673.69
569.795	648.69
570.007	637.69
570.218	606.69
570.43	599.69
570.641	611.69
570.853	617.69
571.064	618.69
571.276	622.69
571.487	595.69
571.698	561.69
571.91	571.69
572.121	556.69
572.333	535.69
572.544	513.69
572.755	493.69
572.966	517.69
573.178	513.69
573.389	527.69
573.6	493.69
573.811	502.69
574.023	500.69
574.234	498.69
574.445	512.69
574.656	483.69
574.867	492.69
575.078	469.69
575.289	495.69
575.501	493.69
575.712	476.69
575.923	488.69
576.134	484.69
576.345	459.69
576.556	472.69
576.767	478.69
576.978	463.69
577.188	450.69
577.399	452.69
577.61	469.69
577.821	469.69
578.032	455.69
578.243	455.69
578.454	452.69
578.665	452.69
578.875	439.69
579.086	434.69
579.297	428.69
579.508	447.69
579.718	437.69
579.929	430.69
580.14	429.69
580.35	425.69
580.561	436.69
580.772	436.69
580.982	434.69
581.193	426.69
581.403	433.69
581.614	426.69
581.825	415.69
582.035	413.69
582.246	441.69
582.456	419.69
582.667	411.69
582.877	432.69
583.087	415.69
583.298	424.69
583.508	423.69
583.719	403.69
583.929	411.69
584.139	422.69
584.35	417.69
584.56	399.69
584.77	400.69
584.981	423.69
585.191	417.69
585.401	405.69
585.611	419.69
585.821	413.69
586.032	395.69
586.242	397.69
586.452	422.69
586.662	398.69
586.872	396.69
587.082	382.69
587.292	396.69
587.502	389.69
587.713	403.69
587.923	402.69
588.133	401.69
588.343	379.69
588.553	394.69
588.762	402.69
588.972	400.69
589.182	394.69
589.392	399.69
589.602	401.69
589.812	394.69
590.022	414.69
590.232	400.69
590.441	387.69
590.651	403.69
590.861	394.69
591.071	420.69
591.281	423.69
591.49	408.69
591.7	420.69
591.91	431.69
592.119	436.69
592.329	435.69
592.539	453.69
592.748	471.69
592.958	495.69
593.167	486.69
593.377	540.69
593.587	536.69
593.796	516.69
594.006	532.69
594.215	529.69
594.424	526.69
594.634	547.69
594.843	509.69
595.053	478.69
595.262	446.69
595.472	423.69
595.681	450.69
595.89	415.69
596.1	405.69
596.309	410.69
596.518	383.69
596.727	365.69
596.937	364.69
597.146	376.69
597.355	353.69
597.564	373.69
597.774	377.69
597.983	376.69
598.192	365.69
598.401	352.69
598.61	354.69
598.819	373.69
599.028	347.69
599.237	346.69
599.446	354.69
599.655	355.69
599.864	340.69
600.073	330.69
600.282	331.69
600.491	335.69
600.7	330.69
600.909	322.69
601.118	329.69
601.327	317.69
601.536	333.69
601.745	333.69
601.953	338.69
602.162	343.69
602.371	320.69
602.58	319.69
602.789	333.69
602.997	350.69
603.206	333.69
603.415	334.69
603.623	329.69
603.832	318.69
604.041	319.69
604.249	321.69
604.458	325.69
604.666	315.69
604.875	301.69
605.084	298.69
605.292	306.69
605.501	326.69
605.709	315.69
605.918	307.69
606.126	300.69
606.334	313.69
606.543	319.69
606.751	305.69
606.96	307.69
607.168	322.69
607.376	285.69
607.585	329.69
607.793	306.69
608.001	327.69
608.21	313.69
608.418	327.69
608.626	313.69
608.834	280.69
609.043	303.69
609.251	293.69
609.459	312.69
609.667	291.69
609.875	324.69
610.083	314.69
610.291	302.69
610.499	306.69
610.707	296.69
610.916	294.69
611.124	300.69
611.332	289.69
611.54	299.69
611.748	302.69
611.955	289.69
612.163	305.69
612.371	310.69
612.579	308.69
612.787	300.69
612.995	293.69
613.203	295.69
613.411	292.69
613.618	300.69
613.826	297.69
614.034	295.69
614.242	284.69
614.449	284.69
614.657	289.69
614.865	285.69
615.072	299.69
615.28	297.69
615.488	295.69
615.695	282.69
615.903	318.69
616.111	302.69
616.318	274.69
616.526	288.69
616.733	301.69
616.941	305.69
617.148	308.69
617.356	287.69
617.563	305.69
617.771	293.69
617.978	294.69
618.185	309.69
618.393	274.69
618.6	292.69
618.807	285.69
619.015	292.69
619.222	291.69
619.429	295.69
619.637	300.69
619.844	307.69
620.051	285.69
620.258	269.69
620.466	265.69
620.673	273.69
620.88	266.69
621.087	282.69
621.294	280.69
621.501	260.69
621.708	262.69
621.915	267.69
622.122	278.69
622.329	263.69
622.536	265.69
622.743	271.69
622.95	243.69
623.157	260.69
623.364	261.69
623.571	259.69
623.778	261.69
623.985	249.69
624.192	275.69
624.399	259.69
624.606	264.69
624.812	266.69
625.019	233.69
625.226	279.69
625.433	265.69
625.639	266.69
625.846	245.69
626.053	253.69
626.259	249.69
626.466	245.69
626.673	230.69
626.879	233.69
627.086	253.69
627.293	251.69
627.499	246.69
627.706	242.69
627.912	262.69
628.119	240.69
628.325	233.69
628.532	259.69
628.738	254.69
628.945	228.69
629.151	252.69
629.357	245.69
629.564	248.69
629.77	238.69
629.976	223.69
630.183	237.69
630.389	228.69
630.595	243.69
630.802	232.69
631.008	218.69
631.214	228.69
631.42	241.69
631.627	241.69
631.833	227.69
632.039	217.69
632.245	224.69
632.451	225.69
632.657	228.69
632.863	225.69
633.069	201.69
633.275	213.69
633.481	223.69
633.688	232.69
633.893	221.69
634.099	208.69
634.305	219.69
634.511	210.69
634.717	203.69
634.923	204.69
635.129	214.69
635.335	219.69
635.541	210.69
635.747	212.69
635.952	209.69
636.158	209.69
636.364	233.69
636.57	218.69
636.775	197.69
636.981	211.69
637.187	223.69
637.392	203.69
637.598	215.69
637.804	200.69
638.009	189.69
638.215	222.69
638.421	194.69
638.626	206.69
638.832	207.69
639.037	206.69
639.243	199.69
639.448	205.69
639.654	204.69
639.859	194.69
640.065	186.69
640.27	209.69
640.475	205.69
640.681	192.69
640.886	183.69
641.091	193.69
641.297	194.69
641.502	198.69
641.707	207.69
641.913	178.69
642.118	191.69
642.323	185.69
642.528	204.69
642.733	214.69
642.939	190.69
643.144	185.69
643.349	188.69
643.554	190.69
643.759	191.69
643.964	199.69
644.169	194.69
644.374	195.69
644.579	190.69
644.784	199.69
644.989	196.69
645.194	185.69
645.399	183.69
645.604	191.69
645.809	196.69
646.014	201.69
646.219	182.69
646.423	187.69
646.628	186.69
646.833	185.69
647.038	187.69
647.243	198.69
647.447	198.69
647.652	205.69
647.857	195.69
648.062	214.69
648.266	205.69
648.471	189.69
648.676	197.69
648.88	194.69
649.085	199.69
649.289	194.69
649.494	181.69
649.698	198.69
649.903	202.69
650.107	174.69
650.312	166.69
650.516	168.69
650.721	177.69
650.925	166.69
651.13	174.69
651.334	190.69
651.539	175.69
651.743	179.69
651.947	174.69
652.152	159.69
652.356	139.69
652.56	161.69
652.764	163.69
652.969	143.69
653.173	155.69
653.377	159.69
653.581	150.69
653.785	147.69
653.99	157.69
654.194	145.69
654.398	157.69
654.602	139.69
654.806	129.69
655.01	126.69
655.214	127.69
655.418	149.69
655.622	135.69
655.826	129.69
656.03	133.69
656.234	138.69
656.438	146.69
656.642	126.69
656.846	127.69
657.049	126.69
657.253	118.69
657.457	142.69
657.661	138.69
657.865	120.69
658.068	119.69
658.272	123.69
658.476	117.69
658.68	105.69
658.883	101.69
659.087	107.69
659.291	102.69
659.494	115.69
659.698	98.69
659.901	117.69
660.105	91.69
660.309	101.69
660.512	93.69
660.716	94.69
660.919	90.69
661.123	103.69
661.326	92.69
661.53	91.69
661.733	101.69
661.936	87.69
662.14	97.69
662.343	84.69
662.546	77.69
662.75	87.69
662.953	91.69
663.156	74.69
663.36	79.69
663.563	88.69
663.766	108.69
663.969	90.69
664.173	90.69
664.376	83.69
664.579	79.69
664.782	85.69
664.985	73.69
665.188	73.69
665.391	89.69
665.594	87.69
665.797	72.69
666	73.69
666.203	72.69
666.406	66.69
666.609	84.69
666.812	82.69
667.015	77.69
667.218	75.69
667.421	85.69
667.624	97.69
667.827	81.69
668.03	82.69
668.232	85.69
668.435	81.69
668.638	79.69
668.841	75.69
669.043	77.69
669.246	86.69
669.449	89.69
669.651	82.69
669.854	77.69
670.057	91.69
670.259	90.69
670.462	93.69
670.665	87.69
670.867	95.69
671.07	69.69
671.272	83.69
671.475	83.69
671.677	73.69
671.88	82.69
672.082	78.69
672.284	84.69
672.487	85.69
672.689	81.69
672.892	94.69
