Data from NiCl2@0.0625M.TitratingCurve.Agarose3%dH2O.NegLispCup.LampEnergy10.LIBS07252019_HRD10591_18-33-49-576.txt Node
Date: Thu Jul 25 18:33:49 EDT 2019
User: cochatt
Spectrometer: HR+D1059
Trigger mode: 1
Integration Time (sec): 1.000000E-1
Scans to average: 1
Electric dark correction enabled: true
Nonlinearity correction enabled: false
Boxcar width: 0
XAxis mode: Wavelengths
Number of Pixels in Spectrum: 2048
>>>>>Begin Spectral Data<<<<<
223.165	-18.19
223.4	-18.19
223.635	-18.19
223.869	-6.19
224.104	-23.19
224.338	-8.19
224.573	-3.19
224.808	-16.19
225.042	-7.19
225.277	-6.19
225.511	3.81
225.746	2.81
225.98	9.81
226.215	-3.19
226.449	11.81
226.683	21.81
226.918	19.81
227.152	21.81
227.387	33.81
227.621	28.81
227.856	37.81
228.09	37.81
228.324	57.81
228.559	60.81
228.793	76.81
229.027	122.81
229.262	143.81
229.496	154.81
229.73	166.81
229.964	173.81
230.199	173.81
230.433	180.81
230.667	184.81
230.901	177.81
231.136	161.81
231.37	182.81
231.604	174.81
231.838	178.81
232.072	183.81
232.306	189.81
232.541	205.81
232.775	188.81
233.009	201.81
233.243	199.81
233.477	196.81
233.711	193.81
233.945	188.81
234.179	197.81
234.413	204.81
234.647	193.81
234.881	211.81
235.115	211.81
235.349	210.81
235.583	202.81
235.817	221.81
236.051	206.81
236.285	224.81
236.519	217.81
236.753	233.81
236.987	221.81
237.221	228.81
237.455	218.81
237.689	231.81
237.922	238.81
238.156	243.81
238.39	217.81
238.624	231.81
238.858	232.81
239.091	243.81
239.325	251.81
239.559	256.81
239.793	252.81
240.027	260.81
240.26	262.81
240.494	259.81
240.728	272.81
240.961	257.81
241.195	261.81
241.429	263.81
241.662	265.81
241.896	275.81
242.13	288.81
242.363	263.81
242.597	292.81
242.83	287.81
243.064	285.81
243.298	291.81
243.531	309.81
243.765	292.81
243.998	305.81
244.232	321.81
244.465	304.81
244.699	304.81
244.932	295.81
245.166	339.81
245.399	339.81
245.633	336.81
245.866	308.81
246.099	333.81
246.333	335.81
246.566	322.81
246.8	347.81
247.033	323.81
247.266	341.81
247.5	353.81
247.733	346.81
247.966	331.81
248.2	360.81
248.433	363.81
248.666	353.81
248.899	370.81
249.133	354.81
249.366	367.81
249.599	390.81
249.832	368.81
250.066	392.81
250.299	374.81
250.532	397.81
250.765	383.81
250.998	393.81
251.231	391.81
251.465	407.81
251.698	383.81
251.931	398.81
252.164	389.81
252.397	410.81
252.63	427.81
252.863	414.81
253.096	407.81
253.329	415.81
253.562	423.81
253.795	433.81
254.028	416.81
254.261	440.81
254.494	428.81
254.727	432.81
254.96	427.81
255.193	425.81
255.426	439.81
255.659	443.81
255.892	434.81
256.124	431.81
256.357	437.81
256.59	435.81
256.823	454.81
257.056	449.81
257.289	469.81
257.521	479.81
257.754	461.81
257.987	443.81
258.22	485.81
258.452	490.81
258.685	464.81
258.918	485.81
259.151	479.81
259.383	477.81
259.616	483.81
259.849	483.81
260.081	487.81
260.314	493.81
260.547	528.81
260.779	488.81
261.012	488.81
261.244	505.81
261.477	514.81
261.71	498.81
261.942	488.81
262.175	511.81
262.407	526.81
262.64	519.81
262.872	523.81
263.105	529.81
263.337	527.81
263.57	521.81
263.802	515.81
264.035	568.81
264.267	543.81
264.499	541.81
264.732	550.81
264.964	552.81
265.197	536.81
265.429	545.81
265.661	540.81
265.894	557.81
266.126	552.81
266.358	550.81
266.591	571.81
266.823	577.81
267.055	565.81
267.287	580.81
267.52	584.81
267.752	573.81
267.984	576.81
268.216	567.81
268.448	600.81
268.681	572.81
268.913	616.81
269.145	588.81
269.377	600.81
269.609	599.81
269.841	589.81
270.073	589.81
270.306	569.81
270.538	605.81
270.77	603.81
271.002	630.81
271.234	625.81
271.466	614.81
271.698	607.81
271.93	613.81
272.162	635.81
272.394	630.81
272.626	624.81
272.858	638.81
273.09	625.81
273.322	649.81
273.553	623.81
273.785	653.81
274.017	632.81
274.249	676.81
274.481	662.81
274.713	639.81
274.945	641.81
275.176	664.81
275.408	680.81
275.64	680.81
275.872	683.81
276.104	678.81
276.335	693.81
276.567	672.81
276.799	685.81
277.031	680.81
277.262	687.81
277.494	701.81
277.726	692.81
277.957	696.81
278.189	718.81
278.421	700.81
278.652	703.81
278.884	712.81
279.115	710.81
279.347	723.81
279.579	731.81
279.81	711.81
280.042	704.81
280.273	725.81
280.505	723.81
280.736	755.81
280.968	754.81
281.199	755.81
281.431	771.81
281.662	751.81
281.894	723.81
282.125	744.81
282.356	763.81
282.588	763.81
282.819	766.81
283.051	766.81
283.282	750.81
283.513	786.81
283.745	790.81
283.976	774.81
284.207	783.81
284.439	789.81
284.67	777.81
284.901	793.81
285.132	821.81
285.364	771.81
285.595	796.81
285.826	796.81
286.057	791.81
286.288	783.81
286.52	816.81
286.751	796.81
286.982	788.81
287.213	806.81
287.444	829.81
287.675	801.81
287.906	799.81
288.138	832.81
288.369	830.81
288.6	830.81
288.831	831.81
289.062	870.81
289.293	832.81
289.524	825.81
289.755	841.81
289.986	839.81
290.217	828.81
290.448	808.81
290.679	829.81
290.91	859.81
291.141	844.81
291.371	843.81
291.602	861.81
291.833	832.81
292.064	877.81
292.295	824.81
292.526	865.81
292.757	846.81
292.987	841.81
293.218	847.81
293.449	866.81
293.68	838.81
293.91	867.81
294.141	868.81
294.372	885.81
294.603	870.81
294.833	872.81
295.064	863.81
295.295	861.81
295.525	855.81
295.756	863.81
295.987	872.81
296.217	868.81
296.448	883.81
296.679	897.81
296.909	873.81
297.14	899.81
297.37	883.81
297.601	925.81
297.831	909.81
298.062	909.81
298.292	942.81
298.523	918.81
298.753	903.81
298.984	933.81
299.214	931.81
299.445	897.81
299.675	918.81
299.905	917.81
300.136	934.81
300.366	930.81
300.597	933.81
300.827	963.81
301.057	944.81
301.288	959.81
301.518	944.81
301.748	1017.81
301.979	987.81
302.209	975.81
302.439	985.81
302.669	975.81
302.9	956.81
303.13	968.81
303.36	965.81
303.59	915.81
303.82	957.81
304.051	983.81
304.281	967.81
304.511	953.81
304.741	952.81
304.971	988.81
305.201	980.81
305.431	963.81
305.661	965.81
305.891	955.81
306.121	964.81
306.352	977.81
306.582	976.81
306.812	986.81
307.042	957.81
307.272	949.81
307.502	935.81
307.731	963.81
307.961	943.81
308.191	974.81
308.421	971.81
308.651	942.81
308.881	946.81
309.111	971.81
309.341	937.81
309.571	956.81
309.8	991.81
310.03	948.81
310.26	947.81
310.49	974.81
310.72	967.81
310.949	974.81
311.179	988.81
311.409	993.81
311.639	987.81
311.868	968.81
312.098	978.81
312.328	998.81
312.557	988.81
312.787	1037.81
313.017	1019.81
313.246	1024.81
313.476	1038.81
313.706	1037.81
313.935	1072.81
314.165	1056.81
314.394	1061.81
314.624	1055.81
314.853	1026.81
315.083	1007.81
315.312	1031.81
315.542	1017.81
315.771	1026.81
316.001	1027.81
316.23	1024.81
316.46	1026.81
316.689	1044.81
316.919	1004.81
317.148	1019.81
317.377	1030.81
317.607	1014.81
317.836	1014.81
318.065	1021.81
318.295	1019.81
318.524	1056.81
318.753	1021.81
318.983	1020.81
319.212	1018.81
319.441	988.81
319.67	999.81
319.9	1031.81
320.129	1037.81
320.358	1019.81
320.587	1029.81
320.816	1015.81
321.046	1034.81
321.275	1048.81
321.504	1029.81
321.733	1027.81
321.962	1075.81
322.191	1065.81
322.42	1040.81
322.649	1030.81
322.878	1047.81
323.108	1049.81
323.337	1063.81
323.566	1046.81
323.795	1091.81
324.024	1067.81
324.253	1064.81
324.482	1062.81
324.71	1041.81
324.939	1076.81
325.168	1091.81
325.397	1053.81
325.626	1064.81
325.855	1122.81
326.084	1101.81
326.313	1138.81
326.542	1123.81
326.77	1151.81
326.999	1124.81
327.228	1071.81
327.457	1102.81
327.686	1118.81
327.914	1105.81
328.143	1119.81
328.372	1096.81
328.6	1098.81
328.829	1085.81
329.058	1125.81
329.287	1149.81
329.515	1144.81
329.744	1125.81
329.972	1112.81
330.201	1114.81
330.43	1162.81
330.658	1176.81
330.887	1198.81
331.115	1165.81
331.344	1153.81
331.572	1177.81
331.801	1233.81
332.03	1226.81
332.258	1214.81
332.486	1264.81
332.715	1306.81
332.943	1348.81
333.172	1366.81
333.4	1424.81
333.629	1447.81
333.857	1459.81
334.085	1432.81
334.314	1437.81
334.542	1421.81
334.771	1450.81
334.999	1396.81
335.227	1416.81
335.455	1408.81
335.684	1403.81
335.912	1403.81
336.14	1378.81
336.369	1357.81
336.597	1327.81
336.825	1343.81
337.053	1352.81
337.281	1329.81
337.51	1316.81
337.738	1304.81
337.966	1267.81
338.194	1245.81
338.422	1225.81
338.65	1235.81
338.878	1221.81
339.106	1228.81
339.334	1240.81
339.562	1212.81
339.79	1203.81
340.018	1143.81
340.246	1184.81
340.474	1185.81
340.702	1157.81
340.93	1213.81
341.158	1209.81
341.386	1181.81
341.614	1180.81
341.842	1183.81
342.07	1197.81
342.298	1171.81
342.526	1200.81
342.754	1190.81
342.981	1207.81
343.209	1190.81
343.437	1231.81
343.665	1329.81
343.893	1338.81
344.12	1386.81
344.348	1371.81
344.576	1316.81
344.804	1284.81
345.031	1236.81
345.259	1227.81
345.487	1190.81
345.714	1149.81
345.942	1141.81
346.17	1183.81
346.397	1145.81
346.625	1143.81
346.853	1112.81
347.08	1132.81
347.308	1115.81
347.535	1131.81
347.763	1136.81
347.99	1130.81
348.218	1119.81
348.445	1131.81
348.673	1124.81
348.9	1121.81
349.128	1136.81
349.355	1114.81
349.583	1105.81
349.81	1097.81
350.037	1091.81
350.265	1108.81
350.492	1103.81
350.72	1109.81
350.947	1106.81
351.174	1107.81
351.402	1111.81
351.629	1076.81
351.856	1085.81
352.083	1075.81
352.311	1074.81
352.538	1066.81
352.765	1068.81
352.992	1088.81
353.22	1083.81
353.447	1071.81
353.674	1053.81
353.901	1064.81
354.128	1057.81
354.355	1084.81
354.583	1112.81
354.81	1097.81
355.037	1081.81
355.264	1091.81
355.491	1099.81
355.718	1080.81
355.945	1097.81
356.172	1084.81
356.399	1093.81
356.626	1083.81
356.853	1113.81
357.08	1154.81
357.307	1094.81
357.534	1088.81
357.761	1083.81
357.988	1084.81
358.215	1075.81
358.441	1087.81
358.668	1101.81
358.895	1101.81
359.122	1095.81
359.349	1100.81
359.576	1095.81
359.802	1104.81
360.029	1108.81
360.256	1137.81
360.483	1131.81
360.709	1083.81
360.936	1100.81
361.163	1079.81
361.39	1092.81
361.616	1071.81
361.843	1066.81
362.07	1100.81
362.296	1081.81
362.523	1116.81
362.749	1137.81
362.976	1125.81
363.203	1103.81
363.429	1085.81
363.656	1117.81
363.882	1092.81
364.109	1084.81
364.335	1106.81
364.562	1079.81
364.788	1094.81
365.015	1082.81
365.241	1078.81
365.468	1069.81
365.694	1110.81
365.92	1115.81
366.147	1105.81
366.373	1120.81
366.599	1104.81
366.826	1115.81
367.052	1078.81
367.278	1109.81
367.505	1097.81
367.731	1117.81
367.957	1103.81
368.184	1104.81
368.41	1142.81
368.636	1142.81
368.862	1135.81
369.089	1166.81
369.315	1157.81
369.541	1147.81
369.767	1104.81
369.993	1131.81
370.219	1139.81
370.445	1157.81
370.672	1160.81
370.898	1171.81
371.124	1155.81
371.35	1193.81
371.576	1217.81
371.802	1197.81
372.028	1197.81
372.254	1212.81
372.48	1222.81
372.706	1229.81
372.932	1242.81
373.158	1271.81
373.384	1189.81
373.61	1179.81
373.835	1197.81
374.061	1180.81
374.287	1232.81
374.513	1235.81
374.739	1253.81
374.965	1283.81
375.191	1294.81
375.416	1296.81
375.642	1251.81
375.868	1274.81
376.094	1270.81
376.319	1189.81
376.545	1208.81
376.771	1191.81
376.997	1182.81
377.222	1177.81
377.448	1157.81
377.674	1180.81
377.899	1167.81
378.125	1176.81
378.35	1181.81
378.576	1175.81
378.802	1187.81
379.027	1162.81
379.253	1179.81
379.478	1166.81
379.704	1185.81
379.929	1171.81
380.155	1165.81
380.38	1173.81
380.606	1157.81
380.831	1192.81
381.057	1201.81
381.282	1160.81
381.507	1183.81
381.733	1199.81
381.958	1216.81
382.184	1225.81
382.409	1250.81
382.634	1244.81
382.86	1275.81
383.085	1229.81
383.31	1287.81
383.535	1282.81
383.761	1309.81
383.986	1319.81
384.211	1326.81
384.436	1361.81
384.662	1324.81
384.887	1376.81
385.112	1384.81
385.337	1410.81
385.562	1387.81
385.787	1379.81
386.013	1435.81
386.238	1409.81
386.463	1442.81
386.688	1426.81
386.913	1405.81
387.138	1409.81
387.363	1398.81
387.588	1384.81
387.813	1409.81
388.038	1403.81
388.263	1400.81
388.488	1408.81
388.713	1427.81
388.938	1383.81
389.163	1383.81
389.387	1439.81
389.612	1392.81
389.837	1431.81
390.062	1400.81
390.287	1431.81
390.512	1403.81
390.736	1394.81
390.961	1412.81
391.186	1415.81
391.411	1449.81
391.636	1495.81
391.86	1534.81
392.085	1518.81
392.31	1595.81
392.534	1545.81
392.759	1535.81
392.984	1479.81
393.208	1487.81
393.433	1488.81
393.658	1553.81
393.882	1486.81
394.107	1464.81
394.331	1486.81
394.556	1531.81
394.78	1520.81
395.005	1527.81
395.229	1541.81
395.454	1556.81
395.678	1583.81
395.903	1574.81
396.127	1573.81
396.352	1568.81
396.576	1546.81
396.801	1548.81
397.025	1571.81
397.249	1566.81
397.474	1590.81
397.698	1590.81
397.922	1607.81
398.147	1595.81
398.371	1648.81
398.595	1678.81
398.82	1765.81
399.044	1806.81
399.268	1988.81
399.492	2187.81
399.717	2415.81
399.941	2462.81
400.165	2256.81
400.389	2091.81
400.613	2023.81
400.837	1867.81
401.062	1826.81
401.286	1802.81
401.51	1785.81
401.734	1741.81
401.958	1756.81
402.182	1776.81
402.406	1748.81
402.63	1812.81
402.854	1846.81
403.078	1808.81
403.302	1909.81
403.526	1885.81
403.75	1907.81
403.974	1929.81
404.198	1938.81
404.422	1923.81
404.645	1895.81
404.869	1920.81
405.093	1925.81
405.317	1873.81
405.541	1890.81
405.765	1832.81
405.988	1897.81
406.212	1923.81
406.436	1934.81
406.66	1993.81
406.883	1971.81
407.107	2081.81
407.331	2167.81
407.555	2241.81
407.778	2215.81
408.002	2143.81
408.226	2114.81
408.449	2083.81
408.673	2037.81
408.896	1984.81
409.12	1949.81
409.344	1987.81
409.567	1977.81
409.791	1957.81
410.014	1931.81
410.238	1932.81
410.461	1937.81
410.685	1944.81
410.908	1859.81
411.132	1867.81
411.355	1812.81
411.578	1815.81
411.802	1827.81
412.025	1839.81
412.249	1832.81
412.472	1857.81
412.695	1799.81
412.919	1757.81
413.142	1779.81
413.365	1740.81
413.589	1760.81
413.812	1761.81
414.035	1755.81
414.258	1755.81
414.482	1741.81
414.705	1740.81
414.928	1798.81
415.151	1748.81
415.374	1748.81
415.597	1735.81
415.821	1713.81
416.044	1695.81
416.267	1707.81
416.49	1709.81
416.713	1692.81
416.936	1701.81
417.159	1703.81
417.382	1652.81
417.605	1661.81
417.828	1686.81
418.051	1685.81
418.274	1701.81
418.497	1714.81
418.72	1727.81
418.943	1734.81
419.166	1798.81
419.389	1960.81
419.611	1923.81
419.834	1833.81
420.057	1783.81
420.28	1741.81
420.503	1691.81
420.726	1665.81
420.948	1693.81
421.171	1679.81
421.394	1707.81
421.617	1683.81
421.839	1702.81
422.062	1699.81
422.285	1672.81
422.507	1748.81
422.73	1710.81
422.953	1714.81
423.175	1733.81
423.398	1761.81
423.621	1743.81
423.843	1775.81
424.066	1768.81
424.288	1711.81
424.511	1723.81
424.733	1719.81
424.956	1676.81
425.178	1654.81
425.401	1732.81
425.623	1728.81
425.846	1637.81
426.068	1683.81
426.291	1655.81
426.513	1630.81
426.735	1630.81
426.958	1621.81
427.18	1563.81
427.402	1573.81
427.625	1621.81
427.847	1565.81
428.069	1558.81
428.292	1571.81
428.514	1555.81
428.736	1538.81
428.958	1571.81
429.181	1555.81
429.403	1537.81
429.625	1517.81
429.847	1495.81
430.069	1510.81
430.292	1507.81
430.514	1486.81
430.736	1511.81
430.958	1543.81
431.18	1493.81
431.402	1521.81
431.624	1510.81
431.846	1533.81
432.068	1569.81
432.29	1604.81
432.512	1565.81
432.734	1569.81
432.956	1518.81
433.178	1583.81
433.4	1550.81
433.622	1570.81
433.844	1606.81
434.066	1605.81
434.287	1608.81
434.509	1647.81
434.731	1697.81
434.953	1713.81
435.175	1711.81
435.397	1702.81
435.618	1650.81
435.84	1618.81
436.062	1589.81
436.284	1569.81
436.505	1541.81
436.727	1569.81
436.949	1540.81
437.17	1537.81
437.392	1525.81
437.614	1537.81
437.835	1496.81
438.057	1467.81
438.278	1468.81
438.5	1487.81
438.721	1473.81
438.943	1499.81
439.165	1483.81
439.386	1479.81
439.608	1517.81
439.829	1529.81
440.05	1536.81
440.272	1518.81
440.493	1532.81
440.715	1532.81
440.936	1590.81
441.158	1555.81
441.379	1608.81
441.6	1680.81
441.822	1673.81
442.043	1679.81
442.264	1639.81
442.486	1606.81
442.707	1615.81
442.928	1648.81
443.149	1647.81
443.371	1616.81
443.592	1639.81
443.813	1697.81
444.034	1683.81
444.255	1705.81
444.476	1802.81
444.698	1855.81
444.919	1909.81
445.14	1997.81
445.361	1823.81
445.582	1732.81
445.803	1671.81
446.024	1599.81
446.245	1597.81
446.466	1548.81
446.687	1538.81
446.908	1519.81
447.129	1490.81
447.35	1451.81
447.571	1424.81
447.792	1441.81
448.013	1423.81
448.234	1408.81
448.455	1422.81
448.675	1368.81
448.896	1362.81
449.117	1383.81
449.338	1365.81
449.559	1368.81
449.779	1343.81
450	1329.81
450.221	1379.81
450.442	1381.81
450.662	1393.81
450.883	1372.81
451.104	1387.81
451.324	1416.81
451.545	1415.81
451.766	1368.81
451.986	1374.81
452.207	1366.81
452.428	1363.81
452.648	1373.81
452.869	1342.81
453.089	1324.81
453.31	1352.81
453.53	1321.81
453.751	1292.81
453.971	1323.81
454.192	1325.81
454.412	1297.81
454.633	1277.81
454.853	1362.81
455.073	1272.81
455.294	1333.81
455.514	1295.81
455.734	1302.81
455.955	1264.81
456.175	1267.81
456.395	1263.81
456.616	1238.81
456.836	1269.81
457.056	1295.81
457.276	1249.81
457.497	1280.81
457.717	1307.81
457.937	1311.81
458.157	1325.81
458.377	1342.81
458.598	1392.81
458.818	1401.81
459.038	1452.81
459.258	1451.81
459.478	1502.81
459.698	1559.81
459.918	1605.81
460.138	1631.81
460.358	1684.81
460.578	1716.81
460.798	1719.81
461.018	1751.81
461.238	1731.81
461.458	1765.81
461.678	1727.81
461.898	1753.81
462.118	1761.81
462.338	1827.81
462.558	1845.81
462.777	1923.81
462.997	2078.81
463.217	2180.81
463.437	2194.81
463.657	2101.81
463.876	2035.81
464.096	2011.81
464.316	1958.81
464.536	1955.81
464.755	1903.81
464.975	1874.81
465.195	1821.81
465.414	1705.81
465.634	1625.81
465.854	1609.81
466.073	1559.81
466.293	1524.81
466.512	1485.81
466.732	1467.81
466.951	1480.81
467.171	1436.81
467.391	1473.81
467.61	1429.81
467.829	1407.81
468.049	1435.81
468.268	1463.81
468.488	1392.81
468.707	1412.81
468.927	1396.81
469.146	1422.81
469.365	1410.81
469.585	1417.81
469.804	1426.81
470.023	1434.81
470.243	1511.81
470.462	1509.81
470.681	1456.81
470.901	1488.81
471.12	1456.81
471.339	1462.81
471.558	1410.81
471.777	1403.81
471.997	1398.81
472.216	1405.81
472.435	1430.81
472.654	1411.81
472.873	1418.81
473.092	1395.81
473.311	1377.81
473.53	1410.81
473.749	1414.81
473.968	1395.81
474.187	1384.81
474.406	1395.81
474.625	1361.81
474.844	1371.81
475.063	1387.81
475.282	1399.81
475.501	1421.81
475.72	1437.81
475.939	1404.81
476.158	1462.81
476.377	1439.81
476.596	1405.81
476.814	1504.81
477.033	1501.81
477.252	1535.81
477.471	1532.81
477.69	1565.81
477.908	1589.81
478.127	1647.81
478.346	1646.81
478.564	1710.81
478.783	1672.81
479.002	1732.81
479.22	1756.81
479.439	1732.81
479.658	1750.81
479.876	1727.81
480.095	1768.81
480.313	1819.81
480.532	1827.81
480.751	1856.81
480.969	1812.81
481.188	1775.81
481.406	1723.81
481.624	1716.81
481.843	1664.81
482.061	1711.81
482.28	1677.81
482.498	1676.81
482.717	1654.81
482.935	1704.81
483.153	1717.81
483.372	1735.81
483.59	1741.81
483.808	1728.81
484.027	1768.81
484.245	1756.81
484.463	1777.81
484.681	1780.81
484.9	1825.81
485.118	1812.81
485.336	1875.81
485.554	1877.81
485.772	1900.81
485.99	1887.81
486.209	1860.81
486.427	1860.81
486.645	1831.81
486.863	1874.81
487.081	1860.81
487.299	1808.81
487.517	1858.81
487.735	1891.81
487.953	1808.81
488.171	1843.81
488.389	1812.81
488.607	1810.81
488.825	1772.81
489.043	1764.81
489.261	1751.81
489.479	1754.81
489.696	1749.81
489.914	1744.81
490.132	1742.81
490.35	1768.81
490.568	1749.81
490.786	1736.81
491.003	1743.81
491.221	1768.81
491.439	1739.81
491.657	1742.81
491.874	1743.81
492.092	1723.81
492.31	1768.81
492.527	1742.81
492.745	1773.81
492.963	1764.81
493.18	1751.81
493.398	1771.81
493.615	1746.81
493.833	1738.81
494.05	1783.81
494.268	1776.81
494.485	1769.81
494.703	1783.81
494.92	1804.81
495.138	1773.81
495.355	1784.81
495.573	1817.81
495.79	1763.81
496.008	1811.81
496.225	1845.81
496.442	1843.81
496.66	1870.81
496.877	1848.81
497.094	1893.81
497.312	1942.81
497.529	1939.81
497.746	2016.81
497.963	2075.81
498.181	2148.81
498.398	2209.81
498.615	2315.81
498.832	2462.81
499.049	2589.81
499.267	2769.81
499.484	3043.81
499.701	3274.81
499.918	3559.81
500.135	3849.81
500.352	4296.81
500.569	4396.81
500.786	4413.81
501.003	4185.81
501.22	3843.81
501.437	3528.81
501.654	3149.81
501.871	2955.81
502.088	2769.81
502.305	2588.81
502.522	2459.81
502.739	2411.81
502.956	2272.81
503.172	2162.81
503.389	2127.81
503.606	2054.81
503.823	2004.81
504.04	1965.81
504.256	1970.81
504.473	1990.81
504.69	1993.81
504.907	1948.81
505.123	1861.81
505.34	1813.81
505.557	1736.81
505.773	1688.81
505.99	1644.81
506.207	1604.81
506.423	1596.81
506.64	1557.81
506.856	1581.81
507.073	1506.81
507.289	1568.81
507.506	1501.81
507.722	1492.81
507.939	1478.81
508.155	1489.81
508.372	1465.81
508.588	1452.81
508.805	1459.81
509.021	1434.81
509.238	1465.81
509.454	1422.81
509.67	1405.81
509.887	1419.81
510.103	1411.81
510.319	1421.81
510.536	1407.81
510.752	1367.81
510.968	1363.81
511.184	1364.81
511.401	1394.81
511.617	1375.81
511.833	1382.81
512.049	1354.81
512.265	1373.81
512.481	1415.81
512.698	1378.81
512.914	1336.81
513.13	1384.81
513.346	1364.81
513.562	1373.81
513.778	1384.81
513.994	1378.81
514.21	1379.81
514.426	1399.81
514.642	1418.81
514.858	1384.81
515.074	1452.81
515.29	1416.81
515.506	1446.81
515.721	1461.81
515.937	1491.81
516.153	1473.81
516.369	1543.81
516.585	1538.81
516.801	1602.81
517.016	1681.81
517.232	1763.81
517.448	1758.81
517.664	1821.81
517.879	1816.81
518.095	1823.81
518.311	1751.81
518.527	1697.81
518.742	1677.81
518.958	1599.81
519.173	1567.81
519.389	1566.81
519.605	1489.81
519.82	1451.81
520.036	1464.81
520.251	1422.81
520.467	1409.81
520.682	1410.81
520.898	1378.81
521.113	1377.81
521.329	1328.81
521.544	1334.81
521.76	1321.81
521.975	1317.81
522.19	1318.81
522.406	1286.81
522.621	1309.81
522.836	1300.81
523.052	1295.81
523.267	1258.81
523.482	1251.81
523.698	1281.81
523.913	1263.81
524.128	1297.81
524.343	1237.81
524.559	1234.81
524.774	1263.81
524.989	1259.81
525.204	1232.81
525.419	1267.81
525.634	1231.81
525.849	1235.81
526.064	1226.81
526.28	1215.81
526.495	1211.81
526.71	1222.81
526.925	1235.81
527.14	1222.81
527.355	1245.81
527.57	1221.81
527.785	1240.81
527.999	1219.81
528.214	1236.81
528.429	1219.81
528.644	1244.81
528.859	1227.81
529.074	1198.81
529.289	1216.81
529.503	1218.81
529.718	1213.81
529.933	1219.81
530.148	1213.81
530.363	1192.81
530.577	1231.81
530.792	1192.81
531.007	1168.81
531.221	1204.81
531.436	1218.81
531.651	1199.81
531.865	1201.81
532.08	1196.81
532.295	1195.81
532.509	1198.81
532.724	1184.81
532.938	1185.81
533.153	1197.81
533.367	1223.81
533.582	1183.81
533.796	1183.81
534.011	1197.81
534.225	1183.81
534.44	1147.81
534.654	1192.81
534.868	1165.81
535.083	1195.81
535.297	1163.81
535.511	1148.81
535.726	1150.81
535.94	1180.81
536.154	1150.81
536.369	1120.81
536.583	1158.81
536.797	1135.81
537.011	1111.81
537.225	1096.81
537.44	1107.81
537.654	1134.81
537.868	1117.81
538.082	1107.81
538.296	1095.81
538.51	1089.81
538.724	1121.81
538.938	1084.81
539.153	1113.81
539.367	1100.81
539.581	1081.81
539.795	1104.81
540.009	1097.81
540.222	1084.81
540.436	1064.81
540.65	1081.81
540.864	1030.81
541.078	1047.81
541.292	1062.81
541.506	1059.81
541.72	1081.81
541.934	1075.81
542.147	1069.81
542.361	1074.81
542.575	1038.81
542.789	1047.81
543.002	1064.81
543.216	1048.81
543.43	1054.81
543.644	1031.81
543.857	1031.81
544.071	1056.81
544.285	1068.81
544.498	1089.81
544.712	1068.81
544.925	1060.81
545.139	1052.81
545.352	1086.81
545.566	1081.81
545.779	1078.81
545.993	1071.81
546.206	1111.81
546.42	1075.81
546.633	1060.81
546.847	1064.81
547.06	1063.81
547.274	1064.81
547.487	1069.81
547.7	1067.81
547.914	1079.81
548.127	1083.81
548.34	1094.81
548.554	1088.81
548.767	1087.81
548.98	1090.81
549.193	1079.81
549.407	1085.81
549.62	1104.81
549.833	1118.81
550.046	1106.81
550.259	1101.81
550.473	1088.81
550.686	1088.81
550.899	1057.81
551.112	1078.81
551.325	1083.81
551.538	1083.81
551.751	1068.81
551.964	1043.81
552.177	1102.81
552.39	1084.81
552.603	1092.81
552.816	1130.81
553.029	1127.81
553.242	1151.81
553.455	1135.81
553.667	1166.81
553.88	1145.81
554.093	1089.81
554.306	1084.81
554.519	1079.81
554.732	1080.81
554.944	1036.81
555.157	1005.81
555.37	1011.81
555.583	991.81
555.795	992.81
556.008	1002.81
556.221	955.81
556.433	945.81
556.646	967.81
556.859	928.81
557.071	967.81
557.284	928.81
557.496	923.81
557.709	911.81
557.921	923.81
558.134	888.81
558.346	895.81
558.559	925.81
558.771	919.81
558.984	905.81
559.196	919.81
559.409	905.81
559.621	907.81
559.833	872.81
560.046	898.81
560.258	903.81
560.47	899.81
560.683	890.81
560.895	892.81
561.107	903.81
561.32	900.81
561.532	910.81
561.744	907.81
561.956	895.81
562.168	881.81
562.381	901.81
562.593	880.81
562.805	895.81
563.017	926.81
563.229	902.81
563.441	908.81
563.653	904.81
563.865	901.81
564.077	912.81
564.289	911.81
564.501	915.81
564.713	948.81
564.925	964.81
565.137	960.81
565.349	1008.81
565.561	1038.81
565.773	1050.81
565.985	1089.81
566.197	1136.81
566.408	1200.81
566.62	1287.81
566.832	1355.81
567.044	1395.81
567.255	1395.81
567.467	1414.81
567.679	1459.81
567.891	1516.81
568.102	1502.81
568.314	1500.81
568.526	1359.81
568.737	1262.81
568.949	1196.81
569.161	1091.81
569.372	1033.81
569.584	1019.81
569.795	970.81
570.007	980.81
570.218	924.81
570.43	931.81
570.641	904.81
570.853	928.81
571.064	929.81
571.276	915.81
571.487	899.81
571.698	836.81
571.91	857.81
572.121	822.81
572.333	797.81
572.544	762.81
572.755	767.81
572.966	775.81
573.178	775.81
573.389	765.81
573.6	747.81
573.811	709.81
574.023	727.81
574.234	763.81
574.445	732.81
574.656	736.81
574.867	740.81
575.078	716.81
575.289	699.81
575.501	700.81
575.712	722.81
575.923	709.81
576.134	695.81
576.345	688.81
576.556	686.81
576.767	692.81
576.978	673.81
577.188	677.81
577.399	689.81
577.61	653.81
577.821	671.81
578.032	664.81
578.243	632.81
578.454	670.81
578.665	648.81
578.875	637.81
579.086	648.81
579.297	641.81
579.508	635.81
579.718	635.81
579.929	648.81
580.14	630.81
580.35	619.81
580.561	614.81
580.772	624.81
580.982	615.81
581.193	621.81
581.403	636.81
581.614	600.81
581.825	624.81
582.035	643.81
582.246	617.81
582.456	609.81
582.667	621.81
582.877	595.81
583.087	607.81
583.298	611.81
583.508	612.81
583.719	616.81
583.929	615.81
584.139	578.81
584.35	604.81
584.56	600.81
584.77	615.81
584.981	605.81
585.191	597.81
585.401	589.81
585.611	567.81
585.821	600.81
586.032	577.81
586.242	593.81
586.452	559.81
586.662	583.81
586.872	576.81
587.082	591.81
587.292	561.81
587.502	553.81
587.713	579.81
587.923	597.81
588.133	597.81
588.343	580.81
588.553	584.81
588.762	573.81
588.972	577.81
589.182	574.81
589.392	579.81
589.602	586.81
589.812	552.81
590.022	574.81
590.232	572.81
590.441	569.81
590.651	604.81
590.861	589.81
591.071	599.81
591.281	575.81
591.49	592.81
591.7	603.81
591.91	615.81
592.119	614.81
592.329	609.81
592.539	629.81
592.748	654.81
592.958	693.81
593.167	694.81
593.377	668.81
593.587	685.81
593.796	697.81
594.006	701.81
594.215	666.81
594.424	697.81
594.634	659.81
594.843	672.81
595.053	667.81
595.262	647.81
595.472	609.81
595.681	574.81
595.89	579.81
596.1	590.81
596.309	568.81
596.518	568.81
596.727	555.81
596.937	564.81
597.146	535.81
597.355	531.81
597.564	513.81
597.774	522.81
597.983	496.81
598.192	525.81
598.401	515.81
598.61	519.81
598.819	499.81
599.028	482.81
599.237	486.81
599.446	495.81
599.655	485.81
599.864	470.81
600.073	488.81
600.282	456.81
600.491	486.81
600.7	473.81
600.909	496.81
601.118	460.81
601.327	468.81
601.536	461.81
601.745	468.81
601.953	489.81
602.162	462.81
602.371	477.81
602.58	472.81
602.789	455.81
602.997	468.81
603.206	464.81
603.415	478.81
603.623	451.81
603.832	452.81
604.041	450.81
604.249	431.81
604.458	456.81
604.666	452.81
604.875	434.81
605.084	436.81
605.292	438.81
605.501	439.81
605.709	434.81
605.918	451.81
606.126	441.81
606.334	434.81
606.543	432.81
606.751	429.81
606.96	432.81
607.168	430.81
607.376	438.81
607.585	414.81
607.793	406.81
608.001	410.81
608.21	425.81
608.418	414.81
608.626	405.81
608.834	414.81
609.043	393.81
609.251	425.81
609.459	408.81
609.667	431.81
609.875	409.81
610.083	424.81
610.291	397.81
610.499	421.81
610.707	406.81
610.916	420.81
611.124	417.81
611.332	424.81
611.54	407.81
611.748	405.81
611.955	406.81
612.163	390.81
612.371	399.81
612.579	409.81
612.787	415.81
612.995	388.81
613.203	386.81
613.411	425.81
613.618	409.81
613.826	392.81
614.034	399.81
614.242	393.81
614.449	406.81
614.657	398.81
614.865	413.81
615.072	409.81
615.28	404.81
615.488	393.81
615.695	406.81
615.903	408.81
616.111	396.81
616.318	440.81
616.526	409.81
616.733	408.81
616.941	406.81
617.148	412.81
617.356	403.81
617.563	391.81
617.771	403.81
617.978	400.81
618.185	390.81
618.393	406.81
618.6	378.81
618.807	376.81
619.015	402.81
619.222	386.81
619.429	367.81
619.637	391.81
619.844	381.81
620.051	386.81
620.258	375.81
620.466	363.81
620.673	349.81
620.88	348.81
621.087	374.81
621.294	371.81
621.501	391.81
621.708	375.81
621.915	376.81
622.122	377.81
622.329	373.81
622.536	378.81
622.743	370.81
622.95	352.81
623.157	371.81
623.364	354.81
623.571	367.81
623.778	356.81
623.985	357.81
624.192	354.81
624.399	349.81
624.606	349.81
624.812	339.81
625.019	326.81
625.226	361.81
625.433	330.81
625.639	337.81
625.846	344.81
626.053	342.81
626.259	337.81
626.466	330.81
626.673	326.81
626.879	322.81
627.086	341.81
627.293	336.81
627.499	328.81
627.706	333.81
627.912	352.81
628.119	308.81
628.325	326.81
628.532	322.81
628.738	330.81
628.945	331.81
629.151	328.81
629.357	321.81
629.564	324.81
629.77	319.81
629.976	300.81
630.183	319.81
630.389	307.81
630.595	303.81
630.802	318.81
631.008	301.81
631.214	320.81
631.42	294.81
631.627	335.81
631.833	293.81
632.039	309.81
632.245	295.81
632.451	295.81
632.657	296.81
632.863	319.81
633.069	302.81
633.275	304.81
633.481	304.81
633.688	300.81
633.893	307.81
634.099	283.81
634.305	306.81
634.511	297.81
634.717	294.81
634.923	291.81
635.129	304.81
635.335	291.81
635.541	288.81
635.747	276.81
635.952	299.81
636.158	293.81
636.364	294.81
636.57	302.81
636.775	295.81
636.981	280.81
637.187	283.81
637.392	291.81
637.598	291.81
637.804	278.81
638.009	277.81
638.215	283.81
638.421	292.81
638.626	280.81
638.832	291.81
639.037	295.81
639.243	280.81
639.448	285.81
639.654	277.81
639.859	276.81
640.065	276.81
640.27	278.81
640.475	278.81
640.681	260.81
640.886	274.81
641.091	283.81
641.297	260.81
641.502	269.81
641.707	261.81
641.913	280.81
642.118	286.81
642.323	272.81
642.528	259.81
642.733	255.81
642.939	285.81
643.144	268.81
643.349	257.81
643.554	263.81
643.759	268.81
643.964	272.81
644.169	276.81
644.374	272.81
644.579	256.81
644.784	271.81
644.989	251.81
645.194	265.81
645.399	277.81
645.604	281.81
645.809	281.81
646.014	281.81
646.219	286.81
646.423	276.81
646.628	265.81
646.833	268.81
647.038	264.81
647.243	256.81
647.447	272.81
647.652	307.81
647.857	292.81
648.062	287.81
648.266	298.81
648.471	313.81
648.676	312.81
648.88	286.81
649.085	291.81
649.289	296.81
649.494	294.81
649.698	288.81
649.903	279.81
650.107	275.81
650.312	279.81
650.516	302.81
650.721	276.81
650.925	271.81
651.13	265.81
651.334	260.81
651.539	259.81
651.743	268.81
651.947	269.81
652.152	279.81
652.356	268.81
652.56	259.81
652.764	238.81
652.969	244.81
653.173	263.81
653.377	251.81
653.581	285.81
653.785	258.81
653.99	265.81
654.194	263.81
654.398	276.81
654.602	281.81
654.806	285.81
655.01	300.81
655.214	292.81
655.418	301.81
655.622	299.81
655.826	335.81
656.03	368.81
656.234	367.81
656.438	383.81
656.642	403.81
656.846	383.81
657.049	341.81
657.253	308.81
657.457	264.81
657.661	252.81
657.865	225.81
658.068	200.81
658.272	192.81
658.476	195.81
658.68	193.81
658.883	171.81
659.087	150.81
659.291	155.81
659.494	140.81
659.698	131.81
659.901	137.81
660.105	125.81
660.309	126.81
660.512	113.81
660.716	117.81
660.919	119.81
661.123	100.81
661.326	90.81
661.53	87.81
661.733	97.81
661.936	89.81
662.14	78.81
662.343	96.81
662.546	92.81
662.75	92.81
662.953	96.81
663.156	87.81
663.36	83.81
663.563	84.81
663.766	78.81
663.969	79.81
664.173	87.81
664.376	73.81
664.579	81.81
664.782	83.81
664.985	87.81
665.188	76.81
665.391	78.81
665.594	73.81
665.797	68.81
666	75.81
666.203	71.81
666.406	70.81
666.609	67.81
666.812	85.81
667.015	68.81
667.218	78.81
667.421	81.81
667.624	83.81
667.827	79.81
668.03	83.81
668.232	95.81
668.435	75.81
668.638	92.81
668.841	86.81
669.043	79.81
669.246	76.81
669.449	87.81
669.651	77.81
669.854	75.81
670.057	89.81
670.259	80.81
670.462	76.81
670.665	84.81
670.867	69.81
671.07	96.81
671.272	79.81
671.475	70.81
671.677	83.81
671.88	90.81
672.082	90.81
672.284	95.81
672.487	81.81
672.689	77.81
672.892	71.81
