Data from NiCl2@0.5M.TitratingCurve.Agarose3%dH2O.NegLispCup.LampEnergy10.LIBS07252019_HRD10591_18-20-21-571.txt Node
Date: Thu Jul 25 18:20:21 EDT 2019
User: cochatt
Spectrometer: HR+D1059
Trigger mode: 1
Integration Time (sec): 1.000000E-1
Scans to average: 1
Electric dark correction enabled: true
Nonlinearity correction enabled: false
Boxcar width: 0
XAxis mode: Wavelengths
Number of Pixels in Spectrum: 2048
>>>>>Begin Spectral Data<<<<<
223.165	-23.31
223.4	-23.31
223.635	-23.31
223.869	-10.31
224.104	-14.31
224.338	-14.31
224.573	-28.31
224.808	-19.31
225.042	-14.31
225.277	4.69
225.511	5.69
225.746	0.69
225.98	19.69
226.215	13.69
226.449	14.69
226.683	23.69
226.918	26.69
227.152	14.69
227.387	48.69
227.621	23.69
227.856	44.69
228.09	49.69
228.324	57.69
228.559	57.69
228.793	73.69
229.027	94.69
229.262	96.69
229.496	104.69
229.73	114.69
229.964	132.69
230.199	129.69
230.433	119.69
230.667	126.69
230.901	118.69
231.136	127.69
231.37	137.69
231.604	131.69
231.838	128.69
232.072	129.69
232.306	139.69
232.541	151.69
232.775	143.69
233.009	131.69
233.243	123.69
233.477	139.69
233.711	139.69
233.945	147.69
234.179	145.69
234.413	134.69
234.647	137.69
234.881	144.69
235.115	140.69
235.349	135.69
235.583	125.69
235.817	133.69
236.051	153.69
236.285	142.69
236.519	151.69
236.753	140.69
236.987	135.69
237.221	140.69
237.455	138.69
237.689	147.69
237.922	144.69
238.156	153.69
238.39	148.69
238.624	166.69
238.858	147.69
239.091	157.69
239.325	161.69
239.559	167.69
239.793	161.69
240.027	174.69
240.26	169.69
240.494	153.69
240.728	159.69
240.961	159.69
241.195	148.69
241.429	159.69
241.662	161.69
241.896	164.69
242.13	176.69
242.363	175.69
242.597	174.69
242.83	170.69
243.064	162.69
243.298	187.69
243.531	183.69
243.765	200.69
243.998	188.69
244.232	179.69
244.465	185.69
244.699	199.69
244.932	184.69
245.166	178.69
245.399	196.69
245.633	171.69
245.866	191.69
246.099	188.69
246.333	208.69
246.566	206.69
246.8	202.69
247.033	207.69
247.266	204.69
247.5	195.69
247.733	205.69
247.966	203.69
248.2	173.69
248.433	206.69
248.666	193.69
248.899	199.69
249.133	201.69
249.366	215.69
249.599	202.69
249.832	197.69
250.066	222.69
250.299	215.69
250.532	211.69
250.765	212.69
250.998	240.69
251.231	229.69
251.465	230.69
251.698	226.69
251.931	224.69
252.164	242.69
252.397	230.69
252.63	240.69
252.863	227.69
253.096	237.69
253.329	239.69
253.562	234.69
253.795	245.69
254.028	237.69
254.261	245.69
254.494	241.69
254.727	243.69
254.96	244.69
255.193	253.69
255.426	257.69
255.659	239.69
255.892	258.69
256.124	250.69
256.357	239.69
256.59	259.69
256.823	253.69
257.056	238.69
257.289	255.69
257.521	274.69
257.754	248.69
257.987	256.69
258.22	262.69
258.452	251.69
258.685	264.69
258.918	265.69
259.151	276.69
259.383	270.69
259.616	249.69
259.849	280.69
260.081	266.69
260.314	285.69
260.547	276.69
260.779	280.69
261.012	287.69
261.244	282.69
261.477	297.69
261.71	274.69
261.942	269.69
262.175	284.69
262.407	284.69
262.64	275.69
262.872	276.69
263.105	279.69
263.337	273.69
263.57	268.69
263.802	290.69
264.035	299.69
264.267	310.69
264.499	304.69
264.732	270.69
264.964	288.69
265.197	297.69
265.429	306.69
265.661	308.69
265.894	326.69
266.126	308.69
266.358	284.69
266.591	301.69
266.823	324.69
267.055	323.69
267.287	304.69
267.52	313.69
267.752	318.69
267.984	323.69
268.216	300.69
268.448	320.69
268.681	314.69
268.913	328.69
269.145	306.69
269.377	316.69
269.609	317.69
269.841	313.69
270.073	337.69
270.306	316.69
270.538	339.69
270.77	333.69
271.002	324.69
271.234	312.69
271.466	336.69
271.698	331.69
271.93	341.69
272.162	329.69
272.394	337.69
272.626	327.69
272.858	346.69
273.09	353.69
273.322	341.69
273.553	350.69
273.785	360.69
274.017	359.69
274.249	348.69
274.481	357.69
274.713	361.69
274.945	356.69
275.176	363.69
275.408	357.69
275.64	362.69
275.872	373.69
276.104	345.69
276.335	353.69
276.567	372.69
276.799	352.69
277.031	361.69
277.262	391.69
277.494	379.69
277.726	363.69
277.957	387.69
278.189	370.69
278.421	370.69
278.652	374.69
278.884	391.69
279.115	393.69
279.347	372.69
279.579	369.69
279.81	403.69
280.042	384.69
280.273	393.69
280.505	401.69
280.736	403.69
280.968	398.69
281.199	415.69
281.431	418.69
281.662	403.69
281.894	392.69
282.125	407.69
282.356	407.69
282.588	397.69
282.819	393.69
283.051	398.69
283.282	396.69
283.513	415.69
283.745	433.69
283.976	424.69
284.207	403.69
284.439	424.69
284.67	416.69
284.901	415.69
285.132	424.69
285.364	417.69
285.595	405.69
285.826	435.69
286.057	429.69
286.288	428.69
286.52	444.69
286.751	425.69
286.982	417.69
287.213	418.69
287.444	440.69
287.675	432.69
287.906	441.69
288.138	434.69
288.369	426.69
288.6	452.69
288.831	444.69
289.062	443.69
289.293	452.69
289.524	441.69
289.755	439.69
289.986	434.69
290.217	458.69
290.448	451.69
290.679	443.69
290.91	462.69
291.141	470.69
291.371	454.69
291.602	472.69
291.833	455.69
292.064	449.69
292.295	452.69
292.526	472.69
292.757	454.69
292.987	461.69
293.218	481.69
293.449	461.69
293.68	478.69
293.91	451.69
294.141	460.69
294.372	450.69
294.603	465.69
294.833	464.69
295.064	456.69
295.295	476.69
295.525	479.69
295.756	480.69
295.987	473.69
296.217	487.69
296.448	473.69
296.679	459.69
296.909	470.69
297.14	486.69
297.37	484.69
297.601	498.69
297.831	486.69
298.062	509.69
298.292	509.69
298.523	502.69
298.753	496.69
298.984	471.69
299.214	488.69
299.445	503.69
299.675	503.69
299.905	497.69
300.136	482.69
300.366	506.69
300.597	526.69
300.827	545.69
301.057	521.69
301.288	519.69
301.518	537.69
301.748	516.69
301.979	529.69
302.209	546.69
302.439	522.69
302.669	514.69
302.9	526.69
303.13	504.69
303.36	518.69
303.59	533.69
303.82	549.69
304.051	533.69
304.281	524.69
304.511	563.69
304.741	522.69
304.971	513.69
305.201	533.69
305.431	513.69
305.661	537.69
305.891	521.69
306.121	550.69
306.352	503.69
306.582	528.69
306.812	517.69
307.042	527.69
307.272	533.69
307.502	503.69
307.731	517.69
307.961	524.69
308.191	535.69
308.421	490.69
308.651	524.69
308.881	537.69
309.111	533.69
309.341	522.69
309.571	514.69
309.8	522.69
310.03	542.69
310.26	524.69
310.49	530.69
310.72	536.69
310.949	526.69
311.179	501.69
311.409	538.69
311.639	563.69
311.868	528.69
312.098	535.69
312.328	555.69
312.557	515.69
312.787	536.69
313.017	507.69
313.246	560.69
313.476	569.69
313.706	571.69
313.935	585.69
314.165	585.69
314.394	573.69
314.624	548.69
314.853	554.69
315.083	533.69
315.312	539.69
315.542	563.69
315.771	547.69
316.001	541.69
316.23	556.69
316.46	548.69
316.689	554.69
316.919	528.69
317.148	520.69
317.377	558.69
317.607	537.69
317.836	537.69
318.065	552.69
318.295	547.69
318.524	533.69
318.753	536.69
318.983	529.69
319.212	532.69
319.441	569.69
319.67	565.69
319.9	542.69
320.129	564.69
320.358	563.69
320.587	552.69
320.816	575.69
321.046	556.69
321.275	565.69
321.504	566.69
321.733	568.69
321.962	561.69
322.191	557.69
322.42	575.69
322.649	563.69
322.878	549.69
323.108	571.69
323.337	572.69
323.566	594.69
323.795	583.69
324.024	585.69
324.253	576.69
324.482	591.69
324.71	578.69
324.939	569.69
325.168	597.69
325.397	605.69
325.626	600.69
325.855	618.69
326.084	600.69
326.313	586.69
326.542	582.69
326.77	593.69
326.999	589.69
327.228	603.69
327.457	566.69
327.686	599.69
327.914	610.69
328.143	609.69
328.372	612.69
328.6	607.69
328.829	620.69
329.058	625.69
329.287	589.69
329.515	596.69
329.744	638.69
329.972	634.69
330.201	616.69
330.43	635.69
330.658	613.69
330.887	641.69
331.115	633.69
331.344	663.69
331.572	650.69
331.801	660.69
332.03	675.69
332.258	681.69
332.486	693.69
332.715	693.69
332.943	715.69
333.172	749.69
333.4	762.69
333.629	769.69
333.857	793.69
334.085	792.69
334.314	779.69
334.542	769.69
334.771	759.69
334.999	744.69
335.227	756.69
335.455	748.69
335.684	730.69
335.912	708.69
336.14	733.69
336.369	733.69
336.597	738.69
336.825	719.69
337.053	717.69
337.281	714.69
337.51	682.69
337.738	680.69
337.966	682.69
338.194	679.69
338.422	675.69
338.65	673.69
338.878	683.69
339.106	666.69
339.334	712.69
339.562	654.69
339.79	643.69
340.018	649.69
340.246	617.69
340.474	639.69
340.702	631.69
340.93	646.69
341.158	652.69
341.386	640.69
341.614	660.69
341.842	660.69
342.07	637.69
342.298	631.69
342.526	643.69
342.754	619.69
342.981	644.69
343.209	656.69
343.437	663.69
343.665	706.69
343.893	745.69
344.12	746.69
344.348	741.69
344.576	704.69
344.804	703.69
345.031	675.69
345.259	662.69
345.487	665.69
345.714	620.69
345.942	645.69
346.17	647.69
346.397	640.69
346.625	617.69
346.853	623.69
347.08	626.69
347.308	642.69
347.535	624.69
347.763	611.69
347.99	615.69
348.218	592.69
348.445	592.69
348.673	607.69
348.9	592.69
349.128	625.69
349.355	584.69
349.583	616.69
349.81	599.69
350.037	612.69
350.265	598.69
350.492	605.69
350.72	600.69
350.947	608.69
351.174	597.69
351.402	606.69
351.629	615.69
351.856	583.69
352.083	588.69
352.311	612.69
352.538	607.69
352.765	611.69
352.992	604.69
353.22	587.69
353.447	597.69
353.674	570.69
353.901	588.69
354.128	576.69
354.355	584.69
354.583	575.69
354.81	585.69
355.037	596.69
355.264	584.69
355.491	590.69
355.718	581.69
355.945	597.69
356.172	597.69
356.399	609.69
356.626	612.69
356.853	616.69
357.08	581.69
357.307	576.69
357.534	601.69
357.761	577.69
357.988	591.69
358.215	598.69
358.441	588.69
358.668	591.69
358.895	602.69
359.122	585.69
359.349	563.69
359.576	589.69
359.802	580.69
360.029	582.69
360.256	579.69
360.483	603.69
360.709	573.69
360.936	585.69
361.163	593.69
361.39	598.69
361.616	597.69
361.843	595.69
362.07	613.69
362.296	601.69
362.523	566.69
362.749	581.69
362.976	581.69
363.203	585.69
363.429	580.69
363.656	602.69
363.882	562.69
364.109	577.69
364.335	569.69
364.562	577.69
364.788	561.69
365.015	565.69
365.241	565.69
365.468	564.69
365.694	561.69
365.92	586.69
366.147	583.69
366.373	561.69
366.599	574.69
366.826	574.69
367.052	568.69
367.278	577.69
367.505	591.69
367.731	570.69
367.957	584.69
368.184	582.69
368.41	583.69
368.636	560.69
368.862	610.69
369.089	610.69
369.315	601.69
369.541	590.69
369.767	602.69
369.993	591.69
370.219	602.69
370.445	602.69
370.672	607.69
370.898	595.69
371.124	611.69
371.35	642.69
371.576	616.69
371.802	623.69
372.028	631.69
372.254	619.69
372.48	597.69
372.706	652.69
372.932	639.69
373.158	611.69
373.384	654.69
373.61	631.69
373.835	623.69
374.061	636.69
374.287	645.69
374.513	616.69
374.739	653.69
374.965	664.69
375.191	659.69
375.416	642.69
375.642	631.69
375.868	637.69
376.094	633.69
376.319	612.69
376.545	605.69
376.771	604.69
376.997	615.69
377.222	625.69
377.448	601.69
377.674	613.69
377.899	614.69
378.125	601.69
378.35	603.69
378.576	610.69
378.802	609.69
379.027	611.69
379.253	598.69
379.478	606.69
379.704	616.69
379.929	608.69
380.155	612.69
380.38	604.69
380.606	597.69
380.831	619.69
381.057	596.69
381.282	605.69
381.507	623.69
381.733	631.69
381.958	631.69
382.184	637.69
382.409	627.69
382.634	634.69
382.86	644.69
383.085	641.69
383.31	649.69
383.535	665.69
383.761	685.69
383.986	669.69
384.211	708.69
384.436	696.69
384.662	703.69
384.887	722.69
385.112	699.69
385.337	731.69
385.562	723.69
385.787	711.69
386.013	728.69
386.238	733.69
386.463	717.69
386.688	716.69
386.913	722.69
387.138	725.69
387.363	705.69
387.588	724.69
387.813	722.69
388.038	716.69
388.263	742.69
388.488	722.69
388.713	705.69
388.938	695.69
389.163	703.69
389.387	697.69
389.612	694.69
389.837	716.69
390.062	704.69
390.287	704.69
390.512	708.69
390.736	701.69
390.961	747.69
391.186	727.69
391.411	746.69
391.636	769.69
391.86	800.69
392.085	810.69
392.31	805.69
392.534	776.69
392.759	788.69
392.984	754.69
393.208	738.69
393.433	735.69
393.658	743.69
393.882	759.69
394.107	765.69
394.331	768.69
394.556	760.69
394.78	777.69
395.005	777.69
395.229	745.69
395.454	803.69
395.678	810.69
395.903	799.69
396.127	793.69
396.352	776.69
396.576	754.69
396.801	781.69
397.025	758.69
397.249	836.69
397.474	808.69
397.698	811.69
397.922	820.69
398.147	804.69
398.371	828.69
398.595	852.69
398.82	880.69
399.044	947.69
399.268	1055.69
399.492	1136.69
399.717	1265.69
399.941	1299.69
400.165	1145.69
400.389	1063.69
400.613	1004.69
400.837	956.69
401.062	901.69
401.286	889.69
401.51	925.69
401.734	863.69
401.958	915.69
402.182	903.69
402.406	919.69
402.63	913.69
402.854	948.69
403.078	968.69
403.302	952.69
403.526	966.69
403.75	978.69
403.974	1037.69
404.198	995.69
404.422	995.69
404.645	1018.69
404.869	997.69
405.093	979.69
405.317	999.69
405.541	977.69
405.765	953.69
405.988	968.69
406.212	980.69
406.436	954.69
406.66	973.69
406.883	1029.69
407.107	1079.69
407.331	1096.69
407.555	1137.69
407.778	1159.69
408.002	1085.69
408.226	1087.69
408.449	1042.69
408.673	1037.69
408.896	1023.69
409.12	1034.69
409.344	1022.69
409.567	999.69
409.791	1017.69
410.014	1002.69
410.238	976.69
410.461	1000.69
410.685	968.69
410.908	982.69
411.132	932.69
411.355	920.69
411.578	943.69
411.802	910.69
412.025	925.69
412.249	973.69
412.472	940.69
412.695	912.69
412.919	906.69
413.142	921.69
413.365	905.69
413.589	904.69
413.812	915.69
414.035	885.69
414.258	896.69
414.482	889.69
414.705	923.69
414.928	912.69
415.151	909.69
415.374	905.69
415.597	902.69
415.821	898.69
416.044	873.69
416.267	911.69
416.49	871.69
416.713	881.69
416.936	897.69
417.159	888.69
417.382	889.69
417.605	883.69
417.828	864.69
418.051	898.69
418.274	911.69
418.497	900.69
418.72	896.69
418.943	949.69
419.166	981.69
419.389	1037.69
419.611	1010.69
419.834	958.69
420.057	940.69
420.28	928.69
420.503	893.69
420.726	883.69
420.948	895.69
421.171	869.69
421.394	912.69
421.617	870.69
421.839	899.69
422.062	889.69
422.285	907.69
422.507	904.69
422.73	935.69
422.953	923.69
423.175	922.69
423.398	929.69
423.621	927.69
423.843	933.69
424.066	953.69
424.288	932.69
424.511	928.69
424.733	915.69
424.956	903.69
425.178	943.69
425.401	896.69
425.623	924.69
425.846	865.69
426.068	883.69
426.291	873.69
426.513	859.69
426.735	854.69
426.958	870.69
427.18	850.69
427.402	860.69
427.625	834.69
427.847	832.69
428.069	827.69
428.292	851.69
428.514	846.69
428.736	799.69
428.958	817.69
429.181	804.69
429.403	811.69
429.625	809.69
429.847	805.69
430.069	800.69
430.292	812.69
430.514	810.69
430.736	816.69
430.958	821.69
431.18	832.69
431.402	808.69
431.624	822.69
431.846	852.69
432.068	840.69
432.29	827.69
432.512	812.69
432.734	845.69
432.956	840.69
433.178	823.69
433.4	842.69
433.622	830.69
433.844	839.69
434.066	846.69
434.287	866.69
434.509	871.69
434.731	880.69
434.953	904.69
435.175	913.69
435.397	937.69
435.618	866.69
435.84	867.69
436.062	853.69
436.284	812.69
436.505	820.69
436.727	832.69
436.949	844.69
437.17	848.69
437.392	815.69
437.614	807.69
437.835	794.69
438.057	810.69
438.278	801.69
438.5	803.69
438.721	797.69
438.943	829.69
439.165	825.69
439.386	811.69
439.608	810.69
439.829	833.69
440.05	860.69
440.272	865.69
440.493	854.69
440.715	869.69
440.936	872.69
441.158	858.69
441.379	880.69
441.6	938.69
441.822	924.69
442.043	917.69
442.264	893.69
442.486	895.69
442.707	894.69
442.928	896.69
443.149	913.69
443.371	889.69
443.592	963.69
443.813	924.69
444.034	935.69
444.255	991.69
444.476	1013.69
444.698	1045.69
444.919	1101.69
445.14	1126.69
445.361	1037.69
445.582	983.69
445.803	914.69
446.024	915.69
446.245	854.69
446.466	863.69
446.687	823.69
446.908	845.69
447.129	825.69
447.35	848.69
447.571	821.69
447.792	797.69
448.013	792.69
448.234	806.69
448.455	793.69
448.675	792.69
448.896	822.69
449.117	765.69
449.338	786.69
449.559	777.69
449.779	771.69
450	748.69
450.221	755.69
450.442	769.69
450.662	791.69
450.883	794.69
451.104	799.69
451.324	768.69
451.545	783.69
451.766	788.69
451.986	761.69
452.207	754.69
452.428	766.69
452.648	770.69
452.869	743.69
453.089	760.69
453.31	767.69
453.53	713.69
453.751	728.69
453.971	733.69
454.192	745.69
454.412	757.69
454.633	745.69
454.853	740.69
455.073	743.69
455.294	739.69
455.514	734.69
455.734	730.69
455.955	732.69
456.175	741.69
456.395	724.69
456.616	713.69
456.836	727.69
457.056	751.69
457.276	699.69
457.497	726.69
457.717	739.69
457.937	748.69
458.157	737.69
458.377	757.69
458.598	777.69
458.818	765.69
459.038	827.69
459.258	810.69
459.478	857.69
459.698	884.69
459.918	878.69
460.138	910.69
460.358	976.69
460.578	952.69
460.798	966.69
461.018	995.69
461.238	976.69
461.458	971.69
461.678	957.69
461.898	1004.69
462.118	995.69
462.338	1039.69
462.558	1076.69
462.777	1101.69
462.997	1159.69
463.217	1265.69
463.437	1238.69
463.657	1171.69
463.876	1151.69
464.096	1121.69
464.316	1130.69
464.536	1101.69
464.755	1101.69
464.975	1054.69
465.195	994.69
465.414	972.69
465.634	933.69
465.854	883.69
466.073	844.69
466.293	852.69
466.512	844.69
466.732	804.69
466.951	816.69
467.171	821.69
467.391	818.69
467.61	820.69
467.829	830.69
468.049	824.69
468.268	808.69
468.488	791.69
468.707	793.69
468.927	811.69
469.146	796.69
469.365	799.69
469.585	817.69
469.804	826.69
470.023	829.69
470.243	834.69
470.462	847.69
470.681	844.69
470.901	872.69
471.12	863.69
471.339	851.69
471.558	824.69
471.777	804.69
471.997	815.69
472.216	804.69
472.435	775.69
472.654	770.69
472.873	777.69
473.092	758.69
473.311	779.69
473.53	780.69
473.749	765.69
473.968	785.69
474.187	775.69
474.406	796.69
474.625	792.69
474.844	768.69
475.063	803.69
475.282	812.69
475.501	816.69
475.72	815.69
475.939	803.69
476.158	828.69
476.377	818.69
476.596	795.69
476.814	833.69
477.033	828.69
477.252	843.69
477.471	864.69
477.69	912.69
477.908	887.69
478.127	935.69
478.346	924.69
478.564	955.69
478.783	932.69
479.002	962.69
479.22	968.69
479.439	959.69
479.658	948.69
479.876	973.69
480.095	992.69
480.313	1029.69
480.532	1043.69
480.751	1024.69
480.969	961.69
481.188	964.69
481.406	915.69
481.624	935.69
481.843	899.69
482.061	868.69
482.28	896.69
482.498	891.69
482.717	905.69
482.935	911.69
483.153	905.69
483.372	915.69
483.59	923.69
483.808	917.69
484.027	900.69
484.245	894.69
484.463	920.69
484.681	968.69
484.9	935.69
485.118	930.69
485.336	902.69
485.554	941.69
485.772	912.69
485.99	929.69
486.209	941.69
486.427	941.69
486.645	931.69
486.863	961.69
487.081	950.69
487.299	940.69
487.517	930.69
487.735	939.69
487.953	947.69
488.171	968.69
488.389	936.69
488.607	940.69
488.825	929.69
489.043	923.69
489.261	918.69
489.479	929.69
489.696	934.69
489.914	937.69
490.132	948.69
490.35	949.69
490.568	947.69
490.786	969.69
491.003	947.69
491.221	958.69
491.439	946.69
491.657	951.69
491.874	978.69
492.092	992.69
492.31	1003.69
492.527	1005.69
492.745	1009.69
492.963	1011.69
493.18	974.69
493.398	1010.69
493.615	1003.69
493.833	1006.69
494.05	1004.69
494.268	1003.69
494.485	1007.69
494.703	1019.69
494.92	982.69
495.138	995.69
495.355	1021.69
495.573	1001.69
495.79	1013.69
496.008	1061.69
496.225	1030.69
496.442	1039.69
496.66	1047.69
496.877	1061.69
497.094	1080.69
497.312	1100.69
497.529	1111.69
497.746	1159.69
497.963	1157.69
498.181	1205.69
498.398	1252.69
498.615	1303.69
498.832	1425.69
499.049	1498.69
499.267	1559.69
499.484	1765.69
499.701	1886.69
499.918	2078.69
500.135	2318.69
500.352	2591.69
500.569	2633.69
500.786	2617.69
501.003	2419.69
501.22	2190.69
501.437	2036.69
501.654	1809.69
501.871	1690.69
502.088	1548.69
502.305	1461.69
502.522	1395.69
502.739	1363.69
502.956	1268.69
503.172	1243.69
503.389	1175.69
503.606	1157.69
503.823	1140.69
504.04	1145.69
504.256	1127.69
504.473	1120.69
504.69	1162.69
504.907	1141.69
505.123	1091.69
505.34	1022.69
505.557	969.69
505.773	967.69
505.99	978.69
506.207	951.69
506.423	924.69
506.64	943.69
506.856	881.69
507.073	896.69
507.289	889.69
507.506	880.69
507.722	888.69
507.939	858.69
508.155	871.69
508.372	826.69
508.588	834.69
508.805	862.69
509.021	817.69
509.238	811.69
509.454	835.69
509.67	828.69
509.887	803.69
510.103	823.69
510.319	824.69
510.536	789.69
510.752	801.69
510.968	772.69
511.184	778.69
511.401	788.69
511.617	799.69
511.833	782.69
512.049	778.69
512.265	809.69
512.481	773.69
512.698	777.69
512.914	803.69
513.13	804.69
513.346	802.69
513.562	798.69
513.778	803.69
513.994	792.69
514.21	800.69
514.426	833.69
514.642	813.69
514.858	825.69
515.074	819.69
515.29	822.69
515.506	822.69
515.721	843.69
515.937	857.69
516.153	872.69
516.369	885.69
516.585	909.69
516.801	926.69
517.016	955.69
517.232	999.69
517.448	1040.69
517.664	1097.69
517.879	1044.69
518.095	1058.69
518.311	1041.69
518.527	959.69
518.742	963.69
518.958	931.69
519.173	901.69
519.389	888.69
519.605	865.69
519.82	856.69
520.036	805.69
520.251	816.69
520.467	792.69
520.682	818.69
520.898	804.69
521.113	779.69
521.329	777.69
521.544	767.69
521.76	772.69
521.975	762.69
522.19	738.69
522.406	756.69
522.621	750.69
522.836	759.69
523.052	765.69
523.267	739.69
523.482	712.69
523.698	731.69
523.913	722.69
524.128	745.69
524.343	733.69
524.559	727.69
524.774	731.69
524.989	738.69
525.204	736.69
525.419	732.69
525.634	722.69
525.849	728.69
526.064	731.69
526.28	731.69
526.495	695.69
526.71	703.69
526.925	712.69
527.14	698.69
527.355	708.69
527.57	712.69
527.785	710.69
527.999	708.69
528.214	713.69
528.429	731.69
528.644	714.69
528.859	730.69
529.074	707.69
529.289	735.69
529.503	714.69
529.718	711.69
529.933	709.69
530.148	721.69
530.363	693.69
530.577	677.69
530.792	687.69
531.007	703.69
531.221	709.69
531.436	695.69
531.651	699.69
531.865	692.69
532.08	691.69
532.295	692.69
532.509	699.69
532.724	717.69
532.938	699.69
533.153	708.69
533.367	706.69
533.582	708.69
533.796	696.69
534.011	707.69
534.225	678.69
534.44	693.69
534.654	673.69
534.868	699.69
535.083	681.69
535.297	673.69
535.511	661.69
535.726	683.69
535.94	702.69
536.154	689.69
536.369	667.69
536.583	672.69
536.797	668.69
537.011	657.69
537.225	661.69
537.44	656.69
537.654	654.69
537.868	661.69
538.082	663.69
538.296	637.69
538.51	657.69
538.724	664.69
538.938	654.69
539.153	651.69
539.367	646.69
539.581	666.69
539.795	634.69
540.009	633.69
540.222	645.69
540.436	635.69
540.65	631.69
540.864	630.69
541.078	627.69
541.292	642.69
541.506	650.69
541.72	636.69
541.934	644.69
542.147	659.69
542.361	635.69
542.575	636.69
542.789	634.69
543.002	636.69
543.216	630.69
543.43	610.69
543.644	636.69
543.857	622.69
544.071	628.69
544.285	654.69
544.498	666.69
544.712	624.69
544.925	641.69
545.139	672.69
545.352	650.69
545.566	675.69
545.779	651.69
545.993	655.69
546.206	649.69
546.42	655.69
546.633	655.69
546.847	645.69
547.06	658.69
547.274	647.69
547.487	674.69
547.7	649.69
547.914	665.69
548.127	666.69
548.34	663.69
548.554	653.69
548.767	652.69
548.98	665.69
549.193	653.69
549.407	649.69
549.62	677.69
549.833	713.69
550.046	680.69
550.259	660.69
550.473	661.69
550.686	630.69
550.899	673.69
551.112	634.69
551.325	632.69
551.538	645.69
551.751	628.69
551.964	628.69
552.177	663.69
552.39	647.69
552.603	673.69
552.816	682.69
553.029	670.69
553.242	691.69
553.455	699.69
553.667	710.69
553.88	696.69
554.093	675.69
554.306	664.69
554.519	652.69
554.732	637.69
554.944	637.69
555.157	615.69
555.37	602.69
555.583	613.69
555.795	594.69
556.008	606.69
556.221	604.69
556.433	604.69
556.646	560.69
556.859	573.69
557.071	589.69
557.284	564.69
557.496	567.69
557.709	562.69
557.921	543.69
558.134	567.69
558.346	568.69
558.559	581.69
558.771	561.69
558.984	564.69
559.196	549.69
559.409	498.69
559.621	538.69
559.833	529.69
560.046	536.69
560.258	529.69
560.47	546.69
560.683	544.69
560.895	533.69
561.107	514.69
561.32	535.69
561.532	540.69
561.744	525.69
561.956	543.69
562.168	527.69
562.381	525.69
562.593	527.69
562.805	523.69
563.017	553.69
563.229	516.69
563.441	561.69
563.653	567.69
563.865	571.69
564.077	556.69
564.289	578.69
564.501	551.69
564.713	585.69
564.925	590.69
565.137	597.69
565.349	579.69
565.561	625.69
565.773	623.69
565.985	627.69
566.197	694.69
566.408	722.69
566.62	785.69
566.832	797.69
567.044	799.69
567.255	847.69
567.467	849.69
567.679	855.69
567.891	917.69
568.102	922.69
568.314	883.69
568.526	812.69
568.737	760.69
568.949	699.69
569.161	654.69
569.372	606.69
569.584	594.69
569.795	580.69
570.007	566.69
570.218	532.69
570.43	552.69
570.641	523.69
570.853	543.69
571.064	528.69
571.276	545.69
571.487	516.69
571.698	501.69
571.91	511.69
572.121	504.69
572.333	475.69
572.544	479.69
572.755	472.69
572.966	455.69
573.178	453.69
573.389	459.69
573.6	432.69
573.811	445.69
574.023	432.69
574.234	443.69
574.445	452.69
574.656	449.69
574.867	461.69
575.078	457.69
575.289	435.69
575.501	424.69
575.712	425.69
575.923	425.69
576.134	422.69
576.345	412.69
576.556	425.69
576.767	429.69
576.978	410.69
577.188	418.69
577.399	422.69
577.61	407.69
577.821	401.69
578.032	409.69
578.243	403.69
578.454	403.69
578.665	406.69
578.875	387.69
579.086	373.69
579.297	380.69
579.508	386.69
579.718	391.69
579.929	378.69
580.14	385.69
580.35	378.69
580.561	378.69
580.772	377.69
580.982	381.69
581.193	376.69
581.403	407.69
581.614	372.69
581.825	376.69
582.035	379.69
582.246	368.69
582.456	373.69
582.667	365.69
582.877	347.69
583.087	360.69
583.298	377.69
583.508	365.69
583.719	371.69
583.929	364.69
584.139	356.69
584.35	352.69
584.56	356.69
584.77	366.69
584.981	353.69
585.191	372.69
585.401	376.69
585.611	355.69
585.821	357.69
586.032	340.69
586.242	352.69
586.452	338.69
586.662	354.69
586.872	358.69
587.082	360.69
587.292	351.69
587.502	358.69
587.713	352.69
587.923	367.69
588.133	343.69
588.343	353.69
588.553	352.69
588.762	359.69
588.972	359.69
589.182	376.69
589.392	383.69
589.602	360.69
589.812	370.69
590.022	375.69
590.232	362.69
590.441	352.69
590.651	346.69
590.861	355.69
591.071	356.69
591.281	375.69
591.49	373.69
591.7	357.69
591.91	369.69
592.119	379.69
592.329	395.69
592.539	388.69
592.748	417.69
592.958	414.69
593.167	407.69
593.377	424.69
593.587	419.69
593.796	424.69
594.006	420.69
594.215	428.69
594.424	447.69
594.634	405.69
594.843	403.69
595.053	401.69
595.262	386.69
595.472	374.69
595.681	375.69
595.89	363.69
596.1	352.69
596.309	338.69
596.518	326.69
596.727	330.69
596.937	325.69
597.146	329.69
597.355	346.69
597.564	321.69
597.774	327.69
597.983	300.69
598.192	316.69
598.401	308.69
598.61	303.69
598.819	289.69
599.028	312.69
599.237	296.69
599.446	290.69
599.655	309.69
599.864	294.69
600.073	305.69
600.282	295.69
600.491	290.69
600.7	281.69
600.909	296.69
601.118	295.69
601.327	288.69
601.536	286.69
601.745	293.69
601.953	295.69
602.162	305.69
602.371	299.69
602.58	305.69
602.789	303.69
602.997	307.69
603.206	287.69
603.415	300.69
603.623	272.69
603.832	285.69
604.041	280.69
604.249	282.69
604.458	278.69
604.666	274.69
604.875	272.69
605.084	280.69
605.292	276.69
605.501	276.69
605.709	281.69
605.918	274.69
606.126	266.69
606.334	268.69
606.543	282.69
606.751	278.69
606.96	277.69
607.168	262.69
607.376	269.69
607.585	268.69
607.793	258.69
608.001	278.69
608.21	281.69
608.418	280.69
608.626	270.69
608.834	268.69
609.043	264.69
609.251	269.69
609.459	282.69
609.667	280.69
609.875	268.69
610.083	268.69
610.291	261.69
610.499	265.69
610.707	269.69
610.916	263.69
611.124	275.69
611.332	267.69
611.54	279.69
611.748	259.69
611.955	250.69
612.163	243.69
612.371	274.69
612.579	272.69
612.787	260.69
612.995	253.69
613.203	247.69
613.411	257.69
613.618	258.69
613.826	261.69
614.034	264.69
614.242	261.69
614.449	256.69
614.657	261.69
614.865	254.69
615.072	252.69
615.28	250.69
615.488	250.69
615.695	277.69
615.903	263.69
616.111	268.69
616.318	266.69
616.526	262.69
616.733	269.69
616.941	263.69
617.148	248.69
617.356	239.69
617.563	257.69
617.771	260.69
617.978	257.69
618.185	264.69
618.393	233.69
618.6	236.69
618.807	243.69
619.015	255.69
619.222	247.69
619.429	245.69
619.637	257.69
619.844	254.69
620.051	240.69
620.258	241.69
620.466	234.69
620.673	242.69
620.88	231.69
621.087	243.69
621.294	245.69
621.501	244.69
621.708	255.69
621.915	253.69
622.122	209.69
622.329	247.69
622.536	230.69
622.743	230.69
622.95	248.69
623.157	231.69
623.364	223.69
623.571	229.69
623.778	236.69
623.985	240.69
624.192	227.69
624.399	235.69
624.606	231.69
624.812	226.69
625.019	222.69
625.226	210.69
625.433	231.69
625.639	219.69
625.846	214.69
626.053	210.69
626.259	213.69
626.466	213.69
626.673	224.69
626.879	224.69
627.086	221.69
627.293	213.69
627.499	213.69
627.706	222.69
627.912	231.69
628.119	221.69
628.325	215.69
628.532	202.69
628.738	208.69
628.945	209.69
629.151	203.69
629.357	204.69
629.564	186.69
629.77	214.69
629.976	207.69
630.183	217.69
630.389	234.69
630.595	199.69
630.802	201.69
631.008	210.69
631.214	205.69
631.42	196.69
631.627	209.69
631.833	213.69
632.039	201.69
632.245	210.69
632.451	213.69
632.657	195.69
632.863	202.69
633.069	203.69
633.275	197.69
633.481	206.69
633.688	197.69
633.893	207.69
634.099	198.69
634.305	201.69
634.511	200.69
634.717	189.69
634.923	188.69
635.129	197.69
635.335	196.69
635.541	186.69
635.747	211.69
635.952	203.69
636.158	198.69
636.364	199.69
636.57	187.69
636.775	198.69
636.981	185.69
637.187	184.69
637.392	182.69
637.598	196.69
637.804	200.69
638.009	177.69
638.215	186.69
638.421	178.69
638.626	185.69
638.832	197.69
639.037	188.69
639.243	178.69
639.448	169.69
639.654	183.69
639.859	187.69
640.065	193.69
640.27	193.69
640.475	178.69
640.681	175.69
640.886	177.69
641.091	179.69
641.297	182.69
641.502	184.69
641.707	176.69
641.913	175.69
642.118	171.69
642.323	181.69
642.528	169.69
642.733	166.69
642.939	176.69
643.144	177.69
643.349	152.69
643.554	166.69
643.759	175.69
643.964	183.69
644.169	186.69
644.374	181.69
644.579	181.69
644.784	160.69
644.989	177.69
645.194	183.69
645.399	171.69
645.604	190.69
645.809	162.69
646.014	171.69
646.219	165.69
646.423	176.69
646.628	189.69
646.833	180.69
647.038	172.69
647.243	177.69
647.447	173.69
647.652	187.69
647.857	178.69
648.062	193.69
648.266	186.69
648.471	192.69
648.676	175.69
648.88	184.69
649.085	182.69
649.289	169.69
649.494	172.69
649.698	167.69
649.903	150.69
650.107	172.69
650.312	187.69
650.516	163.69
650.721	183.69
650.925	168.69
651.13	167.69
651.334	160.69
651.539	179.69
651.743	167.69
651.947	161.69
652.152	170.69
652.356	157.69
652.56	155.69
652.764	152.69
652.969	156.69
653.173	145.69
653.377	151.69
653.581	157.69
653.785	138.69
653.99	142.69
654.194	159.69
654.398	149.69
654.602	140.69
654.806	138.69
655.01	143.69
655.214	140.69
655.418	127.69
655.622	155.69
655.826	150.69
656.03	147.69
656.234	150.69
656.438	149.69
656.642	147.69
656.846	146.69
657.049	131.69
657.253	137.69
657.457	113.69
657.661	136.69
657.865	124.69
658.068	114.69
658.272	130.69
658.476	108.69
658.68	98.69
658.883	99.69
659.087	107.69
659.291	119.69
659.494	110.69
659.698	114.69
659.901	109.69
660.105	99.69
660.309	90.69
660.512	84.69
660.716	100.69
660.919	88.69
661.123	96.69
661.326	92.69
661.53	100.69
661.733	98.69
661.936	83.69
662.14	87.69
662.343	82.69
662.546	95.69
662.75	86.69
662.953	91.69
663.156	83.69
663.36	88.69
663.563	81.69
663.766	82.69
663.969	100.69
664.173	83.69
664.376	83.69
664.579	82.69
664.782	73.69
664.985	74.69
665.188	80.69
665.391	69.69
665.594	79.69
665.797	77.69
666	80.69
666.203	93.69
666.406	78.69
666.609	76.69
666.812	89.69
667.015	83.69
667.218	86.69
667.421	83.69
667.624	82.69
667.827	87.69
668.03	83.69
668.232	66.69
668.435	72.69
668.638	81.69
668.841	82.69
669.043	71.69
669.246	80.69
669.449	95.69
669.651	93.69
669.854	83.69
670.057	81.69
670.259	89.69
670.462	95.69
670.665	84.69
670.867	83.69
671.07	77.69
671.272	85.69
671.475	82.69
671.677	96.69
671.88	79.69
672.082	81.69
672.284	96.69
672.487	86.69
672.689	73.69
672.892	88.69
