Data from NiCl2@0.0625M.TitratingCurve.Agarose3%dH2O.NegLispCup.LampEnergy10.LIBS07252019_HRD10591_18-34-10-577.txt Node
Date: Thu Jul 25 18:34:10 EDT 2019
User: cochatt
Spectrometer: HR+D1059
Trigger mode: 1
Integration Time (sec): 1.000000E-1
Scans to average: 1
Electric dark correction enabled: true
Nonlinearity correction enabled: false
Boxcar width: 0
XAxis mode: Wavelengths
Number of Pixels in Spectrum: 2048
>>>>>Begin Spectral Data<<<<<
223.165	-13.25
223.4	-13.25
223.635	-13.25
223.869	-3.25
224.104	-20.25
224.338	-16.25
224.573	-13.25
224.808	-30.25
225.042	-16.25
225.277	-12.25
225.511	1.75
225.746	11.75
225.98	3.75
226.215	9.75
226.449	25.75
226.683	12.75
226.918	35.75
227.152	23.75
227.387	35.75
227.621	35.75
227.856	31.75
228.09	34.75
228.324	43.75
228.559	61.75
228.793	88.75
229.027	144.75
229.262	138.75
229.496	155.75
229.73	150.75
229.964	171.75
230.199	169.75
230.433	175.75
230.667	186.75
230.901	173.75
231.136	174.75
231.37	175.75
231.604	184.75
231.838	197.75
232.072	190.75
232.306	191.75
232.541	195.75
232.775	195.75
233.009	204.75
233.243	185.75
233.477	188.75
233.711	208.75
233.945	213.75
234.179	208.75
234.413	198.75
234.647	203.75
234.881	196.75
235.115	202.75
235.349	205.75
235.583	216.75
235.817	193.75
236.051	203.75
236.285	227.75
236.519	203.75
236.753	227.75
236.987	221.75
237.221	219.75
237.455	235.75
237.689	230.75
237.922	230.75
238.156	214.75
238.39	237.75
238.624	224.75
238.858	235.75
239.091	242.75
239.325	245.75
239.559	242.75
239.793	244.75
240.027	234.75
240.26	249.75
240.494	258.75
240.728	261.75
240.961	259.75
241.195	259.75
241.429	271.75
241.662	297.75
241.896	266.75
242.13	271.75
242.363	273.75
242.597	278.75
242.83	307.75
243.064	275.75
243.298	285.75
243.531	296.75
243.765	303.75
243.998	307.75
244.232	320.75
244.465	311.75
244.699	307.75
244.932	312.75
245.166	329.75
245.399	319.75
245.633	325.75
245.866	324.75
246.099	345.75
246.333	325.75
246.566	337.75
246.8	341.75
247.033	351.75
247.266	331.75
247.5	331.75
247.733	331.75
247.966	349.75
248.2	379.75
248.433	364.75
248.666	362.75
248.899	364.75
249.133	348.75
249.366	366.75
249.599	363.75
249.832	349.75
250.066	366.75
250.299	397.75
250.532	373.75
250.765	380.75
250.998	381.75
251.231	391.75
251.465	393.75
251.698	385.75
251.931	389.75
252.164	416.75
252.397	421.75
252.63	406.75
252.863	405.75
253.096	417.75
253.329	407.75
253.562	398.75
253.795	431.75
254.028	445.75
254.261	419.75
254.494	419.75
254.727	422.75
254.96	420.75
255.193	427.75
255.426	430.75
255.659	447.75
255.892	438.75
256.124	430.75
256.357	449.75
256.59	446.75
256.823	462.75
257.056	479.75
257.289	457.75
257.521	429.75
257.754	473.75
257.987	472.75
258.22	487.75
258.452	468.75
258.685	467.75
258.918	473.75
259.151	473.75
259.383	480.75
259.616	481.75
259.849	486.75
260.081	482.75
260.314	476.75
260.547	506.75
260.779	494.75
261.012	501.75
261.244	498.75
261.477	529.75
261.71	508.75
261.942	517.75
262.175	504.75
262.407	493.75
262.64	506.75
262.872	531.75
263.105	524.75
263.337	517.75
263.57	529.75
263.802	541.75
264.035	534.75
264.267	517.75
264.499	540.75
264.732	531.75
264.964	549.75
265.197	567.75
265.429	573.75
265.661	500.75
265.894	581.75
266.126	571.75
266.358	557.75
266.591	549.75
266.823	574.75
267.055	559.75
267.287	581.75
267.52	565.75
267.752	585.75
267.984	567.75
268.216	582.75
268.448	573.75
268.681	597.75
268.913	588.75
269.145	570.75
269.377	571.75
269.609	604.75
269.841	580.75
270.073	590.75
270.306	586.75
270.538	600.75
270.77	595.75
271.002	580.75
271.234	573.75
271.466	621.75
271.698	591.75
271.93	612.75
272.162	605.75
272.394	635.75
272.626	597.75
272.858	615.75
273.09	651.75
273.322	658.75
273.553	617.75
273.785	641.75
274.017	617.75
274.249	634.75
274.481	637.75
274.713	648.75
274.945	666.75
275.176	646.75
275.408	670.75
275.64	666.75
275.872	642.75
276.104	681.75
276.335	691.75
276.567	669.75
276.799	657.75
277.031	683.75
277.262	684.75
277.494	667.75
277.726	683.75
277.957	696.75
278.189	721.75
278.421	693.75
278.652	708.75
278.884	698.75
279.115	694.75
279.347	715.75
279.579	700.75
279.81	710.75
280.042	716.75
280.273	701.75
280.505	713.75
280.736	734.75
280.968	740.75
281.199	735.75
281.431	730.75
281.662	762.75
281.894	745.75
282.125	742.75
282.356	753.75
282.588	742.75
282.819	719.75
283.051	749.75
283.282	754.75
283.513	757.75
283.745	763.75
283.976	745.75
284.207	735.75
284.439	734.75
284.67	746.75
284.901	795.75
285.132	762.75
285.364	785.75
285.595	800.75
285.826	771.75
286.057	772.75
286.288	796.75
286.52	795.75
286.751	802.75
286.982	819.75
287.213	794.75
287.444	778.75
287.675	813.75
287.906	828.75
288.138	815.75
288.369	794.75
288.6	821.75
288.831	805.75
289.062	807.75
289.293	817.75
289.524	815.75
289.755	817.75
289.986	827.75
290.217	834.75
290.448	810.75
290.679	798.75
290.91	837.75
291.141	841.75
291.371	840.75
291.602	821.75
291.833	829.75
292.064	839.75
292.295	835.75
292.526	805.75
292.757	829.75
292.987	807.75
293.218	802.75
293.449	869.75
293.68	831.75
293.91	824.75
294.141	849.75
294.372	857.75
294.603	827.75
294.833	852.75
295.064	849.75
295.295	851.75
295.525	864.75
295.756	842.75
295.987	841.75
296.217	864.75
296.448	879.75
296.679	859.75
296.909	867.75
297.14	870.75
297.37	892.75
297.601	903.75
297.831	865.75
298.062	896.75
298.292	889.75
298.523	911.75
298.753	929.75
298.984	913.75
299.214	873.75
299.445	897.75
299.675	913.75
299.905	920.75
300.136	924.75
300.366	891.75
300.597	905.75
300.827	953.75
301.057	934.75
301.288	942.75
301.518	945.75
301.748	947.75
301.979	967.75
302.209	938.75
302.439	973.75
302.669	923.75
302.9	967.75
303.13	927.75
303.36	930.75
303.59	953.75
303.82	949.75
304.051	949.75
304.281	958.75
304.511	963.75
304.741	951.75
304.971	958.75
305.201	982.75
305.431	957.75
305.661	950.75
305.891	961.75
306.121	955.75
306.352	941.75
306.582	922.75
306.812	923.75
307.042	954.75
307.272	940.75
307.502	949.75
307.731	954.75
307.961	937.75
308.191	926.75
308.421	957.75
308.651	946.75
308.881	932.75
309.111	940.75
309.341	960.75
309.571	965.75
309.8	932.75
310.03	947.75
310.26	958.75
310.49	955.75
310.72	964.75
310.949	941.75
311.179	977.75
311.409	981.75
311.639	982.75
311.868	981.75
312.098	997.75
312.328	985.75
312.557	987.75
312.787	996.75
313.017	973.75
313.246	1002.75
313.476	985.75
313.706	1016.75
313.935	1014.75
314.165	1005.75
314.394	1008.75
314.624	1015.75
314.853	1009.75
315.083	1012.75
315.312	1014.75
315.542	1013.75
315.771	1024.75
316.001	1003.75
316.23	995.75
316.46	1005.75
316.689	1013.75
316.919	1020.75
317.148	1002.75
317.377	988.75
317.607	972.75
317.836	1012.75
318.065	1023.75
318.295	995.75
318.524	1037.75
318.753	1007.75
318.983	986.75
319.212	995.75
319.441	1004.75
319.67	993.75
319.9	1010.75
320.129	1021.75
320.358	1034.75
320.587	977.75
320.816	1025.75
321.046	1015.75
321.275	1033.75
321.504	1015.75
321.733	1015.75
321.962	1038.75
322.191	1018.75
322.42	1037.75
322.649	1041.75
322.878	1016.75
323.108	1054.75
323.337	1047.75
323.566	1063.75
323.795	1045.75
324.024	1033.75
324.253	1023.75
324.482	1078.75
324.71	1053.75
324.939	1080.75
325.168	1013.75
325.397	1060.75
325.626	1069.75
325.855	1085.75
326.084	1089.75
326.313	1112.75
326.542	1115.75
326.77	1137.75
326.999	1123.75
327.228	1075.75
327.457	1082.75
327.686	1098.75
327.914	1081.75
328.143	1121.75
328.372	1106.75
328.6	1117.75
328.829	1096.75
329.058	1094.75
329.287	1109.75
329.515	1127.75
329.744	1108.75
329.972	1147.75
330.201	1110.75
330.43	1135.75
330.658	1109.75
330.887	1157.75
331.115	1137.75
331.344	1171.75
331.572	1154.75
331.801	1155.75
332.03	1185.75
332.258	1239.75
332.486	1238.75
332.715	1271.75
332.943	1287.75
333.172	1340.75
333.4	1356.75
333.629	1362.75
333.857	1384.75
334.085	1387.75
334.314	1397.75
334.542	1397.75
334.771	1401.75
334.999	1349.75
335.227	1366.75
335.455	1359.75
335.684	1366.75
335.912	1353.75
336.14	1326.75
336.369	1308.75
336.597	1307.75
336.825	1317.75
337.053	1332.75
337.281	1301.75
337.51	1259.75
337.738	1286.75
337.966	1243.75
338.194	1244.75
338.422	1188.75
338.65	1214.75
338.878	1222.75
339.106	1213.75
339.334	1234.75
339.562	1206.75
339.79	1181.75
340.018	1173.75
340.246	1152.75
340.474	1197.75
340.702	1188.75
340.93	1177.75
341.158	1172.75
341.386	1172.75
341.614	1164.75
341.842	1173.75
342.07	1150.75
342.298	1146.75
342.526	1157.75
342.754	1106.75
342.981	1157.75
343.209	1199.75
343.437	1223.75
343.665	1267.75
343.893	1326.75
344.12	1370.75
344.348	1345.75
344.576	1266.75
344.804	1235.75
345.031	1222.75
345.259	1161.75
345.487	1167.75
345.714	1161.75
345.942	1158.75
346.17	1145.75
346.397	1137.75
346.625	1108.75
346.853	1135.75
347.08	1097.75
347.308	1097.75
347.535	1126.75
347.763	1123.75
347.99	1106.75
348.218	1098.75
348.445	1117.75
348.673	1097.75
348.9	1096.75
349.128	1113.75
349.355	1099.75
349.583	1142.75
349.81	1087.75
350.037	1068.75
350.265	1085.75
350.492	1081.75
350.72	1070.75
350.947	1093.75
351.174	1073.75
351.402	1076.75
351.629	1117.75
351.856	1065.75
352.083	1062.75
352.311	1045.75
352.538	1064.75
352.765	1098.75
352.992	1066.75
353.22	1060.75
353.447	1051.75
353.674	1079.75
353.901	1057.75
354.128	1066.75
354.355	1039.75
354.583	1067.75
354.81	1063.75
355.037	1077.75
355.264	1075.75
355.491	1063.75
355.718	1068.75
355.945	1068.75
356.172	1085.75
356.399	1104.75
356.626	1083.75
356.853	1091.75
357.08	1050.75
357.307	1063.75
357.534	1074.75
357.761	1092.75
357.988	1071.75
358.215	1087.75
358.441	1102.75
358.668	1076.75
358.895	1093.75
359.122	1091.75
359.349	1044.75
359.576	1081.75
359.802	1057.75
360.029	1058.75
360.256	1065.75
360.483	1083.75
360.709	1083.75
360.936	1065.75
361.163	1072.75
361.39	1080.75
361.616	1067.75
361.843	1061.75
362.07	1077.75
362.296	1085.75
362.523	1062.75
362.749	1061.75
362.976	1061.75
363.203	1068.75
363.429	1045.75
363.656	1065.75
363.882	1055.75
364.109	1106.75
364.335	1025.75
364.562	1069.75
364.788	1055.75
365.015	1098.75
365.241	1071.75
365.468	1064.75
365.694	1071.75
365.92	1091.75
366.147	1069.75
366.373	1085.75
366.599	1077.75
366.826	1101.75
367.052	1051.75
367.278	1094.75
367.505	1079.75
367.731	1079.75
367.957	1091.75
368.184	1069.75
368.41	1087.75
368.636	1095.75
368.862	1094.75
369.089	1100.75
369.315	1104.75
369.541	1131.75
369.767	1122.75
369.993	1097.75
370.219	1115.75
370.445	1118.75
370.672	1120.75
370.898	1143.75
371.124	1156.75
371.35	1181.75
371.576	1159.75
371.802	1150.75
372.028	1189.75
372.254	1170.75
372.48	1194.75
372.706	1191.75
372.932	1198.75
373.158	1224.75
373.384	1168.75
373.61	1169.75
373.835	1190.75
374.061	1171.75
374.287	1198.75
374.513	1203.75
374.739	1228.75
374.965	1247.75
375.191	1288.75
375.416	1260.75
375.642	1251.75
375.868	1195.75
376.094	1213.75
376.319	1174.75
376.545	1174.75
376.771	1181.75
376.997	1155.75
377.222	1179.75
377.448	1187.75
377.674	1161.75
377.899	1137.75
378.125	1161.75
378.35	1150.75
378.576	1162.75
378.802	1108.75
379.027	1134.75
379.253	1168.75
379.478	1134.75
379.704	1149.75
379.929	1167.75
380.155	1153.75
380.38	1173.75
380.606	1188.75
380.831	1161.75
381.057	1161.75
381.282	1169.75
381.507	1126.75
381.733	1157.75
381.958	1166.75
382.184	1215.75
382.409	1194.75
382.634	1217.75
382.86	1225.75
383.085	1229.75
383.31	1212.75
383.535	1245.75
383.761	1248.75
383.986	1262.75
384.211	1271.75
384.436	1317.75
384.662	1319.75
384.887	1346.75
385.112	1371.75
385.337	1378.75
385.562	1368.75
385.787	1365.75
386.013	1371.75
386.238	1378.75
386.463	1422.75
386.688	1381.75
386.913	1376.75
387.138	1389.75
387.363	1390.75
387.588	1386.75
387.813	1359.75
388.038	1364.75
388.263	1356.75
388.488	1388.75
388.713	1349.75
388.938	1370.75
389.163	1339.75
389.387	1399.75
389.612	1383.75
389.837	1403.75
390.062	1403.75
390.287	1372.75
390.512	1393.75
390.736	1397.75
390.961	1409.75
391.186	1422.75
391.411	1459.75
391.636	1485.75
391.86	1515.75
392.085	1523.75
392.31	1545.75
392.534	1525.75
392.759	1481.75
392.984	1467.75
393.208	1496.75
393.433	1475.75
393.658	1476.75
393.882	1428.75
394.107	1404.75
394.331	1458.75
394.556	1476.75
394.78	1478.75
395.005	1506.75
395.229	1488.75
395.454	1513.75
395.678	1547.75
395.903	1559.75
396.127	1514.75
396.352	1521.75
396.576	1507.75
396.801	1476.75
397.025	1494.75
397.249	1537.75
397.474	1546.75
397.698	1502.75
397.922	1595.75
398.147	1595.75
398.371	1620.75
398.595	1621.75
398.82	1677.75
399.044	1794.75
399.268	1921.75
399.492	2126.75
399.717	2325.75
399.941	2371.75
400.165	2202.75
400.389	2041.75
400.613	1931.75
400.837	1798.75
401.062	1793.75
401.286	1723.75
401.51	1708.75
401.734	1715.75
401.958	1781.75
402.182	1736.75
402.406	1713.75
402.63	1761.75
402.854	1742.75
403.078	1785.75
403.302	1793.75
403.526	1855.75
403.75	1838.75
403.974	1879.75
404.198	1879.75
404.422	1867.75
404.645	1833.75
404.869	1847.75
405.093	1840.75
405.317	1817.75
405.541	1837.75
405.765	1851.75
405.988	1847.75
406.212	1881.75
406.436	1909.75
406.66	1919.75
406.883	1973.75
407.107	2062.75
407.331	2073.75
407.555	2146.75
407.778	2150.75
408.002	2103.75
408.226	2082.75
408.449	2070.75
408.673	1985.75
408.896	1917.75
409.12	1922.75
409.344	1919.75
409.567	1892.75
409.791	1927.75
410.014	1881.75
410.238	1883.75
410.461	1882.75
410.685	1866.75
410.908	1828.75
411.132	1833.75
411.355	1770.75
411.578	1777.75
411.802	1827.75
412.025	1816.75
412.249	1817.75
412.472	1795.75
412.695	1773.75
412.919	1738.75
413.142	1741.75
413.365	1681.75
413.589	1785.75
413.812	1742.75
414.035	1722.75
414.258	1714.75
414.482	1702.75
414.705	1763.75
414.928	1726.75
415.151	1717.75
415.374	1711.75
415.597	1733.75
415.821	1693.75
416.044	1669.75
416.267	1635.75
416.49	1601.75
416.713	1666.75
416.936	1641.75
417.159	1625.75
417.382	1633.75
417.605	1619.75
417.828	1636.75
418.051	1649.75
418.274	1659.75
418.497	1662.75
418.72	1661.75
418.943	1698.75
419.166	1757.75
419.389	1898.75
419.611	1847.75
419.834	1793.75
420.057	1729.75
420.28	1702.75
420.503	1645.75
420.726	1613.75
420.948	1617.75
421.171	1658.75
421.394	1635.75
421.617	1637.75
421.839	1613.75
422.062	1657.75
422.285	1661.75
422.507	1705.75
422.73	1665.75
422.953	1644.75
423.175	1724.75
423.398	1705.75
423.621	1681.75
423.843	1701.75
424.066	1714.75
424.288	1655.75
424.511	1682.75
424.733	1677.75
424.956	1621.75
425.178	1651.75
425.401	1652.75
425.623	1642.75
425.846	1624.75
426.068	1625.75
426.291	1631.75
426.513	1582.75
426.735	1573.75
426.958	1579.75
427.18	1522.75
427.402	1556.75
427.625	1538.75
427.847	1517.75
428.069	1500.75
428.292	1535.75
428.514	1510.75
428.736	1505.75
428.958	1497.75
429.181	1517.75
429.403	1477.75
429.625	1493.75
429.847	1498.75
430.069	1463.75
430.292	1485.75
430.514	1457.75
430.736	1485.75
430.958	1525.75
431.18	1525.75
431.402	1521.75
431.624	1515.75
431.846	1508.75
432.068	1500.75
432.29	1574.75
432.512	1533.75
432.734	1549.75
432.956	1553.75
433.178	1572.75
433.4	1531.75
433.622	1545.75
433.844	1542.75
434.066	1579.75
434.287	1537.75
434.509	1602.75
434.731	1661.75
434.953	1667.75
435.175	1684.75
435.397	1652.75
435.618	1613.75
435.84	1598.75
436.062	1562.75
436.284	1523.75
436.505	1535.75
436.727	1533.75
436.949	1523.75
437.17	1498.75
437.392	1461.75
437.614	1502.75
437.835	1426.75
438.057	1443.75
438.278	1452.75
438.5	1432.75
438.721	1443.75
438.943	1450.75
439.165	1465.75
439.386	1432.75
439.608	1453.75
439.829	1493.75
440.05	1514.75
440.272	1487.75
440.493	1478.75
440.715	1494.75
440.936	1538.75
441.158	1549.75
441.379	1502.75
441.6	1611.75
441.822	1610.75
442.043	1617.75
442.264	1603.75
442.486	1592.75
442.707	1579.75
442.928	1627.75
443.149	1622.75
443.371	1594.75
443.592	1629.75
443.813	1633.75
444.034	1630.75
444.255	1679.75
444.476	1729.75
444.698	1783.75
444.919	1901.75
445.14	1929.75
445.361	1801.75
445.582	1665.75
445.803	1589.75
446.024	1555.75
446.245	1551.75
446.466	1532.75
446.687	1504.75
446.908	1491.75
447.129	1438.75
447.35	1428.75
447.571	1406.75
447.792	1397.75
448.013	1397.75
448.234	1389.75
448.455	1367.75
448.675	1335.75
448.896	1340.75
449.117	1347.75
449.338	1343.75
449.559	1297.75
449.779	1329.75
450	1327.75
450.221	1345.75
450.442	1345.75
450.662	1322.75
450.883	1346.75
451.104	1367.75
451.324	1348.75
451.545	1338.75
451.766	1373.75
451.986	1332.75
452.207	1331.75
452.428	1331.75
452.648	1301.75
452.869	1308.75
453.089	1281.75
453.31	1325.75
453.53	1272.75
453.751	1287.75
453.971	1300.75
454.192	1289.75
454.412	1236.75
454.633	1257.75
454.853	1257.75
455.073	1267.75
455.294	1247.75
455.514	1243.75
455.734	1269.75
455.955	1225.75
456.175	1248.75
456.395	1231.75
456.616	1245.75
456.836	1249.75
457.056	1264.75
457.276	1249.75
457.497	1290.75
457.717	1259.75
457.937	1316.75
458.157	1304.75
458.377	1291.75
458.598	1358.75
458.818	1384.75
459.038	1411.75
459.258	1433.75
459.478	1503.75
459.698	1481.75
459.918	1502.75
460.138	1589.75
460.358	1652.75
460.578	1687.75
460.798	1683.75
461.018	1721.75
461.238	1677.75
461.458	1670.75
461.678	1677.75
461.898	1745.75
462.118	1684.75
462.338	1807.75
462.558	1834.75
462.777	1897.75
462.997	1991.75
463.217	2113.75
463.437	2105.75
463.657	2006.75
463.876	1953.75
464.096	1933.75
464.316	1949.75
464.536	1945.75
464.755	1885.75
464.975	1811.75
465.195	1756.75
465.414	1697.75
465.634	1618.75
465.854	1539.75
466.073	1515.75
466.293	1515.75
466.512	1459.75
466.732	1433.75
466.951	1436.75
467.171	1437.75
467.391	1432.75
467.61	1402.75
467.829	1406.75
468.049	1373.75
468.268	1350.75
468.488	1375.75
468.707	1354.75
468.927	1369.75
469.146	1370.75
469.365	1391.75
469.585	1386.75
469.804	1415.75
470.023	1435.75
470.243	1422.75
470.462	1436.75
470.681	1453.75
470.901	1416.75
471.12	1462.75
471.339	1428.75
471.558	1401.75
471.777	1386.75
471.997	1393.75
472.216	1369.75
472.435	1402.75
472.654	1359.75
472.873	1331.75
473.092	1379.75
473.311	1326.75
473.53	1362.75
473.749	1341.75
473.968	1346.75
474.187	1378.75
474.406	1364.75
474.625	1350.75
474.844	1355.75
475.063	1369.75
475.282	1352.75
475.501	1375.75
475.72	1374.75
475.939	1415.75
476.158	1429.75
476.377	1415.75
476.596	1425.75
476.814	1461.75
477.033	1483.75
477.252	1468.75
477.471	1465.75
477.69	1490.75
477.908	1550.75
478.127	1581.75
478.346	1605.75
478.564	1643.75
478.783	1636.75
479.002	1638.75
479.22	1693.75
479.439	1685.75
479.658	1683.75
479.876	1703.75
480.095	1734.75
480.313	1787.75
480.532	1758.75
480.751	1807.75
480.969	1746.75
481.188	1699.75
481.406	1677.75
481.624	1656.75
481.843	1646.75
482.061	1623.75
482.28	1648.75
482.498	1632.75
482.717	1633.75
482.935	1649.75
483.153	1663.75
483.372	1635.75
483.59	1669.75
483.808	1683.75
484.027	1715.75
484.245	1724.75
484.463	1732.75
484.681	1775.75
484.9	1779.75
485.118	1828.75
485.336	1793.75
485.554	1811.75
485.772	1800.75
485.99	1822.75
486.209	1849.75
486.427	1841.75
486.645	1785.75
486.863	1765.75
487.081	1793.75
487.299	1817.75
487.517	1781.75
487.735	1765.75
487.953	1808.75
488.171	1751.75
488.389	1750.75
488.607	1737.75
488.825	1710.75
489.043	1713.75
489.261	1702.75
489.479	1709.75
489.696	1662.75
489.914	1710.75
490.132	1709.75
490.35	1714.75
490.568	1679.75
490.786	1695.75
491.003	1709.75
491.221	1736.75
491.439	1706.75
491.657	1707.75
491.874	1707.75
492.092	1693.75
492.31	1682.75
492.527	1728.75
492.745	1693.75
492.963	1738.75
493.18	1677.75
493.398	1722.75
493.615	1708.75
493.833	1747.75
494.05	1691.75
494.268	1733.75
494.485	1724.75
494.703	1730.75
494.92	1702.75
495.138	1741.75
495.355	1759.75
495.573	1780.75
495.79	1728.75
496.008	1780.75
496.225	1785.75
496.442	1789.75
496.66	1807.75
496.877	1826.75
497.094	1841.75
497.312	1869.75
497.529	1953.75
497.746	1946.75
497.963	2031.75
498.181	2092.75
498.398	2176.75
498.615	2291.75
498.832	2368.75
499.049	2526.75
499.267	2723.75
499.484	2996.75
499.701	3191.75
499.918	3475.75
500.135	3847.75
500.352	4170.75
500.569	4332.75
500.786	4226.75
501.003	4048.75
501.22	3749.75
501.437	3400.75
501.654	3111.75
501.871	2808.75
502.088	2666.75
502.305	2537.75
502.522	2371.75
502.739	2337.75
502.956	2227.75
503.172	2111.75
503.389	2027.75
503.606	1978.75
503.823	1930.75
504.04	1923.75
504.256	1947.75
504.473	1929.75
504.69	1954.75
504.907	1914.75
505.123	1849.75
505.34	1748.75
505.557	1664.75
505.773	1693.75
505.99	1644.75
506.207	1545.75
506.423	1569.75
506.64	1553.75
506.856	1555.75
507.073	1519.75
507.289	1461.75
507.506	1469.75
507.722	1437.75
507.939	1445.75
508.155	1454.75
508.372	1409.75
508.588	1406.75
508.805	1405.75
509.021	1417.75
509.238	1409.75
509.454	1385.75
509.67	1374.75
509.887	1385.75
510.103	1375.75
510.319	1366.75
510.536	1359.75
510.752	1367.75
510.968	1313.75
511.184	1347.75
511.401	1374.75
511.617	1353.75
511.833	1333.75
512.049	1366.75
512.265	1339.75
512.481	1372.75
512.698	1335.75
512.914	1337.75
513.13	1339.75
513.346	1335.75
513.562	1307.75
513.778	1322.75
513.994	1374.75
514.21	1352.75
514.426	1359.75
514.642	1317.75
514.858	1369.75
515.074	1395.75
515.29	1397.75
515.506	1403.75
515.721	1454.75
515.937	1445.75
516.153	1442.75
516.369	1500.75
516.585	1502.75
516.801	1599.75
517.016	1581.75
517.232	1666.75
517.448	1708.75
517.664	1760.75
517.879	1730.75
518.095	1765.75
518.311	1743.75
518.527	1690.75
518.742	1616.75
518.958	1587.75
519.173	1538.75
519.389	1527.75
519.605	1447.75
519.82	1398.75
520.036	1406.75
520.251	1376.75
520.467	1377.75
520.682	1350.75
520.898	1320.75
521.113	1349.75
521.329	1314.75
521.544	1325.75
521.76	1274.75
521.975	1259.75
522.19	1258.75
522.406	1254.75
522.621	1260.75
522.836	1255.75
523.052	1241.75
523.267	1259.75
523.482	1209.75
523.698	1215.75
523.913	1211.75
524.128	1238.75
524.343	1252.75
524.559	1223.75
524.774	1218.75
524.989	1243.75
525.204	1199.75
525.419	1220.75
525.634	1194.75
525.849	1233.75
526.064	1209.75
526.28	1195.75
526.495	1183.75
526.71	1191.75
526.925	1204.75
527.14	1153.75
527.355	1193.75
527.57	1187.75
527.785	1220.75
527.999	1202.75
528.214	1185.75
528.429	1202.75
528.644	1177.75
528.859	1160.75
529.074	1163.75
529.289	1157.75
529.503	1197.75
529.718	1175.75
529.933	1141.75
530.148	1141.75
530.363	1168.75
530.577	1175.75
530.792	1170.75
531.007	1178.75
531.221	1183.75
531.436	1188.75
531.651	1214.75
531.865	1167.75
532.08	1195.75
532.295	1151.75
532.509	1158.75
532.724	1143.75
532.938	1163.75
533.153	1153.75
533.367	1125.75
533.582	1152.75
533.796	1171.75
534.011	1169.75
534.225	1163.75
534.44	1139.75
534.654	1127.75
534.868	1137.75
535.083	1138.75
535.297	1134.75
535.511	1137.75
535.726	1153.75
535.94	1130.75
536.154	1130.75
536.369	1115.75
536.583	1077.75
536.797	1077.75
537.011	1118.75
537.225	1095.75
537.44	1099.75
537.654	1087.75
537.868	1066.75
538.082	1079.75
538.296	1087.75
538.51	1030.75
538.724	1085.75
538.938	1063.75
539.153	1069.75
539.367	1053.75
539.581	1052.75
539.795	1074.75
540.009	1058.75
540.222	1045.75
540.436	1021.75
540.65	1036.75
540.864	1050.75
541.078	1047.75
541.292	1055.75
541.506	1054.75
541.72	1033.75
541.934	1031.75
542.147	1072.75
542.361	1033.75
542.575	1039.75
542.789	1054.75
543.002	1014.75
543.216	1010.75
543.43	1016.75
543.644	1012.75
543.857	1032.75
544.071	1047.75
544.285	1029.75
544.498	1018.75
544.712	1045.75
544.925	1039.75
545.139	1073.75
545.352	1020.75
545.566	1042.75
545.779	1046.75
545.993	1075.75
546.206	1063.75
546.42	1049.75
546.633	1035.75
546.847	1053.75
547.06	1053.75
547.274	1041.75
547.487	1051.75
547.7	1067.75
547.914	1041.75
548.127	1091.75
548.34	1093.75
548.554	1037.75
548.767	1066.75
548.98	1050.75
549.193	1059.75
549.407	1034.75
549.62	1073.75
549.833	1074.75
550.046	1117.75
550.259	1065.75
550.473	1028.75
550.686	1041.75
550.899	1032.75
551.112	1051.75
551.325	1026.75
551.538	1036.75
551.751	1045.75
551.964	1033.75
552.177	1039.75
552.39	1050.75
552.603	1070.75
552.816	1073.75
553.029	1088.75
553.242	1127.75
553.455	1087.75
553.667	1130.75
553.88	1107.75
554.093	1085.75
554.306	1079.75
554.519	1056.75
554.732	1020.75
554.944	1026.75
555.157	1007.75
555.37	1023.75
555.583	983.75
555.795	970.75
556.008	953.75
556.221	943.75
556.433	927.75
556.646	957.75
556.859	920.75
557.071	925.75
557.284	882.75
557.496	899.75
557.709	891.75
557.921	885.75
558.134	918.75
558.346	907.75
558.559	915.75
558.771	892.75
558.984	915.75
559.196	873.75
559.409	859.75
559.621	854.75
559.833	867.75
560.046	870.75
560.258	869.75
560.47	854.75
560.683	857.75
560.895	876.75
561.107	854.75
561.32	847.75
561.532	862.75
561.744	870.75
561.956	844.75
562.168	858.75
562.381	881.75
562.593	893.75
562.805	881.75
563.017	873.75
563.229	884.75
563.441	857.75
563.653	881.75
563.865	881.75
564.077	918.75
564.289	893.75
564.501	912.75
564.713	920.75
564.925	944.75
565.137	967.75
565.349	953.75
565.561	1038.75
565.773	1042.75
565.985	1077.75
566.197	1103.75
566.408	1190.75
566.62	1235.75
566.832	1358.75
567.044	1320.75
567.255	1349.75
567.467	1358.75
567.679	1419.75
567.891	1483.75
568.102	1490.75
568.314	1429.75
568.526	1301.75
568.737	1281.75
568.949	1142.75
569.161	1073.75
569.372	989.75
569.584	1000.75
569.795	936.75
570.007	898.75
570.218	895.75
570.43	893.75
570.641	876.75
570.853	872.75
571.064	899.75
571.276	886.75
571.487	855.75
571.698	829.75
571.91	813.75
572.121	779.75
572.333	781.75
572.544	762.75
572.755	753.75
572.966	760.75
573.178	743.75
573.389	734.75
573.6	727.75
573.811	730.75
574.023	716.75
574.234	747.75
574.445	703.75
574.656	697.75
574.867	709.75
575.078	708.75
575.289	725.75
575.501	702.75
575.712	685.75
575.923	682.75
576.134	682.75
576.345	681.75
576.556	667.75
576.767	669.75
576.978	678.75
577.188	667.75
577.399	666.75
577.61	646.75
577.821	673.75
578.032	629.75
578.243	649.75
578.454	630.75
578.665	616.75
578.875	590.75
579.086	629.75
579.297	628.75
579.508	601.75
579.718	628.75
579.929	604.75
580.14	597.75
580.35	620.75
580.561	613.75
580.772	603.75
580.982	614.75
581.193	592.75
581.403	602.75
581.614	599.75
581.825	603.75
582.035	586.75
582.246	617.75
582.456	619.75
582.667	619.75
582.877	606.75
583.087	599.75
583.298	582.75
583.508	595.75
583.719	585.75
583.929	581.75
584.139	581.75
584.35	586.75
584.56	577.75
584.77	563.75
584.981	582.75
585.191	591.75
585.401	584.75
585.611	581.75
585.821	572.75
586.032	580.75
586.242	582.75
586.452	586.75
586.662	574.75
586.872	574.75
587.082	594.75
587.292	568.75
587.502	575.75
587.713	564.75
587.923	574.75
588.133	573.75
588.343	566.75
588.553	585.75
588.762	573.75
588.972	561.75
589.182	597.75
589.392	542.75
589.602	549.75
589.812	565.75
590.022	550.75
590.232	560.75
590.441	584.75
590.651	590.75
590.861	575.75
591.071	578.75
591.281	596.75
591.49	570.75
591.7	575.75
591.91	610.75
592.119	582.75
592.329	620.75
592.539	645.75
592.748	668.75
592.958	677.75
593.167	664.75
593.377	666.75
593.587	697.75
593.796	700.75
594.006	701.75
594.215	678.75
594.424	667.75
594.634	661.75
594.843	651.75
595.053	631.75
595.262	607.75
595.472	608.75
595.681	573.75
595.89	582.75
596.1	566.75
596.309	550.75
596.518	548.75
596.727	533.75
596.937	549.75
597.146	544.75
597.355	513.75
597.564	505.75
597.774	510.75
597.983	500.75
598.192	497.75
598.401	494.75
598.61	473.75
598.819	493.75
599.028	477.75
599.237	494.75
599.446	471.75
599.655	481.75
599.864	452.75
600.073	474.75
600.282	460.75
600.491	471.75
600.7	469.75
600.909	476.75
601.118	468.75
601.327	449.75
601.536	467.75
601.745	453.75
601.953	447.75
602.162	458.75
602.371	452.75
602.58	450.75
602.789	442.75
602.997	452.75
603.206	461.75
603.415	452.75
603.623	431.75
603.832	440.75
604.041	446.75
604.249	451.75
604.458	455.75
604.666	434.75
604.875	423.75
605.084	431.75
605.292	444.75
605.501	441.75
605.709	416.75
605.918	427.75
606.126	417.75
606.334	397.75
606.543	425.75
606.751	437.75
606.96	435.75
607.168	428.75
607.376	395.75
607.585	425.75
607.793	412.75
608.001	414.75
608.21	422.75
608.418	412.75
608.626	409.75
608.834	401.75
609.043	399.75
609.251	434.75
609.459	414.75
609.667	396.75
609.875	417.75
610.083	418.75
610.291	410.75
610.499	413.75
610.707	421.75
610.916	407.75
611.124	392.75
611.332	395.75
611.54	394.75
611.748	391.75
611.955	401.75
612.163	382.75
612.371	412.75
612.579	394.75
612.787	380.75
612.995	393.75
613.203	391.75
613.411	386.75
613.618	408.75
613.826	400.75
614.034	412.75
614.242	404.75
614.449	388.75
614.657	401.75
614.865	405.75
615.072	397.75
615.28	407.75
615.488	413.75
615.695	402.75
615.903	387.75
616.111	400.75
616.318	411.75
616.526	407.75
616.733	390.75
616.941	395.75
617.148	411.75
617.356	392.75
617.563	397.75
617.771	389.75
617.978	380.75
618.185	403.75
618.393	361.75
618.6	401.75
618.807	378.75
619.015	379.75
619.222	371.75
619.429	387.75
619.637	378.75
619.844	387.75
620.051	387.75
620.258	381.75
620.466	353.75
620.673	364.75
620.88	341.75
621.087	376.75
621.294	368.75
621.501	362.75
621.708	375.75
621.915	366.75
622.122	385.75
622.329	351.75
622.536	343.75
622.743	350.75
622.95	354.75
623.157	362.75
623.364	355.75
623.571	333.75
623.778	361.75
623.985	348.75
624.192	356.75
624.399	347.75
624.606	346.75
624.812	348.75
625.019	341.75
625.226	339.75
625.433	330.75
625.639	330.75
625.846	341.75
626.053	315.75
626.259	341.75
626.466	339.75
626.673	359.75
626.879	328.75
627.086	319.75
627.293	332.75
627.499	329.75
627.706	336.75
627.912	317.75
628.119	341.75
628.325	324.75
628.532	321.75
628.738	332.75
628.945	333.75
629.151	323.75
629.357	321.75
629.564	320.75
629.77	328.75
629.976	314.75
630.183	302.75
630.389	312.75
630.595	301.75
630.802	311.75
631.008	323.75
631.214	295.75
631.42	306.75
631.627	313.75
631.833	280.75
632.039	312.75
632.245	306.75
632.451	302.75
632.657	278.75
632.863	289.75
633.069	286.75
633.275	293.75
633.481	289.75
633.688	311.75
633.893	287.75
634.099	300.75
634.305	309.75
634.511	286.75
634.717	302.75
634.923	300.75
635.129	295.75
635.335	279.75
635.541	297.75
635.747	284.75
635.952	286.75
636.158	277.75
636.364	279.75
636.57	277.75
636.775	302.75
636.981	294.75
637.187	281.75
637.392	300.75
637.598	294.75
637.804	289.75
638.009	292.75
638.215	300.75
638.421	275.75
638.626	275.75
638.832	264.75
639.037	262.75
639.243	275.75
639.448	272.75
639.654	265.75
639.859	295.75
640.065	281.75
640.27	288.75
640.475	285.75
640.681	283.75
640.886	283.75
641.091	271.75
641.297	290.75
641.502	267.75
641.707	258.75
641.913	271.75
642.118	272.75
642.323	275.75
642.528	266.75
642.733	285.75
642.939	276.75
643.144	258.75
643.349	254.75
643.554	239.75
643.759	266.75
643.964	250.75
644.169	266.75
644.374	271.75
644.579	255.75
644.784	271.75
644.989	266.75
645.194	267.75
645.399	254.75
645.604	283.75
645.809	269.75
646.014	278.75
646.219	271.75
646.423	273.75
646.628	275.75
646.833	281.75
647.038	278.75
647.243	284.75
647.447	290.75
647.652	275.75
647.857	280.75
648.062	290.75
648.266	284.75
648.471	293.75
648.676	303.75
648.88	283.75
649.085	285.75
649.289	294.75
649.494	295.75
649.698	282.75
649.903	284.75
650.107	278.75
650.312	272.75
650.516	291.75
650.721	257.75
650.925	253.75
651.13	264.75
651.334	273.75
651.539	268.75
651.743	244.75
651.947	256.75
652.152	269.75
652.356	257.75
652.56	262.75
652.764	253.75
652.969	243.75
653.173	237.75
653.377	257.75
653.581	259.75
653.785	254.75
653.99	254.75
654.194	245.75
654.398	253.75
654.602	263.75
654.806	272.75
655.01	264.75
655.214	281.75
655.418	285.75
655.622	281.75
655.826	321.75
656.03	338.75
656.234	356.75
656.438	381.75
656.642	398.75
656.846	353.75
657.049	337.75
657.253	286.75
657.457	258.75
657.661	221.75
657.865	217.75
658.068	200.75
658.272	180.75
658.476	177.75
658.68	165.75
658.883	156.75
659.087	152.75
659.291	165.75
659.494	135.75
659.698	134.75
659.901	133.75
660.105	135.75
660.309	122.75
660.512	121.75
660.716	116.75
660.919	119.75
661.123	120.75
661.326	118.75
661.53	88.75
661.733	94.75
661.936	101.75
662.14	85.75
662.343	100.75
662.546	107.75
662.75	94.75
662.953	99.75
663.156	89.75
663.36	92.75
663.563	83.75
663.766	100.75
663.969	93.75
664.173	84.75
664.376	88.75
664.579	86.75
664.782	73.75
664.985	82.75
665.188	90.75
665.391	77.75
665.594	76.75
665.797	92.75
666	76.75
666.203	81.75
666.406	85.75
666.609	78.75
666.812	82.75
667.015	82.75
667.218	70.75
667.421	78.75
667.624	85.75
667.827	79.75
668.03	80.75
668.232	85.75
668.435	93.75
668.638	76.75
668.841	85.75
669.043	77.75
669.246	78.75
669.449	83.75
669.651	83.75
669.854	86.75
670.057	74.75
670.259	84.75
670.462	84.75
670.665	92.75
670.867	93.75
671.07	82.75
671.272	83.75
671.475	98.75
671.677	77.75
671.88	82.75
672.082	83.75
672.284	80.75
672.487	78.75
672.689	90.75
672.892	78.75
