Data from NiCl2@0.125M.TitratingCurve.Agarose3%dH2O.NegLispCup.LampEnergy10.LIBS07252019_HRD10591_18-27-50-574.txt Node
Date: Thu Jul 25 18:27:50 EDT 2019
User: cochatt
Spectrometer: HR+D1059
Trigger mode: 1
Integration Time (sec): 1.000000E-1
Scans to average: 1
Electric dark correction enabled: true
Nonlinearity correction enabled: false
Boxcar width: 0
XAxis mode: Wavelengths
Number of Pixels in Spectrum: 2048
>>>>>Begin Spectral Data<<<<<
223.165	-4.88
223.4	-4.88
223.635	-4.88
223.869	-8.88
224.104	-19.88
224.338	-17.88
224.573	-14.88
224.808	-12.88
225.042	-17.88
225.277	-3.88
225.511	1.12
225.746	5.12
225.98	-2.88
226.215	15.12
226.449	6.12
226.683	16.12
226.918	27.12
227.152	33.12
227.387	37.12
227.621	41.12
227.856	32.12
228.09	46.12
228.324	43.12
228.559	67.12
228.793	61.12
229.027	113.12
229.262	108.12
229.496	116.12
229.73	112.12
229.964	119.12
230.199	136.12
230.433	126.12
230.667	127.12
230.901	119.12
231.136	130.12
231.37	157.12
231.604	124.12
231.838	150.12
232.072	150.12
232.306	148.12
232.541	141.12
232.775	132.12
233.009	159.12
233.243	131.12
233.477	146.12
233.711	154.12
233.945	145.12
234.179	153.12
234.413	151.12
234.647	160.12
234.881	163.12
235.115	172.12
235.349	166.12
235.583	150.12
235.817	156.12
236.051	151.12
236.285	143.12
236.519	159.12
236.753	162.12
236.987	165.12
237.221	154.12
237.455	151.12
237.689	162.12
237.922	171.12
238.156	166.12
238.39	179.12
238.624	162.12
238.858	182.12
239.091	180.12
239.325	176.12
239.559	192.12
239.793	180.12
240.027	175.12
240.26	162.12
240.494	167.12
240.728	171.12
240.961	179.12
241.195	194.12
241.429	178.12
241.662	181.12
241.896	186.12
242.13	208.12
242.363	192.12
242.597	187.12
242.83	203.12
243.064	207.12
243.298	210.12
243.531	196.12
243.765	217.12
243.998	206.12
244.232	216.12
244.465	203.12
244.699	221.12
244.932	218.12
245.166	216.12
245.399	202.12
245.633	212.12
245.866	225.12
246.099	209.12
246.333	210.12
246.566	226.12
246.8	221.12
247.033	217.12
247.266	210.12
247.5	233.12
247.733	235.12
247.966	235.12
248.2	236.12
248.433	247.12
248.666	245.12
248.899	257.12
249.133	256.12
249.366	270.12
249.599	243.12
249.832	254.12
250.066	239.12
250.299	253.12
250.532	253.12
250.765	252.12
250.998	273.12
251.231	284.12
251.465	275.12
251.698	255.12
251.931	272.12
252.164	278.12
252.397	287.12
252.63	282.12
252.863	271.12
253.096	288.12
253.329	272.12
253.562	284.12
253.795	293.12
254.028	299.12
254.261	268.12
254.494	263.12
254.727	288.12
254.96	297.12
255.193	313.12
255.426	284.12
255.659	288.12
255.892	303.12
256.124	290.12
256.357	311.12
256.59	311.12
256.823	308.12
257.056	280.12
257.289	310.12
257.521	311.12
257.754	310.12
257.987	297.12
258.22	302.12
258.452	296.12
258.685	328.12
258.918	311.12
259.151	319.12
259.383	292.12
259.616	326.12
259.849	327.12
260.081	308.12
260.314	348.12
260.547	323.12
260.779	312.12
261.012	326.12
261.244	334.12
261.477	323.12
261.71	334.12
261.942	338.12
262.175	335.12
262.407	336.12
262.64	329.12
262.872	334.12
263.105	337.12
263.337	319.12
263.57	341.12
263.802	363.12
264.035	364.12
264.267	354.12
264.499	333.12
264.732	353.12
264.964	348.12
265.197	350.12
265.429	346.12
265.661	363.12
265.894	371.12
266.126	360.12
266.358	356.12
266.591	351.12
266.823	382.12
267.055	355.12
267.287	378.12
267.52	374.12
267.752	384.12
267.984	383.12
268.216	368.12
268.448	372.12
268.681	362.12
268.913	372.12
269.145	358.12
269.377	363.12
269.609	382.12
269.841	388.12
270.073	378.12
270.306	386.12
270.538	400.12
270.77	376.12
271.002	389.12
271.234	384.12
271.466	418.12
271.698	406.12
271.93	397.12
272.162	396.12
272.394	402.12
272.626	390.12
272.858	387.12
273.09	417.12
273.322	419.12
273.553	394.12
273.785	408.12
274.017	413.12
274.249	408.12
274.481	430.12
274.713	405.12
274.945	422.12
275.176	420.12
275.408	423.12
275.64	419.12
275.872	419.12
276.104	419.12
276.335	425.12
276.567	416.12
276.799	431.12
277.031	430.12
277.262	447.12
277.494	416.12
277.726	416.12
277.957	428.12
278.189	439.12
278.421	430.12
278.652	455.12
278.884	441.12
279.115	457.12
279.347	464.12
279.579	436.12
279.81	447.12
280.042	447.12
280.273	464.12
280.505	447.12
280.736	450.12
280.968	457.12
281.199	455.12
281.431	457.12
281.662	476.12
281.894	475.12
282.125	466.12
282.356	477.12
282.588	490.12
282.819	468.12
283.051	500.12
283.282	489.12
283.513	496.12
283.745	510.12
283.976	486.12
284.207	473.12
284.439	486.12
284.67	481.12
284.901	490.12
285.132	492.12
285.364	481.12
285.595	485.12
285.826	496.12
286.057	486.12
286.288	486.12
286.52	497.12
286.751	508.12
286.982	512.12
287.213	497.12
287.444	508.12
287.675	492.12
287.906	475.12
288.138	520.12
288.369	496.12
288.6	512.12
288.831	491.12
289.062	526.12
289.293	510.12
289.524	518.12
289.755	540.12
289.986	527.12
290.217	532.12
290.448	528.12
290.679	522.12
290.91	531.12
291.141	535.12
291.371	524.12
291.602	536.12
291.833	553.12
292.064	535.12
292.295	528.12
292.526	534.12
292.757	533.12
292.987	535.12
293.218	521.12
293.449	517.12
293.68	549.12
293.91	550.12
294.141	544.12
294.372	544.12
294.603	550.12
294.833	551.12
295.064	556.12
295.295	562.12
295.525	536.12
295.756	519.12
295.987	515.12
296.217	582.12
296.448	554.12
296.679	582.12
296.909	574.12
297.14	565.12
297.37	600.12
297.601	576.12
297.831	572.12
298.062	564.12
298.292	567.12
298.523	613.12
298.753	581.12
298.984	599.12
299.214	566.12
299.445	587.12
299.675	586.12
299.905	598.12
300.136	594.12
300.366	573.12
300.597	595.12
300.827	603.12
301.057	602.12
301.288	587.12
301.518	610.12
301.748	608.12
301.979	601.12
302.209	617.12
302.439	602.12
302.669	620.12
302.9	600.12
303.13	579.12
303.36	614.12
303.59	597.12
303.82	596.12
304.051	601.12
304.281	597.12
304.511	595.12
304.741	628.12
304.971	608.12
305.201	607.12
305.431	577.12
305.661	597.12
305.891	619.12
306.121	584.12
306.352	603.12
306.582	579.12
306.812	600.12
307.042	602.12
307.272	600.12
307.502	581.12
307.731	578.12
307.961	602.12
308.191	594.12
308.421	618.12
308.651	579.12
308.881	598.12
309.111	580.12
309.341	606.12
309.571	587.12
309.8	582.12
310.03	585.12
310.26	576.12
310.49	606.12
310.72	606.12
310.949	574.12
311.179	594.12
311.409	593.12
311.639	635.12
311.868	616.12
312.098	606.12
312.328	609.12
312.557	616.12
312.787	603.12
313.017	604.12
313.246	622.12
313.476	632.12
313.706	638.12
313.935	646.12
314.165	656.12
314.394	664.12
314.624	645.12
314.853	651.12
315.083	645.12
315.312	653.12
315.542	618.12
315.771	631.12
316.001	652.12
316.23	637.12
316.46	625.12
316.689	611.12
316.919	617.12
317.148	632.12
317.377	628.12
317.607	632.12
317.836	602.12
318.065	624.12
318.295	618.12
318.524	624.12
318.753	628.12
318.983	603.12
319.212	606.12
319.441	634.12
319.67	603.12
319.9	618.12
320.129	606.12
320.358	629.12
320.587	619.12
320.816	622.12
321.046	624.12
321.275	629.12
321.504	634.12
321.733	635.12
321.962	635.12
322.191	621.12
322.42	608.12
322.649	633.12
322.878	615.12
323.108	615.12
323.337	644.12
323.566	644.12
323.795	643.12
324.024	636.12
324.253	619.12
324.482	643.12
324.71	637.12
324.939	648.12
325.168	660.12
325.397	660.12
325.626	659.12
325.855	672.12
326.084	672.12
326.313	665.12
326.542	672.12
326.77	683.12
326.999	684.12
327.228	663.12
327.457	661.12
327.686	686.12
327.914	671.12
328.143	679.12
328.372	675.12
328.6	694.12
328.829	667.12
329.058	686.12
329.287	707.12
329.515	695.12
329.744	694.12
329.972	679.12
330.201	675.12
330.43	684.12
330.658	678.12
330.887	705.12
331.115	714.12
331.344	715.12
331.572	715.12
331.801	714.12
332.03	752.12
332.258	747.12
332.486	788.12
332.715	781.12
332.943	818.12
333.172	862.12
333.4	917.12
333.629	909.12
333.857	918.12
334.085	907.12
334.314	900.12
334.542	872.12
334.771	863.12
334.999	861.12
335.227	835.12
335.455	892.12
335.684	843.12
335.912	847.12
336.14	814.12
336.369	808.12
336.597	832.12
336.825	834.12
337.053	819.12
337.281	820.12
337.51	793.12
337.738	756.12
337.966	745.12
338.194	756.12
338.422	742.12
338.65	706.12
338.878	751.12
339.106	711.12
339.334	737.12
339.562	728.12
339.79	725.12
340.018	705.12
340.246	704.12
340.474	676.12
340.702	729.12
340.93	725.12
341.158	731.12
341.386	719.12
341.614	721.12
341.842	717.12
342.07	693.12
342.298	712.12
342.526	707.12
342.754	699.12
342.981	693.12
343.209	741.12
343.437	741.12
343.665	774.12
343.893	851.12
344.12	872.12
344.348	849.12
344.576	810.12
344.804	754.12
345.031	742.12
345.259	743.12
345.487	709.12
345.714	695.12
345.942	696.12
346.17	701.12
346.397	690.12
346.625	678.12
346.853	686.12
347.08	694.12
347.308	691.12
347.535	707.12
347.763	716.12
347.99	682.12
348.218	700.12
348.445	700.12
348.673	688.12
348.9	684.12
349.128	682.12
349.355	667.12
349.583	681.12
349.81	695.12
350.037	664.12
350.265	688.12
350.492	666.12
350.72	675.12
350.947	652.12
351.174	660.12
351.402	663.12
351.629	662.12
351.856	648.12
352.083	642.12
352.311	678.12
352.538	662.12
352.765	651.12
352.992	670.12
353.22	639.12
353.447	681.12
353.674	667.12
353.901	655.12
354.128	646.12
354.355	662.12
354.583	639.12
354.81	640.12
355.037	657.12
355.264	668.12
355.491	676.12
355.718	675.12
355.945	658.12
356.172	694.12
356.399	661.12
356.626	652.12
356.853	682.12
357.08	639.12
357.307	661.12
357.534	656.12
357.761	682.12
357.988	669.12
358.215	668.12
358.441	672.12
358.668	658.12
358.895	664.12
359.122	690.12
359.349	680.12
359.576	656.12
359.802	659.12
360.029	658.12
360.256	666.12
360.483	695.12
360.709	672.12
360.936	672.12
361.163	659.12
361.39	636.12
361.616	665.12
361.843	673.12
362.07	667.12
362.296	658.12
362.523	668.12
362.749	681.12
362.976	654.12
363.203	654.12
363.429	652.12
363.656	674.12
363.882	660.12
364.109	668.12
364.335	668.12
364.562	651.12
364.788	638.12
365.015	670.12
365.241	652.12
365.468	669.12
365.694	662.12
365.92	642.12
366.147	679.12
366.373	666.12
366.599	662.12
366.826	659.12
367.052	649.12
367.278	665.12
367.505	694.12
367.731	658.12
367.957	648.12
368.184	656.12
368.41	661.12
368.636	698.12
368.862	692.12
369.089	707.12
369.315	690.12
369.541	691.12
369.767	692.12
369.993	682.12
370.219	659.12
370.445	691.12
370.672	679.12
370.898	706.12
371.124	718.12
371.35	734.12
371.576	764.12
371.802	735.12
372.028	730.12
372.254	712.12
372.48	718.12
372.706	728.12
372.932	736.12
373.158	764.12
373.384	735.12
373.61	712.12
373.835	730.12
374.061	731.12
374.287	716.12
374.513	716.12
374.739	778.12
374.965	782.12
375.191	823.12
375.416	807.12
375.642	776.12
375.868	775.12
376.094	758.12
376.319	747.12
376.545	743.12
376.771	740.12
376.997	718.12
377.222	726.12
377.448	723.12
377.674	733.12
377.899	710.12
378.125	729.12
378.35	705.12
378.576	711.12
378.802	696.12
379.027	710.12
379.253	707.12
379.478	707.12
379.704	699.12
379.929	720.12
380.155	718.12
380.38	716.12
380.606	721.12
380.831	714.12
381.057	727.12
381.282	701.12
381.507	726.12
381.733	736.12
381.958	744.12
382.184	766.12
382.409	730.12
382.634	748.12
382.86	768.12
383.085	747.12
383.31	779.12
383.535	795.12
383.761	769.12
383.986	811.12
384.211	850.12
384.436	826.12
384.662	848.12
384.887	860.12
385.112	865.12
385.337	880.12
385.562	888.12
385.787	863.12
386.013	887.12
386.238	864.12
386.463	906.12
386.688	876.12
386.913	867.12
387.138	861.12
387.363	875.12
387.588	822.12
387.813	866.12
388.038	861.12
388.263	855.12
388.488	862.12
388.713	855.12
388.938	846.12
389.163	842.12
389.387	838.12
389.612	826.12
389.837	839.12
390.062	846.12
390.287	855.12
390.512	852.12
390.736	854.12
390.961	898.12
391.186	875.12
391.411	904.12
391.636	920.12
391.86	975.12
392.085	979.12
392.31	981.12
392.534	929.12
392.759	929.12
392.984	918.12
393.208	919.12
393.433	920.12
393.658	882.12
393.882	926.12
394.107	923.12
394.331	937.12
394.556	937.12
394.78	959.12
395.005	933.12
395.229	930.12
395.454	968.12
395.678	982.12
395.903	970.12
396.127	978.12
396.352	937.12
396.576	913.12
396.801	907.12
397.025	905.12
397.249	967.12
397.474	976.12
397.698	962.12
397.922	976.12
398.147	989.12
398.371	986.12
398.595	1026.12
398.82	1071.12
399.044	1150.12
399.268	1249.12
399.492	1441.12
399.717	1635.12
399.941	1665.12
400.165	1499.12
400.389	1352.12
400.613	1224.12
400.837	1144.12
401.062	1150.12
401.286	1112.12
401.51	1067.12
401.734	1086.12
401.958	1084.12
402.182	1110.12
402.406	1115.12
402.63	1137.12
402.854	1154.12
403.078	1144.12
403.302	1196.12
403.526	1248.12
403.75	1250.12
403.974	1272.12
404.198	1286.12
404.422	1275.12
404.645	1249.12
404.869	1253.12
405.093	1239.12
405.317	1216.12
405.541	1218.12
405.765	1223.12
405.988	1202.12
406.212	1214.12
406.436	1204.12
406.66	1222.12
406.883	1246.12
407.107	1320.12
407.331	1375.12
407.555	1415.12
407.778	1414.12
408.002	1354.12
408.226	1339.12
408.449	1306.12
408.673	1239.12
408.896	1226.12
409.12	1216.12
409.344	1267.12
409.567	1202.12
409.791	1251.12
410.014	1239.12
410.238	1239.12
410.461	1233.12
410.685	1197.12
410.908	1148.12
411.132	1164.12
411.355	1150.12
411.578	1157.12
411.802	1130.12
412.025	1152.12
412.249	1156.12
412.472	1162.12
412.695	1115.12
412.919	1088.12
413.142	1098.12
413.365	1065.12
413.589	1124.12
413.812	1070.12
414.035	1056.12
414.258	1075.12
414.482	1111.12
414.705	1117.12
414.928	1108.12
415.151	1091.12
415.374	1120.12
415.597	1104.12
415.821	1087.12
416.044	1060.12
416.267	1078.12
416.49	1071.12
416.713	1066.12
416.936	1045.12
417.159	1053.12
417.382	1088.12
417.605	1052.12
417.828	1098.12
418.051	1117.12
418.274	1087.12
418.497	1108.12
418.72	1120.12
418.943	1092.12
419.166	1219.12
419.389	1263.12
419.611	1241.12
419.834	1172.12
420.057	1154.12
420.28	1103.12
420.503	1079.12
420.726	1055.12
420.948	1088.12
421.171	1093.12
421.394	1059.12
421.617	1067.12
421.839	1080.12
422.062	1110.12
422.285	1062.12
422.507	1111.12
422.73	1092.12
422.953	1122.12
423.175	1116.12
423.398	1145.12
423.621	1135.12
423.843	1161.12
424.066	1147.12
424.288	1156.12
424.511	1137.12
424.733	1106.12
424.956	1139.12
425.178	1097.12
425.401	1081.12
425.623	1096.12
425.846	1077.12
426.068	1066.12
426.291	1020.12
426.513	1030.12
426.735	1025.12
426.958	1000.12
427.18	995.12
427.402	1024.12
427.625	998.12
427.847	984.12
428.069	972.12
428.292	984.12
428.514	964.12
428.736	946.12
428.958	987.12
429.181	914.12
429.403	939.12
429.625	938.12
429.847	948.12
430.069	913.12
430.292	955.12
430.514	964.12
430.736	956.12
430.958	963.12
431.18	957.12
431.402	947.12
431.624	952.12
431.846	988.12
432.068	950.12
432.29	996.12
432.512	967.12
432.734	978.12
432.956	950.12
433.178	968.12
433.4	978.12
433.622	992.12
433.844	977.12
434.066	996.12
434.287	986.12
434.509	1024.12
434.731	1083.12
434.953	1072.12
435.175	1102.12
435.397	1085.12
435.618	1026.12
435.84	995.12
436.062	1001.12
436.284	986.12
436.505	950.12
436.727	990.12
436.949	969.12
437.17	992.12
437.392	951.12
437.614	969.12
437.835	906.12
438.057	910.12
438.278	913.12
438.5	925.12
438.721	955.12
438.943	987.12
439.165	955.12
439.386	935.12
439.608	969.12
439.829	975.12
440.05	976.12
440.272	976.12
440.493	1002.12
440.715	1006.12
440.936	985.12
441.158	1008.12
441.379	1031.12
441.6	1090.12
441.822	1120.12
442.043	1105.12
442.264	1091.12
442.486	1025.12
442.707	1095.12
442.928	1050.12
443.149	1070.12
443.371	1103.12
443.592	1103.12
443.813	1083.12
444.034	1078.12
444.255	1143.12
444.476	1171.12
444.698	1243.12
444.919	1336.12
445.14	1381.12
445.361	1217.12
445.582	1144.12
445.803	1071.12
446.024	1056.12
446.245	1017.12
446.466	1024.12
446.687	991.12
446.908	1006.12
447.129	965.12
447.35	959.12
447.571	985.12
447.792	923.12
448.013	912.12
448.234	920.12
448.455	912.12
448.675	883.12
448.896	903.12
449.117	914.12
449.338	885.12
449.559	888.12
449.779	890.12
450	889.12
450.221	906.12
450.442	878.12
450.662	907.12
450.883	894.12
451.104	930.12
451.324	923.12
451.545	926.12
451.766	912.12
451.986	884.12
452.207	913.12
452.428	892.12
452.648	874.12
452.869	867.12
453.089	854.12
453.31	884.12
453.53	857.12
453.751	852.12
453.971	851.12
454.192	860.12
454.412	841.12
454.633	842.12
454.853	846.12
455.073	824.12
455.294	844.12
455.514	849.12
455.734	850.12
455.955	835.12
456.175	860.12
456.395	844.12
456.616	810.12
456.836	809.12
457.056	831.12
457.276	852.12
457.497	838.12
457.717	823.12
457.937	830.12
458.157	857.12
458.377	871.12
458.598	889.12
458.818	911.12
459.038	929.12
459.258	946.12
459.478	998.12
459.698	981.12
459.918	1047.12
460.138	1070.12
460.358	1140.12
460.578	1125.12
460.798	1130.12
461.018	1152.12
461.238	1137.12
461.458	1146.12
461.678	1124.12
461.898	1146.12
462.118	1194.12
462.338	1239.12
462.558	1258.12
462.777	1319.12
462.997	1414.12
463.217	1532.12
463.437	1560.12
463.657	1404.12
463.876	1340.12
464.096	1340.12
464.316	1361.12
464.536	1371.12
464.755	1310.12
464.975	1242.12
465.195	1191.12
465.414	1128.12
465.634	1062.12
465.854	1011.12
466.073	1001.12
466.293	998.12
466.512	954.12
466.732	936.12
466.951	927.12
467.171	939.12
467.391	958.12
467.61	950.12
467.829	938.12
468.049	932.12
468.268	875.12
468.488	914.12
468.707	886.12
468.927	888.12
469.146	926.12
469.365	910.12
469.585	894.12
469.804	955.12
470.023	964.12
470.243	944.12
470.462	987.12
470.681	948.12
470.901	975.12
471.12	967.12
471.339	922.12
471.558	896.12
471.777	922.12
471.997	916.12
472.216	882.12
472.435	869.12
472.654	869.12
472.873	865.12
473.092	853.12
473.311	856.12
473.53	850.12
473.749	852.12
473.968	858.12
474.187	875.12
474.406	826.12
474.625	832.12
474.844	864.12
475.063	889.12
475.282	868.12
475.501	882.12
475.72	888.12
475.939	880.12
476.158	896.12
476.377	909.12
476.596	889.12
476.814	920.12
477.033	926.12
477.252	955.12
477.471	944.12
477.69	991.12
477.908	984.12
478.127	1025.12
478.346	1010.12
478.564	1047.12
478.783	1036.12
479.002	1095.12
479.22	1121.12
479.439	1086.12
479.658	1079.12
479.876	1050.12
480.095	1078.12
480.313	1127.12
480.532	1168.12
480.751	1170.12
480.969	1115.12
481.188	1071.12
481.406	1024.12
481.624	1043.12
481.843	1019.12
482.061	998.12
482.28	975.12
482.498	956.12
482.717	1009.12
482.935	1014.12
483.153	1009.12
483.372	1008.12
483.59	985.12
483.808	1025.12
484.027	1022.12
484.245	1011.12
484.463	1008.12
484.681	1055.12
484.9	1000.12
485.118	1023.12
485.336	1022.12
485.554	1056.12
485.772	1014.12
485.99	1029.12
486.209	1044.12
486.427	1076.12
486.645	1051.12
486.863	1045.12
487.081	1034.12
487.299	1043.12
487.517	1001.12
487.735	1018.12
487.953	1028.12
488.171	1027.12
488.389	1044.12
488.607	1007.12
488.825	1037.12
489.043	1017.12
489.261	1007.12
489.479	1040.12
489.696	1037.12
489.914	1054.12
490.132	1050.12
490.35	1047.12
490.568	1057.12
490.786	1046.12
491.003	1046.12
491.221	1058.12
491.439	1062.12
491.657	1066.12
491.874	1063.12
492.092	1058.12
492.31	1066.12
492.527	1054.12
492.745	1074.12
492.963	1078.12
493.18	1075.12
493.398	1112.12
493.615	1084.12
493.833	1099.12
494.05	1067.12
494.268	1109.12
494.485	1097.12
494.703	1115.12
494.92	1130.12
495.138	1091.12
495.355	1109.12
495.573	1123.12
495.79	1118.12
496.008	1141.12
496.225	1123.12
496.442	1143.12
496.66	1142.12
496.877	1170.12
497.094	1188.12
497.312	1220.12
497.529	1220.12
497.746	1242.12
497.963	1284.12
498.181	1348.12
498.398	1368.12
498.615	1470.12
498.832	1572.12
499.049	1690.12
499.267	1796.12
499.484	1983.12
499.701	2170.12
499.918	2423.12
500.135	2736.12
500.352	3160.12
500.569	3334.12
500.786	3318.12
501.003	3054.12
501.22	2748.12
501.437	2450.12
501.654	2168.12
501.871	1948.12
502.088	1783.12
502.305	1664.12
502.522	1573.12
502.739	1539.12
502.956	1448.12
503.172	1393.12
503.389	1321.12
503.606	1328.12
503.823	1306.12
504.04	1250.12
504.256	1262.12
504.473	1332.12
504.69	1344.12
504.907	1309.12
505.123	1212.12
505.34	1160.12
505.557	1122.12
505.773	1095.12
505.99	1061.12
506.207	1048.12
506.423	1022.12
506.64	1030.12
506.856	970.12
507.073	994.12
507.289	979.12
507.506	955.12
507.722	970.12
507.939	960.12
508.155	954.12
508.372	930.12
508.588	947.12
508.805	929.12
509.021	901.12
509.238	917.12
509.454	921.12
509.67	915.12
509.887	890.12
510.103	900.12
510.319	898.12
510.536	888.12
510.752	871.12
510.968	887.12
511.184	894.12
511.401	900.12
511.617	902.12
511.833	863.12
512.049	870.12
512.265	887.12
512.481	871.12
512.698	875.12
512.914	870.12
513.13	886.12
513.346	884.12
513.562	886.12
513.778	898.12
513.994	880.12
514.21	869.12
514.426	871.12
514.642	873.12
514.858	908.12
515.074	918.12
515.29	902.12
515.506	915.12
515.721	911.12
515.937	975.12
516.153	959.12
516.369	966.12
516.585	1015.12
516.801	1030.12
517.016	1090.12
517.232	1129.12
517.448	1183.12
517.664	1231.12
517.879	1263.12
518.095	1207.12
518.311	1196.12
518.527	1188.12
518.742	1138.12
518.958	1057.12
519.173	1018.12
519.389	1009.12
519.605	954.12
519.82	953.12
520.036	906.12
520.251	892.12
520.467	907.12
520.682	879.12
520.898	904.12
521.113	892.12
521.329	881.12
521.544	840.12
521.76	855.12
521.975	880.12
522.19	882.12
522.406	839.12
522.621	821.12
522.836	852.12
523.052	833.12
523.267	824.12
523.482	810.12
523.698	817.12
523.913	807.12
524.128	811.12
524.343	820.12
524.559	804.12
524.774	829.12
524.989	801.12
525.204	816.12
525.419	802.12
525.634	792.12
525.849	799.12
526.064	796.12
526.28	782.12
526.495	785.12
526.71	787.12
526.925	822.12
527.14	820.12
527.355	780.12
527.57	793.12
527.785	796.12
527.999	832.12
528.214	817.12
528.429	821.12
528.644	786.12
528.859	805.12
529.074	826.12
529.289	811.12
529.503	791.12
529.718	776.12
529.933	775.12
530.148	798.12
530.363	803.12
530.577	795.12
530.792	771.12
531.007	782.12
531.221	806.12
531.436	808.12
531.651	820.12
531.865	824.12
532.08	779.12
532.295	787.12
532.509	817.12
532.724	787.12
532.938	801.12
533.153	782.12
533.367	786.12
533.582	791.12
533.796	796.12
534.011	791.12
534.225	784.12
534.44	797.12
534.654	788.12
534.868	774.12
535.083	771.12
535.297	773.12
535.511	754.12
535.726	774.12
535.94	767.12
536.154	761.12
536.369	762.12
536.583	744.12
536.797	750.12
537.011	750.12
537.225	727.12
537.44	747.12
537.654	728.12
537.868	757.12
538.082	736.12
538.296	723.12
538.51	740.12
538.724	721.12
538.938	742.12
539.153	723.12
539.367	713.12
539.581	728.12
539.795	725.12
540.009	720.12
540.222	724.12
540.436	713.12
540.65	730.12
540.864	704.12
541.078	718.12
541.292	739.12
541.506	742.12
541.72	697.12
541.934	714.12
542.147	720.12
542.361	710.12
542.575	720.12
542.789	704.12
543.002	689.12
543.216	708.12
543.43	696.12
543.644	711.12
543.857	707.12
544.071	726.12
544.285	704.12
544.498	694.12
544.712	719.12
544.925	724.12
545.139	729.12
545.352	731.12
545.566	744.12
545.779	722.12
545.993	738.12
546.206	712.12
546.42	699.12
546.633	737.12
546.847	697.12
547.06	735.12
547.274	754.12
547.487	721.12
547.7	728.12
547.914	777.12
548.127	742.12
548.34	747.12
548.554	726.12
548.767	721.12
548.98	729.12
549.193	740.12
549.407	735.12
549.62	770.12
549.833	766.12
550.046	752.12
550.259	743.12
550.473	727.12
550.686	724.12
550.899	730.12
551.112	710.12
551.325	710.12
551.538	684.12
551.751	710.12
551.964	716.12
552.177	721.12
552.39	716.12
552.603	750.12
552.816	760.12
553.029	787.12
553.242	787.12
553.455	811.12
553.667	839.12
553.88	792.12
554.093	768.12
554.306	761.12
554.519	728.12
554.732	730.12
554.944	727.12
555.157	689.12
555.37	684.12
555.583	684.12
555.795	659.12
556.008	687.12
556.221	671.12
556.433	659.12
556.646	645.12
556.859	642.12
557.071	609.12
557.284	630.12
557.496	622.12
557.709	587.12
557.921	624.12
558.134	632.12
558.346	641.12
558.559	623.12
558.771	627.12
558.984	614.12
559.196	601.12
559.409	607.12
559.621	618.12
559.833	603.12
560.046	623.12
560.258	613.12
560.47	604.12
560.683	579.12
560.895	586.12
561.107	598.12
561.32	595.12
561.532	594.12
561.744	584.12
561.956	604.12
562.168	594.12
562.381	594.12
562.593	606.12
562.805	612.12
563.017	645.12
563.229	626.12
563.441	615.12
563.653	610.12
563.865	611.12
564.077	626.12
564.289	609.12
564.501	654.12
564.713	644.12
564.925	669.12
565.137	676.12
565.349	674.12
565.561	695.12
565.773	698.12
565.985	719.12
566.197	786.12
566.408	848.12
566.62	894.12
566.832	950.12
567.044	993.12
567.255	1016.12
567.467	1036.12
567.679	1072.12
567.891	1130.12
568.102	1154.12
568.314	1149.12
568.526	999.12
568.737	899.12
568.949	847.12
569.161	787.12
569.372	722.12
569.584	666.12
569.795	636.12
570.007	641.12
570.218	613.12
570.43	628.12
570.641	635.12
570.853	618.12
571.064	640.12
571.276	636.12
571.487	609.12
571.698	613.12
571.91	558.12
572.121	539.12
572.333	544.12
572.544	549.12
572.755	523.12
572.966	555.12
573.178	497.12
573.389	526.12
573.6	496.12
573.811	500.12
574.023	522.12
574.234	513.12
574.445	463.12
574.656	489.12
574.867	495.12
575.078	497.12
575.289	498.12
575.501	499.12
575.712	477.12
575.923	486.12
576.134	481.12
576.345	471.12
576.556	491.12
576.767	480.12
576.978	462.12
577.188	470.12
577.399	464.12
577.61	458.12
577.821	460.12
578.032	463.12
578.243	451.12
578.454	448.12
578.665	434.12
578.875	455.12
579.086	441.12
579.297	448.12
579.508	431.12
579.718	436.12
579.929	435.12
580.14	436.12
580.35	446.12
580.561	441.12
580.772	451.12
580.982	442.12
581.193	441.12
581.403	427.12
581.614	420.12
581.825	440.12
582.035	433.12
582.246	417.12
582.456	418.12
582.667	414.12
582.877	433.12
583.087	408.12
583.298	421.12
583.508	439.12
583.719	423.12
583.929	410.12
584.139	404.12
584.35	407.12
584.56	399.12
584.77	424.12
584.981	407.12
585.191	405.12
585.401	415.12
585.611	405.12
585.821	407.12
586.032	417.12
586.242	389.12
586.452	414.12
586.662	407.12
586.872	401.12
587.082	411.12
587.292	407.12
587.502	385.12
587.713	401.12
587.923	406.12
588.133	406.12
588.343	412.12
588.553	411.12
588.762	379.12
588.972	407.12
589.182	412.12
589.392	424.12
589.602	432.12
589.812	419.12
590.022	404.12
590.232	416.12
590.441	418.12
590.651	403.12
590.861	412.12
591.071	411.12
591.281	417.12
591.49	423.12
591.7	427.12
591.91	425.12
592.119	433.12
592.329	430.12
592.539	475.12
592.748	484.12
592.958	486.12
593.167	511.12
593.377	503.12
593.587	522.12
593.796	502.12
594.006	521.12
594.215	532.12
594.424	496.12
594.634	502.12
594.843	492.12
595.053	487.12
595.262	454.12
595.472	436.12
595.681	416.12
595.89	416.12
596.1	389.12
596.309	394.12
596.518	420.12
596.727	390.12
596.937	368.12
597.146	379.12
597.355	387.12
597.564	367.12
597.774	360.12
597.983	356.12
598.192	360.12
598.401	364.12
598.61	357.12
598.819	366.12
599.028	363.12
599.237	354.12
599.446	349.12
599.655	347.12
599.864	344.12
600.073	358.12
600.282	338.12
600.491	345.12
600.7	353.12
600.909	335.12
601.118	348.12
601.327	328.12
601.536	332.12
601.745	336.12
601.953	347.12
602.162	320.12
602.371	329.12
602.58	318.12
602.789	355.12
602.997	332.12
603.206	319.12
603.415	327.12
603.623	324.12
603.832	336.12
604.041	321.12
604.249	323.12
604.458	334.12
604.666	327.12
604.875	310.12
605.084	320.12
605.292	333.12
605.501	316.12
605.709	311.12
605.918	322.12
606.126	320.12
606.334	289.12
606.543	319.12
606.751	320.12
606.96	312.12
607.168	308.12
607.376	290.12
607.585	306.12
607.793	293.12
608.001	323.12
608.21	331.12
608.418	333.12
608.626	307.12
608.834	329.12
609.043	294.12
609.251	310.12
609.459	296.12
609.667	317.12
609.875	304.12
610.083	302.12
610.291	287.12
610.499	307.12
610.707	299.12
610.916	290.12
611.124	298.12
611.332	304.12
611.54	316.12
611.748	305.12
611.955	296.12
612.163	328.12
612.371	315.12
612.579	294.12
612.787	299.12
612.995	307.12
613.203	307.12
613.411	307.12
613.618	309.12
613.826	282.12
614.034	289.12
614.242	292.12
614.449	307.12
614.657	288.12
614.865	289.12
615.072	297.12
615.28	290.12
615.488	293.12
615.695	291.12
615.903	286.12
616.111	295.12
616.318	295.12
616.526	293.12
616.733	282.12
616.941	296.12
617.148	295.12
617.356	308.12
617.563	309.12
617.771	283.12
617.978	304.12
618.185	293.12
618.393	294.12
618.6	292.12
618.807	287.12
619.015	320.12
619.222	287.12
619.429	280.12
619.637	292.12
619.844	287.12
620.051	281.12
620.258	290.12
620.466	282.12
620.673	275.12
620.88	272.12
621.087	268.12
621.294	277.12
621.501	278.12
621.708	262.12
621.915	272.12
622.122	267.12
622.329	266.12
622.536	272.12
622.743	272.12
622.95	277.12
623.157	260.12
623.364	258.12
623.571	281.12
623.778	264.12
623.985	271.12
624.192	261.12
624.399	267.12
624.606	260.12
624.812	256.12
625.019	261.12
625.226	264.12
625.433	274.12
625.639	254.12
625.846	238.12
626.053	257.12
626.259	251.12
626.466	248.12
626.673	266.12
626.879	254.12
627.086	251.12
627.293	281.12
627.499	255.12
627.706	247.12
627.912	267.12
628.119	243.12
628.325	238.12
628.532	243.12
628.738	252.12
628.945	242.12
629.151	247.12
629.357	234.12
629.564	224.12
629.77	238.12
629.976	239.12
630.183	235.12
630.389	242.12
630.595	210.12
630.802	235.12
631.008	227.12
631.214	233.12
631.42	233.12
631.627	239.12
631.833	225.12
632.039	214.12
632.245	236.12
632.451	241.12
632.657	231.12
632.863	226.12
633.069	225.12
633.275	243.12
633.481	231.12
633.688	234.12
633.893	215.12
634.099	235.12
634.305	203.12
634.511	234.12
634.717	205.12
634.923	211.12
635.129	222.12
635.335	213.12
635.541	214.12
635.747	226.12
635.952	213.12
636.158	216.12
636.364	210.12
636.57	207.12
636.775	203.12
636.981	210.12
637.187	210.12
637.392	200.12
637.598	210.12
637.804	213.12
638.009	218.12
638.215	204.12
638.421	201.12
638.626	219.12
638.832	224.12
639.037	200.12
639.243	197.12
639.448	220.12
639.654	186.12
639.859	209.12
640.065	197.12
640.27	211.12
640.475	193.12
640.681	192.12
640.886	199.12
641.091	197.12
641.297	196.12
641.502	182.12
641.707	197.12
641.913	200.12
642.118	199.12
642.323	191.12
642.528	196.12
642.733	186.12
642.939	186.12
643.144	195.12
643.349	200.12
643.554	204.12
643.759	198.12
643.964	202.12
644.169	194.12
644.374	187.12
644.579	198.12
644.784	179.12
644.989	191.12
645.194	162.12
645.399	190.12
645.604	190.12
645.809	180.12
646.014	195.12
646.219	194.12
646.423	179.12
646.628	175.12
646.833	189.12
647.038	192.12
647.243	172.12
647.447	178.12
647.652	220.12
647.857	201.12
648.062	195.12
648.266	199.12
648.471	209.12
648.676	203.12
648.88	211.12
649.085	191.12
649.289	186.12
649.494	187.12
649.698	174.12
649.903	178.12
650.107	190.12
650.312	200.12
650.516	183.12
650.721	179.12
650.925	171.12
651.13	174.12
651.334	164.12
651.539	158.12
651.743	187.12
651.947	163.12
652.152	163.12
652.356	168.12
652.56	157.12
652.764	174.12
652.969	168.12
653.173	169.12
653.377	162.12
653.581	166.12
653.785	167.12
653.99	141.12
654.194	142.12
654.398	153.12
654.602	156.12
654.806	138.12
655.01	138.12
655.214	141.12
655.418	138.12
655.622	124.12
655.826	121.12
656.03	151.12
656.234	141.12
656.438	141.12
656.642	155.12
656.846	143.12
657.049	151.12
657.253	140.12
657.457	118.12
657.661	125.12
657.865	133.12
658.068	124.12
658.272	118.12
658.476	116.12
658.68	107.12
658.883	108.12
659.087	111.12
659.291	99.12
659.494	116.12
659.698	103.12
659.901	107.12
660.105	97.12
660.309	103.12
660.512	92.12
660.716	96.12
660.919	75.12
661.123	98.12
661.326	93.12
661.53	87.12
661.733	101.12
661.936	92.12
662.14	71.12
662.343	75.12
662.546	83.12
662.75	88.12
662.953	84.12
663.156	76.12
663.36	88.12
663.563	90.12
663.766	83.12
663.969	85.12
664.173	75.12
664.376	92.12
664.579	80.12
664.782	83.12
664.985	77.12
665.188	79.12
665.391	98.12
665.594	88.12
665.797	90.12
666	98.12
666.203	90.12
666.406	83.12
666.609	79.12
666.812	71.12
667.015	91.12
667.218	86.12
667.421	81.12
667.624	82.12
667.827	80.12
668.03	63.12
668.232	78.12
668.435	88.12
668.638	67.12
668.841	82.12
669.043	69.12
669.246	75.12
669.449	85.12
669.651	70.12
669.854	80.12
670.057	85.12
670.259	84.12
670.462	76.12
670.665	83.12
670.867	73.12
671.07	84.12
671.272	73.12
671.475	80.12
671.677	82.12
671.88	72.12
672.082	76.12
672.284	63.12
672.487	74.12
672.689	83.12
672.892	90.12
