Data from NiCl2@0.0625M.TitratingCurve.Agarose3%dH2O.NegLispCup.LampEnergy10.LIBS07252019_HRD10591_18-34-06-577.txt Node
Date: Thu Jul 25 18:34:06 EDT 2019
User: cochatt
Spectrometer: HR+D1059
Trigger mode: 1
Integration Time (sec): 1.000000E-1
Scans to average: 1
Electric dark correction enabled: true
Nonlinearity correction enabled: false
Boxcar width: 0
XAxis mode: Wavelengths
Number of Pixels in Spectrum: 2048
>>>>>Begin Spectral Data<<<<<
223.165	-20.5
223.4	-20.5
223.635	-20.5
223.869	-16.5
224.104	-18.5
224.338	-5.5
224.573	-14.5
224.808	-6.5
225.042	-17.5
225.277	-4.5
225.511	-2.5
225.746	13.5
225.98	-5.5
226.215	8.5
226.449	9.5
226.683	24.5
226.918	26.5
227.152	29.5
227.387	46.5
227.621	48.5
227.856	43.5
228.09	58.5
228.324	47.5
228.559	61.5
228.793	92.5
229.027	145.5
229.262	149.5
229.496	161.5
229.73	165.5
229.964	177.5
230.199	169.5
230.433	180.5
230.667	173.5
230.901	194.5
231.136	194.5
231.37	200.5
231.604	196.5
231.838	197.5
232.072	214.5
232.306	210.5
232.541	206.5
232.775	200.5
233.009	199.5
233.243	210.5
233.477	203.5
233.711	202.5
233.945	226.5
234.179	219.5
234.413	211.5
234.647	212.5
234.881	211.5
235.115	221.5
235.349	221.5
235.583	210.5
235.817	226.5
236.051	215.5
236.285	211.5
236.519	237.5
236.753	232.5
236.987	239.5
237.221	221.5
237.455	236.5
237.689	222.5
237.922	246.5
238.156	241.5
238.39	230.5
238.624	257.5
238.858	253.5
239.091	264.5
239.325	262.5
239.559	255.5
239.793	273.5
240.027	264.5
240.26	273.5
240.494	277.5
240.728	283.5
240.961	272.5
241.195	293.5
241.429	284.5
241.662	281.5
241.896	298.5
242.13	297.5
242.363	309.5
242.597	306.5
242.83	302.5
243.064	295.5
243.298	303.5
243.531	319.5
243.765	315.5
243.998	321.5
244.232	332.5
244.465	313.5
244.699	343.5
244.932	329.5
245.166	323.5
245.399	338.5
245.633	335.5
245.866	346.5
246.099	350.5
246.333	342.5
246.566	343.5
246.8	341.5
247.033	345.5
247.266	366.5
247.5	367.5
247.733	354.5
247.966	359.5
248.2	379.5
248.433	367.5
248.666	390.5
248.899	377.5
249.133	398.5
249.366	387.5
249.599	384.5
249.832	406.5
250.066	405.5
250.299	400.5
250.532	396.5
250.765	399.5
250.998	413.5
251.231	408.5
251.465	418.5
251.698	412.5
251.931	412.5
252.164	427.5
252.397	425.5
252.63	419.5
252.863	428.5
253.096	436.5
253.329	431.5
253.562	409.5
253.795	438.5
254.028	444.5
254.261	448.5
254.494	456.5
254.727	452.5
254.96	464.5
255.193	469.5
255.426	465.5
255.659	438.5
255.892	473.5
256.124	466.5
256.357	481.5
256.59	461.5
256.823	474.5
257.056	476.5
257.289	485.5
257.521	490.5
257.754	477.5
257.987	495.5
258.22	491.5
258.452	509.5
258.685	487.5
258.918	496.5
259.151	504.5
259.383	507.5
259.616	509.5
259.849	515.5
260.081	521.5
260.314	535.5
260.547	524.5
260.779	512.5
261.012	544.5
261.244	533.5
261.477	507.5
261.71	522.5
261.942	529.5
262.175	552.5
262.407	547.5
262.64	547.5
262.872	546.5
263.105	569.5
263.337	551.5
263.57	574.5
263.802	574.5
264.035	572.5
264.267	558.5
264.499	573.5
264.732	557.5
264.964	560.5
265.197	562.5
265.429	549.5
265.661	573.5
265.894	556.5
266.126	591.5
266.358	570.5
266.591	581.5
266.823	576.5
267.055	596.5
267.287	623.5
267.52	582.5
267.752	592.5
267.984	603.5
268.216	611.5
268.448	616.5
268.681	594.5
268.913	622.5
269.145	609.5
269.377	608.5
269.609	604.5
269.841	631.5
270.073	634.5
270.306	623.5
270.538	612.5
270.77	628.5
271.002	612.5
271.234	635.5
271.466	620.5
271.698	660.5
271.93	631.5
272.162	650.5
272.394	655.5
272.626	655.5
272.858	686.5
273.09	669.5
273.322	656.5
273.553	663.5
273.785	694.5
274.017	668.5
274.249	702.5
274.481	708.5
274.713	705.5
274.945	706.5
275.176	675.5
275.408	695.5
275.64	693.5
275.872	711.5
276.104	708.5
276.335	712.5
276.567	719.5
276.799	702.5
277.031	740.5
277.262	698.5
277.494	696.5
277.726	724.5
277.957	745.5
278.189	736.5
278.421	740.5
278.652	724.5
278.884	733.5
279.115	745.5
279.347	763.5
279.579	753.5
279.81	745.5
280.042	735.5
280.273	734.5
280.505	767.5
280.736	757.5
280.968	780.5
281.199	765.5
281.431	767.5
281.662	795.5
281.894	782.5
282.125	776.5
282.356	798.5
282.588	776.5
282.819	778.5
283.051	766.5
283.282	804.5
283.513	788.5
283.745	811.5
283.976	806.5
284.207	825.5
284.439	810.5
284.67	802.5
284.901	817.5
285.132	821.5
285.364	826.5
285.595	801.5
285.826	859.5
286.057	833.5
286.288	832.5
286.52	833.5
286.751	859.5
286.982	861.5
287.213	855.5
287.444	841.5
287.675	837.5
287.906	841.5
288.138	868.5
288.369	858.5
288.6	882.5
288.831	856.5
289.062	875.5
289.293	855.5
289.524	861.5
289.755	867.5
289.986	862.5
290.217	893.5
290.448	877.5
290.679	874.5
290.91	857.5
291.141	897.5
291.371	868.5
291.602	913.5
291.833	868.5
292.064	898.5
292.295	875.5
292.526	895.5
292.757	892.5
292.987	855.5
293.218	871.5
293.449	863.5
293.68	918.5
293.91	878.5
294.141	884.5
294.372	885.5
294.603	905.5
294.833	883.5
295.064	897.5
295.295	892.5
295.525	880.5
295.756	903.5
295.987	890.5
296.217	903.5
296.448	940.5
296.679	900.5
296.909	904.5
297.14	939.5
297.37	940.5
297.601	943.5
297.831	941.5
298.062	933.5
298.292	950.5
298.523	942.5
298.753	962.5
298.984	958.5
299.214	951.5
299.445	964.5
299.675	937.5
299.905	926.5
300.136	958.5
300.366	971.5
300.597	977.5
300.827	952.5
301.057	984.5
301.288	990.5
301.518	996.5
301.748	992.5
301.979	997.5
302.209	1024.5
302.439	1035.5
302.669	1011.5
302.9	990.5
303.13	1014.5
303.36	989.5
303.59	998.5
303.82	987.5
304.051	1009.5
304.281	1016.5
304.511	971.5
304.741	1008.5
304.971	1022.5
305.201	998.5
305.431	1004.5
305.661	983.5
305.891	1002.5
306.121	1014.5
306.352	1012.5
306.582	999.5
306.812	982.5
307.042	1016.5
307.272	992.5
307.502	994.5
307.731	972.5
307.961	991.5
308.191	976.5
308.421	984.5
308.651	988.5
308.881	1002.5
309.111	1004.5
309.341	977.5
309.571	1024.5
309.8	993.5
310.03	1005.5
310.26	1011.5
310.49	1009.5
310.72	999.5
310.949	998.5
311.179	1035.5
311.409	1004.5
311.639	990.5
311.868	995.5
312.098	1031.5
312.328	1068.5
312.557	1086.5
312.787	1067.5
313.017	1060.5
313.246	1080.5
313.476	1069.5
313.706	1087.5
313.935	1054.5
314.165	1058.5
314.394	1066.5
314.624	1087.5
314.853	1098.5
315.083	1069.5
315.312	1067.5
315.542	1074.5
315.771	1066.5
316.001	1049.5
316.23	1083.5
316.46	1068.5
316.689	1078.5
316.919	1057.5
317.148	1045.5
317.377	1063.5
317.607	1053.5
317.836	1064.5
318.065	1056.5
318.295	1078.5
318.524	1054.5
318.753	1064.5
318.983	1065.5
319.212	1060.5
319.441	1065.5
319.67	1058.5
319.9	1080.5
320.129	1060.5
320.358	1095.5
320.587	1083.5
320.816	1051.5
321.046	1058.5
321.275	1081.5
321.504	1080.5
321.733	1049.5
321.962	1089.5
322.191	1076.5
322.42	1068.5
322.649	1073.5
322.878	1102.5
323.108	1090.5
323.337	1120.5
323.566	1125.5
323.795	1107.5
324.024	1103.5
324.253	1090.5
324.482	1101.5
324.71	1087.5
324.939	1148.5
325.168	1103.5
325.397	1099.5
325.626	1133.5
325.855	1131.5
326.084	1154.5
326.313	1160.5
326.542	1167.5
326.77	1179.5
326.999	1149.5
327.228	1131.5
327.457	1135.5
327.686	1124.5
327.914	1150.5
328.143	1161.5
328.372	1142.5
328.6	1161.5
328.829	1138.5
329.058	1155.5
329.287	1170.5
329.515	1163.5
329.744	1165.5
329.972	1189.5
330.201	1171.5
330.43	1185.5
330.658	1188.5
330.887	1220.5
331.115	1174.5
331.344	1242.5
331.572	1221.5
331.801	1232.5
332.03	1261.5
332.258	1275.5
332.486	1308.5
332.715	1329.5
332.943	1369.5
333.172	1382.5
333.4	1457.5
333.629	1487.5
333.857	1488.5
334.085	1489.5
334.314	1462.5
334.542	1457.5
334.771	1496.5
334.999	1445.5
335.227	1471.5
335.455	1475.5
335.684	1425.5
335.912	1405.5
336.14	1402.5
336.369	1405.5
336.597	1417.5
336.825	1387.5
337.053	1416.5
337.281	1385.5
337.51	1364.5
337.738	1310.5
337.966	1298.5
338.194	1268.5
338.422	1307.5
338.65	1273.5
338.878	1292.5
339.106	1278.5
339.334	1291.5
339.562	1241.5
339.79	1274.5
340.018	1254.5
340.246	1221.5
340.474	1224.5
340.702	1254.5
340.93	1232.5
341.158	1213.5
341.386	1206.5
341.614	1212.5
341.842	1197.5
342.07	1232.5
342.298	1204.5
342.526	1234.5
342.754	1210.5
342.981	1222.5
343.209	1259.5
343.437	1302.5
343.665	1370.5
343.893	1394.5
344.12	1440.5
344.348	1393.5
344.576	1359.5
344.804	1294.5
345.031	1286.5
345.259	1256.5
345.487	1226.5
345.714	1226.5
345.942	1193.5
346.17	1221.5
346.397	1208.5
346.625	1216.5
346.853	1189.5
347.08	1154.5
347.308	1178.5
347.535	1180.5
347.763	1149.5
347.99	1171.5
348.218	1183.5
348.445	1168.5
348.673	1165.5
348.9	1163.5
349.128	1174.5
349.355	1159.5
349.583	1152.5
349.81	1149.5
350.037	1148.5
350.265	1133.5
350.492	1131.5
350.72	1151.5
350.947	1150.5
351.174	1132.5
351.402	1140.5
351.629	1149.5
351.856	1093.5
352.083	1130.5
352.311	1127.5
352.538	1106.5
352.765	1156.5
352.992	1150.5
353.22	1137.5
353.447	1104.5
353.674	1096.5
353.901	1116.5
354.128	1130.5
354.355	1111.5
354.583	1106.5
354.81	1132.5
355.037	1142.5
355.264	1147.5
355.491	1105.5
355.718	1134.5
355.945	1124.5
356.172	1111.5
356.399	1137.5
356.626	1129.5
356.853	1101.5
357.08	1119.5
357.307	1126.5
357.534	1144.5
357.761	1125.5
357.988	1152.5
358.215	1146.5
358.441	1116.5
358.668	1150.5
358.895	1153.5
359.122	1139.5
359.349	1124.5
359.576	1119.5
359.802	1181.5
360.029	1144.5
360.256	1152.5
360.483	1162.5
360.709	1148.5
360.936	1147.5
361.163	1126.5
361.39	1137.5
361.616	1133.5
361.843	1148.5
362.07	1119.5
362.296	1142.5
362.523	1126.5
362.749	1149.5
362.976	1135.5
363.203	1133.5
363.429	1118.5
363.656	1145.5
363.882	1119.5
364.109	1129.5
364.335	1116.5
364.562	1164.5
364.788	1146.5
365.015	1149.5
365.241	1148.5
365.468	1108.5
365.694	1134.5
365.92	1161.5
366.147	1134.5
366.373	1142.5
366.599	1153.5
366.826	1114.5
367.052	1134.5
367.278	1148.5
367.505	1146.5
367.731	1149.5
367.957	1146.5
368.184	1148.5
368.41	1165.5
368.636	1148.5
368.862	1176.5
369.089	1174.5
369.315	1176.5
369.541	1182.5
369.767	1179.5
369.993	1200.5
370.219	1181.5
370.445	1180.5
370.672	1209.5
370.898	1224.5
371.124	1178.5
371.35	1261.5
371.576	1239.5
371.802	1228.5
372.028	1226.5
372.254	1252.5
372.48	1246.5
372.706	1303.5
372.932	1266.5
373.158	1272.5
373.384	1257.5
373.61	1250.5
373.835	1225.5
374.061	1249.5
374.287	1270.5
374.513	1293.5
374.739	1299.5
374.965	1310.5
375.191	1337.5
375.416	1350.5
375.642	1306.5
375.868	1317.5
376.094	1275.5
376.319	1257.5
376.545	1247.5
376.771	1247.5
376.997	1242.5
377.222	1226.5
377.448	1217.5
377.674	1240.5
377.899	1223.5
378.125	1208.5
378.35	1210.5
378.576	1225.5
378.802	1193.5
379.027	1205.5
379.253	1217.5
379.478	1211.5
379.704	1215.5
379.929	1233.5
380.155	1213.5
380.38	1200.5
380.606	1217.5
380.831	1190.5
381.057	1240.5
381.282	1242.5
381.507	1233.5
381.733	1244.5
381.958	1243.5
382.184	1253.5
382.409	1248.5
382.634	1264.5
382.86	1263.5
383.085	1255.5
383.31	1333.5
383.535	1310.5
383.761	1345.5
383.986	1333.5
384.211	1349.5
384.436	1378.5
384.662	1361.5
384.887	1388.5
385.112	1401.5
385.337	1430.5
385.562	1415.5
385.787	1464.5
386.013	1467.5
386.238	1449.5
386.463	1477.5
386.688	1462.5
386.913	1394.5
387.138	1449.5
387.363	1463.5
387.588	1427.5
387.813	1467.5
388.038	1439.5
388.263	1465.5
388.488	1492.5
388.713	1489.5
388.938	1454.5
389.163	1423.5
389.387	1440.5
389.612	1396.5
389.837	1437.5
390.062	1423.5
390.287	1418.5
390.512	1432.5
390.736	1431.5
390.961	1475.5
391.186	1503.5
391.411	1528.5
391.636	1525.5
391.86	1579.5
392.085	1610.5
392.31	1582.5
392.534	1582.5
392.759	1572.5
392.984	1545.5
393.208	1556.5
393.433	1560.5
393.658	1528.5
393.882	1523.5
394.107	1532.5
394.331	1510.5
394.556	1564.5
394.78	1521.5
395.005	1547.5
395.229	1560.5
395.454	1599.5
395.678	1597.5
395.903	1630.5
396.127	1622.5
396.352	1589.5
396.576	1588.5
396.801	1550.5
397.025	1569.5
397.249	1647.5
397.474	1624.5
397.698	1658.5
397.922	1625.5
398.147	1660.5
398.371	1680.5
398.595	1731.5
398.82	1748.5
399.044	1888.5
399.268	1988.5
399.492	2218.5
399.717	2415.5
399.941	2448.5
400.165	2279.5
400.389	2141.5
400.613	2002.5
400.837	1918.5
401.062	1832.5
401.286	1839.5
401.51	1854.5
401.734	1813.5
401.958	1812.5
402.182	1852.5
402.406	1828.5
402.63	1828.5
402.854	1820.5
403.078	1827.5
403.302	1896.5
403.526	1913.5
403.75	1916.5
403.974	1929.5
404.198	1936.5
404.422	1957.5
404.645	1951.5
404.869	1934.5
405.093	1936.5
405.317	1925.5
405.541	1940.5
405.765	1955.5
405.988	1959.5
406.212	1916.5
406.436	1945.5
406.66	2018.5
406.883	2014.5
407.107	2102.5
407.331	2176.5
407.555	2257.5
407.778	2236.5
408.002	2194.5
408.226	2177.5
408.449	2148.5
408.673	2043.5
408.896	1988.5
409.12	2025.5
409.344	2022.5
409.567	2019.5
409.791	2014.5
410.014	1989.5
410.238	1950.5
410.461	1952.5
410.685	1974.5
410.908	1958.5
411.132	1905.5
411.355	1881.5
411.578	1906.5
411.802	1897.5
412.025	1860.5
412.249	1873.5
412.472	1902.5
412.695	1866.5
412.919	1805.5
413.142	1818.5
413.365	1816.5
413.589	1813.5
413.812	1806.5
414.035	1758.5
414.258	1765.5
414.482	1791.5
414.705	1823.5
414.928	1825.5
415.151	1787.5
415.374	1798.5
415.597	1781.5
415.821	1748.5
416.044	1735.5
416.267	1696.5
416.49	1702.5
416.713	1708.5
416.936	1709.5
417.159	1703.5
417.382	1738.5
417.605	1723.5
417.828	1716.5
418.051	1734.5
418.274	1734.5
418.497	1736.5
418.72	1750.5
418.943	1729.5
419.166	1838.5
419.389	1959.5
419.611	1944.5
419.834	1897.5
420.057	1799.5
420.28	1750.5
420.503	1721.5
420.726	1717.5
420.948	1697.5
421.171	1690.5
421.394	1733.5
421.617	1725.5
421.839	1750.5
422.062	1720.5
422.285	1692.5
422.507	1770.5
422.73	1737.5
422.953	1763.5
423.175	1753.5
423.398	1754.5
423.621	1766.5
423.843	1780.5
424.066	1767.5
424.288	1783.5
424.511	1725.5
424.733	1711.5
424.956	1737.5
425.178	1741.5
425.401	1726.5
425.623	1713.5
425.846	1674.5
426.068	1694.5
426.291	1674.5
426.513	1666.5
426.735	1632.5
426.958	1630.5
427.18	1625.5
427.402	1632.5
427.625	1654.5
427.847	1558.5
428.069	1558.5
428.292	1608.5
428.514	1600.5
428.736	1578.5
428.958	1643.5
429.181	1530.5
429.403	1560.5
429.625	1592.5
429.847	1528.5
430.069	1545.5
430.292	1550.5
430.514	1518.5
430.736	1527.5
430.958	1601.5
431.18	1546.5
431.402	1557.5
431.624	1566.5
431.846	1610.5
432.068	1598.5
432.29	1621.5
432.512	1606.5
432.734	1625.5
432.956	1584.5
433.178	1601.5
433.4	1578.5
433.622	1639.5
433.844	1633.5
434.066	1611.5
434.287	1663.5
434.509	1698.5
434.731	1745.5
434.953	1754.5
435.175	1730.5
435.397	1773.5
435.618	1684.5
435.84	1648.5
436.062	1613.5
436.284	1588.5
436.505	1597.5
436.727	1597.5
436.949	1586.5
437.17	1598.5
437.392	1545.5
437.614	1534.5
437.835	1512.5
438.057	1501.5
438.278	1488.5
438.5	1472.5
438.721	1505.5
438.943	1546.5
439.165	1508.5
439.386	1542.5
439.608	1526.5
439.829	1595.5
440.05	1572.5
440.272	1554.5
440.493	1571.5
440.715	1563.5
440.936	1586.5
441.158	1583.5
441.379	1628.5
441.6	1703.5
441.822	1696.5
442.043	1694.5
442.264	1673.5
442.486	1641.5
442.707	1637.5
442.928	1673.5
443.149	1678.5
443.371	1622.5
443.592	1694.5
443.813	1700.5
444.034	1726.5
444.255	1764.5
444.476	1831.5
444.698	1891.5
444.919	1940.5
445.14	2004.5
445.361	1888.5
445.582	1790.5
445.803	1676.5
446.024	1619.5
446.245	1640.5
446.466	1588.5
446.687	1584.5
446.908	1590.5
447.129	1541.5
447.35	1508.5
447.571	1489.5
447.792	1443.5
448.013	1442.5
448.234	1446.5
448.455	1473.5
448.675	1444.5
448.896	1425.5
449.117	1405.5
449.338	1415.5
449.559	1450.5
449.779	1389.5
450	1366.5
450.221	1392.5
450.442	1386.5
450.662	1415.5
450.883	1420.5
451.104	1447.5
451.324	1441.5
451.545	1401.5
451.766	1390.5
451.986	1378.5
452.207	1357.5
452.428	1411.5
452.648	1390.5
452.869	1362.5
453.089	1362.5
453.31	1402.5
453.53	1359.5
453.751	1345.5
453.971	1359.5
454.192	1367.5
454.412	1333.5
454.633	1340.5
454.853	1326.5
455.073	1305.5
455.294	1295.5
455.514	1313.5
455.734	1303.5
455.955	1319.5
456.175	1338.5
456.395	1317.5
456.616	1289.5
456.836	1318.5
457.056	1332.5
457.276	1331.5
457.497	1337.5
457.717	1373.5
457.937	1321.5
458.157	1354.5
458.377	1361.5
458.598	1411.5
458.818	1456.5
459.038	1449.5
459.258	1511.5
459.478	1529.5
459.698	1633.5
459.918	1609.5
460.138	1674.5
460.358	1711.5
460.578	1744.5
460.798	1721.5
461.018	1781.5
461.238	1741.5
461.458	1754.5
461.678	1742.5
461.898	1787.5
462.118	1831.5
462.338	1906.5
462.558	1890.5
462.777	1974.5
462.997	2089.5
463.217	2196.5
463.437	2224.5
463.657	2097.5
463.876	2036.5
464.096	2046.5
464.316	2010.5
464.536	1978.5
464.755	1979.5
464.975	1910.5
465.195	1822.5
465.414	1779.5
465.634	1633.5
465.854	1617.5
466.073	1601.5
466.293	1509.5
466.512	1522.5
466.732	1494.5
466.951	1508.5
467.171	1459.5
467.391	1487.5
467.61	1463.5
467.829	1454.5
468.049	1451.5
468.268	1414.5
468.488	1430.5
468.707	1428.5
468.927	1412.5
469.146	1450.5
469.365	1471.5
469.585	1456.5
469.804	1458.5
470.023	1495.5
470.243	1490.5
470.462	1500.5
470.681	1515.5
470.901	1535.5
471.12	1533.5
471.339	1461.5
471.558	1470.5
471.777	1469.5
471.997	1469.5
472.216	1418.5
472.435	1437.5
472.654	1430.5
472.873	1400.5
473.092	1438.5
473.311	1446.5
473.53	1459.5
473.749	1429.5
473.968	1403.5
474.187	1413.5
474.406	1442.5
474.625	1408.5
474.844	1419.5
475.063	1431.5
475.282	1418.5
475.501	1467.5
475.72	1486.5
475.939	1484.5
476.158	1488.5
476.377	1509.5
476.596	1515.5
476.814	1531.5
477.033	1518.5
477.252	1533.5
477.471	1552.5
477.69	1598.5
477.908	1648.5
478.127	1647.5
478.346	1694.5
478.564	1681.5
478.783	1735.5
479.002	1757.5
479.22	1773.5
479.439	1782.5
479.658	1749.5
479.876	1786.5
480.095	1768.5
480.313	1830.5
480.532	1888.5
480.751	1884.5
480.969	1853.5
481.188	1791.5
481.406	1743.5
481.624	1717.5
481.843	1727.5
482.061	1696.5
482.28	1738.5
482.498	1724.5
482.717	1725.5
482.935	1753.5
483.153	1739.5
483.372	1759.5
483.59	1757.5
483.808	1771.5
484.027	1757.5
484.245	1816.5
484.463	1831.5
484.681	1875.5
484.9	1852.5
485.118	1842.5
485.336	1870.5
485.554	1840.5
485.772	1924.5
485.99	1947.5
486.209	1885.5
486.427	1924.5
486.645	1892.5
486.863	1851.5
487.081	1867.5
487.299	1905.5
487.517	1850.5
487.735	1830.5
487.953	1857.5
488.171	1872.5
488.389	1823.5
488.607	1820.5
488.825	1793.5
489.043	1824.5
489.261	1804.5
489.479	1812.5
489.696	1802.5
489.914	1825.5
490.132	1807.5
490.35	1807.5
490.568	1771.5
490.786	1785.5
491.003	1789.5
491.221	1819.5
491.439	1809.5
491.657	1766.5
491.874	1765.5
492.092	1773.5
492.31	1799.5
492.527	1828.5
492.745	1803.5
492.963	1838.5
493.18	1773.5
493.398	1810.5
493.615	1801.5
493.833	1812.5
494.05	1824.5
494.268	1830.5
494.485	1812.5
494.703	1790.5
494.92	1835.5
495.138	1828.5
495.355	1825.5
495.573	1873.5
495.79	1868.5
496.008	1840.5
496.225	1885.5
496.442	1909.5
496.66	1899.5
496.877	1934.5
497.094	1928.5
497.312	1961.5
497.529	2055.5
497.746	2037.5
497.963	2094.5
498.181	2210.5
498.398	2238.5
498.615	2376.5
498.832	2525.5
499.049	2640.5
499.267	2836.5
499.484	3060.5
499.701	3325.5
499.918	3564.5
500.135	3992.5
500.352	4343.5
500.569	4405.5
500.786	4386.5
501.003	4217.5
501.22	3918.5
501.437	3548.5
501.654	3231.5
501.871	2990.5
502.088	2753.5
502.305	2604.5
502.522	2513.5
502.739	2405.5
502.956	2282.5
503.172	2263.5
503.389	2163.5
503.606	2092.5
503.823	2042.5
504.04	2001.5
504.256	1989.5
504.473	2028.5
504.69	2036.5
504.907	2002.5
505.123	1889.5
505.34	1832.5
505.557	1796.5
505.773	1742.5
505.99	1678.5
506.207	1635.5
506.423	1653.5
506.64	1625.5
506.856	1612.5
507.073	1576.5
507.289	1584.5
507.506	1561.5
507.722	1525.5
507.939	1531.5
508.155	1506.5
508.372	1502.5
508.588	1535.5
508.805	1506.5
509.021	1497.5
509.238	1479.5
509.454	1444.5
509.67	1470.5
509.887	1451.5
510.103	1440.5
510.319	1421.5
510.536	1430.5
510.752	1418.5
510.968	1398.5
511.184	1411.5
511.401	1439.5
511.617	1413.5
511.833	1436.5
512.049	1397.5
512.265	1427.5
512.481	1417.5
512.698	1403.5
512.914	1404.5
513.13	1428.5
513.346	1415.5
513.562	1404.5
513.778	1424.5
513.994	1445.5
514.21	1406.5
514.426	1418.5
514.642	1417.5
514.858	1457.5
515.074	1457.5
515.29	1457.5
515.506	1479.5
515.721	1494.5
515.937	1501.5
516.153	1500.5
516.369	1585.5
516.585	1612.5
516.801	1611.5
517.016	1691.5
517.232	1766.5
517.448	1746.5
517.664	1817.5
517.879	1863.5
518.095	1838.5
518.311	1777.5
518.527	1742.5
518.742	1656.5
518.958	1633.5
519.173	1610.5
519.389	1640.5
519.605	1556.5
519.82	1500.5
520.036	1520.5
520.251	1498.5
520.467	1446.5
520.682	1401.5
520.898	1425.5
521.113	1412.5
521.329	1369.5
521.544	1366.5
521.76	1361.5
521.975	1350.5
522.19	1315.5
522.406	1354.5
522.621	1341.5
522.836	1309.5
523.052	1322.5
523.267	1304.5
523.482	1294.5
523.698	1310.5
523.913	1300.5
524.128	1299.5
524.343	1307.5
524.559	1290.5
524.774	1261.5
524.989	1280.5
525.204	1297.5
525.419	1242.5
525.634	1260.5
525.849	1266.5
526.064	1257.5
526.28	1261.5
526.495	1269.5
526.71	1261.5
526.925	1242.5
527.14	1213.5
527.355	1244.5
527.57	1265.5
527.785	1259.5
527.999	1223.5
528.214	1234.5
528.429	1265.5
528.644	1261.5
528.859	1261.5
529.074	1225.5
529.289	1243.5
529.503	1229.5
529.718	1249.5
529.933	1230.5
530.148	1221.5
530.363	1248.5
530.577	1247.5
530.792	1202.5
531.007	1191.5
531.221	1266.5
531.436	1246.5
531.651	1238.5
531.865	1244.5
532.08	1243.5
532.295	1205.5
532.509	1232.5
532.724	1231.5
532.938	1270.5
533.153	1225.5
533.367	1184.5
533.582	1239.5
533.796	1238.5
534.011	1251.5
534.225	1218.5
534.44	1240.5
534.654	1220.5
534.868	1185.5
535.083	1207.5
535.297	1187.5
535.511	1194.5
535.726	1173.5
535.94	1207.5
536.154	1158.5
536.369	1174.5
536.583	1167.5
536.797	1130.5
537.011	1138.5
537.225	1132.5
537.44	1149.5
537.654	1146.5
537.868	1137.5
538.082	1126.5
538.296	1109.5
538.51	1127.5
538.724	1110.5
538.938	1120.5
539.153	1102.5
539.367	1103.5
539.581	1101.5
539.795	1050.5
540.009	1111.5
540.222	1131.5
540.436	1104.5
540.65	1092.5
540.864	1080.5
541.078	1079.5
541.292	1096.5
541.506	1077.5
541.72	1099.5
541.934	1090.5
542.147	1127.5
542.361	1103.5
542.575	1089.5
542.789	1105.5
543.002	1097.5
543.216	1080.5
543.43	1090.5
543.644	1066.5
543.857	1089.5
544.071	1071.5
544.285	1097.5
544.498	1070.5
544.712	1097.5
544.925	1107.5
545.139	1113.5
545.352	1086.5
545.566	1107.5
545.779	1134.5
545.993	1127.5
546.206	1103.5
546.42	1102.5
546.633	1089.5
546.847	1110.5
547.06	1089.5
547.274	1129.5
547.487	1118.5
547.7	1101.5
547.914	1097.5
548.127	1120.5
548.34	1109.5
548.554	1105.5
548.767	1106.5
548.98	1107.5
549.193	1130.5
549.407	1117.5
549.62	1097.5
549.833	1116.5
550.046	1140.5
550.259	1101.5
550.473	1107.5
550.686	1105.5
550.899	1088.5
551.112	1096.5
551.325	1076.5
551.538	1084.5
551.751	1073.5
551.964	1065.5
552.177	1092.5
552.39	1116.5
552.603	1142.5
552.816	1152.5
553.029	1177.5
553.242	1169.5
553.455	1183.5
553.667	1160.5
553.88	1189.5
554.093	1145.5
554.306	1098.5
554.519	1098.5
554.732	1069.5
554.944	1069.5
555.157	1049.5
555.37	1034.5
555.583	1018.5
555.795	1008.5
556.008	990.5
556.221	998.5
556.433	992.5
556.646	974.5
556.859	975.5
557.071	939.5
557.284	952.5
557.496	943.5
557.709	966.5
557.921	920.5
558.134	925.5
558.346	930.5
558.559	937.5
558.771	948.5
558.984	962.5
559.196	952.5
559.409	921.5
559.621	934.5
559.833	898.5
560.046	917.5
560.258	918.5
560.47	912.5
560.683	922.5
560.895	905.5
561.107	931.5
561.32	884.5
561.532	910.5
561.744	914.5
561.956	900.5
562.168	901.5
562.381	912.5
562.593	914.5
562.805	942.5
563.017	956.5
563.229	921.5
563.441	918.5
563.653	933.5
563.865	972.5
564.077	958.5
564.289	945.5
564.501	950.5
564.713	984.5
564.925	986.5
565.137	996.5
565.349	1022.5
565.561	1038.5
565.773	1050.5
565.985	1140.5
566.197	1192.5
566.408	1199.5
566.62	1297.5
566.832	1382.5
567.044	1396.5
567.255	1421.5
567.467	1465.5
567.679	1516.5
567.891	1576.5
568.102	1521.5
568.314	1493.5
568.526	1424.5
568.737	1312.5
568.949	1195.5
569.161	1140.5
569.372	1106.5
569.584	1033.5
569.795	996.5
570.007	941.5
570.218	955.5
570.43	946.5
570.641	938.5
570.853	939.5
571.064	920.5
571.276	923.5
571.487	889.5
571.698	889.5
571.91	847.5
572.121	857.5
572.333	842.5
572.544	804.5
572.755	780.5
572.966	784.5
573.178	773.5
573.389	772.5
573.6	787.5
573.811	774.5
574.023	730.5
574.234	750.5
574.445	756.5
574.656	736.5
574.867	760.5
575.078	761.5
575.289	745.5
575.501	744.5
575.712	714.5
575.923	685.5
576.134	714.5
576.345	712.5
576.556	709.5
576.767	700.5
576.978	719.5
577.188	678.5
577.399	685.5
577.61	685.5
577.821	689.5
578.032	652.5
578.243	688.5
578.454	655.5
578.665	665.5
578.875	666.5
579.086	640.5
579.297	653.5
579.508	654.5
579.718	655.5
579.929	649.5
580.14	630.5
580.35	641.5
580.561	655.5
580.772	651.5
580.982	635.5
581.193	641.5
581.403	638.5
581.614	636.5
581.825	617.5
582.035	616.5
582.246	619.5
582.456	626.5
582.667	630.5
582.877	638.5
583.087	622.5
583.298	616.5
583.508	633.5
583.719	625.5
583.929	623.5
584.139	621.5
584.35	628.5
584.56	614.5
584.77	611.5
584.981	576.5
585.191	583.5
585.401	602.5
585.611	590.5
585.821	585.5
586.032	604.5
586.242	628.5
586.452	628.5
586.662	594.5
586.872	572.5
587.082	600.5
587.292	601.5
587.502	612.5
587.713	587.5
587.923	593.5
588.133	588.5
588.343	596.5
588.553	602.5
588.762	593.5
588.972	609.5
589.182	599.5
589.392	589.5
589.602	557.5
589.812	587.5
590.022	602.5
590.232	573.5
590.441	610.5
590.651	586.5
590.861	594.5
591.071	594.5
591.281	598.5
591.49	591.5
591.7	622.5
591.91	634.5
592.119	632.5
592.329	625.5
592.539	646.5
592.748	672.5
592.958	672.5
593.167	680.5
593.377	701.5
593.587	702.5
593.796	713.5
594.006	705.5
594.215	717.5
594.424	681.5
594.634	685.5
594.843	689.5
595.053	676.5
595.262	634.5
595.472	640.5
595.681	584.5
595.89	596.5
596.1	589.5
596.309	567.5
596.518	579.5
596.727	575.5
596.937	547.5
597.146	524.5
597.355	548.5
597.564	539.5
597.774	518.5
597.983	519.5
598.192	513.5
598.401	509.5
598.61	515.5
598.819	500.5
599.028	501.5
599.237	491.5
599.446	487.5
599.655	487.5
599.864	487.5
600.073	513.5
600.282	463.5
600.491	485.5
600.7	494.5
600.909	479.5
601.118	490.5
601.327	501.5
601.536	514.5
601.745	481.5
601.953	463.5
602.162	492.5
602.371	485.5
602.58	472.5
602.789	473.5
602.997	476.5
603.206	460.5
603.415	471.5
603.623	466.5
603.832	439.5
604.041	464.5
604.249	449.5
604.458	470.5
604.666	443.5
604.875	449.5
605.084	457.5
605.292	458.5
605.501	483.5
605.709	469.5
605.918	446.5
606.126	458.5
606.334	441.5
606.543	432.5
606.751	449.5
606.96	459.5
607.168	436.5
607.376	451.5
607.585	455.5
607.793	434.5
608.001	446.5
608.21	428.5
608.418	455.5
608.626	421.5
608.834	438.5
609.043	440.5
609.251	451.5
609.459	414.5
609.667	422.5
609.875	434.5
610.083	420.5
610.291	434.5
610.499	425.5
610.707	402.5
610.916	440.5
611.124	433.5
611.332	432.5
611.54	415.5
611.748	415.5
611.955	410.5
612.163	415.5
612.371	403.5
612.579	412.5
612.787	407.5
612.995	418.5
613.203	420.5
613.411	441.5
613.618	425.5
613.826	420.5
614.034	427.5
614.242	423.5
614.449	419.5
614.657	412.5
614.865	408.5
615.072	401.5
615.28	418.5
615.488	420.5
615.695	412.5
615.903	417.5
616.111	443.5
616.318	411.5
616.526	418.5
616.733	398.5
616.941	402.5
617.148	403.5
617.356	407.5
617.563	422.5
617.771	415.5
617.978	416.5
618.185	405.5
618.393	388.5
618.6	413.5
618.807	429.5
619.015	410.5
619.222	418.5
619.429	392.5
619.637	399.5
619.844	388.5
620.051	406.5
620.258	386.5
620.466	384.5
620.673	379.5
620.88	381.5
621.087	390.5
621.294	378.5
621.501	382.5
621.708	392.5
621.915	380.5
622.122	366.5
622.329	376.5
622.536	382.5
622.743	377.5
622.95	393.5
623.157	370.5
623.364	359.5
623.571	354.5
623.778	360.5
623.985	378.5
624.192	364.5
624.399	348.5
624.606	369.5
624.812	357.5
625.019	357.5
625.226	367.5
625.433	367.5
625.639	341.5
625.846	351.5
626.053	370.5
626.259	356.5
626.466	356.5
626.673	340.5
626.879	346.5
627.086	338.5
627.293	344.5
627.499	366.5
627.706	353.5
627.912	332.5
628.119	350.5
628.325	359.5
628.532	330.5
628.738	333.5
628.945	342.5
629.151	330.5
629.357	336.5
629.564	341.5
629.77	329.5
629.976	340.5
630.183	331.5
630.389	340.5
630.595	327.5
630.802	327.5
631.008	335.5
631.214	320.5
631.42	321.5
631.627	330.5
631.833	322.5
632.039	343.5
632.245	311.5
632.451	303.5
632.657	314.5
632.863	304.5
633.069	313.5
633.275	301.5
633.481	298.5
633.688	303.5
633.893	308.5
634.099	317.5
634.305	304.5
634.511	313.5
634.717	288.5
634.923	313.5
635.129	320.5
635.335	316.5
635.541	317.5
635.747	300.5
635.952	315.5
636.158	285.5
636.364	300.5
636.57	294.5
636.775	316.5
636.981	324.5
637.187	301.5
637.392	312.5
637.598	288.5
637.804	300.5
638.009	300.5
638.215	302.5
638.421	286.5
638.626	279.5
638.832	273.5
639.037	297.5
639.243	289.5
639.448	284.5
639.654	285.5
639.859	296.5
640.065	278.5
640.27	292.5
640.475	290.5
640.681	292.5
640.886	284.5
641.091	285.5
641.297	271.5
641.502	273.5
641.707	272.5
641.913	286.5
642.118	281.5
642.323	281.5
642.528	287.5
642.733	266.5
642.939	281.5
643.144	278.5
643.349	276.5
643.554	281.5
643.759	281.5
643.964	281.5
644.169	296.5
644.374	282.5
644.579	279.5
644.784	290.5
644.989	272.5
645.194	254.5
645.399	268.5
645.604	288.5
645.809	272.5
646.014	295.5
646.219	302.5
646.423	283.5
646.628	275.5
646.833	294.5
647.038	283.5
647.243	297.5
647.447	288.5
647.652	282.5
647.857	296.5
648.062	319.5
648.266	321.5
648.471	289.5
648.676	321.5
648.88	285.5
649.085	312.5
649.289	308.5
649.494	313.5
649.698	285.5
649.903	283.5
650.107	301.5
650.312	285.5
650.516	273.5
650.721	290.5
650.925	278.5
651.13	295.5
651.334	277.5
651.539	287.5
651.743	280.5
651.947	270.5
652.152	279.5
652.356	272.5
652.56	276.5
652.764	272.5
652.969	267.5
653.173	271.5
653.377	275.5
653.581	273.5
653.785	254.5
653.99	278.5
654.194	270.5
654.398	290.5
654.602	294.5
654.806	280.5
655.01	304.5
655.214	311.5
655.418	298.5
655.622	324.5
655.826	324.5
656.03	327.5
656.234	392.5
656.438	403.5
656.642	383.5
656.846	366.5
657.049	350.5
657.253	302.5
657.457	280.5
657.661	252.5
657.865	225.5
658.068	217.5
658.272	184.5
658.476	196.5
658.68	185.5
658.883	170.5
659.087	172.5
659.291	152.5
659.494	155.5
659.698	145.5
659.901	128.5
660.105	141.5
660.309	144.5
660.512	123.5
660.716	113.5
660.919	114.5
661.123	97.5
661.326	102.5
661.53	107.5
661.733	105.5
661.936	108.5
662.14	108.5
662.343	93.5
662.546	98.5
662.75	96.5
662.953	93.5
663.156	101.5
663.36	86.5
663.563	94.5
663.766	91.5
663.969	94.5
664.173	90.5
664.376	99.5
664.579	86.5
664.782	81.5
664.985	89.5
665.188	85.5
665.391	95.5
665.594	81.5
665.797	78.5
666	101.5
666.203	93.5
666.406	78.5
666.609	78.5
666.812	97.5
667.015	100.5
667.218	84.5
667.421	89.5
667.624	83.5
667.827	95.5
668.03	97.5
668.232	66.5
668.435	77.5
668.638	79.5
668.841	94.5
669.043	77.5
669.246	104.5
669.449	90.5
669.651	90.5
669.854	86.5
670.057	73.5
670.259	95.5
670.462	77.5
670.665	78.5
670.867	94.5
671.07	71.5
671.272	108.5
671.475	98.5
671.677	92.5
671.88	86.5
672.082	90.5
672.284	83.5
672.487	90.5
672.689	91.5
672.892	89.5
