Data from NiCl2@0.5M.TitratingCurve.Agarose3%dH2O.NegLispCup.LampEnergy10.LIBS07252019_HRD10591_18-19-30-571.txt Node
Date: Thu Jul 25 18:19:30 EDT 2019
User: cochatt
Spectrometer: HR+D1059
Trigger mode: 1
Integration Time (sec): 1.000000E-1
Scans to average: 1
Electric dark correction enabled: true
Nonlinearity correction enabled: false
Boxcar width: 0
XAxis mode: Wavelengths
Number of Pixels in Spectrum: 2048
>>>>>Begin Spectral Data<<<<<
223.165	-23.94
223.4	-23.94
223.635	-23.94
223.869	-13.94
224.104	-11.94
224.338	-18.94
224.573	-5.94
224.808	-18.94
225.042	-6.94
225.277	-6.94
225.511	-15.94
225.746	8.06
225.98	3.06
226.215	10.06
226.449	14.06
226.683	27.06
226.918	34.06
227.152	27.06
227.387	28.06
227.621	30.06
227.856	48.06
228.09	39.06
228.324	52.06
228.559	70.06
228.793	69.06
229.027	110.06
229.262	110.06
229.496	125.06
229.73	118.06
229.964	135.06
230.199	143.06
230.433	155.06
230.667	140.06
230.901	134.06
231.136	131.06
231.37	135.06
231.604	130.06
231.838	149.06
232.072	145.06
232.306	162.06
232.541	144.06
232.775	143.06
233.009	135.06
233.243	144.06
233.477	141.06
233.711	130.06
233.945	149.06
234.179	131.06
234.413	144.06
234.647	146.06
234.881	135.06
235.115	132.06
235.349	156.06
235.583	141.06
235.817	147.06
236.051	134.06
236.285	134.06
236.519	140.06
236.753	150.06
236.987	143.06
237.221	136.06
237.455	148.06
237.689	142.06
237.922	138.06
238.156	158.06
238.39	154.06
238.624	165.06
238.858	150.06
239.091	140.06
239.325	150.06
239.559	169.06
239.793	152.06
240.027	164.06
240.26	161.06
240.494	155.06
240.728	153.06
240.961	158.06
241.195	183.06
241.429	167.06
241.662	179.06
241.896	171.06
242.13	186.06
242.363	167.06
242.597	180.06
242.83	178.06
243.064	169.06
243.298	174.06
243.531	168.06
243.765	169.06
243.998	173.06
244.232	160.06
244.465	170.06
244.699	186.06
244.932	185.06
245.166	192.06
245.399	192.06
245.633	171.06
245.866	175.06
246.099	197.06
246.333	205.06
246.566	210.06
246.8	186.06
247.033	200.06
247.266	202.06
247.5	195.06
247.733	203.06
247.966	202.06
248.2	198.06
248.433	199.06
248.666	200.06
248.899	213.06
249.133	214.06
249.366	217.06
249.599	221.06
249.832	229.06
250.066	214.06
250.299	215.06
250.532	211.06
250.765	217.06
250.998	231.06
251.231	250.06
251.465	245.06
251.698	225.06
251.931	234.06
252.164	226.06
252.397	231.06
252.63	222.06
252.863	243.06
253.096	229.06
253.329	242.06
253.562	220.06
253.795	230.06
254.028	229.06
254.261	231.06
254.494	226.06
254.727	235.06
254.96	239.06
255.193	257.06
255.426	247.06
255.659	246.06
255.892	258.06
256.124	266.06
256.357	258.06
256.59	265.06
256.823	262.06
257.056	251.06
257.289	258.06
257.521	267.06
257.754	275.06
257.987	243.06
258.22	280.06
258.452	264.06
258.685	268.06
258.918	255.06
259.151	283.06
259.383	277.06
259.616	257.06
259.849	276.06
260.081	264.06
260.314	280.06
260.547	257.06
260.779	284.06
261.012	282.06
261.244	280.06
261.477	280.06
261.71	302.06
261.942	291.06
262.175	287.06
262.407	276.06
262.64	288.06
262.872	286.06
263.105	279.06
263.337	300.06
263.57	309.06
263.802	282.06
264.035	300.06
264.267	286.06
264.499	302.06
264.732	308.06
264.964	299.06
265.197	308.06
265.429	294.06
265.661	295.06
265.894	306.06
266.126	304.06
266.358	310.06
266.591	304.06
266.823	307.06
267.055	306.06
267.287	317.06
267.52	322.06
267.752	319.06
267.984	328.06
268.216	315.06
268.448	325.06
268.681	340.06
268.913	339.06
269.145	332.06
269.377	345.06
269.609	335.06
269.841	314.06
270.073	352.06
270.306	345.06
270.538	342.06
270.77	325.06
271.002	308.06
271.234	343.06
271.466	344.06
271.698	350.06
271.93	359.06
272.162	351.06
272.394	359.06
272.626	343.06
272.858	353.06
273.09	349.06
273.322	360.06
273.553	372.06
273.785	359.06
274.017	382.06
274.249	356.06
274.481	364.06
274.713	363.06
274.945	364.06
275.176	366.06
275.408	368.06
275.64	356.06
275.872	387.06
276.104	378.06
276.335	368.06
276.567	370.06
276.799	388.06
277.031	385.06
277.262	377.06
277.494	383.06
277.726	383.06
277.957	392.06
278.189	375.06
278.421	382.06
278.652	377.06
278.884	388.06
279.115	387.06
279.347	376.06
279.579	394.06
279.81	378.06
280.042	403.06
280.273	383.06
280.505	393.06
280.736	407.06
280.968	382.06
281.199	366.06
281.431	403.06
281.662	408.06
281.894	403.06
282.125	421.06
282.356	421.06
282.588	426.06
282.819	410.06
283.051	412.06
283.282	417.06
283.513	442.06
283.745	422.06
283.976	412.06
284.207	426.06
284.439	436.06
284.67	446.06
284.901	437.06
285.132	435.06
285.364	453.06
285.595	428.06
285.826	438.06
286.057	419.06
286.288	447.06
286.52	442.06
286.751	442.06
286.982	455.06
287.213	459.06
287.444	451.06
287.675	457.06
287.906	463.06
288.138	452.06
288.369	436.06
288.6	448.06
288.831	442.06
289.062	457.06
289.293	459.06
289.524	452.06
289.755	462.06
289.986	442.06
290.217	470.06
290.448	455.06
290.679	460.06
290.91	467.06
291.141	451.06
291.371	463.06
291.602	469.06
291.833	453.06
292.064	454.06
292.295	461.06
292.526	454.06
292.757	458.06
292.987	457.06
293.218	445.06
293.449	457.06
293.68	458.06
293.91	465.06
294.141	484.06
294.372	474.06
294.603	495.06
294.833	472.06
295.064	486.06
295.295	486.06
295.525	444.06
295.756	477.06
295.987	473.06
296.217	479.06
296.448	471.06
296.679	509.06
296.909	500.06
297.14	479.06
297.37	491.06
297.601	475.06
297.831	520.06
298.062	488.06
298.292	499.06
298.523	512.06
298.753	516.06
298.984	514.06
299.214	491.06
299.445	508.06
299.675	482.06
299.905	506.06
300.136	501.06
300.366	537.06
300.597	538.06
300.827	528.06
301.057	539.06
301.288	544.06
301.518	559.06
301.748	525.06
301.979	524.06
302.209	534.06
302.439	547.06
302.669	542.06
302.9	546.06
303.13	482.06
303.36	554.06
303.59	531.06
303.82	548.06
304.051	533.06
304.281	550.06
304.511	551.06
304.741	560.06
304.971	533.06
305.201	546.06
305.431	578.06
305.661	553.06
305.891	560.06
306.121	545.06
306.352	534.06
306.582	538.06
306.812	525.06
307.042	535.06
307.272	566.06
307.502	524.06
307.731	537.06
307.961	546.06
308.191	541.06
308.421	549.06
308.651	553.06
308.881	552.06
309.111	552.06
309.341	535.06
309.571	545.06
309.8	544.06
310.03	546.06
310.26	570.06
310.49	568.06
310.72	537.06
310.949	545.06
311.179	534.06
311.409	555.06
311.639	551.06
311.868	572.06
312.098	550.06
312.328	563.06
312.557	576.06
312.787	557.06
313.017	565.06
313.246	552.06
313.476	590.06
313.706	594.06
313.935	582.06
314.165	581.06
314.394	572.06
314.624	560.06
314.853	560.06
315.083	578.06
315.312	589.06
315.542	596.06
315.771	587.06
316.001	586.06
316.23	571.06
316.46	583.06
316.689	613.06
316.919	572.06
317.148	593.06
317.377	584.06
317.607	595.06
317.836	579.06
318.065	576.06
318.295	589.06
318.524	586.06
318.753	606.06
318.983	594.06
319.212	573.06
319.441	598.06
319.67	594.06
319.9	603.06
320.129	589.06
320.358	598.06
320.587	616.06
320.816	595.06
321.046	609.06
321.275	573.06
321.504	592.06
321.733	624.06
321.962	590.06
322.191	617.06
322.42	616.06
322.649	611.06
322.878	600.06
323.108	611.06
323.337	625.06
323.566	617.06
323.795	613.06
324.024	628.06
324.253	628.06
324.482	617.06
324.71	598.06
324.939	613.06
325.168	598.06
325.397	607.06
325.626	617.06
325.855	622.06
326.084	639.06
326.313	606.06
326.542	624.06
326.77	661.06
326.999	644.06
327.228	620.06
327.457	635.06
327.686	653.06
327.914	616.06
328.143	623.06
328.372	650.06
328.6	630.06
328.829	630.06
329.058	647.06
329.287	636.06
329.515	642.06
329.744	651.06
329.972	652.06
330.201	658.06
330.43	642.06
330.658	609.06
330.887	672.06
331.115	668.06
331.344	675.06
331.572	665.06
331.801	671.06
332.03	700.06
332.258	660.06
332.486	686.06
332.715	700.06
332.943	705.06
333.172	747.06
333.4	764.06
333.629	775.06
333.857	751.06
334.085	793.06
334.314	761.06
334.542	763.06
334.771	744.06
334.999	743.06
335.227	751.06
335.455	749.06
335.684	779.06
335.912	733.06
336.14	732.06
336.369	736.06
336.597	758.06
336.825	741.06
337.053	755.06
337.281	759.06
337.51	737.06
337.738	720.06
337.966	722.06
338.194	727.06
338.422	723.06
338.65	701.06
338.878	692.06
339.106	678.06
339.334	678.06
339.562	717.06
339.79	701.06
340.018	695.06
340.246	651.06
340.474	677.06
340.702	661.06
340.93	653.06
341.158	683.06
341.386	680.06
341.614	712.06
341.842	707.06
342.07	653.06
342.298	678.06
342.526	653.06
342.754	688.06
342.981	682.06
343.209	671.06
343.437	696.06
343.665	724.06
343.893	743.06
344.12	741.06
344.348	748.06
344.576	724.06
344.804	721.06
345.031	716.06
345.259	662.06
345.487	687.06
345.714	669.06
345.942	696.06
346.17	712.06
346.397	669.06
346.625	652.06
346.853	648.06
347.08	659.06
347.308	635.06
347.535	663.06
347.763	647.06
347.99	632.06
348.218	639.06
348.445	656.06
348.673	624.06
348.9	641.06
349.128	642.06
349.355	671.06
349.583	687.06
349.81	628.06
350.037	632.06
350.265	640.06
350.492	640.06
350.72	603.06
350.947	610.06
351.174	653.06
351.402	627.06
351.629	676.06
351.856	654.06
352.083	626.06
352.311	617.06
352.538	654.06
352.765	661.06
352.992	631.06
353.22	623.06
353.447	596.06
353.674	612.06
353.901	620.06
354.128	629.06
354.355	610.06
354.583	626.06
354.81	618.06
355.037	620.06
355.264	618.06
355.491	602.06
355.718	605.06
355.945	605.06
356.172	630.06
356.399	613.06
356.626	644.06
356.853	672.06
357.08	646.06
357.307	624.06
357.534	628.06
357.761	627.06
357.988	607.06
358.215	606.06
358.441	614.06
358.668	609.06
358.895	607.06
359.122	614.06
359.349	625.06
359.576	583.06
359.802	607.06
360.029	617.06
360.256	606.06
360.483	598.06
360.709	583.06
360.936	629.06
361.163	626.06
361.39	607.06
361.616	613.06
361.843	644.06
362.07	652.06
362.296	644.06
362.523	610.06
362.749	600.06
362.976	596.06
363.203	599.06
363.429	595.06
363.656	612.06
363.882	591.06
364.109	623.06
364.335	580.06
364.562	601.06
364.788	582.06
365.015	581.06
365.241	591.06
365.468	602.06
365.694	588.06
365.92	603.06
366.147	570.06
366.373	611.06
366.599	594.06
366.826	603.06
367.052	596.06
367.278	589.06
367.505	620.06
367.731	597.06
367.957	588.06
368.184	598.06
368.41	597.06
368.636	589.06
368.862	593.06
369.089	601.06
369.315	599.06
369.541	607.06
369.767	611.06
369.993	622.06
370.219	619.06
370.445	604.06
370.672	587.06
370.898	617.06
371.124	609.06
371.35	619.06
371.576	643.06
371.802	614.06
372.028	600.06
372.254	619.06
372.48	648.06
372.706	638.06
372.932	647.06
373.158	642.06
373.384	622.06
373.61	617.06
373.835	635.06
374.061	641.06
374.287	619.06
374.513	636.06
374.739	616.06
374.965	650.06
375.191	616.06
375.416	614.06
375.642	645.06
375.868	636.06
376.094	621.06
376.319	613.06
376.545	612.06
376.771	632.06
376.997	600.06
377.222	611.06
377.448	605.06
377.674	604.06
377.899	602.06
378.125	622.06
378.35	602.06
378.576	606.06
378.802	594.06
379.027	615.06
379.253	587.06
379.478	569.06
379.704	604.06
379.929	611.06
380.155	596.06
380.38	604.06
380.606	591.06
380.831	584.06
381.057	611.06
381.282	611.06
381.507	618.06
381.733	611.06
381.958	613.06
382.184	597.06
382.409	606.06
382.634	607.06
382.86	607.06
383.085	608.06
383.31	630.06
383.535	634.06
383.761	630.06
383.986	648.06
384.211	651.06
384.436	654.06
384.662	660.06
384.887	667.06
385.112	677.06
385.337	688.06
385.562	705.06
385.787	672.06
386.013	706.06
386.238	669.06
386.463	678.06
386.688	692.06
386.913	662.06
387.138	676.06
387.363	685.06
387.588	672.06
387.813	684.06
388.038	666.06
388.263	675.06
388.488	691.06
388.713	680.06
388.938	656.06
389.163	658.06
389.387	665.06
389.612	646.06
389.837	680.06
390.062	672.06
390.287	665.06
390.512	685.06
390.736	679.06
390.961	671.06
391.186	677.06
391.411	708.06
391.636	726.06
391.86	719.06
392.085	707.06
392.31	743.06
392.534	716.06
392.759	709.06
392.984	708.06
393.208	734.06
393.433	712.06
393.658	712.06
393.882	696.06
394.107	703.06
394.331	701.06
394.556	695.06
394.78	734.06
395.005	709.06
395.229	722.06
395.454	727.06
395.678	746.06
395.903	746.06
396.127	734.06
396.352	732.06
396.576	722.06
396.801	704.06
397.025	760.06
397.249	741.06
397.474	792.06
397.698	755.06
397.922	778.06
398.147	798.06
398.371	792.06
398.595	794.06
398.82	810.06
399.044	868.06
399.268	930.06
399.492	976.06
399.717	1021.06
399.941	1038.06
400.165	1000.06
400.389	904.06
400.613	891.06
400.837	843.06
401.062	837.06
401.286	809.06
401.51	834.06
401.734	812.06
401.958	838.06
402.182	814.06
402.406	829.06
402.63	805.06
402.854	864.06
403.078	846.06
403.302	878.06
403.526	879.06
403.75	901.06
403.974	884.06
404.198	884.06
404.422	911.06
404.645	899.06
404.869	885.06
405.093	885.06
405.317	885.06
405.541	892.06
405.765	894.06
405.988	878.06
406.212	862.06
406.436	882.06
406.66	920.06
406.883	921.06
407.107	950.06
407.331	1005.06
407.555	995.06
407.778	1011.06
408.002	973.06
408.226	956.06
408.449	1002.06
408.673	948.06
408.896	919.06
409.12	921.06
409.344	936.06
409.567	925.06
409.791	928.06
410.014	936.06
410.238	880.06
410.461	911.06
410.685	902.06
410.908	917.06
411.132	918.06
411.355	874.06
411.578	886.06
411.802	854.06
412.025	868.06
412.249	898.06
412.472	880.06
412.695	845.06
412.919	882.06
413.142	845.06
413.365	858.06
413.589	864.06
413.812	863.06
414.035	839.06
414.258	861.06
414.482	835.06
414.705	867.06
414.928	843.06
415.151	855.06
415.374	867.06
415.597	882.06
415.821	847.06
416.044	860.06
416.267	841.06
416.49	847.06
416.713	831.06
416.936	831.06
417.159	836.06
417.382	811.06
417.605	842.06
417.828	854.06
418.051	838.06
418.274	868.06
418.497	835.06
418.72	869.06
418.943	854.06
419.166	903.06
419.389	932.06
419.611	912.06
419.834	900.06
420.057	880.06
420.28	869.06
420.503	838.06
420.726	850.06
420.948	843.06
421.171	854.06
421.394	847.06
421.617	841.06
421.839	858.06
422.062	842.06
422.285	830.06
422.507	872.06
422.73	869.06
422.953	861.06
423.175	896.06
423.398	896.06
423.621	875.06
423.843	882.06
424.066	888.06
424.288	853.06
424.511	843.06
424.733	866.06
424.956	860.06
425.178	879.06
425.401	839.06
425.623	860.06
425.846	851.06
426.068	827.06
426.291	868.06
426.513	825.06
426.735	822.06
426.958	851.06
427.18	820.06
427.402	832.06
427.625	814.06
427.847	837.06
428.069	860.06
428.292	847.06
428.514	836.06
428.736	822.06
428.958	830.06
429.181	812.06
429.403	800.06
429.625	822.06
429.847	782.06
430.069	801.06
430.292	819.06
430.514	810.06
430.736	831.06
430.958	824.06
431.18	805.06
431.402	822.06
431.624	819.06
431.846	846.06
432.068	812.06
432.29	827.06
432.512	853.06
432.734	857.06
432.956	861.06
433.178	846.06
433.4	840.06
433.622	848.06
433.844	854.06
434.066	855.06
434.287	847.06
434.509	863.06
434.731	875.06
434.953	910.06
435.175	914.06
435.397	914.06
435.618	844.06
435.84	862.06
436.062	835.06
436.284	841.06
436.505	843.06
436.727	838.06
436.949	861.06
437.17	824.06
437.392	858.06
437.614	823.06
437.835	795.06
438.057	824.06
438.278	794.06
438.5	790.06
438.721	810.06
438.943	815.06
439.165	818.06
439.386	820.06
439.608	839.06
439.829	828.06
440.05	851.06
440.272	839.06
440.493	847.06
440.715	872.06
440.936	891.06
441.158	877.06
441.379	878.06
441.6	903.06
441.822	930.06
442.043	940.06
442.264	902.06
442.486	877.06
442.707	930.06
442.928	921.06
443.149	919.06
443.371	923.06
443.592	926.06
443.813	931.06
444.034	915.06
444.255	942.06
444.476	948.06
444.698	974.06
444.919	1026.06
445.14	1126.06
445.361	1009.06
445.582	938.06
445.803	902.06
446.024	916.06
446.245	877.06
446.466	873.06
446.687	879.06
446.908	860.06
447.129	840.06
447.35	847.06
447.571	843.06
447.792	831.06
448.013	826.06
448.234	806.06
448.455	819.06
448.675	819.06
448.896	803.06
449.117	796.06
449.338	802.06
449.559	783.06
449.779	761.06
450	792.06
450.221	806.06
450.442	806.06
450.662	799.06
450.883	828.06
451.104	840.06
451.324	797.06
451.545	801.06
451.766	796.06
451.986	796.06
452.207	779.06
452.428	784.06
452.648	784.06
452.869	784.06
453.089	790.06
453.31	825.06
453.53	781.06
453.751	746.06
453.971	748.06
454.192	791.06
454.412	784.06
454.633	780.06
454.853	773.06
455.073	778.06
455.294	780.06
455.514	790.06
455.734	760.06
455.955	758.06
456.175	784.06
456.395	735.06
456.616	771.06
456.836	784.06
457.056	750.06
457.276	759.06
457.497	774.06
457.717	787.06
457.937	777.06
458.157	784.06
458.377	774.06
458.598	771.06
458.818	793.06
459.038	825.06
459.258	849.06
459.478	861.06
459.698	895.06
459.918	902.06
460.138	929.06
460.358	962.06
460.578	972.06
460.798	964.06
461.018	962.06
461.238	968.06
461.458	944.06
461.678	958.06
461.898	966.06
462.118	1012.06
462.338	1012.06
462.558	1003.06
462.777	1096.06
462.997	1126.06
463.217	1176.06
463.437	1187.06
463.657	1144.06
463.876	1078.06
464.096	1076.06
464.316	1095.06
464.536	1089.06
464.755	1056.06
464.975	986.06
465.195	990.06
465.414	940.06
465.634	908.06
465.854	885.06
466.073	882.06
466.293	891.06
466.512	842.06
466.732	877.06
466.951	867.06
467.171	837.06
467.391	861.06
467.61	845.06
467.829	823.06
468.049	834.06
468.268	830.06
468.488	852.06
468.707	834.06
468.927	852.06
469.146	843.06
469.365	841.06
469.585	843.06
469.804	840.06
470.023	856.06
470.243	845.06
470.462	873.06
470.681	852.06
470.901	887.06
471.12	857.06
471.339	864.06
471.558	860.06
471.777	867.06
471.997	856.06
472.216	829.06
472.435	822.06
472.654	822.06
472.873	846.06
473.092	837.06
473.311	850.06
473.53	828.06
473.749	844.06
473.968	854.06
474.187	811.06
474.406	812.06
474.625	812.06
474.844	842.06
475.063	821.06
475.282	837.06
475.501	843.06
475.72	846.06
475.939	868.06
476.158	865.06
476.377	889.06
476.596	846.06
476.814	889.06
477.033	892.06
477.252	911.06
477.471	914.06
477.69	922.06
477.908	935.06
478.127	919.06
478.346	926.06
478.564	961.06
478.783	1005.06
479.002	1013.06
479.22	1030.06
479.439	1012.06
479.658	987.06
479.876	997.06
480.095	1006.06
480.313	1020.06
480.532	1047.06
480.751	1043.06
480.969	1033.06
481.188	975.06
481.406	964.06
481.624	962.06
481.843	980.06
482.061	941.06
482.28	951.06
482.498	963.06
482.717	970.06
482.935	989.06
483.153	979.06
483.372	998.06
483.59	1000.06
483.808	981.06
484.027	1002.06
484.245	968.06
484.463	956.06
484.681	998.06
484.9	999.06
485.118	995.06
485.336	1008.06
485.554	1024.06
485.772	1006.06
485.99	999.06
486.209	1019.06
486.427	993.06
486.645	994.06
486.863	1048.06
487.081	1015.06
487.299	1013.06
487.517	1034.06
487.735	1034.06
487.953	1046.06
488.171	1030.06
488.389	1014.06
488.607	1028.06
488.825	992.06
489.043	974.06
489.261	960.06
489.479	1004.06
489.696	1035.06
489.914	1031.06
490.132	1012.06
490.35	1044.06
490.568	1038.06
490.786	1028.06
491.003	1053.06
491.221	1046.06
491.439	1044.06
491.657	1046.06
491.874	1081.06
492.092	1117.06
492.31	1060.06
492.527	1069.06
492.745	1061.06
492.963	1065.06
493.18	1054.06
493.398	1074.06
493.615	1084.06
493.833	1058.06
494.05	1074.06
494.268	1097.06
494.485	1081.06
494.703	1094.06
494.92	1092.06
495.138	1076.06
495.355	1061.06
495.573	1090.06
495.79	1089.06
496.008	1081.06
496.225	1122.06
496.442	1130.06
496.66	1134.06
496.877	1121.06
497.094	1149.06
497.312	1162.06
497.529	1188.06
497.746	1209.06
497.963	1210.06
498.181	1248.06
498.398	1326.06
498.615	1334.06
498.832	1378.06
499.049	1440.06
499.267	1544.06
499.484	1661.06
499.701	1762.06
499.918	1858.06
500.135	2010.06
500.352	2154.06
500.569	2195.06
500.786	2233.06
501.003	2140.06
501.22	1958.06
501.437	1824.06
501.654	1692.06
501.871	1552.06
502.088	1486.06
502.305	1422.06
502.522	1417.06
502.739	1368.06
502.956	1295.06
503.172	1250.06
503.389	1234.06
503.606	1211.06
503.823	1174.06
504.04	1181.06
504.256	1166.06
504.473	1147.06
504.69	1174.06
504.907	1160.06
505.123	1117.06
505.34	1102.06
505.557	1065.06
505.773	1035.06
505.99	1026.06
506.207	980.06
506.423	999.06
506.64	970.06
506.856	964.06
507.073	983.06
507.289	996.06
507.506	986.06
507.722	956.06
507.939	951.06
508.155	939.06
508.372	923.06
508.588	932.06
508.805	937.06
509.021	932.06
509.238	896.06
509.454	905.06
509.67	908.06
509.887	900.06
510.103	878.06
510.319	884.06
510.536	864.06
510.752	869.06
510.968	869.06
511.184	889.06
511.401	871.06
511.617	873.06
511.833	859.06
512.049	859.06
512.265	855.06
512.481	844.06
512.698	868.06
512.914	887.06
513.13	893.06
513.346	874.06
513.562	864.06
513.778	859.06
513.994	866.06
514.21	885.06
514.426	854.06
514.642	866.06
514.858	873.06
515.074	889.06
515.29	883.06
515.506	888.06
515.721	901.06
515.937	914.06
516.153	902.06
516.369	904.06
516.585	907.06
516.801	969.06
517.016	1000.06
517.232	1022.06
517.448	1040.06
517.664	1034.06
517.879	1061.06
518.095	1058.06
518.311	1003.06
518.527	978.06
518.742	973.06
518.958	972.06
519.173	938.06
519.389	943.06
519.605	933.06
519.82	893.06
520.036	917.06
520.251	877.06
520.467	871.06
520.682	868.06
520.898	842.06
521.113	847.06
521.329	828.06
521.544	828.06
521.76	818.06
521.975	855.06
522.19	835.06
522.406	826.06
522.621	832.06
522.836	833.06
523.052	789.06
523.267	808.06
523.482	792.06
523.698	794.06
523.913	757.06
524.128	806.06
524.343	801.06
524.559	798.06
524.774	757.06
524.989	809.06
525.204	792.06
525.419	795.06
525.634	788.06
525.849	799.06
526.064	790.06
526.28	782.06
526.495	755.06
526.71	770.06
526.925	775.06
527.14	764.06
527.355	763.06
527.57	793.06
527.785	755.06
527.999	770.06
528.214	770.06
528.429	765.06
528.644	773.06
528.859	798.06
529.074	783.06
529.289	751.06
529.503	793.06
529.718	767.06
529.933	742.06
530.148	735.06
530.363	791.06
530.577	758.06
530.792	743.06
531.007	745.06
531.221	748.06
531.436	743.06
531.651	754.06
531.865	734.06
532.08	734.06
532.295	762.06
532.509	748.06
532.724	770.06
532.938	782.06
533.153	751.06
533.367	758.06
533.582	735.06
533.796	733.06
534.011	729.06
534.225	727.06
534.44	738.06
534.654	746.06
534.868	734.06
535.083	740.06
535.297	728.06
535.511	739.06
535.726	739.06
535.94	745.06
536.154	744.06
536.369	729.06
536.583	721.06
536.797	696.06
537.011	719.06
537.225	691.06
537.44	698.06
537.654	712.06
537.868	713.06
538.082	711.06
538.296	700.06
538.51	678.06
538.724	714.06
538.938	714.06
539.153	711.06
539.367	708.06
539.581	698.06
539.795	692.06
540.009	692.06
540.222	694.06
540.436	690.06
540.65	692.06
540.864	711.06
541.078	666.06
541.292	698.06
541.506	679.06
541.72	698.06
541.934	717.06
542.147	701.06
542.361	706.06
542.575	682.06
542.789	678.06
543.002	696.06
543.216	681.06
543.43	692.06
543.644	676.06
543.857	693.06
544.071	684.06
544.285	692.06
544.498	696.06
544.712	686.06
544.925	718.06
545.139	660.06
545.352	704.06
545.566	726.06
545.779	698.06
545.993	712.06
546.206	679.06
546.42	698.06
546.633	708.06
546.847	712.06
547.06	710.06
547.274	709.06
547.487	702.06
547.7	705.06
547.914	709.06
548.127	696.06
548.34	687.06
548.554	685.06
548.767	686.06
548.98	701.06
549.193	694.06
549.407	687.06
549.62	693.06
549.833	712.06
550.046	725.06
550.259	703.06
550.473	652.06
550.686	692.06
550.899	691.06
551.112	690.06
551.325	677.06
551.538	676.06
551.751	672.06
551.964	661.06
552.177	706.06
552.39	695.06
552.603	698.06
552.816	724.06
553.029	723.06
553.242	709.06
553.455	700.06
553.667	714.06
553.88	721.06
554.093	700.06
554.306	707.06
554.519	674.06
554.732	648.06
554.944	644.06
555.157	652.06
555.37	646.06
555.583	649.06
555.795	656.06
556.008	637.06
556.221	617.06
556.433	607.06
556.646	609.06
556.859	625.06
557.071	611.06
557.284	604.06
557.496	610.06
557.709	586.06
557.921	612.06
558.134	604.06
558.346	580.06
558.559	612.06
558.771	618.06
558.984	599.06
559.196	597.06
559.409	582.06
559.621	606.06
559.833	583.06
560.046	580.06
560.258	588.06
560.47	593.06
560.683	592.06
560.895	590.06
561.107	582.06
561.32	595.06
561.532	570.06
561.744	587.06
561.956	578.06
562.168	587.06
562.381	559.06
562.593	582.06
562.805	608.06
563.017	583.06
563.229	573.06
563.441	579.06
563.653	592.06
563.865	594.06
564.077	580.06
564.289	591.06
564.501	615.06
564.713	596.06
564.925	596.06
565.137	637.06
565.349	609.06
565.561	629.06
565.773	634.06
565.985	656.06
566.197	687.06
566.408	710.06
566.62	721.06
566.832	766.06
567.044	764.06
567.255	779.06
567.467	782.06
567.679	812.06
567.891	846.06
568.102	866.06
568.314	823.06
568.526	747.06
568.737	742.06
568.949	679.06
569.161	660.06
569.372	630.06
569.584	608.06
569.795	578.06
570.007	564.06
570.218	557.06
570.43	575.06
570.641	573.06
570.853	560.06
571.064	552.06
571.276	596.06
571.487	554.06
571.698	534.06
571.91	524.06
572.121	529.06
572.333	516.06
572.544	522.06
572.755	517.06
572.966	490.06
573.178	494.06
573.389	469.06
573.6	485.06
573.811	462.06
574.023	470.06
574.234	482.06
574.445	443.06
574.656	472.06
574.867	444.06
575.078	482.06
575.289	476.06
575.501	462.06
575.712	473.06
575.923	443.06
576.134	461.06
576.345	457.06
576.556	439.06
576.767	445.06
576.978	439.06
577.188	454.06
577.399	443.06
577.61	443.06
577.821	434.06
578.032	415.06
578.243	448.06
578.454	439.06
578.665	428.06
578.875	426.06
579.086	407.06
579.297	438.06
579.508	424.06
579.718	408.06
579.929	415.06
580.14	413.06
580.35	413.06
580.561	404.06
580.772	422.06
580.982	431.06
581.193	420.06
581.403	413.06
581.614	394.06
581.825	408.06
582.035	416.06
582.246	407.06
582.456	407.06
582.667	414.06
582.877	416.06
583.087	387.06
583.298	378.06
583.508	392.06
583.719	397.06
583.929	395.06
584.139	394.06
584.35	393.06
584.56	392.06
584.77	399.06
584.981	398.06
585.191	391.06
585.401	380.06
585.611	373.06
585.821	383.06
586.032	409.06
586.242	378.06
586.452	376.06
586.662	396.06
586.872	382.06
587.082	391.06
587.292	391.06
587.502	391.06
587.713	368.06
587.923	373.06
588.133	380.06
588.343	367.06
588.553	363.06
588.762	385.06
588.972	378.06
589.182	444.06
589.392	419.06
589.602	388.06
589.812	429.06
590.022	390.06
590.232	389.06
590.441	396.06
590.651	371.06
590.861	370.06
591.071	386.06
591.281	404.06
591.49	380.06
591.7	376.06
591.91	376.06
592.119	402.06
592.329	398.06
592.539	387.06
592.748	387.06
592.958	399.06
593.167	426.06
593.377	413.06
593.587	425.06
593.796	429.06
594.006	423.06
594.215	412.06
594.424	410.06
594.634	404.06
594.843	412.06
595.053	417.06
595.262	378.06
595.472	375.06
595.681	388.06
595.89	370.06
596.1	377.06
596.309	357.06
596.518	361.06
596.727	356.06
596.937	334.06
597.146	340.06
597.355	352.06
597.564	332.06
597.774	339.06
597.983	331.06
598.192	337.06
598.401	349.06
598.61	332.06
598.819	322.06
599.028	338.06
599.237	330.06
599.446	333.06
599.655	334.06
599.864	341.06
600.073	322.06
600.282	316.06
600.491	312.06
600.7	333.06
600.909	325.06
601.118	296.06
601.327	302.06
601.536	304.06
601.745	297.06
601.953	301.06
602.162	317.06
602.371	322.06
602.58	320.06
602.789	314.06
602.997	311.06
603.206	303.06
603.415	325.06
603.623	316.06
603.832	302.06
604.041	304.06
604.249	294.06
604.458	286.06
604.666	293.06
604.875	303.06
605.084	294.06
605.292	286.06
605.501	296.06
605.709	287.06
605.918	292.06
606.126	299.06
606.334	287.06
606.543	294.06
606.751	298.06
606.96	284.06
607.168	302.06
607.376	300.06
607.585	299.06
607.793	295.06
608.001	296.06
608.21	299.06
608.418	293.06
608.626	305.06
608.834	266.06
609.043	290.06
609.251	280.06
609.459	302.06
609.667	292.06
609.875	292.06
610.083	294.06
610.291	278.06
610.499	278.06
610.707	282.06
610.916	268.06
611.124	294.06
611.332	280.06
611.54	277.06
611.748	275.06
611.955	269.06
612.163	278.06
612.371	272.06
612.579	274.06
612.787	290.06
612.995	289.06
613.203	278.06
613.411	277.06
613.618	272.06
613.826	278.06
614.034	264.06
614.242	265.06
614.449	275.06
614.657	268.06
614.865	261.06
615.072	295.06
615.28	264.06
615.488	254.06
615.695	244.06
615.903	270.06
616.111	280.06
616.318	277.06
616.526	288.06
616.733	281.06
616.941	261.06
617.148	280.06
617.356	281.06
617.563	264.06
617.771	256.06
617.978	273.06
618.185	262.06
618.393	266.06
618.6	262.06
618.807	271.06
619.015	262.06
619.222	270.06
619.429	262.06
619.637	270.06
619.844	260.06
620.051	256.06
620.258	252.06
620.466	244.06
620.673	246.06
620.88	247.06
621.087	247.06
621.294	265.06
621.501	269.06
621.708	266.06
621.915	257.06
622.122	254.06
622.329	252.06
622.536	246.06
622.743	259.06
622.95	238.06
623.157	251.06
623.364	227.06
623.571	244.06
623.778	227.06
623.985	265.06
624.192	262.06
624.399	255.06
624.606	248.06
624.812	226.06
625.019	216.06
625.226	227.06
625.433	233.06
625.639	230.06
625.846	227.06
626.053	250.06
626.259	235.06
626.466	237.06
626.673	219.06
626.879	223.06
627.086	230.06
627.293	226.06
627.499	235.06
627.706	231.06
627.912	246.06
628.119	227.06
628.325	228.06
628.532	223.06
628.738	226.06
628.945	216.06
629.151	219.06
629.357	229.06
629.564	223.06
629.77	205.06
629.976	211.06
630.183	218.06
630.389	222.06
630.595	221.06
630.802	231.06
631.008	227.06
631.214	220.06
631.42	213.06
631.627	234.06
631.833	210.06
632.039	198.06
632.245	209.06
632.451	196.06
632.657	205.06
632.863	217.06
633.069	228.06
633.275	207.06
633.481	194.06
633.688	213.06
633.893	207.06
634.099	210.06
634.305	198.06
634.511	215.06
634.717	192.06
634.923	210.06
635.129	203.06
635.335	211.06
635.541	199.06
635.747	220.06
635.952	209.06
636.158	191.06
636.364	194.06
636.57	199.06
636.775	204.06
636.981	200.06
637.187	206.06
637.392	202.06
637.598	203.06
637.804	195.06
638.009	202.06
638.215	201.06
638.421	205.06
638.626	207.06
638.832	199.06
639.037	195.06
639.243	194.06
639.448	209.06
639.654	200.06
639.859	206.06
640.065	196.06
640.27	203.06
640.475	190.06
640.681	190.06
640.886	182.06
641.091	208.06
641.297	200.06
641.502	192.06
641.707	196.06
641.913	205.06
642.118	203.06
642.323	202.06
642.528	197.06
642.733	208.06
642.939	188.06
643.144	192.06
643.349	160.06
643.554	174.06
643.759	194.06
643.964	184.06
644.169	199.06
644.374	200.06
644.579	183.06
644.784	185.06
644.989	189.06
645.194	198.06
645.399	199.06
645.604	171.06
645.809	186.06
646.014	184.06
646.219	175.06
646.423	175.06
646.628	189.06
646.833	177.06
647.038	187.06
647.243	187.06
647.447	183.06
647.652	200.06
647.857	177.06
648.062	199.06
648.266	186.06
648.471	189.06
648.676	199.06
648.88	191.06
649.085	190.06
649.289	180.06
649.494	189.06
649.698	173.06
649.903	172.06
650.107	183.06
650.312	180.06
650.516	175.06
650.721	166.06
650.925	178.06
651.13	180.06
651.334	182.06
651.539	186.06
651.743	190.06
651.947	174.06
652.152	180.06
652.356	170.06
652.56	166.06
652.764	173.06
652.969	166.06
653.173	156.06
653.377	159.06
653.581	170.06
653.785	154.06
653.99	160.06
654.194	154.06
654.398	166.06
654.602	139.06
654.806	159.06
655.01	164.06
655.214	167.06
655.418	157.06
655.622	151.06
655.826	157.06
656.03	144.06
656.234	156.06
656.438	132.06
656.642	156.06
656.846	149.06
657.049	135.06
657.253	141.06
657.457	125.06
657.661	132.06
657.865	133.06
658.068	128.06
658.272	124.06
658.476	125.06
658.68	114.06
658.883	106.06
659.087	105.06
659.291	99.06
659.494	101.06
659.698	115.06
659.901	117.06
660.105	103.06
660.309	102.06
660.512	99.06
660.716	111.06
660.919	99.06
661.123	111.06
661.326	110.06
661.53	87.06
661.733	99.06
661.936	102.06
662.14	103.06
662.343	94.06
662.546	98.06
662.75	86.06
662.953	88.06
663.156	90.06
663.36	75.06
663.563	89.06
663.766	91.06
663.969	88.06
664.173	67.06
664.376	90.06
664.579	85.06
664.782	89.06
664.985	85.06
665.188	93.06
665.391	75.06
665.594	80.06
665.797	93.06
666	101.06
666.203	85.06
666.406	86.06
666.609	86.06
666.812	89.06
667.015	95.06
667.218	86.06
667.421	90.06
667.624	76.06
667.827	79.06
668.03	79.06
668.232	98.06
668.435	90.06
668.638	93.06
668.841	90.06
669.043	77.06
669.246	98.06
669.449	93.06
669.651	87.06
669.854	79.06
670.057	78.06
670.259	77.06
670.462	76.06
670.665	77.06
670.867	81.06
671.07	74.06
671.272	69.06
671.475	96.06
671.677	79.06
671.88	86.06
672.082	76.06
672.284	94.06
672.487	75.06
672.689	76.06
672.892	89.06
