Data from NiCl2@0.125M.TitratingCurve.Agarose3%dH2O.NegLispCup.LampEnergy10.LIBS07252019_HRD10591_18-27-34-574.txt Node
Date: Thu Jul 25 18:27:34 EDT 2019
User: cochatt
Spectrometer: HR+D1059
Trigger mode: 1
Integration Time (sec): 1.000000E-1
Scans to average: 1
Electric dark correction enabled: true
Nonlinearity correction enabled: false
Boxcar width: 0
XAxis mode: Wavelengths
Number of Pixels in Spectrum: 2048
>>>>>Begin Spectral Data<<<<<
223.165	-11.75
223.4	-11.75
223.635	-11.75
223.869	-11.75
224.104	-22.75
224.338	-8.75
224.573	-16.75
224.808	-11.75
225.042	0.25
225.277	-4.75
225.511	-5.75
225.746	13.25
225.98	-7.75
226.215	15.25
226.449	14.25
226.683	14.25
226.918	25.25
227.152	19.25
227.387	37.25
227.621	29.25
227.856	29.25
228.09	41.25
228.324	59.25
228.559	63.25
228.793	78.25
229.027	102.25
229.262	107.25
229.496	110.25
229.73	114.25
229.964	124.25
230.199	130.25
230.433	135.25
230.667	128.25
230.901	132.25
231.136	130.25
231.37	142.25
231.604	143.25
231.838	131.25
232.072	132.25
232.306	138.25
232.541	135.25
232.775	145.25
233.009	125.25
233.243	150.25
233.477	143.25
233.711	135.25
233.945	131.25
234.179	155.25
234.413	134.25
234.647	143.25
234.881	148.25
235.115	151.25
235.349	133.25
235.583	148.25
235.817	148.25
236.051	149.25
236.285	152.25
236.519	137.25
236.753	145.25
236.987	168.25
237.221	159.25
237.455	148.25
237.689	148.25
237.922	158.25
238.156	166.25
238.39	165.25
238.624	157.25
238.858	151.25
239.091	143.25
239.325	170.25
239.559	154.25
239.793	172.25
240.027	161.25
240.26	169.25
240.494	180.25
240.728	176.25
240.961	188.25
241.195	179.25
241.429	167.25
241.662	167.25
241.896	170.25
242.13	180.25
242.363	181.25
242.597	189.25
242.83	195.25
243.064	198.25
243.298	190.25
243.531	198.25
243.765	217.25
243.998	191.25
244.232	195.25
244.465	190.25
244.699	184.25
244.932	213.25
245.166	213.25
245.399	221.25
245.633	217.25
245.866	200.25
246.099	218.25
246.333	208.25
246.566	197.25
246.8	226.25
247.033	207.25
247.266	226.25
247.5	219.25
247.733	225.25
247.966	208.25
248.2	212.25
248.433	240.25
248.666	210.25
248.899	236.25
249.133	229.25
249.366	241.25
249.599	244.25
249.832	229.25
250.066	225.25
250.299	244.25
250.532	235.25
250.765	242.25
250.998	238.25
251.231	248.25
251.465	239.25
251.698	242.25
251.931	253.25
252.164	235.25
252.397	245.25
252.63	242.25
252.863	258.25
253.096	275.25
253.329	248.25
253.562	248.25
253.795	242.25
254.028	259.25
254.261	259.25
254.494	262.25
254.727	250.25
254.96	249.25
255.193	250.25
255.426	263.25
255.659	270.25
255.892	287.25
256.124	282.25
256.357	274.25
256.59	287.25
256.823	280.25
257.056	265.25
257.289	256.25
257.521	270.25
257.754	278.25
257.987	273.25
258.22	287.25
258.452	260.25
258.685	285.25
258.918	275.25
259.151	279.25
259.383	280.25
259.616	285.25
259.849	289.25
260.081	312.25
260.314	298.25
260.547	304.25
260.779	296.25
261.012	291.25
261.244	301.25
261.477	314.25
261.71	318.25
261.942	298.25
262.175	303.25
262.407	314.25
262.64	298.25
262.872	313.25
263.105	312.25
263.337	310.25
263.57	309.25
263.802	302.25
264.035	304.25
264.267	319.25
264.499	315.25
264.732	315.25
264.964	319.25
265.197	348.25
265.429	315.25
265.661	312.25
265.894	321.25
266.126	344.25
266.358	327.25
266.591	321.25
266.823	331.25
267.055	309.25
267.287	343.25
267.52	330.25
267.752	339.25
267.984	338.25
268.216	335.25
268.448	344.25
268.681	334.25
268.913	345.25
269.145	327.25
269.377	339.25
269.609	370.25
269.841	346.25
270.073	349.25
270.306	341.25
270.538	361.25
270.77	354.25
271.002	333.25
271.234	366.25
271.466	354.25
271.698	348.25
271.93	343.25
272.162	387.25
272.394	359.25
272.626	365.25
272.858	368.25
273.09	356.25
273.322	380.25
273.553	376.25
273.785	374.25
274.017	363.25
274.249	372.25
274.481	378.25
274.713	375.25
274.945	391.25
275.176	391.25
275.408	371.25
275.64	394.25
275.872	396.25
276.104	403.25
276.335	408.25
276.567	386.25
276.799	384.25
277.031	390.25
277.262	392.25
277.494	384.25
277.726	412.25
277.957	410.25
278.189	412.25
278.421	399.25
278.652	409.25
278.884	401.25
279.115	430.25
279.347	403.25
279.579	400.25
279.81	404.25
280.042	406.25
280.273	423.25
280.505	419.25
280.736	411.25
280.968	416.25
281.199	415.25
281.431	421.25
281.662	432.25
281.894	403.25
282.125	424.25
282.356	421.25
282.588	438.25
282.819	416.25
283.051	439.25
283.282	423.25
283.513	434.25
283.745	439.25
283.976	437.25
284.207	434.25
284.439	437.25
284.67	406.25
284.901	462.25
285.132	444.25
285.364	444.25
285.595	445.25
285.826	426.25
286.057	442.25
286.288	440.25
286.52	446.25
286.751	452.25
286.982	447.25
287.213	471.25
287.444	461.25
287.675	484.25
287.906	471.25
288.138	463.25
288.369	460.25
288.6	469.25
288.831	463.25
289.062	463.25
289.293	469.25
289.524	464.25
289.755	467.25
289.986	475.25
290.217	451.25
290.448	476.25
290.679	463.25
290.91	477.25
291.141	471.25
291.371	479.25
291.602	470.25
291.833	472.25
292.064	496.25
292.295	486.25
292.526	483.25
292.757	472.25
292.987	502.25
293.218	491.25
293.449	501.25
293.68	508.25
293.91	470.25
294.141	480.25
294.372	467.25
294.603	479.25
294.833	475.25
295.064	510.25
295.295	466.25
295.525	482.25
295.756	503.25
295.987	500.25
296.217	492.25
296.448	507.25
296.679	485.25
296.909	501.25
297.14	500.25
297.37	511.25
297.601	525.25
297.831	508.25
298.062	502.25
298.292	525.25
298.523	539.25
298.753	553.25
298.984	512.25
299.214	537.25
299.445	516.25
299.675	527.25
299.905	534.25
300.136	509.25
300.366	508.25
300.597	542.25
300.827	538.25
301.057	550.25
301.288	551.25
301.518	555.25
301.748	559.25
301.979	549.25
302.209	536.25
302.439	549.25
302.669	567.25
302.9	536.25
303.13	514.25
303.36	539.25
303.59	550.25
303.82	531.25
304.051	538.25
304.281	552.25
304.511	560.25
304.741	558.25
304.971	525.25
305.201	554.25
305.431	547.25
305.661	566.25
305.891	526.25
306.121	547.25
306.352	568.25
306.582	528.25
306.812	530.25
307.042	536.25
307.272	537.25
307.502	540.25
307.731	543.25
307.961	525.25
308.191	520.25
308.421	533.25
308.651	528.25
308.881	529.25
309.111	536.25
309.341	554.25
309.571	506.25
309.8	522.25
310.03	532.25
310.26	531.25
310.49	532.25
310.72	562.25
310.949	542.25
311.179	516.25
311.409	533.25
311.639	533.25
311.868	551.25
312.098	555.25
312.328	566.25
312.557	566.25
312.787	552.25
313.017	557.25
313.246	563.25
313.476	566.25
313.706	562.25
313.935	584.25
314.165	587.25
314.394	597.25
314.624	548.25
314.853	586.25
315.083	568.25
315.312	573.25
315.542	573.25
315.771	577.25
316.001	566.25
316.23	548.25
316.46	557.25
316.689	555.25
316.919	564.25
317.148	564.25
317.377	578.25
317.607	546.25
317.836	527.25
318.065	560.25
318.295	575.25
318.524	551.25
318.753	558.25
318.983	546.25
319.212	552.25
319.441	550.25
319.67	570.25
319.9	539.25
320.129	559.25
320.358	543.25
320.587	552.25
320.816	567.25
321.046	548.25
321.275	574.25
321.504	582.25
321.733	566.25
321.962	583.25
322.191	572.25
322.42	572.25
322.649	583.25
322.878	546.25
323.108	568.25
323.337	600.25
323.566	564.25
323.795	576.25
324.024	576.25
324.253	584.25
324.482	574.25
324.71	566.25
324.939	607.25
325.168	571.25
325.397	572.25
325.626	592.25
325.855	617.25
326.084	623.25
326.313	615.25
326.542	620.25
326.77	608.25
326.999	610.25
327.228	606.25
327.457	596.25
327.686	617.25
327.914	616.25
328.143	604.25
328.372	620.25
328.6	611.25
328.829	611.25
329.058	613.25
329.287	625.25
329.515	632.25
329.744	614.25
329.972	635.25
330.201	646.25
330.43	642.25
330.658	621.25
330.887	637.25
331.115	659.25
331.344	653.25
331.572	642.25
331.801	676.25
332.03	670.25
332.258	698.25
332.486	704.25
332.715	718.25
332.943	750.25
333.172	784.25
333.4	849.25
333.629	820.25
333.857	864.25
334.085	815.25
334.314	825.25
334.542	816.25
334.771	770.25
334.999	770.25
335.227	770.25
335.455	781.25
335.684	782.25
335.912	738.25
336.14	722.25
336.369	733.25
336.597	740.25
336.825	729.25
337.053	715.25
337.281	709.25
337.51	728.25
337.738	705.25
337.966	695.25
338.194	652.25
338.422	682.25
338.65	660.25
338.878	705.25
339.106	664.25
339.334	677.25
339.562	679.25
339.79	651.25
340.018	639.25
340.246	640.25
340.474	640.25
340.702	632.25
340.93	631.25
341.158	650.25
341.386	657.25
341.614	636.25
341.842	634.25
342.07	651.25
342.298	642.25
342.526	628.25
342.754	613.25
342.981	636.25
343.209	653.25
343.437	678.25
343.665	742.25
343.893	772.25
344.12	806.25
344.348	758.25
344.576	701.25
344.804	695.25
345.031	683.25
345.259	676.25
345.487	647.25
345.714	646.25
345.942	638.25
346.17	611.25
346.397	646.25
346.625	638.25
346.853	651.25
347.08	607.25
347.308	636.25
347.535	628.25
347.763	620.25
347.99	642.25
348.218	623.25
348.445	635.25
348.673	619.25
348.9	630.25
349.128	624.25
349.355	612.25
349.583	609.25
349.81	599.25
350.037	616.25
350.265	602.25
350.492	619.25
350.72	600.25
350.947	619.25
351.174	599.25
351.402	599.25
351.629	600.25
351.856	599.25
352.083	610.25
352.311	593.25
352.538	601.25
352.765	599.25
352.992	600.25
353.22	599.25
353.447	593.25
353.674	576.25
353.901	600.25
354.128	622.25
354.355	585.25
354.583	583.25
354.81	587.25
355.037	596.25
355.264	613.25
355.491	594.25
355.718	587.25
355.945	596.25
356.172	596.25
356.399	582.25
356.626	605.25
356.853	592.25
357.08	582.25
357.307	618.25
357.534	592.25
357.761	588.25
357.988	569.25
358.215	599.25
358.441	575.25
358.668	588.25
358.895	610.25
359.122	586.25
359.349	589.25
359.576	627.25
359.802	607.25
360.029	601.25
360.256	589.25
360.483	580.25
360.709	588.25
360.936	597.25
361.163	598.25
361.39	612.25
361.616	589.25
361.843	582.25
362.07	593.25
362.296	610.25
362.523	591.25
362.749	590.25
362.976	585.25
363.203	591.25
363.429	601.25
363.656	591.25
363.882	593.25
364.109	607.25
364.335	583.25
364.562	572.25
364.788	601.25
365.015	584.25
365.241	591.25
365.468	582.25
365.694	602.25
365.92	591.25
366.147	602.25
366.373	579.25
366.599	590.25
366.826	596.25
367.052	583.25
367.278	598.25
367.505	603.25
367.731	604.25
367.957	598.25
368.184	602.25
368.41	586.25
368.636	602.25
368.862	613.25
369.089	620.25
369.315	624.25
369.541	612.25
369.767	620.25
369.993	634.25
370.219	632.25
370.445	629.25
370.672	619.25
370.898	614.25
371.124	636.25
371.35	651.25
371.576	646.25
371.802	646.25
372.028	642.25
372.254	631.25
372.48	674.25
372.706	664.25
372.932	671.25
373.158	681.25
373.384	655.25
373.61	661.25
373.835	664.25
374.061	636.25
374.287	662.25
374.513	665.25
374.739	668.25
374.965	692.25
375.191	723.25
375.416	704.25
375.642	688.25
375.868	707.25
376.094	682.25
376.319	654.25
376.545	664.25
376.771	650.25
376.997	647.25
377.222	643.25
377.448	661.25
377.674	630.25
377.899	646.25
378.125	677.25
378.35	635.25
378.576	635.25
378.802	651.25
379.027	633.25
379.253	657.25
379.478	626.25
379.704	646.25
379.929	649.25
380.155	636.25
380.38	618.25
380.606	642.25
380.831	651.25
381.057	643.25
381.282	648.25
381.507	637.25
381.733	641.25
381.958	663.25
382.184	674.25
382.409	682.25
382.634	680.25
382.86	679.25
383.085	678.25
383.31	703.25
383.535	706.25
383.761	712.25
383.986	727.25
384.211	742.25
384.436	752.25
384.662	739.25
384.887	780.25
385.112	758.25
385.337	772.25
385.562	740.25
385.787	792.25
386.013	801.25
386.238	778.25
386.463	808.25
386.688	788.25
386.913	787.25
387.138	778.25
387.363	754.25
387.588	777.25
387.813	773.25
388.038	780.25
388.263	760.25
388.488	774.25
388.713	780.25
388.938	759.25
389.163	774.25
389.387	758.25
389.612	723.25
389.837	754.25
390.062	756.25
390.287	765.25
390.512	765.25
390.736	777.25
390.961	761.25
391.186	756.25
391.411	809.25
391.636	852.25
391.86	851.25
392.085	885.25
392.31	873.25
392.534	869.25
392.759	833.25
392.984	821.25
393.208	814.25
393.433	819.25
393.658	843.25
393.882	812.25
394.107	858.25
394.331	821.25
394.556	804.25
394.78	832.25
395.005	851.25
395.229	840.25
395.454	876.25
395.678	890.25
395.903	888.25
396.127	865.25
396.352	846.25
396.576	837.25
396.801	809.25
397.025	836.25
397.249	857.25
397.474	861.25
397.698	859.25
397.922	894.25
398.147	838.25
398.371	870.25
398.595	918.25
398.82	990.25
399.044	1007.25
399.268	1116.25
399.492	1322.25
399.717	1502.25
399.941	1532.25
400.165	1296.25
400.389	1169.25
400.613	1096.25
400.837	1005.25
401.062	991.25
401.286	994.25
401.51	978.25
401.734	964.25
401.958	974.25
402.182	976.25
402.406	1018.25
402.63	1010.25
402.854	1047.25
403.078	1074.25
403.302	1103.25
403.526	1103.25
403.75	1150.25
403.974	1140.25
404.198	1147.25
404.422	1150.25
404.645	1120.25
404.869	1104.25
405.093	1133.25
405.317	1082.25
405.541	1080.25
405.765	1079.25
405.988	1080.25
406.212	1106.25
406.436	1065.25
406.66	1113.25
406.883	1128.25
407.107	1184.25
407.331	1242.25
407.555	1289.25
407.778	1311.25
408.002	1238.25
408.226	1200.25
408.449	1185.25
408.673	1149.25
408.896	1123.25
409.12	1117.25
409.344	1134.25
409.567	1121.25
409.791	1104.25
410.014	1092.25
410.238	1120.25
410.461	1111.25
410.685	1075.25
410.908	1074.25
411.132	1055.25
411.355	1026.25
411.578	1028.25
411.802	1031.25
412.025	1053.25
412.249	1042.25
412.472	1034.25
412.695	1012.25
412.919	1009.25
413.142	986.25
413.365	970.25
413.589	975.25
413.812	953.25
414.035	964.25
414.258	976.25
414.482	1005.25
414.705	1011.25
414.928	1012.25
415.151	968.25
415.374	984.25
415.597	967.25
415.821	952.25
416.044	983.25
416.267	960.25
416.49	957.25
416.713	978.25
416.936	988.25
417.159	964.25
417.382	947.25
417.605	963.25
417.828	965.25
418.051	979.25
418.274	999.25
418.497	977.25
418.72	993.25
418.943	1023.25
419.166	1058.25
419.389	1132.25
419.611	1136.25
419.834	1048.25
420.057	1034.25
420.28	963.25
420.503	970.25
420.726	990.25
420.948	964.25
421.171	957.25
421.394	988.25
421.617	985.25
421.839	942.25
422.062	979.25
422.285	968.25
422.507	977.25
422.73	988.25
422.953	983.25
423.175	1018.25
423.398	1034.25
423.621	1011.25
423.843	1013.25
424.066	1064.25
424.288	1036.25
424.511	1052.25
424.733	1023.25
424.956	1002.25
425.178	990.25
425.401	997.25
425.623	954.25
425.846	927.25
426.068	949.25
426.291	931.25
426.513	934.25
426.735	931.25
426.958	912.25
427.18	918.25
427.402	901.25
427.625	912.25
427.847	858.25
428.069	914.25
428.292	893.25
428.514	869.25
428.736	858.25
428.958	876.25
429.181	861.25
429.403	858.25
429.625	868.25
429.847	869.25
430.069	875.25
430.292	841.25
430.514	846.25
430.736	856.25
430.958	859.25
431.18	886.25
431.402	842.25
431.624	860.25
431.846	874.25
432.068	882.25
432.29	833.25
432.512	859.25
432.734	883.25
432.956	896.25
433.178	898.25
433.4	897.25
433.622	879.25
433.844	870.25
434.066	916.25
434.287	891.25
434.509	894.25
434.731	938.25
434.953	974.25
435.175	959.25
435.397	990.25
435.618	951.25
435.84	898.25
436.062	874.25
436.284	880.25
436.505	876.25
436.727	860.25
436.949	869.25
437.17	859.25
437.392	830.25
437.614	869.25
437.835	810.25
438.057	837.25
438.278	824.25
438.5	832.25
438.721	851.25
438.943	868.25
439.165	827.25
439.386	831.25
439.608	859.25
439.829	869.25
440.05	872.25
440.272	899.25
440.493	899.25
440.715	883.25
440.936	892.25
441.158	913.25
441.379	970.25
441.6	971.25
441.822	1040.25
442.043	989.25
442.264	962.25
442.486	950.25
442.707	958.25
442.928	960.25
443.149	940.25
443.371	962.25
443.592	993.25
443.813	984.25
444.034	988.25
444.255	987.25
444.476	1066.25
444.698	1147.25
444.919	1179.25
445.14	1272.25
445.361	1152.25
445.582	1011.25
445.803	958.25
446.024	933.25
446.245	916.25
446.466	894.25
446.687	922.25
446.908	910.25
447.129	857.25
447.35	873.25
447.571	843.25
447.792	812.25
448.013	835.25
448.234	800.25
448.455	804.25
448.675	783.25
448.896	811.25
449.117	810.25
449.338	801.25
449.559	784.25
449.779	804.25
450	812.25
450.221	795.25
450.442	805.25
450.662	833.25
450.883	806.25
451.104	829.25
451.324	840.25
451.545	815.25
451.766	802.25
451.986	826.25
452.207	795.25
452.428	809.25
452.648	811.25
452.869	794.25
453.089	765.25
453.31	789.25
453.53	795.25
453.751	778.25
453.971	757.25
454.192	761.25
454.412	750.25
454.633	794.25
454.853	792.25
455.073	768.25
455.294	777.25
455.514	752.25
455.734	770.25
455.955	720.25
456.175	717.25
456.395	728.25
456.616	736.25
456.836	772.25
457.056	748.25
457.276	716.25
457.497	764.25
457.717	747.25
457.937	756.25
458.157	752.25
458.377	785.25
458.598	774.25
458.818	816.25
459.038	805.25
459.258	833.25
459.478	861.25
459.698	940.25
459.918	920.25
460.138	965.25
460.358	1044.25
460.578	1011.25
460.798	1017.25
461.018	1002.25
461.238	999.25
461.458	999.25
461.678	982.25
461.898	1002.25
462.118	1030.25
462.338	1089.25
462.558	1137.25
462.777	1159.25
462.997	1254.25
463.217	1381.25
463.437	1427.25
463.657	1276.25
463.876	1180.25
464.096	1196.25
464.316	1187.25
464.536	1215.25
464.755	1213.25
464.975	1135.25
465.195	1072.25
465.414	1011.25
465.634	941.25
465.854	930.25
466.073	883.25
466.293	900.25
466.512	844.25
466.732	868.25
466.951	823.25
467.171	850.25
467.391	827.25
467.61	818.25
467.829	828.25
468.049	848.25
468.268	813.25
468.488	816.25
468.707	804.25
468.927	794.25
469.146	816.25
469.365	823.25
469.585	830.25
469.804	836.25
470.023	861.25
470.243	863.25
470.462	876.25
470.681	891.25
470.901	874.25
471.12	859.25
471.339	836.25
471.558	821.25
471.777	824.25
471.997	818.25
472.216	806.25
472.435	763.25
472.654	777.25
472.873	776.25
473.092	788.25
473.311	798.25
473.53	799.25
473.749	757.25
473.968	772.25
474.187	743.25
474.406	780.25
474.625	778.25
474.844	794.25
475.063	782.25
475.282	788.25
475.501	801.25
475.72	820.25
475.939	819.25
476.158	816.25
476.377	818.25
476.596	814.25
476.814	821.25
477.033	800.25
477.252	827.25
477.471	856.25
477.69	889.25
477.908	924.25
478.127	952.25
478.346	944.25
478.564	928.25
478.783	945.25
479.002	985.25
479.22	982.25
479.439	982.25
479.658	993.25
479.876	959.25
480.095	948.25
480.313	1048.25
480.532	1056.25
480.751	1052.25
480.969	1013.25
481.188	972.25
481.406	916.25
481.624	931.25
481.843	884.25
482.061	879.25
482.28	900.25
482.498	878.25
482.717	883.25
482.935	888.25
483.153	895.25
483.372	902.25
483.59	875.25
483.808	908.25
484.027	858.25
484.245	895.25
484.463	904.25
484.681	930.25
484.9	894.25
485.118	938.25
485.336	909.25
485.554	932.25
485.772	918.25
485.99	942.25
486.209	977.25
486.427	943.25
486.645	943.25
486.863	935.25
487.081	917.25
487.299	940.25
487.517	912.25
487.735	920.25
487.953	962.25
488.171	950.25
488.389	931.25
488.607	933.25
488.825	894.25
489.043	918.25
489.261	918.25
489.479	931.25
489.696	930.25
489.914	910.25
490.132	923.25
490.35	941.25
490.568	960.25
490.786	932.25
491.003	941.25
491.221	933.25
491.439	968.25
491.657	931.25
491.874	949.25
492.092	936.25
492.31	968.25
492.527	945.25
492.745	986.25
492.963	973.25
493.18	966.25
493.398	966.25
493.615	951.25
493.833	957.25
494.05	980.25
494.268	980.25
494.485	974.25
494.703	988.25
494.92	972.25
495.138	1000.25
495.355	999.25
495.573	994.25
495.79	991.25
496.008	990.25
496.225	970.25
496.442	990.25
496.66	1036.25
496.877	1036.25
497.094	1066.25
497.312	1069.25
497.529	1069.25
497.746	1140.25
497.963	1115.25
498.181	1176.25
498.398	1229.25
498.615	1305.25
498.832	1414.25
499.049	1511.25
499.267	1653.25
499.484	1817.25
499.701	1954.25
499.918	2177.25
500.135	2508.25
500.352	2877.25
500.569	3023.25
500.786	3055.25
501.003	2780.25
501.22	2482.25
501.437	2207.25
501.654	1944.25
501.871	1727.25
502.088	1556.25
502.305	1436.25
502.522	1415.25
502.739	1337.25
502.956	1319.25
503.172	1246.25
503.389	1168.25
503.606	1098.25
503.823	1131.25
504.04	1114.25
504.256	1145.25
504.473	1185.25
504.69	1192.25
504.907	1158.25
505.123	1077.25
505.34	1031.25
505.557	1010.25
505.773	956.25
505.99	903.25
506.207	919.25
506.423	911.25
506.64	880.25
506.856	890.25
507.073	882.25
507.289	886.25
507.506	863.25
507.722	850.25
507.939	882.25
508.155	835.25
508.372	835.25
508.588	826.25
508.805	831.25
509.021	822.25
509.238	812.25
509.454	833.25
509.67	804.25
509.887	810.25
510.103	786.25
510.319	778.25
510.536	802.25
510.752	788.25
510.968	803.25
511.184	787.25
511.401	792.25
511.617	754.25
511.833	800.25
512.049	801.25
512.265	785.25
512.481	787.25
512.698	778.25
512.914	824.25
513.13	796.25
513.346	782.25
513.562	752.25
513.778	780.25
513.994	787.25
514.21	818.25
514.426	784.25
514.642	819.25
514.858	807.25
515.074	791.25
515.29	822.25
515.506	804.25
515.721	839.25
515.937	874.25
516.153	851.25
516.369	866.25
516.585	873.25
516.801	936.25
517.016	968.25
517.232	1003.25
517.448	1070.25
517.664	1087.25
517.879	1075.25
518.095	1095.25
518.311	1081.25
518.527	1056.25
518.742	995.25
518.958	966.25
519.173	930.25
519.389	890.25
519.605	866.25
519.82	862.25
520.036	835.25
520.251	842.25
520.467	814.25
520.682	801.25
520.898	793.25
521.113	775.25
521.329	781.25
521.544	775.25
521.76	769.25
521.975	755.25
522.19	759.25
522.406	772.25
522.621	750.25
522.836	746.25
523.052	723.25
523.267	748.25
523.482	752.25
523.698	718.25
523.913	723.25
524.128	726.25
524.343	743.25
524.559	732.25
524.774	726.25
524.989	711.25
525.204	719.25
525.419	712.25
525.634	707.25
525.849	724.25
526.064	723.25
526.28	713.25
526.495	703.25
526.71	709.25
526.925	704.25
527.14	694.25
527.355	706.25
527.57	712.25
527.785	714.25
527.999	719.25
528.214	719.25
528.429	716.25
528.644	704.25
528.859	718.25
529.074	718.25
529.289	717.25
529.503	708.25
529.718	703.25
529.933	688.25
530.148	707.25
530.363	702.25
530.577	708.25
530.792	694.25
531.007	687.25
531.221	708.25
531.436	713.25
531.651	703.25
531.865	725.25
532.08	714.25
532.295	710.25
532.509	699.25
532.724	719.25
532.938	711.25
533.153	710.25
533.367	692.25
533.582	706.25
533.796	712.25
534.011	709.25
534.225	695.25
534.44	702.25
534.654	695.25
534.868	695.25
535.083	682.25
535.297	682.25
535.511	689.25
535.726	700.25
535.94	677.25
536.154	676.25
536.369	676.25
536.583	685.25
536.797	659.25
537.011	652.25
537.225	653.25
537.44	641.25
537.654	660.25
537.868	634.25
538.082	629.25
538.296	628.25
538.51	660.25
538.724	645.25
538.938	652.25
539.153	646.25
539.367	626.25
539.581	654.25
539.795	641.25
540.009	643.25
540.222	611.25
540.436	632.25
540.65	641.25
540.864	649.25
541.078	641.25
541.292	645.25
541.506	642.25
541.72	650.25
541.934	643.25
542.147	653.25
542.361	632.25
542.575	642.25
542.789	655.25
543.002	638.25
543.216	615.25
543.43	611.25
543.644	620.25
543.857	642.25
544.071	648.25
544.285	632.25
544.498	662.25
544.712	654.25
544.925	648.25
545.139	631.25
545.352	647.25
545.566	656.25
545.779	657.25
545.993	658.25
546.206	662.25
546.42	646.25
546.633	669.25
546.847	673.25
547.06	656.25
547.274	653.25
547.487	655.25
547.7	663.25
547.914	652.25
548.127	659.25
548.34	649.25
548.554	657.25
548.767	642.25
548.98	664.25
549.193	674.25
549.407	669.25
549.62	686.25
549.833	687.25
550.046	694.25
550.259	664.25
550.473	663.25
550.686	660.25
550.899	648.25
551.112	651.25
551.325	657.25
551.538	667.25
551.751	634.25
551.964	649.25
552.177	675.25
552.39	638.25
552.603	665.25
552.816	698.25
553.029	717.25
553.242	710.25
553.455	716.25
553.667	722.25
553.88	722.25
554.093	699.25
554.306	700.25
554.519	673.25
554.732	656.25
554.944	640.25
555.157	616.25
555.37	613.25
555.583	637.25
555.795	614.25
556.008	589.25
556.221	590.25
556.433	586.25
556.646	597.25
556.859	587.25
557.071	574.25
557.284	571.25
557.496	574.25
557.709	562.25
557.921	581.25
558.134	553.25
558.346	545.25
558.559	555.25
558.771	535.25
558.984	540.25
559.196	555.25
559.409	547.25
559.621	554.25
559.833	535.25
560.046	546.25
560.258	562.25
560.47	541.25
560.683	544.25
560.895	548.25
561.107	529.25
561.32	567.25
561.532	549.25
561.744	547.25
561.956	548.25
562.168	543.25
562.381	557.25
562.593	552.25
562.805	544.25
563.017	567.25
563.229	560.25
563.441	570.25
563.653	548.25
563.865	527.25
564.077	556.25
564.289	563.25
564.501	563.25
564.713	590.25
564.925	570.25
565.137	601.25
565.349	607.25
565.561	635.25
565.773	640.25
565.985	679.25
566.197	690.25
566.408	774.25
566.62	806.25
566.832	876.25
567.044	900.25
567.255	893.25
567.467	914.25
567.679	976.25
567.891	1056.25
568.102	1062.25
568.314	1024.25
568.526	893.25
568.737	827.25
568.949	766.25
569.161	710.25
569.372	648.25
569.584	627.25
569.795	604.25
570.007	573.25
570.218	567.25
570.43	546.25
570.641	557.25
570.853	558.25
571.064	567.25
571.276	584.25
571.487	558.25
571.698	563.25
571.91	508.25
572.121	498.25
572.333	495.25
572.544	482.25
572.755	496.25
572.966	466.25
573.178	470.25
573.389	452.25
573.6	468.25
573.811	454.25
574.023	451.25
574.234	461.25
574.445	451.25
574.656	463.25
574.867	458.25
575.078	462.25
575.289	446.25
575.501	430.25
575.712	441.25
575.923	441.25
576.134	431.25
576.345	408.25
576.556	438.25
576.767	437.25
576.978	431.25
577.188	439.25
577.399	413.25
577.61	419.25
577.821	431.25
578.032	426.25
578.243	386.25
578.454	387.25
578.665	413.25
578.875	410.25
579.086	421.25
579.297	399.25
579.508	417.25
579.718	409.25
579.929	412.25
580.14	383.25
580.35	408.25
580.561	378.25
580.772	359.25
580.982	382.25
581.193	390.25
581.403	398.25
581.614	391.25
581.825	393.25
582.035	385.25
582.246	394.25
582.456	382.25
582.667	387.25
582.877	386.25
583.087	374.25
583.298	372.25
583.508	386.25
583.719	383.25
583.929	376.25
584.139	378.25
584.35	382.25
584.56	377.25
584.77	378.25
584.981	393.25
585.191	359.25
585.401	372.25
585.611	373.25
585.821	366.25
586.032	366.25
586.242	370.25
586.452	364.25
586.662	375.25
586.872	349.25
587.082	362.25
587.292	359.25
587.502	358.25
587.713	356.25
587.923	363.25
588.133	358.25
588.343	363.25
588.553	372.25
588.762	365.25
588.972	348.25
589.182	373.25
589.392	367.25
589.602	361.25
589.812	368.25
590.022	368.25
590.232	367.25
590.441	374.25
590.651	360.25
590.861	359.25
591.071	368.25
591.281	356.25
591.49	382.25
591.7	393.25
591.91	394.25
592.119	401.25
592.329	382.25
592.539	420.25
592.748	435.25
592.958	424.25
593.167	465.25
593.377	459.25
593.587	457.25
593.796	476.25
594.006	468.25
594.215	474.25
594.424	465.25
594.634	470.25
594.843	447.25
595.053	441.25
595.262	397.25
595.472	404.25
595.681	392.25
595.89	370.25
596.1	379.25
596.309	360.25
596.518	358.25
596.727	341.25
596.937	355.25
597.146	363.25
597.355	345.25
597.564	347.25
597.774	339.25
597.983	330.25
598.192	318.25
598.401	336.25
598.61	333.25
598.819	330.25
599.028	308.25
599.237	324.25
599.446	319.25
599.655	332.25
599.864	316.25
600.073	320.25
600.282	310.25
600.491	327.25
600.7	311.25
600.909	289.25
601.118	316.25
601.327	303.25
601.536	320.25
601.745	318.25
601.953	316.25
602.162	311.25
602.371	299.25
602.58	285.25
602.789	310.25
602.997	299.25
603.206	308.25
603.415	286.25
603.623	302.25
603.832	289.25
604.041	296.25
604.249	288.25
604.458	290.25
604.666	303.25
604.875	288.25
605.084	290.25
605.292	286.25
605.501	288.25
605.709	306.25
605.918	294.25
606.126	271.25
606.334	278.25
606.543	292.25
606.751	299.25
606.96	282.25
607.168	292.25
607.376	281.25
607.585	284.25
607.793	302.25
608.001	289.25
608.21	305.25
608.418	287.25
608.626	282.25
608.834	281.25
609.043	284.25
609.251	290.25
609.459	283.25
609.667	278.25
609.875	260.25
610.083	278.25
610.291	290.25
610.499	267.25
610.707	273.25
610.916	269.25
611.124	266.25
611.332	279.25
611.54	278.25
611.748	265.25
611.955	286.25
612.163	270.25
612.371	278.25
612.579	285.25
612.787	285.25
612.995	286.25
613.203	286.25
613.411	286.25
613.618	274.25
613.826	281.25
614.034	266.25
614.242	269.25
614.449	264.25
614.657	266.25
614.865	273.25
615.072	270.25
615.28	265.25
615.488	254.25
615.695	254.25
615.903	267.25
616.111	276.25
616.318	279.25
616.526	253.25
616.733	266.25
616.941	283.25
617.148	284.25
617.356	279.25
617.563	279.25
617.771	271.25
617.978	252.25
618.185	269.25
618.393	267.25
618.6	271.25
618.807	283.25
619.015	262.25
619.222	268.25
619.429	255.25
619.637	277.25
619.844	255.25
620.051	242.25
620.258	270.25
620.466	275.25
620.673	246.25
620.88	226.25
621.087	232.25
621.294	248.25
621.501	255.25
621.708	252.25
621.915	258.25
622.122	247.25
622.329	266.25
622.536	239.25
622.743	253.25
622.95	241.25
623.157	270.25
623.364	253.25
623.571	249.25
623.778	245.25
623.985	233.25
624.192	250.25
624.399	239.25
624.606	245.25
624.812	234.25
625.019	236.25
625.226	246.25
625.433	255.25
625.639	224.25
625.846	226.25
626.053	239.25
626.259	240.25
626.466	227.25
626.673	228.25
626.879	204.25
627.086	213.25
627.293	231.25
627.499	236.25
627.706	226.25
627.912	229.25
628.119	244.25
628.325	235.25
628.532	235.25
628.738	216.25
628.945	226.25
629.151	220.25
629.357	242.25
629.564	208.25
629.77	238.25
629.976	216.25
630.183	231.25
630.389	210.25
630.595	222.25
630.802	215.25
631.008	205.25
631.214	223.25
631.42	217.25
631.627	222.25
631.833	218.25
632.039	209.25
632.245	194.25
632.451	196.25
632.657	233.25
632.863	209.25
633.069	202.25
633.275	208.25
633.481	212.25
633.688	218.25
633.893	203.25
634.099	207.25
634.305	190.25
634.511	202.25
634.717	196.25
634.923	211.25
635.129	189.25
635.335	207.25
635.541	204.25
635.747	210.25
635.952	205.25
636.158	200.25
636.364	234.25
636.57	201.25
636.775	190.25
636.981	202.25
637.187	212.25
637.392	189.25
637.598	201.25
637.804	197.25
638.009	190.25
638.215	197.25
638.421	215.25
638.626	176.25
638.832	199.25
639.037	210.25
639.243	184.25
639.448	184.25
639.654	191.25
639.859	176.25
640.065	188.25
640.27	190.25
640.475	191.25
640.681	182.25
640.886	196.25
641.091	179.25
641.297	188.25
641.502	191.25
641.707	186.25
641.913	194.25
642.118	191.25
642.323	178.25
642.528	218.25
642.733	187.25
642.939	185.25
643.144	196.25
643.349	188.25
643.554	170.25
643.759	195.25
643.964	188.25
644.169	184.25
644.374	197.25
644.579	194.25
644.784	166.25
644.989	180.25
645.194	175.25
645.399	180.25
645.604	184.25
645.809	190.25
646.014	176.25
646.219	177.25
646.423	188.25
646.628	163.25
646.833	186.25
647.038	176.25
647.243	187.25
647.447	182.25
647.652	193.25
647.857	193.25
648.062	190.25
648.266	184.25
648.471	172.25
648.676	204.25
648.88	184.25
649.085	184.25
649.289	174.25
649.494	199.25
649.698	172.25
649.903	181.25
650.107	173.25
650.312	172.25
650.516	171.25
650.721	164.25
650.925	176.25
651.13	149.25
651.334	155.25
651.539	169.25
651.743	161.25
651.947	157.25
652.152	169.25
652.356	164.25
652.56	153.25
652.764	159.25
652.969	152.25
653.173	147.25
653.377	152.25
653.581	159.25
653.785	145.25
653.99	149.25
654.194	151.25
654.398	141.25
654.602	142.25
654.806	141.25
655.01	147.25
655.214	133.25
655.418	137.25
655.622	138.25
655.826	153.25
656.03	141.25
656.234	146.25
656.438	152.25
656.642	147.25
656.846	151.25
657.049	130.25
657.253	125.25
657.457	135.25
657.661	126.25
657.865	114.25
658.068	114.25
658.272	128.25
658.476	114.25
658.68	106.25
658.883	111.25
659.087	118.25
659.291	107.25
659.494	100.25
659.698	99.25
659.901	102.25
660.105	93.25
660.309	102.25
660.512	107.25
660.716	102.25
660.919	98.25
661.123	98.25
661.326	98.25
661.53	92.25
661.733	88.25
661.936	92.25
662.14	106.25
662.343	88.25
662.546	78.25
662.75	92.25
662.953	77.25
663.156	83.25
663.36	85.25
663.563	86.25
663.766	95.25
663.969	81.25
664.173	91.25
664.376	87.25
664.579	74.25
664.782	88.25
664.985	83.25
665.188	95.25
665.391	88.25
665.594	92.25
665.797	74.25
666	78.25
666.203	75.25
666.406	86.25
666.609	76.25
666.812	84.25
667.015	85.25
667.218	94.25
667.421	102.25
667.624	91.25
667.827	96.25
668.03	96.25
668.232	83.25
668.435	77.25
668.638	81.25
668.841	86.25
669.043	91.25
669.246	81.25
669.449	76.25
669.651	99.25
669.854	84.25
670.057	86.25
670.259	73.25
670.462	83.25
670.665	71.25
670.867	85.25
671.07	85.25
671.272	81.25
671.475	82.25
671.677	73.25
671.88	78.25
672.082	96.25
672.284	86.25
672.487	68.25
672.689	90.25
672.892	80.25
