Data from NiCl2@0.125M.TitratingCurve.Agarose3%dH2O.NegLispCup.LampEnergy10.LIBS07252019_HRD10591_18-27-42-574.txt Node
Date: Thu Jul 25 18:27:42 EDT 2019
User: cochatt
Spectrometer: HR+D1059
Trigger mode: 1
Integration Time (sec): 1.000000E-1
Scans to average: 1
Electric dark correction enabled: true
Nonlinearity correction enabled: false
Boxcar width: 0
XAxis mode: Wavelengths
Number of Pixels in Spectrum: 2048
>>>>>Begin Spectral Data<<<<<
223.165	-30.5
223.4	-30.5
223.635	-30.5
223.869	-22.5
224.104	-7.5
224.338	-10.5
224.573	-12.5
224.808	-13.5
225.042	-11.5
225.277	-13.5
225.511	1.5
225.746	-2.5
225.98	0.5
226.215	8.5
226.449	30.5
226.683	16.5
226.918	26.5
227.152	40.5
227.387	29.5
227.621	39.5
227.856	39.5
228.09	43.5
228.324	43.5
228.559	49.5
228.793	72.5
229.027	99.5
229.262	106.5
229.496	112.5
229.73	116.5
229.964	108.5
230.199	121.5
230.433	123.5
230.667	128.5
230.901	139.5
231.136	130.5
231.37	137.5
231.604	145.5
231.838	145.5
232.072	147.5
232.306	145.5
232.541	134.5
232.775	145.5
233.009	151.5
233.243	145.5
233.477	148.5
233.711	141.5
233.945	159.5
234.179	167.5
234.413	157.5
234.647	140.5
234.881	149.5
235.115	161.5
235.349	159.5
235.583	178.5
235.817	146.5
236.051	170.5
236.285	157.5
236.519	157.5
236.753	162.5
236.987	160.5
237.221	176.5
237.455	162.5
237.689	179.5
237.922	164.5
238.156	183.5
238.39	177.5
238.624	169.5
238.858	167.5
239.091	174.5
239.325	178.5
239.559	180.5
239.793	184.5
240.027	192.5
240.26	191.5
240.494	190.5
240.728	201.5
240.961	217.5
241.195	196.5
241.429	189.5
241.662	197.5
241.896	201.5
242.13	179.5
242.363	206.5
242.597	208.5
242.83	202.5
243.064	222.5
243.298	206.5
243.531	204.5
243.765	227.5
243.998	249.5
244.232	228.5
244.465	210.5
244.699	208.5
244.932	228.5
245.166	235.5
245.399	228.5
245.633	246.5
245.866	238.5
246.099	241.5
246.333	227.5
246.566	229.5
246.8	232.5
247.033	230.5
247.266	234.5
247.5	244.5
247.733	249.5
247.966	238.5
248.2	265.5
248.433	255.5
248.666	245.5
248.899	242.5
249.133	265.5
249.366	251.5
249.599	279.5
249.832	264.5
250.066	274.5
250.299	265.5
250.532	273.5
250.765	268.5
250.998	279.5
251.231	275.5
251.465	262.5
251.698	275.5
251.931	282.5
252.164	289.5
252.397	284.5
252.63	280.5
252.863	293.5
253.096	279.5
253.329	280.5
253.562	291.5
253.795	278.5
254.028	288.5
254.261	283.5
254.494	286.5
254.727	295.5
254.96	298.5
255.193	302.5
255.426	299.5
255.659	298.5
255.892	306.5
256.124	290.5
256.357	289.5
256.59	319.5
256.823	312.5
257.056	333.5
257.289	289.5
257.521	309.5
257.754	319.5
257.987	317.5
258.22	330.5
258.452	336.5
258.685	337.5
258.918	322.5
259.151	340.5
259.383	333.5
259.616	326.5
259.849	338.5
260.081	320.5
260.314	357.5
260.547	330.5
260.779	343.5
261.012	336.5
261.244	340.5
261.477	348.5
261.71	341.5
261.942	341.5
262.175	346.5
262.407	349.5
262.64	347.5
262.872	338.5
263.105	368.5
263.337	363.5
263.57	367.5
263.802	356.5
264.035	371.5
264.267	379.5
264.499	352.5
264.732	357.5
264.964	368.5
265.197	363.5
265.429	367.5
265.661	353.5
265.894	362.5
266.126	373.5
266.358	387.5
266.591	387.5
266.823	387.5
267.055	374.5
267.287	393.5
267.52	410.5
267.752	379.5
267.984	407.5
268.216	381.5
268.448	429.5
268.681	388.5
268.913	393.5
269.145	378.5
269.377	421.5
269.609	395.5
269.841	401.5
270.073	408.5
270.306	394.5
270.538	388.5
270.77	413.5
271.002	404.5
271.234	401.5
271.466	418.5
271.698	411.5
271.93	391.5
272.162	412.5
272.394	417.5
272.626	397.5
272.858	414.5
273.09	414.5
273.322	412.5
273.553	439.5
273.785	414.5
274.017	439.5
274.249	435.5
274.481	438.5
274.713	416.5
274.945	448.5
275.176	430.5
275.408	431.5
275.64	467.5
275.872	431.5
276.104	443.5
276.335	448.5
276.567	465.5
276.799	459.5
277.031	459.5
277.262	444.5
277.494	459.5
277.726	449.5
277.957	449.5
278.189	458.5
278.421	459.5
278.652	494.5
278.884	484.5
279.115	463.5
279.347	454.5
279.579	480.5
279.81	465.5
280.042	478.5
280.273	483.5
280.505	481.5
280.736	486.5
280.968	495.5
281.199	513.5
281.431	486.5
281.662	489.5
281.894	483.5
282.125	494.5
282.356	519.5
282.588	475.5
282.819	493.5
283.051	495.5
283.282	486.5
283.513	494.5
283.745	513.5
283.976	516.5
284.207	514.5
284.439	503.5
284.67	501.5
284.901	505.5
285.132	519.5
285.364	537.5
285.595	518.5
285.826	525.5
286.057	546.5
286.288	541.5
286.52	525.5
286.751	524.5
286.982	559.5
287.213	543.5
287.444	564.5
287.675	541.5
287.906	555.5
288.138	547.5
288.369	532.5
288.6	552.5
288.831	571.5
289.062	536.5
289.293	554.5
289.524	543.5
289.755	561.5
289.986	554.5
290.217	557.5
290.448	545.5
290.679	552.5
290.91	547.5
291.141	582.5
291.371	576.5
291.602	562.5
291.833	540.5
292.064	541.5
292.295	565.5
292.526	575.5
292.757	562.5
292.987	552.5
293.218	565.5
293.449	556.5
293.68	547.5
293.91	553.5
294.141	562.5
294.372	553.5
294.603	561.5
294.833	577.5
295.064	566.5
295.295	547.5
295.525	549.5
295.756	578.5
295.987	573.5
296.217	585.5
296.448	569.5
296.679	559.5
296.909	576.5
297.14	584.5
297.37	599.5
297.601	615.5
297.831	609.5
298.062	631.5
298.292	609.5
298.523	629.5
298.753	625.5
298.984	609.5
299.214	618.5
299.445	610.5
299.675	597.5
299.905	602.5
300.136	617.5
300.366	608.5
300.597	634.5
300.827	645.5
301.057	663.5
301.288	664.5
301.518	661.5
301.748	651.5
301.979	656.5
302.209	651.5
302.439	657.5
302.669	637.5
302.9	614.5
303.13	639.5
303.36	638.5
303.59	638.5
303.82	622.5
304.051	634.5
304.281	634.5
304.511	608.5
304.741	641.5
304.971	643.5
305.201	649.5
305.431	634.5
305.661	672.5
305.891	643.5
306.121	615.5
306.352	605.5
306.582	625.5
306.812	606.5
307.042	656.5
307.272	626.5
307.502	617.5
307.731	617.5
307.961	610.5
308.191	625.5
308.421	609.5
308.651	617.5
308.881	614.5
309.111	622.5
309.341	619.5
309.571	657.5
309.8	645.5
310.03	605.5
310.26	619.5
310.49	616.5
310.72	637.5
310.949	609.5
311.179	610.5
311.409	634.5
311.639	642.5
311.868	621.5
312.098	632.5
312.328	615.5
312.557	631.5
312.787	641.5
313.017	659.5
313.246	675.5
313.476	678.5
313.706	658.5
313.935	673.5
314.165	631.5
314.394	665.5
314.624	676.5
314.853	664.5
315.083	691.5
315.312	660.5
315.542	666.5
315.771	666.5
316.001	641.5
316.23	653.5
316.46	658.5
316.689	645.5
316.919	655.5
317.148	645.5
317.377	639.5
317.607	647.5
317.836	678.5
318.065	629.5
318.295	662.5
318.524	655.5
318.753	644.5
318.983	664.5
319.212	635.5
319.441	654.5
319.67	651.5
319.9	660.5
320.129	655.5
320.358	647.5
320.587	664.5
320.816	664.5
321.046	658.5
321.275	675.5
321.504	671.5
321.733	647.5
321.962	663.5
322.191	650.5
322.42	664.5
322.649	664.5
322.878	657.5
323.108	677.5
323.337	691.5
323.566	677.5
323.795	653.5
324.024	652.5
324.253	677.5
324.482	673.5
324.71	665.5
324.939	695.5
325.168	721.5
325.397	694.5
325.626	712.5
325.855	684.5
326.084	729.5
326.313	730.5
326.542	740.5
326.77	732.5
326.999	727.5
327.228	717.5
327.457	714.5
327.686	713.5
327.914	709.5
328.143	731.5
328.372	710.5
328.6	727.5
328.829	724.5
329.058	709.5
329.287	721.5
329.515	775.5
329.744	730.5
329.972	723.5
330.201	731.5
330.43	733.5
330.658	744.5
330.887	734.5
331.115	754.5
331.344	758.5
331.572	727.5
331.801	769.5
332.03	786.5
332.258	812.5
332.486	833.5
332.715	837.5
332.943	888.5
333.172	920.5
333.4	977.5
333.629	971.5
333.857	999.5
334.085	980.5
334.314	949.5
334.542	933.5
334.771	925.5
334.999	909.5
335.227	894.5
335.455	909.5
335.684	879.5
335.912	874.5
336.14	891.5
336.369	853.5
336.597	863.5
336.825	862.5
337.053	859.5
337.281	861.5
337.51	868.5
337.738	835.5
337.966	788.5
338.194	829.5
338.422	783.5
338.65	794.5
338.878	787.5
339.106	779.5
339.334	799.5
339.562	776.5
339.79	768.5
340.018	751.5
340.246	742.5
340.474	735.5
340.702	750.5
340.93	751.5
341.158	754.5
341.386	767.5
341.614	757.5
341.842	754.5
342.07	779.5
342.298	760.5
342.526	727.5
342.754	750.5
342.981	770.5
343.209	775.5
343.437	811.5
343.665	841.5
343.893	925.5
344.12	946.5
344.348	939.5
344.576	872.5
344.804	823.5
345.031	816.5
345.259	767.5
345.487	762.5
345.714	756.5
345.942	727.5
346.17	750.5
346.397	759.5
346.625	754.5
346.853	729.5
347.08	714.5
347.308	731.5
347.535	775.5
347.763	754.5
347.99	755.5
348.218	753.5
348.445	742.5
348.673	687.5
348.9	749.5
349.128	728.5
349.355	709.5
349.583	715.5
349.81	713.5
350.037	713.5
350.265	698.5
350.492	727.5
350.72	711.5
350.947	715.5
351.174	710.5
351.402	698.5
351.629	699.5
351.856	697.5
352.083	703.5
352.311	719.5
352.538	698.5
352.765	691.5
352.992	745.5
353.22	694.5
353.447	721.5
353.674	714.5
353.901	707.5
354.128	674.5
354.355	706.5
354.583	689.5
354.81	700.5
355.037	703.5
355.264	733.5
355.491	715.5
355.718	717.5
355.945	691.5
356.172	703.5
356.399	692.5
356.626	739.5
356.853	703.5
357.08	716.5
357.307	704.5
357.534	696.5
357.761	707.5
357.988	678.5
358.215	704.5
358.441	695.5
358.668	685.5
358.895	690.5
359.122	731.5
359.349	711.5
359.576	697.5
359.802	698.5
360.029	708.5
360.256	721.5
360.483	703.5
360.709	698.5
360.936	675.5
361.163	704.5
361.39	690.5
361.616	695.5
361.843	708.5
362.07	717.5
362.296	712.5
362.523	693.5
362.749	711.5
362.976	686.5
363.203	715.5
363.429	686.5
363.656	713.5
363.882	691.5
364.109	702.5
364.335	688.5
364.562	680.5
364.788	709.5
365.015	701.5
365.241	691.5
365.468	703.5
365.694	693.5
365.92	702.5
366.147	704.5
366.373	694.5
366.599	696.5
366.826	685.5
367.052	709.5
367.278	722.5
367.505	715.5
367.731	720.5
367.957	689.5
368.184	706.5
368.41	709.5
368.636	715.5
368.862	714.5
369.089	727.5
369.315	692.5
369.541	714.5
369.767	739.5
369.993	727.5
370.219	741.5
370.445	746.5
370.672	745.5
370.898	739.5
371.124	746.5
371.35	758.5
371.576	751.5
371.802	761.5
372.028	776.5
372.254	760.5
372.48	786.5
372.706	790.5
372.932	809.5
373.158	805.5
373.384	781.5
373.61	759.5
373.835	777.5
374.061	784.5
374.287	775.5
374.513	809.5
374.739	797.5
374.965	831.5
375.191	840.5
375.416	839.5
375.642	837.5
375.868	829.5
376.094	791.5
376.319	785.5
376.545	816.5
376.771	775.5
376.997	774.5
377.222	787.5
377.448	758.5
377.674	809.5
377.899	783.5
378.125	738.5
378.35	733.5
378.576	742.5
378.802	733.5
379.027	745.5
379.253	734.5
379.478	765.5
379.704	747.5
379.929	774.5
380.155	767.5
380.38	766.5
380.606	762.5
380.831	746.5
381.057	781.5
381.282	761.5
381.507	777.5
381.733	793.5
381.958	774.5
382.184	765.5
382.409	764.5
382.634	808.5
382.86	756.5
383.085	799.5
383.31	818.5
383.535	836.5
383.761	830.5
383.986	848.5
384.211	884.5
384.436	866.5
384.662	896.5
384.887	895.5
385.112	915.5
385.337	921.5
385.562	922.5
385.787	937.5
386.013	934.5
386.238	934.5
386.463	922.5
386.688	897.5
386.913	913.5
387.138	907.5
387.363	936.5
387.588	935.5
387.813	910.5
388.038	897.5
388.263	896.5
388.488	866.5
388.713	899.5
388.938	911.5
389.163	880.5
389.387	868.5
389.612	867.5
389.837	883.5
390.062	883.5
390.287	903.5
390.512	905.5
390.736	898.5
390.961	913.5
391.186	922.5
391.411	941.5
391.636	965.5
391.86	1030.5
392.085	1002.5
392.31	1001.5
392.534	999.5
392.759	969.5
392.984	963.5
393.208	963.5
393.433	967.5
393.658	974.5
393.882	939.5
394.107	985.5
394.331	988.5
394.556	975.5
394.78	928.5
395.005	973.5
395.229	981.5
395.454	998.5
395.678	1015.5
395.903	1050.5
396.127	1011.5
396.352	992.5
396.576	944.5
396.801	957.5
397.025	978.5
397.249	1019.5
397.474	1023.5
397.698	1011.5
397.922	1032.5
398.147	1043.5
398.371	1030.5
398.595	1102.5
398.82	1151.5
399.044	1165.5
399.268	1281.5
399.492	1499.5
399.717	1715.5
399.941	1681.5
400.165	1555.5
400.389	1389.5
400.613	1264.5
400.837	1215.5
401.062	1207.5
401.286	1168.5
401.51	1145.5
401.734	1116.5
401.958	1159.5
402.182	1179.5
402.406	1154.5
402.63	1205.5
402.854	1217.5
403.078	1223.5
403.302	1251.5
403.526	1332.5
403.75	1311.5
403.974	1314.5
404.198	1332.5
404.422	1314.5
404.645	1317.5
404.869	1304.5
405.093	1317.5
405.317	1277.5
405.541	1235.5
405.765	1238.5
405.988	1238.5
406.212	1275.5
406.436	1250.5
406.66	1290.5
406.883	1268.5
407.107	1411.5
407.331	1451.5
407.555	1497.5
407.778	1488.5
408.002	1476.5
408.226	1403.5
408.449	1368.5
408.673	1322.5
408.896	1288.5
409.12	1305.5
409.344	1277.5
409.567	1284.5
409.791	1314.5
410.014	1314.5
410.238	1255.5
410.461	1257.5
410.685	1246.5
410.908	1239.5
411.132	1207.5
411.355	1139.5
411.578	1201.5
411.802	1181.5
412.025	1201.5
412.249	1252.5
412.472	1215.5
412.695	1166.5
412.919	1162.5
413.142	1154.5
413.365	1124.5
413.589	1167.5
413.812	1126.5
414.035	1099.5
414.258	1119.5
414.482	1135.5
414.705	1165.5
414.928	1162.5
415.151	1168.5
415.374	1129.5
415.597	1135.5
415.821	1139.5
416.044	1129.5
416.267	1126.5
416.49	1126.5
416.713	1105.5
416.936	1111.5
417.159	1126.5
417.382	1149.5
417.605	1131.5
417.828	1112.5
418.051	1134.5
418.274	1135.5
418.497	1143.5
418.72	1150.5
418.943	1173.5
419.166	1252.5
419.389	1303.5
419.611	1327.5
419.834	1224.5
420.057	1235.5
420.28	1173.5
420.503	1119.5
420.726	1137.5
420.948	1123.5
421.171	1124.5
421.394	1137.5
421.617	1152.5
421.839	1127.5
422.062	1176.5
422.285	1124.5
422.507	1175.5
422.73	1149.5
422.953	1178.5
423.175	1199.5
423.398	1220.5
423.621	1193.5
423.843	1190.5
424.066	1207.5
424.288	1215.5
424.511	1177.5
424.733	1172.5
424.956	1162.5
425.178	1159.5
425.401	1158.5
425.623	1137.5
425.846	1107.5
426.068	1091.5
426.291	1086.5
426.513	1065.5
426.735	1059.5
426.958	1085.5
427.18	1047.5
427.402	1037.5
427.625	1031.5
427.847	1021.5
428.069	1040.5
428.292	1039.5
428.514	1000.5
428.736	1011.5
428.958	1013.5
429.181	1001.5
429.403	971.5
429.625	983.5
429.847	1002.5
430.069	994.5
430.292	1001.5
430.514	993.5
430.736	1010.5
430.958	1014.5
431.18	984.5
431.402	993.5
431.624	984.5
431.846	1037.5
432.068	1042.5
432.29	1027.5
432.512	1014.5
432.734	1009.5
432.956	1031.5
433.178	1019.5
433.4	1039.5
433.622	1053.5
433.844	1057.5
434.066	1038.5
434.287	1023.5
434.509	1079.5
434.731	1066.5
434.953	1131.5
435.175	1180.5
435.397	1143.5
435.618	1079.5
435.84	1055.5
436.062	1040.5
436.284	1013.5
436.505	1025.5
436.727	1045.5
436.949	1044.5
437.17	1000.5
437.392	1031.5
437.614	981.5
437.835	981.5
438.057	966.5
438.278	977.5
438.5	988.5
438.721	977.5
438.943	976.5
439.165	991.5
439.386	974.5
439.608	1027.5
439.829	1027.5
440.05	1028.5
440.272	995.5
440.493	1081.5
440.715	1055.5
440.936	1066.5
441.158	1077.5
441.379	1115.5
441.6	1161.5
441.822	1136.5
442.043	1155.5
442.264	1130.5
442.486	1120.5
442.707	1133.5
442.928	1113.5
443.149	1150.5
443.371	1126.5
443.592	1129.5
443.813	1123.5
444.034	1128.5
444.255	1183.5
444.476	1229.5
444.698	1317.5
444.919	1363.5
445.14	1441.5
445.361	1318.5
445.582	1199.5
445.803	1139.5
446.024	1087.5
446.245	1075.5
446.466	1084.5
446.687	1039.5
446.908	1043.5
447.129	1017.5
447.35	986.5
447.571	990.5
447.792	977.5
448.013	981.5
448.234	947.5
448.455	949.5
448.675	949.5
448.896	925.5
449.117	925.5
449.338	921.5
449.559	942.5
449.779	934.5
450	937.5
450.221	922.5
450.442	966.5
450.662	954.5
450.883	979.5
451.104	982.5
451.324	964.5
451.545	969.5
451.766	981.5
451.986	973.5
452.207	953.5
452.428	954.5
452.648	939.5
452.869	932.5
453.089	907.5
453.31	951.5
453.53	889.5
453.751	904.5
453.971	898.5
454.192	898.5
454.412	907.5
454.633	881.5
454.853	890.5
455.073	880.5
455.294	889.5
455.514	914.5
455.734	878.5
455.955	861.5
456.175	882.5
456.395	861.5
456.616	861.5
456.836	874.5
457.056	893.5
457.276	849.5
457.497	886.5
457.717	875.5
457.937	893.5
458.157	887.5
458.377	919.5
458.598	944.5
458.818	951.5
459.038	952.5
459.258	961.5
459.478	1026.5
459.698	1047.5
459.918	1067.5
460.138	1104.5
460.358	1166.5
460.578	1179.5
460.798	1211.5
461.018	1212.5
461.238	1198.5
461.458	1175.5
461.678	1203.5
461.898	1217.5
462.118	1213.5
462.338	1282.5
462.558	1300.5
462.777	1368.5
462.997	1480.5
463.217	1603.5
463.437	1596.5
463.657	1481.5
463.876	1418.5
464.096	1401.5
464.316	1385.5
464.536	1388.5
464.755	1355.5
464.975	1325.5
465.195	1245.5
465.414	1163.5
465.634	1095.5
465.854	1058.5
466.073	1055.5
466.293	1006.5
466.512	1005.5
466.732	986.5
466.951	968.5
467.171	968.5
467.391	983.5
467.61	973.5
467.829	984.5
468.049	957.5
468.268	945.5
468.488	968.5
468.707	936.5
468.927	972.5
469.146	965.5
469.365	937.5
469.585	937.5
469.804	991.5
470.023	1034.5
470.243	1022.5
470.462	1013.5
470.681	1006.5
470.901	1049.5
471.12	1001.5
471.339	1018.5
471.558	968.5
471.777	994.5
471.997	964.5
472.216	922.5
472.435	944.5
472.654	923.5
472.873	918.5
473.092	905.5
473.311	934.5
473.53	895.5
473.749	890.5
473.968	904.5
474.187	901.5
474.406	889.5
474.625	915.5
474.844	905.5
475.063	883.5
475.282	905.5
475.501	908.5
475.72	949.5
475.939	927.5
476.158	943.5
476.377	956.5
476.596	971.5
476.814	947.5
477.033	977.5
477.252	997.5
477.471	990.5
477.69	1016.5
477.908	1085.5
478.127	1099.5
478.346	1076.5
478.564	1107.5
478.783	1135.5
479.002	1164.5
479.22	1163.5
479.439	1149.5
479.658	1112.5
479.876	1114.5
480.095	1164.5
480.313	1202.5
480.532	1258.5
480.751	1234.5
480.969	1208.5
481.188	1137.5
481.406	1094.5
481.624	1090.5
481.843	1054.5
482.061	1046.5
482.28	1050.5
482.498	1071.5
482.717	1042.5
482.935	1060.5
483.153	1053.5
483.372	1064.5
483.59	1034.5
483.808	1045.5
484.027	1048.5
484.245	1076.5
484.463	1037.5
484.681	1081.5
484.9	1064.5
485.118	1088.5
485.336	1101.5
485.554	1113.5
485.772	1106.5
485.99	1103.5
486.209	1113.5
486.427	1102.5
486.645	1103.5
486.863	1126.5
487.081	1129.5
487.299	1098.5
487.517	1088.5
487.735	1086.5
487.953	1087.5
488.171	1114.5
488.389	1073.5
488.607	1094.5
488.825	1075.5
489.043	1073.5
489.261	1088.5
489.479	1117.5
489.696	1102.5
489.914	1073.5
490.132	1121.5
490.35	1130.5
490.568	1119.5
490.786	1090.5
491.003	1118.5
491.221	1119.5
491.439	1097.5
491.657	1128.5
491.874	1131.5
492.092	1109.5
492.31	1133.5
492.527	1112.5
492.745	1139.5
492.963	1139.5
493.18	1122.5
493.398	1155.5
493.615	1153.5
493.833	1126.5
494.05	1169.5
494.268	1173.5
494.485	1177.5
494.703	1156.5
494.92	1193.5
495.138	1173.5
495.355	1166.5
495.573	1149.5
495.79	1192.5
496.008	1217.5
496.225	1173.5
496.442	1173.5
496.66	1202.5
496.877	1207.5
497.094	1247.5
497.312	1273.5
497.529	1277.5
497.746	1333.5
497.963	1331.5
498.181	1440.5
498.398	1475.5
498.615	1574.5
498.832	1655.5
499.049	1823.5
499.267	1923.5
499.484	2086.5
499.701	2273.5
499.918	2528.5
500.135	2887.5
500.352	3261.5
500.569	3495.5
500.786	3400.5
501.003	3167.5
501.22	2872.5
501.437	2524.5
501.654	2216.5
501.871	2029.5
502.088	1860.5
502.305	1719.5
502.522	1638.5
502.739	1597.5
502.956	1539.5
503.172	1441.5
503.389	1377.5
503.606	1339.5
503.823	1314.5
504.04	1329.5
504.256	1320.5
504.473	1334.5
504.69	1369.5
504.907	1357.5
505.123	1275.5
505.34	1219.5
505.557	1143.5
505.773	1130.5
505.99	1131.5
506.207	1091.5
506.423	1054.5
506.64	1055.5
506.856	1030.5
507.073	1007.5
507.289	1039.5
507.506	1019.5
507.722	1014.5
507.939	1006.5
508.155	967.5
508.372	947.5
508.588	979.5
508.805	952.5
509.021	953.5
509.238	977.5
509.454	964.5
509.67	958.5
509.887	922.5
510.103	966.5
510.319	926.5
510.536	943.5
510.752	952.5
510.968	920.5
511.184	913.5
511.401	916.5
511.617	929.5
511.833	925.5
512.049	897.5
512.265	951.5
512.481	957.5
512.698	927.5
512.914	913.5
513.13	894.5
513.346	904.5
513.562	923.5
513.778	945.5
513.994	944.5
514.21	930.5
514.426	945.5
514.642	945.5
514.858	933.5
515.074	925.5
515.29	976.5
515.506	979.5
515.721	991.5
515.937	991.5
516.153	1008.5
516.369	1031.5
516.585	1045.5
516.801	1121.5
517.016	1148.5
517.232	1191.5
517.448	1221.5
517.664	1264.5
517.879	1297.5
518.095	1275.5
518.311	1294.5
518.527	1229.5
518.742	1166.5
518.958	1124.5
519.173	1099.5
519.389	1032.5
519.605	1009.5
519.82	1019.5
520.036	973.5
520.251	951.5
520.467	935.5
520.682	923.5
520.898	945.5
521.113	941.5
521.329	902.5
521.544	906.5
521.76	922.5
521.975	884.5
522.19	901.5
522.406	899.5
522.621	866.5
522.836	848.5
523.052	863.5
523.267	858.5
523.482	868.5
523.698	852.5
523.913	844.5
524.128	842.5
524.343	862.5
524.559	856.5
524.774	815.5
524.989	865.5
525.204	847.5
525.419	865.5
525.634	847.5
525.849	853.5
526.064	854.5
526.28	838.5
526.495	818.5
526.71	826.5
526.925	840.5
527.14	817.5
527.355	822.5
527.57	851.5
527.785	839.5
527.999	832.5
528.214	858.5
528.429	859.5
528.644	864.5
528.859	847.5
529.074	819.5
529.289	829.5
529.503	834.5
529.718	838.5
529.933	820.5
530.148	826.5
530.363	821.5
530.577	818.5
530.792	834.5
531.007	827.5
531.221	810.5
531.436	825.5
531.651	809.5
531.865	819.5
532.08	831.5
532.295	827.5
532.509	813.5
532.724	825.5
532.938	828.5
533.153	833.5
533.367	847.5
533.582	851.5
533.796	808.5
534.011	815.5
534.225	833.5
534.44	813.5
534.654	804.5
534.868	825.5
535.083	831.5
535.297	828.5
535.511	815.5
535.726	802.5
535.94	767.5
536.154	779.5
536.369	793.5
536.583	789.5
536.797	784.5
537.011	751.5
537.225	780.5
537.44	761.5
537.654	766.5
537.868	770.5
538.082	762.5
538.296	752.5
538.51	751.5
538.724	764.5
538.938	772.5
539.153	756.5
539.367	766.5
539.581	754.5
539.795	751.5
540.009	758.5
540.222	725.5
540.436	749.5
540.65	754.5
540.864	758.5
541.078	738.5
541.292	739.5
541.506	768.5
541.72	750.5
541.934	735.5
542.147	763.5
542.361	780.5
542.575	732.5
542.789	745.5
543.002	753.5
543.216	730.5
543.43	737.5
543.644	743.5
543.857	726.5
544.071	737.5
544.285	756.5
544.498	763.5
544.712	751.5
544.925	733.5
545.139	765.5
545.352	759.5
545.566	783.5
545.779	790.5
545.993	805.5
546.206	757.5
546.42	777.5
546.633	780.5
546.847	778.5
547.06	767.5
547.274	734.5
547.487	757.5
547.7	774.5
547.914	761.5
548.127	785.5
548.34	769.5
548.554	762.5
548.767	783.5
548.98	761.5
549.193	773.5
549.407	790.5
549.62	789.5
549.833	813.5
550.046	791.5
550.259	771.5
550.473	767.5
550.686	770.5
550.899	761.5
551.112	725.5
551.325	729.5
551.538	723.5
551.751	738.5
551.964	728.5
552.177	781.5
552.39	768.5
552.603	782.5
552.816	813.5
553.029	834.5
553.242	847.5
553.455	849.5
553.667	834.5
553.88	833.5
554.093	787.5
554.306	787.5
554.519	771.5
554.732	765.5
554.944	772.5
555.157	736.5
555.37	735.5
555.583	706.5
555.795	691.5
556.008	697.5
556.221	666.5
556.433	677.5
556.646	682.5
556.859	669.5
557.071	663.5
557.284	673.5
557.496	657.5
557.709	646.5
557.921	646.5
558.134	651.5
558.346	653.5
558.559	639.5
558.771	657.5
558.984	637.5
559.196	634.5
559.409	628.5
559.621	615.5
559.833	651.5
560.046	603.5
560.258	621.5
560.47	625.5
560.683	623.5
560.895	630.5
561.107	637.5
561.32	623.5
561.532	633.5
561.744	628.5
561.956	614.5
562.168	637.5
562.381	622.5
562.593	639.5
562.805	625.5
563.017	639.5
563.229	637.5
563.441	641.5
563.653	666.5
563.865	635.5
564.077	637.5
564.289	661.5
564.501	643.5
564.713	663.5
564.925	688.5
565.137	697.5
565.349	701.5
565.561	701.5
565.773	738.5
565.985	794.5
566.197	824.5
566.408	874.5
566.62	938.5
566.832	1005.5
567.044	982.5
567.255	990.5
567.467	1051.5
567.679	1125.5
567.891	1200.5
568.102	1223.5
568.314	1158.5
568.526	1064.5
568.737	966.5
568.949	869.5
569.161	796.5
569.372	747.5
569.584	715.5
569.795	672.5
570.007	674.5
570.218	651.5
570.43	654.5
570.641	642.5
570.853	651.5
571.064	656.5
571.276	649.5
571.487	644.5
571.698	622.5
571.91	586.5
572.121	602.5
572.333	583.5
572.544	561.5
572.755	551.5
572.966	566.5
573.178	553.5
573.389	527.5
573.6	557.5
573.811	529.5
574.023	547.5
574.234	531.5
574.445	522.5
574.656	526.5
574.867	545.5
575.078	525.5
575.289	514.5
575.501	525.5
575.712	502.5
575.923	477.5
576.134	498.5
576.345	484.5
576.556	501.5
576.767	471.5
576.978	498.5
577.188	486.5
577.399	496.5
577.61	471.5
577.821	481.5
578.032	468.5
578.243	465.5
578.454	457.5
578.665	478.5
578.875	465.5
579.086	477.5
579.297	455.5
579.508	473.5
579.718	463.5
579.929	471.5
580.14	463.5
580.35	444.5
580.561	463.5
580.772	456.5
580.982	476.5
581.193	455.5
581.403	461.5
581.614	434.5
581.825	449.5
582.035	467.5
582.246	416.5
582.456	435.5
582.667	429.5
582.877	449.5
583.087	434.5
583.298	411.5
583.508	433.5
583.719	424.5
583.929	434.5
584.139	427.5
584.35	431.5
584.56	434.5
584.77	426.5
584.981	422.5
585.191	429.5
585.401	414.5
585.611	426.5
585.821	424.5
586.032	433.5
586.242	430.5
586.452	414.5
586.662	422.5
586.872	431.5
587.082	408.5
587.292	411.5
587.502	387.5
587.713	407.5
587.923	414.5
588.133	423.5
588.343	417.5
588.553	423.5
588.762	425.5
588.972	409.5
589.182	422.5
589.392	405.5
589.602	403.5
589.812	420.5
590.022	414.5
590.232	417.5
590.441	415.5
590.651	414.5
590.861	418.5
591.071	433.5
591.281	439.5
591.49	440.5
591.7	430.5
591.91	431.5
592.119	436.5
592.329	441.5
592.539	473.5
592.748	497.5
592.958	481.5
593.167	515.5
593.377	523.5
593.587	523.5
593.796	531.5
594.006	541.5
594.215	551.5
594.424	550.5
594.634	528.5
594.843	519.5
595.053	493.5
595.262	477.5
595.472	487.5
595.681	434.5
595.89	435.5
596.1	434.5
596.309	422.5
596.518	422.5
596.727	404.5
596.937	400.5
597.146	394.5
597.355	395.5
597.564	385.5
597.774	395.5
597.983	372.5
598.192	353.5
598.401	360.5
598.61	371.5
598.819	367.5
599.028	354.5
599.237	362.5
599.446	362.5
599.655	363.5
599.864	360.5
600.073	368.5
600.282	365.5
600.491	339.5
600.7	351.5
600.909	334.5
601.118	351.5
601.327	338.5
601.536	360.5
601.745	355.5
601.953	347.5
602.162	354.5
602.371	324.5
602.58	334.5
602.789	320.5
602.997	345.5
603.206	357.5
603.415	347.5
603.623	326.5
603.832	330.5
604.041	325.5
604.249	327.5
604.458	345.5
604.666	321.5
604.875	328.5
605.084	349.5
605.292	331.5
605.501	337.5
605.709	315.5
605.918	335.5
606.126	342.5
606.334	327.5
606.543	340.5
606.751	319.5
606.96	304.5
607.168	315.5
607.376	295.5
607.585	320.5
607.793	328.5
608.001	320.5
608.21	315.5
608.418	310.5
608.626	330.5
608.834	306.5
609.043	318.5
609.251	312.5
609.459	314.5
609.667	306.5
609.875	314.5
610.083	322.5
610.291	319.5
610.499	307.5
610.707	325.5
610.916	315.5
611.124	303.5
611.332	309.5
611.54	326.5
611.748	319.5
611.955	301.5
612.163	292.5
612.371	308.5
612.579	296.5
612.787	301.5
612.995	312.5
613.203	311.5
613.411	318.5
613.618	318.5
613.826	314.5
614.034	305.5
614.242	309.5
614.449	310.5
614.657	298.5
614.865	285.5
615.072	301.5
615.28	305.5
615.488	317.5
615.695	293.5
615.903	282.5
616.111	295.5
616.318	307.5
616.526	314.5
616.733	319.5
616.941	313.5
617.148	295.5
617.356	306.5
617.563	284.5
617.771	315.5
617.978	289.5
618.185	294.5
618.393	294.5
618.6	265.5
618.807	292.5
619.015	297.5
619.222	295.5
619.429	301.5
619.637	305.5
619.844	298.5
620.051	286.5
620.258	288.5
620.466	293.5
620.673	273.5
620.88	289.5
621.087	272.5
621.294	278.5
621.501	261.5
621.708	285.5
621.915	293.5
622.122	271.5
622.329	271.5
622.536	279.5
622.743	278.5
622.95	267.5
623.157	280.5
623.364	249.5
623.571	273.5
623.778	279.5
623.985	276.5
624.192	266.5
624.399	274.5
624.606	246.5
624.812	262.5
625.019	259.5
625.226	265.5
625.433	282.5
625.639	258.5
625.846	239.5
626.053	274.5
626.259	271.5
626.466	268.5
626.673	262.5
626.879	264.5
627.086	249.5
627.293	246.5
627.499	259.5
627.706	246.5
627.912	247.5
628.119	258.5
628.325	254.5
628.532	242.5
628.738	251.5
628.945	249.5
629.151	251.5
629.357	235.5
629.564	246.5
629.77	222.5
629.976	238.5
630.183	235.5
630.389	233.5
630.595	242.5
630.802	257.5
631.008	228.5
631.214	232.5
631.42	244.5
631.627	230.5
631.833	250.5
632.039	221.5
632.245	224.5
632.451	217.5
632.657	222.5
632.863	214.5
633.069	215.5
633.275	229.5
633.481	236.5
633.688	221.5
633.893	226.5
634.099	225.5
634.305	224.5
634.511	215.5
634.717	210.5
634.923	210.5
635.129	218.5
635.335	228.5
635.541	215.5
635.747	222.5
635.952	213.5
636.158	225.5
636.364	231.5
636.57	212.5
636.775	224.5
636.981	217.5
637.187	230.5
637.392	217.5
637.598	216.5
637.804	231.5
638.009	210.5
638.215	210.5
638.421	208.5
638.626	229.5
638.832	210.5
639.037	209.5
639.243	217.5
639.448	212.5
639.654	214.5
639.859	202.5
640.065	196.5
640.27	205.5
640.475	212.5
640.681	198.5
640.886	215.5
641.091	203.5
641.297	198.5
641.502	193.5
641.707	195.5
641.913	199.5
642.118	200.5
642.323	211.5
642.528	191.5
642.733	193.5
642.939	207.5
643.144	210.5
643.349	200.5
643.554	180.5
643.759	193.5
643.964	187.5
644.169	201.5
644.374	210.5
644.579	189.5
644.784	175.5
644.989	220.5
645.194	209.5
645.399	207.5
645.604	199.5
645.809	190.5
646.014	204.5
646.219	199.5
646.423	195.5
646.628	205.5
646.833	205.5
647.038	182.5
647.243	193.5
647.447	202.5
647.652	171.5
647.857	190.5
648.062	203.5
648.266	211.5
648.471	197.5
648.676	209.5
648.88	201.5
649.085	202.5
649.289	211.5
649.494	190.5
649.698	180.5
649.903	192.5
650.107	189.5
650.312	193.5
650.516	186.5
650.721	169.5
650.925	178.5
651.13	173.5
651.334	161.5
651.539	174.5
651.743	190.5
651.947	174.5
652.152	154.5
652.356	177.5
652.56	156.5
652.764	164.5
652.969	169.5
653.173	172.5
653.377	150.5
653.581	164.5
653.785	152.5
653.99	159.5
654.194	140.5
654.398	153.5
654.602	135.5
654.806	147.5
655.01	157.5
655.214	159.5
655.418	153.5
655.622	146.5
655.826	142.5
656.03	146.5
656.234	154.5
656.438	138.5
656.642	147.5
656.846	151.5
657.049	131.5
657.253	123.5
657.457	134.5
657.661	119.5
657.865	131.5
658.068	120.5
658.272	125.5
658.476	120.5
658.68	125.5
658.883	126.5
659.087	123.5
659.291	109.5
659.494	101.5
659.698	107.5
659.901	100.5
660.105	101.5
660.309	97.5
660.512	98.5
660.716	103.5
660.919	103.5
661.123	86.5
661.326	78.5
661.53	86.5
661.733	92.5
661.936	90.5
662.14	85.5
662.343	73.5
662.546	80.5
662.75	87.5
662.953	79.5
663.156	71.5
663.36	74.5
663.563	76.5
663.766	77.5
663.969	91.5
664.173	87.5
664.376	87.5
664.579	92.5
664.782	69.5
664.985	73.5
665.188	82.5
665.391	79.5
665.594	72.5
665.797	70.5
666	83.5
666.203	86.5
666.406	76.5
666.609	72.5
666.812	79.5
667.015	75.5
667.218	88.5
667.421	71.5
667.624	74.5
667.827	82.5
668.03	83.5
668.232	86.5
668.435	68.5
668.638	70.5
668.841	91.5
669.043	78.5
669.246	77.5
669.449	72.5
669.651	80.5
669.854	72.5
670.057	63.5
670.259	79.5
670.462	71.5
670.665	79.5
670.867	92.5
671.07	81.5
671.272	79.5
671.475	83.5
671.677	77.5
671.88	89.5
672.082	78.5
672.284	88.5
672.487	85.5
672.689	92.5
672.892	78.5
