Data from NiCl2@0.5M.TitratingCurve.Agarose3%dH2O.NegLispCup.LampEnergy10.LIBS07252019_HRD10591_18-19-06-571.txt Node
Date: Thu Jul 25 18:19:06 EDT 2019
User: cochatt
Spectrometer: HR+D1059
Trigger mode: 1
Integration Time (sec): 1.000000E-1
Scans to average: 1
Electric dark correction enabled: true
Nonlinearity correction enabled: false
Boxcar width: 0
XAxis mode: Wavelengths
Number of Pixels in Spectrum: 2048
>>>>>Begin Spectral Data<<<<<
223.165	-18.69
223.4	-18.69
223.635	-18.69
223.869	-8.69
224.104	-25.69
224.338	-15.69
224.573	-9.69
224.808	4.31
225.042	-4.69
225.277	-6.69
225.511	-14.69
225.746	0.31
225.98	0.31
226.215	10.31
226.449	13.31
226.683	16.31
226.918	32.31
227.152	27.31
227.387	42.31
227.621	56.31
227.856	41.31
228.09	38.31
228.324	47.31
228.559	53.31
228.793	84.31
229.027	114.31
229.262	111.31
229.496	136.31
229.73	112.31
229.964	132.31
230.199	131.31
230.433	136.31
230.667	142.31
230.901	140.31
231.136	142.31
231.37	142.31
231.604	134.31
231.838	141.31
232.072	153.31
232.306	154.31
232.541	156.31
232.775	152.31
233.009	141.31
233.243	145.31
233.477	139.31
233.711	155.31
233.945	164.31
234.179	150.31
234.413	131.31
234.647	164.31
234.881	139.31
235.115	151.31
235.349	160.31
235.583	144.31
235.817	149.31
236.051	178.31
236.285	139.31
236.519	142.31
236.753	155.31
236.987	171.31
237.221	155.31
237.455	155.31
237.689	162.31
237.922	178.31
238.156	164.31
238.39	151.31
238.624	159.31
238.858	165.31
239.091	172.31
239.325	170.31
239.559	175.31
239.793	182.31
240.027	185.31
240.26	178.31
240.494	172.31
240.728	188.31
240.961	184.31
241.195	182.31
241.429	178.31
241.662	191.31
241.896	191.31
242.13	203.31
242.363	210.31
242.597	190.31
242.83	216.31
243.064	207.31
243.298	189.31
243.531	198.31
243.765	205.31
243.998	210.31
244.232	213.31
244.465	205.31
244.699	220.31
244.932	206.31
245.166	209.31
245.399	229.31
245.633	231.31
245.866	213.31
246.099	214.31
246.333	239.31
246.566	219.31
246.8	219.31
247.033	238.31
247.266	234.31
247.5	236.31
247.733	233.31
247.966	227.31
248.2	234.31
248.433	228.31
248.666	223.31
248.899	240.31
249.133	242.31
249.366	244.31
249.599	265.31
249.832	245.31
250.066	239.31
250.299	262.31
250.532	256.31
250.765	259.31
250.998	246.31
251.231	250.31
251.465	275.31
251.698	279.31
251.931	261.31
252.164	270.31
252.397	262.31
252.63	260.31
252.863	267.31
253.096	264.31
253.329	278.31
253.562	277.31
253.795	278.31
254.028	261.31
254.261	285.31
254.494	290.31
254.727	267.31
254.96	283.31
255.193	282.31
255.426	284.31
255.659	291.31
255.892	294.31
256.124	291.31
256.357	303.31
256.59	299.31
256.823	288.31
257.056	280.31
257.289	296.31
257.521	306.31
257.754	303.31
257.987	295.31
258.22	308.31
258.452	306.31
258.685	312.31
258.918	310.31
259.151	310.31
259.383	312.31
259.616	298.31
259.849	328.31
260.081	312.31
260.314	318.31
260.547	302.31
260.779	305.31
261.012	321.31
261.244	317.31
261.477	329.31
261.71	319.31
261.942	340.31
262.175	345.31
262.407	333.31
262.64	341.31
262.872	333.31
263.105	342.31
263.337	334.31
263.57	335.31
263.802	328.31
264.035	334.31
264.267	339.31
264.499	346.31
264.732	349.31
264.964	366.31
265.197	367.31
265.429	359.31
265.661	338.31
265.894	326.31
266.126	359.31
266.358	363.31
266.591	372.31
266.823	356.31
267.055	357.31
267.287	370.31
267.52	357.31
267.752	352.31
267.984	344.31
268.216	362.31
268.448	387.31
268.681	376.31
268.913	374.31
269.145	387.31
269.377	370.31
269.609	358.31
269.841	372.31
270.073	376.31
270.306	385.31
270.538	394.31
270.77	377.31
271.002	384.31
271.234	379.31
271.466	396.31
271.698	382.31
271.93	365.31
272.162	392.31
272.394	398.31
272.626	421.31
272.858	420.31
273.09	413.31
273.322	393.31
273.553	367.31
273.785	404.31
274.017	401.31
274.249	404.31
274.481	412.31
274.713	413.31
274.945	417.31
275.176	408.31
275.408	421.31
275.64	414.31
275.872	407.31
276.104	412.31
276.335	421.31
276.567	422.31
276.799	432.31
277.031	435.31
277.262	435.31
277.494	444.31
277.726	419.31
277.957	431.31
278.189	425.31
278.421	429.31
278.652	450.31
278.884	450.31
279.115	434.31
279.347	441.31
279.579	434.31
279.81	438.31
280.042	447.31
280.273	471.31
280.505	462.31
280.736	449.31
280.968	452.31
281.199	478.31
281.431	462.31
281.662	460.31
281.894	460.31
282.125	447.31
282.356	490.31
282.588	466.31
282.819	481.31
283.051	484.31
283.282	464.31
283.513	479.31
283.745	494.31
283.976	487.31
284.207	487.31
284.439	475.31
284.67	477.31
284.901	479.31
285.132	498.31
285.364	489.31
285.595	481.31
285.826	467.31
286.057	493.31
286.288	490.31
286.52	504.31
286.751	494.31
286.982	501.31
287.213	509.31
287.444	515.31
287.675	485.31
287.906	506.31
288.138	510.31
288.369	486.31
288.6	500.31
288.831	521.31
289.062	515.31
289.293	512.31
289.524	503.31
289.755	521.31
289.986	520.31
290.217	541.31
290.448	522.31
290.679	530.31
290.91	517.31
291.141	537.31
291.371	523.31
291.602	554.31
291.833	512.31
292.064	528.31
292.295	526.31
292.526	525.31
292.757	532.31
292.987	528.31
293.218	530.31
293.449	523.31
293.68	550.31
293.91	531.31
294.141	540.31
294.372	500.31
294.603	556.31
294.833	569.31
295.064	548.31
295.295	563.31
295.525	556.31
295.756	516.31
295.987	552.31
296.217	540.31
296.448	552.31
296.679	558.31
296.909	563.31
297.14	565.31
297.37	563.31
297.601	553.31
297.831	573.31
298.062	562.31
298.292	594.31
298.523	603.31
298.753	584.31
298.984	562.31
299.214	576.31
299.445	572.31
299.675	597.31
299.905	591.31
300.136	594.31
300.366	618.31
300.597	608.31
300.827	620.31
301.057	613.31
301.288	600.31
301.518	591.31
301.748	608.31
301.979	629.31
302.209	630.31
302.439	607.31
302.669	598.31
302.9	598.31
303.13	596.31
303.36	603.31
303.59	628.31
303.82	580.31
304.051	630.31
304.281	603.31
304.511	598.31
304.741	622.31
304.971	615.31
305.201	635.31
305.431	634.31
305.661	640.31
305.891	616.31
306.121	632.31
306.352	622.31
306.582	593.31
306.812	605.31
307.042	611.31
307.272	596.31
307.502	599.31
307.731	612.31
307.961	608.31
308.191	595.31
308.421	617.31
308.651	606.31
308.881	600.31
309.111	599.31
309.341	622.31
309.571	619.31
309.8	602.31
310.03	619.31
310.26	633.31
310.49	619.31
310.72	622.31
310.949	593.31
311.179	636.31
311.409	643.31
311.639	631.31
311.868	648.31
312.098	655.31
312.328	635.31
312.557	630.31
312.787	641.31
313.017	629.31
313.246	658.31
313.476	654.31
313.706	661.31
313.935	654.31
314.165	666.31
314.394	660.31
314.624	656.31
314.853	644.31
315.083	641.31
315.312	651.31
315.542	667.31
315.771	627.31
316.001	663.31
316.23	653.31
316.46	646.31
316.689	646.31
316.919	654.31
317.148	640.31
317.377	655.31
317.607	628.31
317.836	648.31
318.065	646.31
318.295	626.31
318.524	626.31
318.753	621.31
318.983	672.31
319.212	638.31
319.441	659.31
319.67	654.31
319.9	656.31
320.129	646.31
320.358	642.31
320.587	648.31
320.816	659.31
321.046	675.31
321.275	681.31
321.504	651.31
321.733	655.31
321.962	662.31
322.191	677.31
322.42	681.31
322.649	650.31
322.878	648.31
323.108	668.31
323.337	691.31
323.566	693.31
323.795	720.31
324.024	684.31
324.253	703.31
324.482	702.31
324.71	701.31
324.939	694.31
325.168	674.31
325.397	700.31
325.626	714.31
325.855	694.31
326.084	710.31
326.313	727.31
326.542	694.31
326.77	727.31
326.999	727.31
327.228	699.31
327.457	700.31
327.686	724.31
327.914	720.31
328.143	702.31
328.372	732.31
328.6	734.31
328.829	706.31
329.058	711.31
329.287	701.31
329.515	713.31
329.744	706.31
329.972	706.31
330.201	722.31
330.43	727.31
330.658	718.31
330.887	738.31
331.115	745.31
331.344	750.31
331.572	724.31
331.801	775.31
332.03	768.31
332.258	794.31
332.486	801.31
332.715	821.31
332.943	839.31
333.172	876.31
333.4	867.31
333.629	875.31
333.857	901.31
334.085	865.31
334.314	891.31
334.542	895.31
334.771	884.31
334.999	873.31
335.227	858.31
335.455	846.31
335.684	861.31
335.912	847.31
336.14	847.31
336.369	854.31
336.597	854.31
336.825	872.31
337.053	836.31
337.281	854.31
337.51	835.31
337.738	807.31
337.966	804.31
338.194	826.31
338.422	806.31
338.65	778.31
338.878	791.31
339.106	764.31
339.334	807.31
339.562	794.31
339.79	770.31
340.018	760.31
340.246	722.31
340.474	743.31
340.702	747.31
340.93	763.31
341.158	779.31
341.386	770.31
341.614	775.31
341.842	764.31
342.07	737.31
342.298	726.31
342.526	715.31
342.754	736.31
342.981	758.31
343.209	747.31
343.437	798.31
343.665	829.31
343.893	862.31
344.12	875.31
344.348	847.31
344.576	818.31
344.804	797.31
345.031	813.31
345.259	788.31
345.487	762.31
345.714	743.31
345.942	758.31
346.17	765.31
346.397	754.31
346.625	747.31
346.853	734.31
347.08	727.31
347.308	720.31
347.535	738.31
347.763	712.31
347.99	715.31
348.218	757.31
348.445	718.31
348.673	704.31
348.9	707.31
349.128	736.31
349.355	741.31
349.583	754.31
349.81	711.31
350.037	715.31
350.265	702.31
350.492	690.31
350.72	721.31
350.947	671.31
351.174	721.31
351.402	726.31
351.629	712.31
351.856	741.31
352.083	709.31
352.311	684.31
352.538	706.31
352.765	732.31
352.992	685.31
353.22	695.31
353.447	670.31
353.674	676.31
353.901	684.31
354.128	666.31
354.355	683.31
354.583	682.31
354.81	700.31
355.037	677.31
355.264	694.31
355.491	686.31
355.718	679.31
355.945	703.31
356.172	698.31
356.399	684.31
356.626	715.31
356.853	727.31
357.08	694.31
357.307	696.31
357.534	705.31
357.761	704.31
357.988	710.31
358.215	698.31
358.441	686.31
358.668	669.31
358.895	655.31
359.122	700.31
359.349	688.31
359.576	694.31
359.802	680.31
360.029	680.31
360.256	694.31
360.483	698.31
360.709	678.31
360.936	682.31
361.163	678.31
361.39	690.31
361.616	694.31
361.843	716.31
362.07	747.31
362.296	726.31
362.523	684.31
362.749	688.31
362.976	682.31
363.203	656.31
363.429	664.31
363.656	678.31
363.882	683.31
364.109	671.31
364.335	694.31
364.562	672.31
364.788	685.31
365.015	690.31
365.241	670.31
365.468	700.31
365.694	683.31
365.92	660.31
366.147	666.31
366.373	679.31
366.599	676.31
366.826	694.31
367.052	699.31
367.278	683.31
367.505	668.31
367.731	693.31
367.957	679.31
368.184	675.31
368.41	700.31
368.636	686.31
368.862	700.31
369.089	668.31
369.315	669.31
369.541	685.31
369.767	709.31
369.993	699.31
370.219	720.31
370.445	714.31
370.672	726.31
370.898	702.31
371.124	705.31
371.35	724.31
371.576	735.31
371.802	735.31
372.028	704.31
372.254	696.31
372.48	748.31
372.706	736.31
372.932	733.31
373.158	735.31
373.384	723.31
373.61	724.31
373.835	750.31
374.061	743.31
374.287	713.31
374.513	750.31
374.739	751.31
374.965	770.31
375.191	792.31
375.416	772.31
375.642	752.31
375.868	756.31
376.094	748.31
376.319	716.31
376.545	739.31
376.771	720.31
376.997	717.31
377.222	706.31
377.448	728.31
377.674	720.31
377.899	724.31
378.125	709.31
378.35	700.31
378.576	698.31
378.802	709.31
379.027	687.31
379.253	711.31
379.478	700.31
379.704	694.31
379.929	695.31
380.155	724.31
380.38	731.31
380.606	720.31
380.831	716.31
381.057	734.31
381.282	714.31
381.507	724.31
381.733	724.31
381.958	700.31
382.184	719.31
382.409	725.31
382.634	715.31
382.86	744.31
383.085	735.31
383.31	758.31
383.535	766.31
383.761	754.31
383.986	779.31
384.211	784.31
384.436	794.31
384.662	784.31
384.887	834.31
385.112	815.31
385.337	822.31
385.562	838.31
385.787	832.31
386.013	850.31
386.238	850.31
386.463	842.31
386.688	842.31
386.913	833.31
387.138	791.31
387.363	824.31
387.588	818.31
387.813	819.31
388.038	811.31
388.263	850.31
388.488	836.31
388.713	802.31
388.938	834.31
389.163	812.31
389.387	831.31
389.612	788.31
389.837	816.31
390.062	820.31
390.287	810.31
390.512	833.31
390.736	810.31
390.961	848.31
391.186	827.31
391.411	865.31
391.636	865.31
391.86	899.31
392.085	882.31
392.31	916.31
392.534	899.31
392.759	887.31
392.984	887.31
393.208	864.31
393.433	905.31
393.658	842.31
393.882	850.31
394.107	855.31
394.331	900.31
394.556	872.31
394.78	872.31
395.005	899.31
395.229	898.31
395.454	893.31
395.678	894.31
395.903	916.31
396.127	929.31
396.352	879.31
396.576	893.31
396.801	882.31
397.025	878.31
397.249	896.31
397.474	924.31
397.698	900.31
397.922	931.31
398.147	927.31
398.371	964.31
398.595	955.31
398.82	1005.31
399.044	1062.31
399.268	1125.31
399.492	1273.31
399.717	1387.31
399.941	1370.31
400.165	1283.31
400.389	1182.31
400.613	1133.31
400.837	1040.31
401.062	1055.31
401.286	1019.31
401.51	1022.31
401.734	1016.31
401.958	1048.31
402.182	1008.31
402.406	1038.31
402.63	1048.31
402.854	1048.31
403.078	1056.31
403.302	1087.31
403.526	1094.31
403.75	1145.31
403.974	1144.31
404.198	1103.31
404.422	1116.31
404.645	1100.31
404.869	1108.31
405.093	1103.31
405.317	1134.31
405.541	1104.31
405.765	1085.31
405.988	1102.31
406.212	1120.31
406.436	1122.31
406.66	1123.31
406.883	1114.31
407.107	1188.31
407.331	1220.31
407.555	1272.31
407.778	1258.31
408.002	1242.31
408.226	1206.31
408.449	1188.31
408.673	1177.31
408.896	1148.31
409.12	1106.31
409.344	1163.31
409.567	1151.31
409.791	1154.31
410.014	1122.31
410.238	1101.31
410.461	1115.31
410.685	1078.31
410.908	1084.31
411.132	1089.31
411.355	1047.31
411.578	1063.31
411.802	1070.31
412.025	1097.31
412.249	1098.31
412.472	1071.31
412.695	1083.31
412.919	1036.31
413.142	1057.31
413.365	1018.31
413.589	1035.31
413.812	1020.31
414.035	1002.31
414.258	1036.31
414.482	1023.31
414.705	1021.31
414.928	1033.31
415.151	1049.31
415.374	1055.31
415.597	1001.31
415.821	997.31
416.044	1006.31
416.267	986.31
416.49	1025.31
416.713	1012.31
416.936	1037.31
417.159	1013.31
417.382	1019.31
417.605	1022.31
417.828	995.31
418.051	1000.31
418.274	1001.31
418.497	1021.31
418.72	1088.31
418.943	1033.31
419.166	1090.31
419.389	1141.31
419.611	1144.31
419.834	1118.31
420.057	1067.31
420.28	1036.31
420.503	1026.31
420.726	982.31
420.948	1018.31
421.171	1017.31
421.394	1018.31
421.617	1024.31
421.839	997.31
422.062	1021.31
422.285	1032.31
422.507	1050.31
422.73	1051.31
422.953	1039.31
423.175	1037.31
423.398	1040.31
423.621	1019.31
423.843	1054.31
424.066	1081.31
424.288	1036.31
424.511	1043.31
424.733	1055.31
424.956	1051.31
425.178	1060.31
425.401	1032.31
425.623	1028.31
425.846	994.31
426.068	1000.31
426.291	1004.31
426.513	1013.31
426.735	965.31
426.958	984.31
427.18	948.31
427.402	949.31
427.625	934.31
427.847	960.31
428.069	968.31
428.292	942.31
428.514	941.31
428.736	980.31
428.958	965.31
429.181	926.31
429.403	923.31
429.625	918.31
429.847	952.31
430.069	953.31
430.292	943.31
430.514	918.31
430.736	948.31
430.958	968.31
431.18	933.31
431.402	931.31
431.624	930.31
431.846	970.31
432.068	940.31
432.29	969.31
432.512	950.31
432.734	952.31
432.956	953.31
433.178	952.31
433.4	938.31
433.622	981.31
433.844	1002.31
434.066	972.31
434.287	991.31
434.509	1004.31
434.731	1018.31
434.953	1028.31
435.175	1067.31
435.397	1036.31
435.618	1011.31
435.84	995.31
436.062	958.31
436.284	964.31
436.505	967.31
436.727	962.31
436.949	980.31
437.17	960.31
437.392	943.31
437.614	940.31
437.835	910.31
438.057	926.31
438.278	923.31
438.5	938.31
438.721	932.31
438.943	934.31
439.165	905.31
439.386	949.31
439.608	967.31
439.829	958.31
440.05	963.31
440.272	992.31
440.493	966.31
440.715	987.31
440.936	1012.31
441.158	1002.31
441.379	1011.31
441.6	1080.31
441.822	1053.31
442.043	1033.31
442.264	1023.31
442.486	1007.31
442.707	1028.31
442.928	1029.31
443.149	1052.31
443.371	1048.31
443.592	1047.31
443.813	1052.31
444.034	1063.31
444.255	1114.31
444.476	1140.31
444.698	1182.31
444.919	1223.31
445.14	1288.31
445.361	1149.31
445.582	1110.31
445.803	1040.31
446.024	1034.31
446.245	1007.31
446.466	998.31
446.687	968.31
446.908	1003.31
447.129	931.31
447.35	963.31
447.571	918.31
447.792	935.31
448.013	922.31
448.234	934.31
448.455	904.31
448.675	913.31
448.896	916.31
449.117	895.31
449.338	904.31
449.559	903.31
449.779	903.31
450	879.31
450.221	889.31
450.442	922.31
450.662	889.31
450.883	910.31
451.104	910.31
451.324	919.31
451.545	910.31
451.766	912.31
451.986	910.31
452.207	907.31
452.428	908.31
452.648	888.31
452.869	890.31
453.089	879.31
453.31	896.31
453.53	856.31
453.751	868.31
453.971	875.31
454.192	888.31
454.412	860.31
454.633	884.31
454.853	858.31
455.073	830.31
455.294	886.31
455.514	882.31
455.734	871.31
455.955	857.31
456.175	855.31
456.395	846.31
456.616	837.31
456.836	844.31
457.056	836.31
457.276	840.31
457.497	877.31
457.717	839.31
457.937	849.31
458.157	856.31
458.377	869.31
458.598	908.31
458.818	882.31
459.038	918.31
459.258	927.31
459.478	984.31
459.698	1042.31
459.918	1028.31
460.138	1034.31
460.358	1104.31
460.578	1113.31
460.798	1103.31
461.018	1104.31
461.238	1138.31
461.458	1116.31
461.678	1114.31
461.898	1132.31
462.118	1149.31
462.338	1163.31
462.558	1208.31
462.777	1232.31
462.997	1312.31
463.217	1382.31
463.437	1405.31
463.657	1328.31
463.876	1272.31
464.096	1294.31
464.316	1262.31
464.536	1226.31
464.755	1232.31
464.975	1199.31
465.195	1134.31
465.414	1121.31
465.634	1059.31
465.854	1037.31
466.073	1015.31
466.293	982.31
466.512	962.31
466.732	957.31
466.951	951.31
467.171	960.31
467.391	967.31
467.61	948.31
467.829	939.31
468.049	938.31
468.268	931.31
468.488	925.31
468.707	912.31
468.927	906.31
469.146	924.31
469.365	975.31
469.585	920.31
469.804	948.31
470.023	962.31
470.243	983.31
470.462	960.31
470.681	979.31
470.901	951.31
471.12	961.31
471.339	960.31
471.558	973.31
471.777	933.31
471.997	947.31
472.216	908.31
472.435	926.31
472.654	931.31
472.873	904.31
473.092	909.31
473.311	926.31
473.53	899.31
473.749	914.31
473.968	934.31
474.187	912.31
474.406	912.31
474.625	899.31
474.844	934.31
475.063	947.31
475.282	926.31
475.501	934.31
475.72	948.31
475.939	952.31
476.158	965.31
476.377	918.31
476.596	939.31
476.814	994.31
477.033	958.31
477.252	981.31
477.471	1025.31
477.69	1024.31
477.908	1038.31
478.127	1038.31
478.346	1056.31
478.564	1077.31
478.783	1088.31
479.002	1130.31
479.22	1117.31
479.439	1151.31
479.658	1116.31
479.876	1112.31
480.095	1111.31
480.313	1151.31
480.532	1146.31
480.751	1180.31
480.969	1130.31
481.188	1131.31
481.406	1094.31
481.624	1044.31
481.843	1036.31
482.061	1028.31
482.28	1031.31
482.498	1050.31
482.717	1041.31
482.935	1054.31
483.153	1065.31
483.372	1064.31
483.59	1095.31
483.808	1099.31
484.027	1063.31
484.245	1058.31
484.463	1070.31
484.681	1092.31
484.9	1110.31
485.118	1087.31
485.336	1048.31
485.554	1068.31
485.772	1094.31
485.99	1100.31
486.209	1115.31
486.427	1109.31
486.645	1116.31
486.863	1109.31
487.081	1101.31
487.299	1076.31
487.517	1108.31
487.735	1114.31
487.953	1132.31
488.171	1122.31
488.389	1114.31
488.607	1101.31
488.825	1080.31
489.043	1081.31
489.261	1098.31
489.479	1065.31
489.696	1103.31
489.914	1113.31
490.132	1111.31
490.35	1140.31
490.568	1116.31
490.786	1124.31
491.003	1107.31
491.221	1131.31
491.439	1172.31
491.657	1127.31
491.874	1147.31
492.092	1151.31
492.31	1163.31
492.527	1186.31
492.745	1168.31
492.963	1166.31
493.18	1182.31
493.398	1178.31
493.615	1161.31
493.833	1158.31
494.05	1184.31
494.268	1183.31
494.485	1195.31
494.703	1160.31
494.92	1190.31
495.138	1163.31
495.355	1186.31
495.573	1174.31
495.79	1173.31
496.008	1194.31
496.225	1237.31
496.442	1226.31
496.66	1236.31
496.877	1234.31
497.094	1276.31
497.312	1275.31
497.529	1309.31
497.746	1295.31
497.963	1342.31
498.181	1392.31
498.398	1448.31
498.615	1533.31
498.832	1607.31
499.049	1682.31
499.267	1814.31
499.484	1928.31
499.701	2056.31
499.918	2253.31
500.135	2510.31
500.352	2715.31
500.569	2782.31
500.786	2809.31
501.003	2635.31
501.22	2429.31
501.437	2226.31
501.654	2041.31
501.871	1884.31
502.088	1792.31
502.305	1674.31
502.522	1637.31
502.739	1564.31
502.956	1462.31
503.172	1427.31
503.389	1369.31
503.606	1348.31
503.823	1352.31
504.04	1303.31
504.256	1290.31
504.473	1263.31
504.69	1306.31
504.907	1279.31
505.123	1247.31
505.34	1228.31
505.557	1178.31
505.773	1147.31
505.99	1097.31
506.207	1115.31
506.423	1085.31
506.64	1078.31
506.856	1021.31
507.073	1059.31
507.289	1056.31
507.506	1048.31
507.722	1029.31
507.939	1007.31
508.155	1032.31
508.372	975.31
508.588	971.31
508.805	989.31
509.021	985.31
509.238	991.31
509.454	987.31
509.67	959.31
509.887	943.31
510.103	949.31
510.319	946.31
510.536	950.31
510.752	928.31
510.968	932.31
511.184	930.31
511.401	906.31
511.617	918.31
511.833	901.31
512.049	925.31
512.265	935.31
512.481	958.31
512.698	925.31
512.914	932.31
513.13	918.31
513.346	956.31
513.562	927.31
513.778	930.31
513.994	941.31
514.21	947.31
514.426	948.31
514.642	978.31
514.858	981.31
515.074	953.31
515.29	958.31
515.506	986.31
515.721	987.31
515.937	989.31
516.153	991.31
516.369	1038.31
516.585	1048.31
516.801	1053.31
517.016	1119.31
517.232	1135.31
517.448	1191.31
517.664	1194.31
517.879	1215.31
518.095	1179.31
518.311	1180.31
518.527	1150.31
518.742	1101.31
518.958	1096.31
519.173	1029.31
519.389	1017.31
519.605	1014.31
519.82	1010.31
520.036	984.31
520.251	965.31
520.467	934.31
520.682	950.31
520.898	941.31
521.113	908.31
521.329	898.31
521.544	914.31
521.76	928.31
521.975	907.31
522.19	900.31
522.406	886.31
522.621	875.31
522.836	898.31
523.052	900.31
523.267	870.31
523.482	862.31
523.698	855.31
523.913	853.31
524.128	866.31
524.343	856.31
524.559	864.31
524.774	876.31
524.989	866.31
525.204	863.31
525.419	842.31
525.634	834.31
525.849	847.31
526.064	865.31
526.28	838.31
526.495	832.31
526.71	847.31
526.925	855.31
527.14	844.31
527.355	842.31
527.57	833.31
527.785	834.31
527.999	822.31
528.214	814.31
528.429	822.31
528.644	837.31
528.859	823.31
529.074	835.31
529.289	840.31
529.503	857.31
529.718	844.31
529.933	829.31
530.148	819.31
530.363	850.31
530.577	820.31
530.792	834.31
531.007	809.31
531.221	831.31
531.436	803.31
531.651	819.31
531.865	827.31
532.08	810.31
532.295	796.31
532.509	829.31
532.724	805.31
532.938	822.31
533.153	814.31
533.367	814.31
533.582	811.31
533.796	821.31
534.011	807.31
534.225	825.31
534.44	807.31
534.654	797.31
534.868	797.31
535.083	809.31
535.297	792.31
535.511	796.31
535.726	786.31
535.94	798.31
536.154	787.31
536.369	779.31
536.583	769.31
536.797	750.31
537.011	777.31
537.225	763.31
537.44	772.31
537.654	754.31
537.868	778.31
538.082	778.31
538.296	746.31
538.51	765.31
538.724	770.31
538.938	766.31
539.153	758.31
539.367	752.31
539.581	747.31
539.795	758.31
540.009	746.31
540.222	728.31
540.436	731.31
540.65	740.31
540.864	745.31
541.078	763.31
541.292	739.31
541.506	754.31
541.72	736.31
541.934	785.31
542.147	782.31
542.361	768.31
542.575	767.31
542.789	763.31
543.002	728.31
543.216	754.31
543.43	750.31
543.644	746.31
543.857	729.31
544.071	744.31
544.285	769.31
544.498	756.31
544.712	744.31
544.925	742.31
545.139	773.31
545.352	762.31
545.566	778.31
545.779	769.31
545.993	783.31
546.206	772.31
546.42	759.31
546.633	782.31
546.847	765.31
547.06	758.31
547.274	755.31
547.487	760.31
547.7	754.31
547.914	779.31
548.127	785.31
548.34	779.31
548.554	744.31
548.767	764.31
548.98	768.31
549.193	764.31
549.407	784.31
549.62	823.31
549.833	760.31
550.046	763.31
550.259	744.31
550.473	760.31
550.686	742.31
550.899	749.31
551.112	751.31
551.325	763.31
551.538	766.31
551.751	747.31
551.964	742.31
552.177	741.31
552.39	746.31
552.603	765.31
552.816	775.31
553.029	794.31
553.242	795.31
553.455	823.31
553.667	786.31
553.88	809.31
554.093	774.31
554.306	759.31
554.519	769.31
554.732	740.31
554.944	741.31
555.157	706.31
555.37	703.31
555.583	694.31
555.795	706.31
556.008	685.31
556.221	687.31
556.433	667.31
556.646	676.31
556.859	666.31
557.071	677.31
557.284	645.31
557.496	664.31
557.709	652.31
557.921	652.31
558.134	632.31
558.346	632.31
558.559	660.31
558.771	662.31
558.984	648.31
559.196	659.31
559.409	637.31
559.621	622.31
559.833	640.31
560.046	626.31
560.258	603.31
560.47	601.31
560.683	642.31
560.895	647.31
561.107	610.31
561.32	646.31
561.532	634.31
561.744	635.31
561.956	633.31
562.168	630.31
562.381	634.31
562.593	618.31
562.805	623.31
563.017	663.31
563.229	630.31
563.441	642.31
563.653	639.31
563.865	616.31
564.077	642.31
564.289	644.31
564.501	641.31
564.713	683.31
564.925	634.31
565.137	675.31
565.349	676.31
565.561	685.31
565.773	725.31
565.985	742.31
566.197	782.31
566.408	817.31
566.62	806.31
566.832	894.31
567.044	894.31
567.255	908.31
567.467	943.31
567.679	959.31
567.891	1004.31
568.102	1007.31
568.314	944.31
568.526	879.31
568.737	872.31
568.949	808.31
569.161	740.31
569.372	699.31
569.584	684.31
569.795	669.31
570.007	640.31
570.218	650.31
570.43	630.31
570.641	618.31
570.853	628.31
571.064	616.31
571.276	628.31
571.487	594.31
571.698	615.31
571.91	589.31
572.121	566.31
572.333	552.31
572.544	543.31
572.755	543.31
572.966	518.31
573.178	536.31
573.389	527.31
573.6	522.31
573.811	516.31
574.023	483.31
574.234	503.31
574.445	501.31
574.656	519.31
574.867	541.31
575.078	506.31
575.289	506.31
575.501	539.31
575.712	503.31
575.923	474.31
576.134	468.31
576.345	474.31
576.556	492.31
576.767	488.31
576.978	486.31
577.188	487.31
577.399	458.31
577.61	461.31
577.821	482.31
578.032	453.31
578.243	480.31
578.454	474.31
578.665	455.31
578.875	459.31
579.086	447.31
579.297	455.31
579.508	425.31
579.718	425.31
579.929	438.31
580.14	454.31
580.35	439.31
580.561	429.31
580.772	456.31
580.982	431.31
581.193	444.31
581.403	438.31
581.614	429.31
581.825	428.31
582.035	416.31
582.246	436.31
582.456	446.31
582.667	442.31
582.877	436.31
583.087	434.31
583.298	423.31
583.508	416.31
583.719	416.31
583.929	437.31
584.139	406.31
584.35	436.31
584.56	425.31
584.77	426.31
584.981	416.31
585.191	402.31
585.401	418.31
585.611	422.31
585.821	425.31
586.032	429.31
586.242	418.31
586.452	408.31
586.662	416.31
586.872	410.31
587.082	397.31
587.292	407.31
587.502	407.31
587.713	389.31
587.923	378.31
588.133	404.31
588.343	402.31
588.553	406.31
588.762	408.31
588.972	441.31
589.182	545.31
589.392	521.31
589.602	412.31
589.812	528.31
590.022	456.31
590.232	403.31
590.441	406.31
590.651	414.31
590.861	408.31
591.071	413.31
591.281	410.31
591.49	410.31
591.7	409.31
591.91	422.31
592.119	435.31
592.329	431.31
592.539	435.31
592.748	466.31
592.958	463.31
593.167	460.31
593.377	472.31
593.587	475.31
593.796	474.31
594.006	472.31
594.215	488.31
594.424	476.31
594.634	464.31
594.843	457.31
595.053	444.31
595.262	451.31
595.472	440.31
595.681	409.31
595.89	402.31
596.1	392.31
596.309	388.31
596.518	402.31
596.727	397.31
596.937	400.31
597.146	384.31
597.355	350.31
597.564	375.31
597.774	374.31
597.983	376.31
598.192	355.31
598.401	358.31
598.61	353.31
598.819	347.31
599.028	346.31
599.237	343.31
599.446	362.31
599.655	363.31
599.864	331.31
600.073	344.31
600.282	343.31
600.491	336.31
600.7	341.31
600.909	363.31
601.118	337.31
601.327	337.31
601.536	333.31
601.745	352.31
601.953	333.31
602.162	314.31
602.371	319.31
602.58	321.31
602.789	343.31
602.997	332.31
603.206	338.31
603.415	324.31
603.623	330.31
603.832	321.31
604.041	318.31
604.249	321.31
604.458	322.31
604.666	310.31
604.875	326.31
605.084	317.31
605.292	331.31
605.501	309.31
605.709	328.31
605.918	325.31
606.126	327.31
606.334	325.31
606.543	308.31
606.751	313.31
606.96	299.31
607.168	335.31
607.376	317.31
607.585	308.31
607.793	308.31
608.001	308.31
608.21	320.31
608.418	312.31
608.626	302.31
608.834	326.31
609.043	316.31
609.251	314.31
609.459	295.31
609.667	307.31
609.875	310.31
610.083	303.31
610.291	311.31
610.499	316.31
610.707	289.31
610.916	303.31
611.124	288.31
611.332	288.31
611.54	295.31
611.748	299.31
611.955	284.31
612.163	299.31
612.371	295.31
612.579	307.31
612.787	292.31
612.995	293.31
613.203	288.31
613.411	271.31
613.618	286.31
613.826	295.31
614.034	279.31
614.242	279.31
614.449	276.31
614.657	294.31
614.865	289.31
615.072	274.31
615.28	281.31
615.488	281.31
615.695	293.31
615.903	304.31
616.111	288.31
616.318	302.31
616.526	299.31
616.733	296.31
616.941	300.31
617.148	298.31
617.356	300.31
617.563	276.31
617.771	290.31
617.978	291.31
618.185	278.31
618.393	271.31
618.6	279.31
618.807	298.31
619.015	282.31
619.222	290.31
619.429	293.31
619.637	286.31
619.844	281.31
620.051	272.31
620.258	282.31
620.466	292.31
620.673	275.31
620.88	273.31
621.087	285.31
621.294	271.31
621.501	263.31
621.708	284.31
621.915	277.31
622.122	252.31
622.329	263.31
622.536	270.31
622.743	266.31
622.95	262.31
623.157	280.31
623.364	263.31
623.571	247.31
623.778	261.31
623.985	262.31
624.192	244.31
624.399	242.31
624.606	258.31
624.812	265.31
625.019	256.31
625.226	264.31
625.433	266.31
625.639	250.31
625.846	233.31
626.053	268.31
626.259	246.31
626.466	246.31
626.673	238.31
626.879	234.31
627.086	253.31
627.293	231.31
627.499	243.31
627.706	272.31
627.912	249.31
628.119	238.31
628.325	242.31
628.532	237.31
628.738	221.31
628.945	247.31
629.151	243.31
629.357	244.31
629.564	245.31
629.77	225.31
629.976	228.31
630.183	235.31
630.389	242.31
630.595	235.31
630.802	228.31
631.008	235.31
631.214	228.31
631.42	227.31
631.627	231.31
631.833	225.31
632.039	239.31
632.245	227.31
632.451	233.31
632.657	226.31
632.863	238.31
633.069	236.31
633.275	235.31
633.481	221.31
633.688	216.31
633.893	220.31
634.099	226.31
634.305	220.31
634.511	226.31
634.717	227.31
634.923	212.31
635.129	216.31
635.335	218.31
635.541	223.31
635.747	215.31
635.952	223.31
636.158	216.31
636.364	214.31
636.57	219.31
636.775	196.31
636.981	206.31
637.187	223.31
637.392	191.31
637.598	200.31
637.804	210.31
638.009	217.31
638.215	235.31
638.421	197.31
638.626	213.31
638.832	200.31
639.037	191.31
639.243	227.31
639.448	213.31
639.654	213.31
639.859	214.31
640.065	195.31
640.27	208.31
640.475	197.31
640.681	203.31
640.886	211.31
641.091	202.31
641.297	207.31
641.502	212.31
641.707	196.31
641.913	203.31
642.118	198.31
642.323	206.31
642.528	200.31
642.733	202.31
642.939	190.31
643.144	195.31
643.349	201.31
643.554	193.31
643.759	188.31
643.964	198.31
644.169	194.31
644.374	198.31
644.579	199.31
644.784	200.31
644.989	203.31
645.194	199.31
645.399	201.31
645.604	195.31
645.809	201.31
646.014	200.31
646.219	212.31
646.423	197.31
646.628	204.31
646.833	191.31
647.038	205.31
647.243	199.31
647.447	188.31
647.652	186.31
647.857	200.31
648.062	209.31
648.266	206.31
648.471	189.31
648.676	203.31
648.88	206.31
649.085	201.31
649.289	209.31
649.494	196.31
649.698	191.31
649.903	199.31
650.107	200.31
650.312	188.31
650.516	183.31
650.721	196.31
650.925	182.31
651.13	164.31
651.334	174.31
651.539	174.31
651.743	174.31
651.947	185.31
652.152	184.31
652.356	170.31
652.56	176.31
652.764	161.31
652.969	164.31
653.173	175.31
653.377	146.31
653.581	160.31
653.785	150.31
653.99	172.31
654.194	165.31
654.398	157.31
654.602	153.31
654.806	149.31
655.01	168.31
655.214	144.31
655.418	147.31
655.622	158.31
655.826	163.31
656.03	158.31
656.234	170.31
656.438	149.31
656.642	165.31
656.846	152.31
657.049	142.31
657.253	162.31
657.457	135.31
657.661	144.31
657.865	124.31
658.068	129.31
658.272	123.31
658.476	110.31
658.68	104.31
658.883	114.31
659.087	113.31
659.291	124.31
659.494	92.31
659.698	109.31
659.901	105.31
660.105	93.31
660.309	111.31
660.512	106.31
660.716	104.31
660.919	106.31
661.123	98.31
661.326	95.31
661.53	101.31
661.733	115.31
661.936	91.31
662.14	90.31
662.343	83.31
662.546	95.31
662.75	81.31
662.953	101.31
663.156	90.31
663.36	90.31
663.563	84.31
663.766	81.31
663.969	93.31
664.173	80.31
664.376	90.31
664.579	95.31
664.782	102.31
664.985	91.31
665.188	79.31
665.391	80.31
665.594	88.31
665.797	77.31
666	95.31
666.203	81.31
666.406	79.31
666.609	75.31
666.812	89.31
667.015	93.31
667.218	93.31
667.421	75.31
667.624	77.31
667.827	103.31
668.03	91.31
668.232	79.31
668.435	102.31
668.638	82.31
668.841	87.31
669.043	77.31
669.246	84.31
669.449	93.31
669.651	85.31
669.854	89.31
670.057	86.31
670.259	90.31
670.462	102.31
670.665	89.31
670.867	81.31
671.07	99.31
671.272	100.31
671.475	70.31
671.677	98.31
671.88	98.31
672.082	82.31
672.284	84.31
672.487	87.31
672.689	76.31
672.892	67.31
