Data from NiCl2@0.5M.TitratingCurve.Agarose3%dH2O.NegLispCup.LampEnergy10.LIBS07252019_HRD10591_18-20-03-571.txt Node
Date: Thu Jul 25 18:20:03 EDT 2019
User: cochatt
Spectrometer: HR+D1059
Trigger mode: 1
Integration Time (sec): 1.000000E-1
Scans to average: 1
Electric dark correction enabled: true
Nonlinearity correction enabled: false
Boxcar width: 0
XAxis mode: Wavelengths
Number of Pixels in Spectrum: 2048
>>>>>Begin Spectral Data<<<<<
223.165	-20.94
223.4	-20.94
223.635	-20.94
223.869	-27.94
224.104	-15.94
224.338	-13.94
224.573	-2.94
224.808	-9.94
225.042	-0.94
225.277	-3.94
225.511	4.06
225.746	-6.94
225.98	2.06
226.215	10.06
226.449	12.06
226.683	26.06
226.918	19.06
227.152	30.06
227.387	45.06
227.621	37.06
227.856	50.06
228.09	37.06
228.324	52.06
228.559	52.06
228.793	74.06
229.027	128.06
229.262	146.06
229.496	116.06
229.73	140.06
229.964	150.06
230.199	164.06
230.433	160.06
230.667	145.06
230.901	160.06
231.136	168.06
231.37	154.06
231.604	176.06
231.838	182.06
232.072	176.06
232.306	178.06
232.541	169.06
232.775	160.06
233.009	165.06
233.243	173.06
233.477	185.06
233.711	180.06
233.945	182.06
234.179	166.06
234.413	184.06
234.647	178.06
234.881	193.06
235.115	178.06
235.349	170.06
235.583	165.06
235.817	167.06
236.051	184.06
236.285	162.06
236.519	185.06
236.753	184.06
236.987	182.06
237.221	198.06
237.455	189.06
237.689	181.06
237.922	187.06
238.156	195.06
238.39	184.06
238.624	194.06
238.858	178.06
239.091	197.06
239.325	200.06
239.559	198.06
239.793	222.06
240.027	220.06
240.26	204.06
240.494	198.06
240.728	208.06
240.961	205.06
241.195	200.06
241.429	210.06
241.662	216.06
241.896	236.06
242.13	232.06
242.363	204.06
242.597	208.06
242.83	231.06
243.064	218.06
243.298	234.06
243.531	227.06
243.765	232.06
243.998	237.06
244.232	243.06
244.465	250.06
244.699	240.06
244.932	235.06
245.166	267.06
245.399	262.06
245.633	248.06
245.866	260.06
246.099	257.06
246.333	274.06
246.566	264.06
246.8	256.06
247.033	260.06
247.266	275.06
247.5	278.06
247.733	271.06
247.966	272.06
248.2	288.06
248.433	260.06
248.666	282.06
248.899	271.06
249.133	293.06
249.366	285.06
249.599	299.06
249.832	279.06
250.066	287.06
250.299	280.06
250.532	279.06
250.765	310.06
250.998	309.06
251.231	329.06
251.465	320.06
251.698	306.06
251.931	326.06
252.164	325.06
252.397	321.06
252.63	310.06
252.863	321.06
253.096	321.06
253.329	328.06
253.562	324.06
253.795	333.06
254.028	327.06
254.261	296.06
254.494	321.06
254.727	330.06
254.96	334.06
255.193	336.06
255.426	359.06
255.659	336.06
255.892	337.06
256.124	348.06
256.357	336.06
256.59	348.06
256.823	338.06
257.056	339.06
257.289	370.06
257.521	357.06
257.754	364.06
257.987	353.06
258.22	358.06
258.452	361.06
258.685	362.06
258.918	342.06
259.151	365.06
259.383	371.06
259.616	370.06
259.849	374.06
260.081	374.06
260.314	388.06
260.547	365.06
260.779	390.06
261.012	395.06
261.244	377.06
261.477	392.06
261.71	386.06
261.942	396.06
262.175	365.06
262.407	396.06
262.64	362.06
262.872	377.06
263.105	391.06
263.337	420.06
263.57	401.06
263.802	403.06
264.035	399.06
264.267	404.06
264.499	397.06
264.732	423.06
264.964	426.06
265.197	424.06
265.429	404.06
265.661	427.06
265.894	427.06
266.126	416.06
266.358	423.06
266.591	431.06
266.823	432.06
267.055	441.06
267.287	446.06
267.52	428.06
267.752	444.06
267.984	452.06
268.216	449.06
268.448	451.06
268.681	460.06
268.913	462.06
269.145	462.06
269.377	454.06
269.609	460.06
269.841	456.06
270.073	467.06
270.306	453.06
270.538	449.06
270.77	453.06
271.002	467.06
271.234	478.06
271.466	480.06
271.698	473.06
271.93	485.06
272.162	485.06
272.394	495.06
272.626	484.06
272.858	458.06
273.09	476.06
273.322	497.06
273.553	476.06
273.785	473.06
274.017	507.06
274.249	483.06
274.481	478.06
274.713	483.06
274.945	514.06
275.176	497.06
275.408	494.06
275.64	529.06
275.872	512.06
276.104	524.06
276.335	522.06
276.567	515.06
276.799	508.06
277.031	518.06
277.262	532.06
277.494	514.06
277.726	540.06
277.957	535.06
278.189	553.06
278.421	516.06
278.652	525.06
278.884	538.06
279.115	520.06
279.347	555.06
279.579	538.06
279.81	532.06
280.042	552.06
280.273	563.06
280.505	558.06
280.736	553.06
280.968	556.06
281.199	574.06
281.431	579.06
281.662	573.06
281.894	568.06
282.125	571.06
282.356	572.06
282.588	584.06
282.819	570.06
283.051	590.06
283.282	571.06
283.513	590.06
283.745	578.06
283.976	590.06
284.207	590.06
284.439	616.06
284.67	578.06
284.901	595.06
285.132	589.06
285.364	585.06
285.595	605.06
285.826	597.06
286.057	593.06
286.288	608.06
286.52	591.06
286.751	598.06
286.982	599.06
287.213	593.06
287.444	595.06
287.675	610.06
287.906	633.06
288.138	633.06
288.369	608.06
288.6	609.06
288.831	593.06
289.062	615.06
289.293	611.06
289.524	616.06
289.755	628.06
289.986	620.06
290.217	618.06
290.448	625.06
290.679	634.06
290.91	638.06
291.141	617.06
291.371	656.06
291.602	646.06
291.833	625.06
292.064	631.06
292.295	641.06
292.526	636.06
292.757	650.06
292.987	637.06
293.218	634.06
293.449	661.06
293.68	640.06
293.91	659.06
294.141	664.06
294.372	637.06
294.603	660.06
294.833	678.06
295.064	678.06
295.295	681.06
295.525	652.06
295.756	672.06
295.987	670.06
296.217	688.06
296.448	680.06
296.679	668.06
296.909	685.06
297.14	694.06
297.37	709.06
297.601	673.06
297.831	674.06
298.062	690.06
298.292	707.06
298.523	746.06
298.753	727.06
298.984	720.06
299.214	715.06
299.445	728.06
299.675	694.06
299.905	732.06
300.136	725.06
300.366	738.06
300.597	769.06
300.827	720.06
301.057	731.06
301.288	729.06
301.518	740.06
301.748	727.06
301.979	744.06
302.209	754.06
302.439	740.06
302.669	744.06
302.9	746.06
303.13	753.06
303.36	756.06
303.59	740.06
303.82	752.06
304.051	743.06
304.281	756.06
304.511	728.06
304.741	749.06
304.971	749.06
305.201	757.06
305.431	754.06
305.661	772.06
305.891	775.06
306.121	757.06
306.352	755.06
306.582	752.06
306.812	769.06
307.042	745.06
307.272	742.06
307.502	753.06
307.731	728.06
307.961	754.06
308.191	731.06
308.421	739.06
308.651	747.06
308.881	740.06
309.111	725.06
309.341	738.06
309.571	731.06
309.8	734.06
310.03	741.06
310.26	799.06
310.49	790.06
310.72	787.06
310.949	759.06
311.179	758.06
311.409	769.06
311.639	783.06
311.868	786.06
312.098	793.06
312.328	783.06
312.557	756.06
312.787	772.06
313.017	784.06
313.246	795.06
313.476	796.06
313.706	812.06
313.935	814.06
314.165	794.06
314.394	782.06
314.624	788.06
314.853	797.06
315.083	778.06
315.312	804.06
315.542	810.06
315.771	781.06
316.001	808.06
316.23	808.06
316.46	814.06
316.689	814.06
316.919	791.06
317.148	796.06
317.377	805.06
317.607	785.06
317.836	782.06
318.065	778.06
318.295	793.06
318.524	779.06
318.753	758.06
318.983	796.06
319.212	787.06
319.441	785.06
319.67	810.06
319.9	799.06
320.129	804.06
320.358	795.06
320.587	810.06
320.816	796.06
321.046	791.06
321.275	807.06
321.504	800.06
321.733	830.06
321.962	792.06
322.191	802.06
322.42	801.06
322.649	820.06
322.878	835.06
323.108	805.06
323.337	873.06
323.566	830.06
323.795	866.06
324.024	820.06
324.253	841.06
324.482	825.06
324.71	822.06
324.939	824.06
325.168	881.06
325.397	850.06
325.626	852.06
325.855	850.06
326.084	898.06
326.313	854.06
326.542	871.06
326.77	900.06
326.999	858.06
327.228	864.06
327.457	890.06
327.686	851.06
327.914	864.06
328.143	864.06
328.372	867.06
328.6	883.06
328.829	868.06
329.058	871.06
329.287	873.06
329.515	881.06
329.744	869.06
329.972	908.06
330.201	878.06
330.43	885.06
330.658	900.06
330.887	895.06
331.115	893.06
331.344	914.06
331.572	895.06
331.801	932.06
332.03	941.06
332.258	938.06
332.486	956.06
332.715	978.06
332.943	991.06
333.172	995.06
333.4	1014.06
333.629	1040.06
333.857	1006.06
334.085	1077.06
334.314	1052.06
334.542	1074.06
334.771	1065.06
334.999	1072.06
335.227	1049.06
335.455	1043.06
335.684	1030.06
335.912	1058.06
336.14	1057.06
336.369	1043.06
336.597	1056.06
336.825	1082.06
337.053	1069.06
337.281	1056.06
337.51	1058.06
337.738	1033.06
337.966	1014.06
338.194	1011.06
338.422	1030.06
338.65	950.06
338.878	957.06
339.106	961.06
339.334	993.06
339.562	980.06
339.79	922.06
340.018	934.06
340.246	928.06
340.474	925.06
340.702	924.06
340.93	917.06
341.158	916.06
341.386	959.06
341.614	1013.06
341.842	980.06
342.07	932.06
342.298	920.06
342.526	909.06
342.754	903.06
342.981	898.06
343.209	916.06
343.437	961.06
343.665	988.06
343.893	998.06
344.12	1028.06
344.348	1025.06
344.576	1014.06
344.804	998.06
345.031	995.06
345.259	969.06
345.487	968.06
345.714	952.06
345.942	969.06
346.17	994.06
346.397	969.06
346.625	936.06
346.853	898.06
347.08	888.06
347.308	898.06
347.535	913.06
347.763	891.06
347.99	865.06
348.218	868.06
348.445	878.06
348.673	905.06
348.9	882.06
349.128	885.06
349.355	902.06
349.583	921.06
349.81	852.06
350.037	858.06
350.265	868.06
350.492	868.06
350.72	829.06
350.947	854.06
351.174	880.06
351.402	885.06
351.629	913.06
351.856	907.06
352.083	857.06
352.311	884.06
352.538	944.06
352.765	965.06
352.992	884.06
353.22	815.06
353.447	806.06
353.674	800.06
353.901	819.06
354.128	822.06
354.355	827.06
354.583	808.06
354.81	837.06
355.037	823.06
355.264	842.06
355.491	810.06
355.718	848.06
355.945	812.06
356.172	843.06
356.399	829.06
356.626	862.06
356.853	891.06
357.08	870.06
357.307	867.06
357.534	846.06
357.761	834.06
357.988	820.06
358.215	839.06
358.441	826.06
358.668	808.06
358.895	832.06
359.122	828.06
359.349	844.06
359.576	808.06
359.802	828.06
360.029	822.06
360.256	848.06
360.483	846.06
360.709	813.06
360.936	853.06
361.163	861.06
361.39	838.06
361.616	850.06
361.843	861.06
362.07	893.06
362.296	884.06
362.523	843.06
362.749	842.06
362.976	814.06
363.203	830.06
363.429	828.06
363.656	814.06
363.882	810.06
364.109	808.06
364.335	829.06
364.562	839.06
364.788	834.06
365.015	826.06
365.241	811.06
365.468	828.06
365.694	845.06
365.92	840.06
366.147	811.06
366.373	821.06
366.599	819.06
366.826	815.06
367.052	851.06
367.278	814.06
367.505	826.06
367.731	822.06
367.957	827.06
368.184	830.06
368.41	829.06
368.636	845.06
368.862	824.06
369.089	806.06
369.315	873.06
369.541	828.06
369.767	861.06
369.993	842.06
370.219	826.06
370.445	840.06
370.672	826.06
370.898	871.06
371.124	853.06
371.35	862.06
371.576	884.06
371.802	876.06
372.028	876.06
372.254	861.06
372.48	873.06
372.706	901.06
372.932	876.06
373.158	899.06
373.384	877.06
373.61	855.06
373.835	882.06
374.061	884.06
374.287	875.06
374.513	870.06
374.739	898.06
374.965	920.06
375.191	914.06
375.416	925.06
375.642	919.06
375.868	933.06
376.094	880.06
376.319	890.06
376.545	894.06
376.771	860.06
376.997	847.06
377.222	873.06
377.448	856.06
377.674	871.06
377.899	856.06
378.125	828.06
378.35	853.06
378.576	834.06
378.802	836.06
379.027	871.06
379.253	846.06
379.478	845.06
379.704	850.06
379.929	824.06
380.155	877.06
380.38	857.06
380.606	858.06
380.831	837.06
381.057	852.06
381.282	852.06
381.507	857.06
381.733	880.06
381.958	866.06
382.184	865.06
382.409	839.06
382.634	908.06
382.86	870.06
383.085	875.06
383.31	900.06
383.535	905.06
383.761	910.06
383.986	920.06
384.211	904.06
384.436	952.06
384.662	936.06
384.887	969.06
385.112	960.06
385.337	957.06
385.562	968.06
385.787	974.06
386.013	1028.06
386.238	962.06
386.463	990.06
386.688	1008.06
386.913	999.06
387.138	954.06
387.363	993.06
387.588	993.06
387.813	990.06
388.038	999.06
388.263	968.06
388.488	958.06
388.713	1008.06
388.938	966.06
389.163	980.06
389.387	1025.06
389.612	971.06
389.837	1011.06
390.062	985.06
390.287	986.06
390.512	973.06
390.736	988.06
390.961	993.06
391.186	1019.06
391.411	1058.06
391.636	1070.06
391.86	1066.06
392.085	1073.06
392.31	1086.06
392.534	1084.06
392.759	1052.06
392.984	1056.06
393.208	1055.06
393.433	1053.06
393.658	1052.06
393.882	1026.06
394.107	1036.06
394.331	1061.06
394.556	1066.06
394.78	1041.06
395.005	1092.06
395.229	1061.06
395.454	1097.06
395.678	1096.06
395.903	1059.06
396.127	1092.06
396.352	1078.06
396.576	1061.06
396.801	1065.06
397.025	1091.06
397.249	1088.06
397.474	1098.06
397.698	1127.06
397.922	1146.06
398.147	1143.06
398.371	1153.06
398.595	1204.06
398.82	1186.06
399.044	1259.06
399.268	1340.06
399.492	1440.06
399.717	1508.06
399.941	1562.06
400.165	1461.06
400.389	1372.06
400.613	1335.06
400.837	1296.06
401.062	1256.06
401.286	1251.06
401.51	1225.06
401.734	1204.06
401.958	1250.06
402.182	1220.06
402.406	1232.06
402.63	1238.06
402.854	1217.06
403.078	1258.06
403.302	1272.06
403.526	1248.06
403.75	1264.06
403.974	1292.06
404.198	1276.06
404.422	1263.06
404.645	1286.06
404.869	1317.06
405.093	1309.06
405.317	1269.06
405.541	1268.06
405.765	1271.06
405.988	1268.06
406.212	1336.06
406.436	1337.06
406.66	1354.06
406.883	1334.06
407.107	1398.06
407.331	1442.06
407.555	1452.06
407.778	1481.06
408.002	1486.06
408.226	1457.06
408.449	1402.06
408.673	1406.06
408.896	1358.06
409.12	1353.06
409.344	1381.06
409.567	1346.06
409.791	1338.06
410.014	1305.06
410.238	1333.06
410.461	1338.06
410.685	1353.06
410.908	1334.06
411.132	1316.06
411.355	1289.06
411.578	1301.06
411.802	1290.06
412.025	1298.06
412.249	1282.06
412.472	1313.06
412.695	1284.06
412.919	1249.06
413.142	1256.06
413.365	1243.06
413.589	1235.06
413.812	1211.06
414.035	1234.06
414.258	1229.06
414.482	1238.06
414.705	1243.06
414.928	1249.06
415.151	1256.06
415.374	1244.06
415.597	1207.06
415.821	1206.06
416.044	1209.06
416.267	1210.06
416.49	1194.06
416.713	1188.06
416.936	1184.06
417.159	1183.06
417.382	1213.06
417.605	1204.06
417.828	1196.06
418.051	1205.06
418.274	1197.06
418.497	1211.06
418.72	1200.06
418.943	1226.06
419.166	1267.06
419.389	1366.06
419.611	1335.06
419.834	1297.06
420.057	1314.06
420.28	1238.06
420.503	1201.06
420.726	1231.06
420.948	1235.06
421.171	1240.06
421.394	1181.06
421.617	1213.06
421.839	1193.06
422.062	1196.06
422.285	1162.06
422.507	1212.06
422.73	1227.06
422.953	1233.06
423.175	1205.06
423.398	1220.06
423.621	1236.06
423.843	1228.06
424.066	1206.06
424.288	1238.06
424.511	1241.06
424.733	1216.06
424.956	1181.06
425.178	1224.06
425.401	1212.06
425.623	1218.06
425.846	1195.06
426.068	1219.06
426.291	1175.06
426.513	1186.06
426.735	1168.06
426.958	1195.06
427.18	1170.06
427.402	1165.06
427.625	1193.06
427.847	1182.06
428.069	1157.06
428.292	1182.06
428.514	1135.06
428.736	1177.06
428.958	1174.06
429.181	1143.06
429.403	1131.06
429.625	1129.06
429.847	1138.06
430.069	1148.06
430.292	1156.06
430.514	1140.06
430.736	1140.06
430.958	1148.06
431.18	1146.06
431.402	1166.06
431.624	1153.06
431.846	1140.06
432.068	1148.06
432.29	1165.06
432.512	1147.06
432.734	1176.06
432.956	1170.06
433.178	1196.06
433.4	1173.06
433.622	1185.06
433.844	1215.06
434.066	1213.06
434.287	1192.06
434.509	1232.06
434.731	1202.06
434.953	1242.06
435.175	1252.06
435.397	1270.06
435.618	1200.06
435.84	1217.06
436.062	1192.06
436.284	1162.06
436.505	1175.06
436.727	1177.06
436.949	1180.06
437.17	1177.06
437.392	1144.06
437.614	1141.06
437.835	1129.06
438.057	1156.06
438.278	1118.06
438.5	1117.06
438.721	1135.06
438.943	1133.06
439.165	1127.06
439.386	1108.06
439.608	1149.06
439.829	1182.06
440.05	1157.06
440.272	1193.06
440.493	1206.06
440.715	1177.06
440.936	1162.06
441.158	1211.06
441.379	1219.06
441.6	1285.06
441.822	1272.06
442.043	1250.06
442.264	1236.06
442.486	1188.06
442.707	1249.06
442.928	1211.06
443.149	1256.06
443.371	1276.06
443.592	1307.06
443.813	1252.06
444.034	1236.06
444.255	1276.06
444.476	1337.06
444.698	1392.06
444.919	1406.06
445.14	1471.06
445.361	1373.06
445.582	1302.06
445.803	1258.06
446.024	1252.06
446.245	1206.06
446.466	1236.06
446.687	1208.06
446.908	1193.06
447.129	1146.06
447.35	1169.06
447.571	1152.06
447.792	1127.06
448.013	1110.06
448.234	1130.06
448.455	1118.06
448.675	1098.06
448.896	1088.06
449.117	1069.06
449.338	1090.06
449.559	1084.06
449.779	1109.06
450	1057.06
450.221	1117.06
450.442	1083.06
450.662	1102.06
450.883	1078.06
451.104	1118.06
451.324	1105.06
451.545	1128.06
451.766	1112.06
451.986	1092.06
452.207	1102.06
452.428	1092.06
452.648	1123.06
452.869	1032.06
453.089	1068.06
453.31	1076.06
453.53	1066.06
453.751	1048.06
453.971	1059.06
454.192	1058.06
454.412	1061.06
454.633	1038.06
454.853	1028.06
455.073	1042.06
455.294	1039.06
455.514	1019.06
455.734	1049.06
455.955	1026.06
456.175	1044.06
456.395	1001.06
456.616	1030.06
456.836	1051.06
457.056	1044.06
457.276	989.06
457.497	1037.06
457.717	1071.06
457.937	1051.06
458.157	1080.06
458.377	1090.06
458.598	1104.06
458.818	1082.06
459.038	1149.06
459.258	1160.06
459.478	1214.06
459.698	1240.06
459.918	1235.06
460.138	1302.06
460.358	1300.06
460.578	1340.06
460.798	1347.06
461.018	1345.06
461.238	1374.06
461.458	1360.06
461.678	1349.06
461.898	1372.06
462.118	1361.06
462.338	1431.06
462.558	1460.06
462.777	1510.06
462.997	1580.06
463.217	1604.06
463.437	1623.06
463.657	1570.06
463.876	1535.06
464.096	1500.06
464.316	1501.06
464.536	1494.06
464.755	1446.06
464.975	1407.06
465.195	1379.06
465.414	1340.06
465.634	1294.06
465.854	1252.06
466.073	1190.06
466.293	1204.06
466.512	1202.06
466.732	1180.06
466.951	1147.06
467.171	1154.06
467.391	1146.06
467.61	1139.06
467.829	1140.06
468.049	1140.06
468.268	1099.06
468.488	1120.06
468.707	1145.06
468.927	1125.06
469.146	1111.06
469.365	1124.06
469.585	1163.06
469.804	1140.06
470.023	1160.06
470.243	1148.06
470.462	1176.06
470.681	1148.06
470.901	1166.06
471.12	1148.06
471.339	1164.06
471.558	1138.06
471.777	1141.06
471.997	1137.06
472.216	1132.06
472.435	1111.06
472.654	1124.06
472.873	1113.06
473.092	1112.06
473.311	1117.06
473.53	1133.06
473.749	1128.06
473.968	1116.06
474.187	1114.06
474.406	1126.06
474.625	1101.06
474.844	1105.06
475.063	1109.06
475.282	1102.06
475.501	1124.06
475.72	1160.06
475.939	1142.06
476.158	1156.06
476.377	1197.06
476.596	1171.06
476.814	1181.06
477.033	1168.06
477.252	1174.06
477.471	1218.06
477.69	1250.06
477.908	1274.06
478.127	1286.06
478.346	1272.06
478.564	1291.06
478.783	1336.06
479.002	1349.06
479.22	1381.06
479.439	1360.06
479.658	1383.06
479.876	1361.06
480.095	1333.06
480.313	1392.06
480.532	1394.06
480.751	1423.06
480.969	1387.06
481.188	1320.06
481.406	1318.06
481.624	1299.06
481.843	1302.06
482.061	1288.06
482.28	1291.06
482.498	1302.06
482.717	1300.06
482.935	1321.06
483.153	1310.06
483.372	1306.06
483.59	1341.06
483.808	1292.06
484.027	1325.06
484.245	1302.06
484.463	1343.06
484.681	1339.06
484.9	1317.06
485.118	1326.06
485.336	1311.06
485.554	1328.06
485.772	1321.06
485.99	1350.06
486.209	1319.06
486.427	1354.06
486.645	1342.06
486.863	1354.06
487.081	1356.06
487.299	1321.06
487.517	1345.06
487.735	1363.06
487.953	1398.06
488.171	1330.06
488.389	1340.06
488.607	1343.06
488.825	1338.06
489.043	1336.06
489.261	1330.06
489.479	1321.06
489.696	1340.06
489.914	1344.06
490.132	1351.06
490.35	1362.06
490.568	1365.06
490.786	1348.06
491.003	1389.06
491.221	1353.06
491.439	1346.06
491.657	1341.06
491.874	1384.06
492.092	1406.06
492.31	1413.06
492.527	1422.06
492.745	1380.06
492.963	1445.06
493.18	1398.06
493.398	1393.06
493.615	1448.06
493.833	1441.06
494.05	1436.06
494.268	1465.06
494.485	1443.06
494.703	1439.06
494.92	1463.06
495.138	1444.06
495.355	1460.06
495.573	1476.06
495.79	1473.06
496.008	1477.06
496.225	1479.06
496.442	1515.06
496.66	1546.06
496.877	1560.06
497.094	1558.06
497.312	1582.06
497.529	1627.06
497.746	1644.06
497.963	1712.06
498.181	1756.06
498.398	1789.06
498.615	1936.06
498.832	1989.06
499.049	2064.06
499.267	2172.06
499.484	2326.06
499.701	2438.06
499.918	2664.06
500.135	2830.06
500.352	2976.06
500.569	3063.06
500.786	3060.06
501.003	2912.06
501.22	2732.06
501.437	2605.06
501.654	2439.06
501.871	2321.06
502.088	2162.06
502.305	2098.06
502.522	1996.06
502.739	1922.06
502.956	1818.06
503.172	1801.06
503.389	1734.06
503.606	1686.06
503.823	1646.06
504.04	1630.06
504.256	1677.06
504.473	1624.06
504.69	1600.06
504.907	1543.06
505.123	1521.06
505.34	1499.06
505.557	1438.06
505.773	1418.06
505.99	1361.06
506.207	1353.06
506.423	1339.06
506.64	1331.06
506.856	1318.06
507.073	1262.06
507.289	1252.06
507.506	1289.06
507.722	1274.06
507.939	1266.06
508.155	1250.06
508.372	1235.06
508.588	1236.06
508.805	1209.06
509.021	1205.06
509.238	1217.06
509.454	1176.06
509.67	1164.06
509.887	1214.06
510.103	1201.06
510.319	1174.06
510.536	1165.06
510.752	1177.06
510.968	1142.06
511.184	1176.06
511.401	1156.06
511.617	1147.06
511.833	1159.06
512.049	1145.06
512.265	1146.06
512.481	1151.06
512.698	1124.06
512.914	1132.06
513.13	1141.06
513.346	1158.06
513.562	1128.06
513.778	1144.06
513.994	1146.06
514.21	1131.06
514.426	1150.06
514.642	1154.06
514.858	1171.06
515.074	1206.06
515.29	1204.06
515.506	1206.06
515.721	1233.06
515.937	1219.06
516.153	1222.06
516.369	1235.06
516.585	1296.06
516.801	1266.06
517.016	1338.06
517.232	1368.06
517.448	1402.06
517.664	1420.06
517.879	1406.06
518.095	1415.06
518.311	1392.06
518.527	1350.06
518.742	1350.06
518.958	1297.06
519.173	1269.06
519.389	1260.06
519.605	1224.06
519.82	1201.06
520.036	1211.06
520.251	1151.06
520.467	1146.06
520.682	1143.06
520.898	1145.06
521.113	1123.06
521.329	1111.06
521.544	1108.06
521.76	1097.06
521.975	1118.06
522.19	1074.06
522.406	1087.06
522.621	1078.06
522.836	1090.06
523.052	1086.06
523.267	1096.06
523.482	1046.06
523.698	1056.06
523.913	1047.06
524.128	1072.06
524.343	1068.06
524.559	1057.06
524.774	1034.06
524.989	1062.06
525.204	1035.06
525.419	1029.06
525.634	1064.06
525.849	1051.06
526.064	1042.06
526.28	1027.06
526.495	1002.06
526.71	1003.06
526.925	1037.06
527.14	990.06
527.355	1024.06
527.57	1003.06
527.785	1018.06
527.999	1027.06
528.214	1013.06
528.429	997.06
528.644	1011.06
528.859	1039.06
529.074	1020.06
529.289	1008.06
529.503	1020.06
529.718	991.06
529.933	1012.06
530.148	1012.06
530.363	1014.06
530.577	982.06
530.792	969.06
531.007	980.06
531.221	984.06
531.436	1010.06
531.651	1000.06
531.865	975.06
532.08	1008.06
532.295	1005.06
532.509	984.06
532.724	983.06
532.938	980.06
533.153	999.06
533.367	963.06
533.582	978.06
533.796	971.06
534.011	1005.06
534.225	951.06
534.44	953.06
534.654	952.06
534.868	974.06
535.083	916.06
535.297	940.06
535.511	953.06
535.726	970.06
535.94	965.06
536.154	932.06
536.369	904.06
536.583	929.06
536.797	944.06
537.011	935.06
537.225	922.06
537.44	926.06
537.654	919.06
537.868	924.06
538.082	906.06
538.296	891.06
538.51	906.06
538.724	908.06
538.938	930.06
539.153	878.06
539.367	913.06
539.581	924.06
539.795	909.06
540.009	894.06
540.222	891.06
540.436	872.06
540.65	892.06
540.864	919.06
541.078	902.06
541.292	900.06
541.506	894.06
541.72	907.06
541.934	906.06
542.147	901.06
542.361	924.06
542.575	906.06
542.789	871.06
543.002	876.06
543.216	898.06
543.43	908.06
543.644	891.06
543.857	880.06
544.071	892.06
544.285	898.06
544.498	910.06
544.712	899.06
544.925	893.06
545.139	898.06
545.352	921.06
545.566	908.06
545.779	906.06
545.993	902.06
546.206	912.06
546.42	928.06
546.633	893.06
546.847	906.06
547.06	929.06
547.274	932.06
547.487	914.06
547.7	926.06
547.914	969.06
548.127	936.06
548.34	922.06
548.554	903.06
548.767	894.06
548.98	897.06
549.193	914.06
549.407	902.06
549.62	898.06
549.833	922.06
550.046	897.06
550.259	910.06
550.473	907.06
550.686	904.06
550.899	892.06
551.112	926.06
551.325	894.06
551.538	914.06
551.751	882.06
551.964	864.06
552.177	898.06
552.39	913.06
552.603	922.06
552.816	926.06
553.029	914.06
553.242	932.06
553.455	956.06
553.667	956.06
553.88	936.06
554.093	917.06
554.306	896.06
554.519	887.06
554.732	877.06
554.944	869.06
555.157	872.06
555.37	849.06
555.583	841.06
555.795	840.06
556.008	846.06
556.221	786.06
556.433	841.06
556.646	806.06
556.859	783.06
557.071	786.06
557.284	804.06
557.496	810.06
557.709	805.06
557.921	801.06
558.134	778.06
558.346	755.06
558.559	766.06
558.771	770.06
558.984	756.06
559.196	773.06
559.409	750.06
559.621	748.06
559.833	741.06
560.046	764.06
560.258	750.06
560.47	753.06
560.683	746.06
560.895	771.06
561.107	752.06
561.32	739.06
561.532	745.06
561.744	781.06
561.956	747.06
562.168	725.06
562.381	773.06
562.593	756.06
562.805	756.06
563.017	746.06
563.229	754.06
563.441	748.06
563.653	780.06
563.865	776.06
564.077	791.06
564.289	787.06
564.501	787.06
564.713	804.06
564.925	794.06
565.137	822.06
565.349	842.06
565.561	873.06
565.773	856.06
565.985	900.06
566.197	942.06
566.408	964.06
566.62	993.06
566.832	1020.06
567.044	1040.06
567.255	1056.06
567.467	1073.06
567.679	1060.06
567.891	1107.06
568.102	1108.06
568.314	1088.06
568.526	995.06
568.737	965.06
568.949	910.06
569.161	878.06
569.372	864.06
569.584	846.06
569.795	794.06
570.007	772.06
570.218	786.06
570.43	779.06
570.641	721.06
570.853	740.06
571.064	747.06
571.276	731.06
571.487	712.06
571.698	677.06
571.91	694.06
572.121	692.06
572.333	704.06
572.544	669.06
572.755	660.06
572.966	647.06
573.178	628.06
573.389	636.06
573.6	617.06
573.811	618.06
574.023	592.06
574.234	624.06
574.445	606.06
574.656	599.06
574.867	611.06
575.078	617.06
575.289	607.06
575.501	583.06
575.712	594.06
575.923	571.06
576.134	570.06
576.345	558.06
576.556	590.06
576.767	564.06
576.978	550.06
577.188	556.06
577.399	553.06
577.61	566.06
577.821	574.06
578.032	546.06
578.243	548.06
578.454	536.06
578.665	558.06
578.875	523.06
579.086	549.06
579.297	534.06
579.508	525.06
579.718	570.06
579.929	536.06
580.14	522.06
580.35	511.06
580.561	528.06
580.772	527.06
580.982	519.06
581.193	528.06
581.403	528.06
581.614	517.06
581.825	521.06
582.035	501.06
582.246	519.06
582.456	500.06
582.667	511.06
582.877	520.06
583.087	527.06
583.298	516.06
583.508	524.06
583.719	510.06
583.929	507.06
584.139	501.06
584.35	498.06
584.56	504.06
584.77	489.06
584.981	516.06
585.191	513.06
585.401	506.06
585.611	502.06
585.821	499.06
586.032	492.06
586.242	484.06
586.452	482.06
586.662	499.06
586.872	492.06
587.082	487.06
587.292	472.06
587.502	465.06
587.713	493.06
587.923	490.06
588.133	456.06
588.343	481.06
588.553	467.06
588.762	477.06
588.972	512.06
589.182	546.06
589.392	571.06
589.602	506.06
589.812	536.06
590.022	528.06
590.232	489.06
590.441	476.06
590.651	485.06
590.861	509.06
591.071	484.06
591.281	510.06
591.49	494.06
591.7	494.06
591.91	498.06
592.119	498.06
592.329	491.06
592.539	502.06
592.748	527.06
592.958	536.06
593.167	544.06
593.377	533.06
593.587	532.06
593.796	521.06
594.006	526.06
594.215	524.06
594.424	527.06
594.634	528.06
594.843	523.06
595.053	525.06
595.262	491.06
595.472	478.06
595.681	501.06
595.89	475.06
596.1	444.06
596.309	479.06
596.518	456.06
596.727	458.06
596.937	450.06
597.146	450.06
597.355	432.06
597.564	413.06
597.774	421.06
597.983	437.06
598.192	442.06
598.401	414.06
598.61	434.06
598.819	425.06
599.028	432.06
599.237	408.06
599.446	413.06
599.655	409.06
599.864	412.06
600.073	408.06
600.282	407.06
600.491	415.06
600.7	388.06
600.909	407.06
601.118	384.06
601.327	378.06
601.536	390.06
601.745	387.06
601.953	406.06
602.162	384.06
602.371	389.06
602.58	396.06
602.789	378.06
602.997	375.06
603.206	406.06
603.415	393.06
603.623	365.06
603.832	357.06
604.041	369.06
604.249	386.06
604.458	378.06
604.666	377.06
604.875	373.06
605.084	378.06
605.292	368.06
605.501	371.06
605.709	368.06
605.918	349.06
606.126	360.06
606.334	376.06
606.543	356.06
606.751	384.06
606.96	345.06
607.168	371.06
607.376	356.06
607.585	344.06
607.793	370.06
608.001	361.06
608.21	353.06
608.418	359.06
608.626	343.06
608.834	349.06
609.043	358.06
609.251	333.06
609.459	339.06
609.667	361.06
609.875	336.06
610.083	346.06
610.291	342.06
610.499	367.06
610.707	344.06
610.916	344.06
611.124	351.06
611.332	341.06
611.54	343.06
611.748	346.06
611.955	344.06
612.163	337.06
612.371	355.06
612.579	342.06
612.787	334.06
612.995	334.06
613.203	332.06
613.411	343.06
613.618	326.06
613.826	342.06
614.034	318.06
614.242	314.06
614.449	342.06
614.657	331.06
614.865	344.06
615.072	322.06
615.28	336.06
615.488	318.06
615.695	328.06
615.903	325.06
616.111	321.06
616.318	336.06
616.526	336.06
616.733	336.06
616.941	339.06
617.148	332.06
617.356	350.06
617.563	329.06
617.771	331.06
617.978	344.06
618.185	326.06
618.393	324.06
618.6	322.06
618.807	322.06
619.015	330.06
619.222	313.06
619.429	319.06
619.637	326.06
619.844	300.06
620.051	309.06
620.258	310.06
620.466	303.06
620.673	306.06
620.88	309.06
621.087	306.06
621.294	297.06
621.501	309.06
621.708	297.06
621.915	282.06
622.122	298.06
622.329	304.06
622.536	309.06
622.743	306.06
622.95	324.06
623.157	298.06
623.364	290.06
623.571	295.06
623.778	310.06
623.985	304.06
624.192	285.06
624.399	291.06
624.606	312.06
624.812	290.06
625.019	291.06
625.226	288.06
625.433	292.06
625.639	280.06
625.846	282.06
626.053	285.06
626.259	278.06
626.466	295.06
626.673	266.06
626.879	280.06
627.086	293.06
627.293	280.06
627.499	278.06
627.706	284.06
627.912	267.06
628.119	260.06
628.325	282.06
628.532	276.06
628.738	262.06
628.945	279.06
629.151	278.06
629.357	274.06
629.564	256.06
629.77	270.06
629.976	270.06
630.183	266.06
630.389	266.06
630.595	250.06
630.802	234.06
631.008	249.06
631.214	278.06
631.42	261.06
631.627	264.06
631.833	276.06
632.039	253.06
632.245	233.06
632.451	260.06
632.657	245.06
632.863	265.06
633.069	250.06
633.275	259.06
633.481	256.06
633.688	255.06
633.893	245.06
634.099	245.06
634.305	251.06
634.511	257.06
634.717	256.06
634.923	240.06
635.129	234.06
635.335	242.06
635.541	242.06
635.747	241.06
635.952	232.06
636.158	250.06
636.364	241.06
636.57	240.06
636.775	221.06
636.981	243.06
637.187	234.06
637.392	250.06
637.598	237.06
637.804	228.06
638.009	232.06
638.215	229.06
638.421	240.06
638.626	228.06
638.832	236.06
639.037	234.06
639.243	233.06
639.448	232.06
639.654	240.06
639.859	239.06
640.065	232.06
640.27	230.06
640.475	217.06
640.681	228.06
640.886	222.06
641.091	235.06
641.297	197.06
641.502	225.06
641.707	218.06
641.913	218.06
642.118	228.06
642.323	204.06
642.528	213.06
642.733	223.06
642.939	229.06
643.144	216.06
643.349	225.06
643.554	218.06
643.759	215.06
643.964	211.06
644.169	222.06
644.374	206.06
644.579	207.06
644.784	220.06
644.989	204.06
645.194	213.06
645.399	206.06
645.604	222.06
645.809	217.06
646.014	221.06
646.219	206.06
646.423	224.06
646.628	231.06
646.833	212.06
647.038	212.06
647.243	217.06
647.447	199.06
647.652	209.06
647.857	212.06
648.062	229.06
648.266	219.06
648.471	235.06
648.676	216.06
648.88	218.06
649.085	217.06
649.289	207.06
649.494	203.06
649.698	221.06
649.903	213.06
650.107	209.06
650.312	202.06
650.516	214.06
650.721	195.06
650.925	196.06
651.13	195.06
651.334	190.06
651.539	197.06
651.743	184.06
651.947	177.06
652.152	197.06
652.356	178.06
652.56	187.06
652.764	199.06
652.969	179.06
653.173	170.06
653.377	175.06
653.581	175.06
653.785	161.06
653.99	168.06
654.194	165.06
654.398	176.06
654.602	173.06
654.806	170.06
655.01	174.06
655.214	169.06
655.418	173.06
655.622	158.06
655.826	156.06
656.03	165.06
656.234	170.06
656.438	156.06
656.642	142.06
656.846	154.06
657.049	172.06
657.253	147.06
657.457	143.06
657.661	154.06
657.865	121.06
658.068	124.06
658.272	125.06
658.476	128.06
658.68	107.06
658.883	140.06
659.087	112.06
659.291	103.06
659.494	104.06
659.698	109.06
659.901	105.06
660.105	120.06
660.309	98.06
660.512	96.06
660.716	102.06
660.919	101.06
661.123	96.06
661.326	108.06
661.53	86.06
661.733	84.06
661.936	89.06
662.14	89.06
662.343	96.06
662.546	90.06
662.75	89.06
662.953	89.06
663.156	97.06
663.36	83.06
663.563	80.06
663.766	85.06
663.969	97.06
664.173	78.06
664.376	81.06
664.579	84.06
664.782	81.06
664.985	81.06
665.188	84.06
665.391	89.06
665.594	93.06
665.797	71.06
666	73.06
666.203	83.06
666.406	92.06
666.609	82.06
666.812	92.06
667.015	84.06
667.218	78.06
667.421	84.06
667.624	84.06
667.827	81.06
668.03	83.06
668.232	81.06
668.435	70.06
668.638	78.06
668.841	72.06
669.043	75.06
669.246	85.06
669.449	64.06
669.651	73.06
669.854	86.06
670.057	86.06
670.259	75.06
670.462	84.06
670.665	75.06
670.867	79.06
671.07	64.06
671.272	92.06
671.475	86.06
671.677	83.06
671.88	90.06
672.082	80.06
672.284	76.06
672.487	73.06
672.689	85.06
672.892	79.06
