Data from NiCl2@0.0625M.TitratingCurve.Agarose3%dH2O.NegLispCup.LampEnergy10.LIBS07252019_HRD10591_18-33-23-577.txt Node
Date: Thu Jul 25 18:33:23 EDT 2019
User: cochatt
Spectrometer: HR+D1059
Trigger mode: 1
Integration Time (sec): 1.000000E-1
Scans to average: 1
Electric dark correction enabled: true
Nonlinearity correction enabled: false
Boxcar width: 0
XAxis mode: Wavelengths
Number of Pixels in Spectrum: 2048
>>>>>Begin Spectral Data<<<<<
223.165	-26.75
223.4	-26.75
223.635	-26.75
223.869	-14.75
224.104	-25.75
224.338	-12.75
224.573	-10.75
224.808	-14.75
225.042	-15.75
225.277	0.25
225.511	3.25
225.746	1.25
225.98	4.25
226.215	9.25
226.449	28.25
226.683	27.25
226.918	20.25
227.152	27.25
227.387	31.25
227.621	33.25
227.856	35.25
228.09	33.25
228.324	59.25
228.559	63.25
228.793	86.25
229.027	136.25
229.262	165.25
229.496	154.25
229.73	160.25
229.964	177.25
230.199	169.25
230.433	165.25
230.667	196.25
230.901	172.25
231.136	184.25
231.37	173.25
231.604	202.25
231.838	178.25
232.072	201.25
232.306	203.25
232.541	203.25
232.775	210.25
233.009	200.25
233.243	206.25
233.477	204.25
233.711	217.25
233.945	200.25
234.179	205.25
234.413	214.25
234.647	205.25
234.881	199.25
235.115	205.25
235.349	220.25
235.583	216.25
235.817	218.25
236.051	221.25
236.285	227.25
236.519	235.25
236.753	245.25
236.987	232.25
237.221	229.25
237.455	231.25
237.689	252.25
237.922	220.25
238.156	237.25
238.39	225.25
238.624	241.25
238.858	249.25
239.091	284.25
239.325	269.25
239.559	243.25
239.793	261.25
240.027	268.25
240.26	269.25
240.494	264.25
240.728	268.25
240.961	289.25
241.195	285.25
241.429	289.25
241.662	287.25
241.896	303.25
242.13	295.25
242.363	305.25
242.597	291.25
242.83	302.25
243.064	308.25
243.298	311.25
243.531	315.25
243.765	291.25
243.998	332.25
244.232	313.25
244.465	314.25
244.699	324.25
244.932	346.25
245.166	338.25
245.399	344.25
245.633	349.25
245.866	325.25
246.099	338.25
246.333	353.25
246.566	350.25
246.8	341.25
247.033	346.25
247.266	358.25
247.5	351.25
247.733	361.25
247.966	352.25
248.2	365.25
248.433	376.25
248.666	369.25
248.899	359.25
249.133	367.25
249.366	409.25
249.599	384.25
249.832	397.25
250.066	392.25
250.299	389.25
250.532	415.25
250.765	407.25
250.998	411.25
251.231	412.25
251.465	404.25
251.698	414.25
251.931	427.25
252.164	421.25
252.397	431.25
252.63	433.25
252.863	427.25
253.096	427.25
253.329	432.25
253.562	424.25
253.795	447.25
254.028	449.25
254.261	441.25
254.494	439.25
254.727	442.25
254.96	454.25
255.193	459.25
255.426	438.25
255.659	459.25
255.892	470.25
256.124	470.25
256.357	466.25
256.59	445.25
256.823	456.25
257.056	487.25
257.289	467.25
257.521	472.25
257.754	483.25
257.987	479.25
258.22	464.25
258.452	478.25
258.685	504.25
258.918	467.25
259.151	495.25
259.383	480.25
259.616	503.25
259.849	547.25
260.081	505.25
260.314	519.25
260.547	501.25
260.779	517.25
261.012	544.25
261.244	519.25
261.477	525.25
261.71	520.25
261.942	525.25
262.175	543.25
262.407	523.25
262.64	532.25
262.872	533.25
263.105	570.25
263.337	552.25
263.57	561.25
263.802	561.25
264.035	543.25
264.267	555.25
264.499	548.25
264.732	552.25
264.964	541.25
265.197	568.25
265.429	577.25
265.661	545.25
265.894	568.25
266.126	588.25
266.358	588.25
266.591	578.25
266.823	600.25
267.055	586.25
267.287	580.25
267.52	581.25
267.752	588.25
267.984	595.25
268.216	589.25
268.448	599.25
268.681	608.25
268.913	598.25
269.145	622.25
269.377	620.25
269.609	637.25
269.841	631.25
270.073	636.25
270.306	631.25
270.538	616.25
270.77	612.25
271.002	641.25
271.234	617.25
271.466	657.25
271.698	680.25
271.93	645.25
272.162	661.25
272.394	658.25
272.626	624.25
272.858	660.25
273.09	665.25
273.322	667.25
273.553	661.25
273.785	675.25
274.017	663.25
274.249	649.25
274.481	674.25
274.713	678.25
274.945	700.25
275.176	699.25
275.408	685.25
275.64	710.25
275.872	702.25
276.104	703.25
276.335	700.25
276.567	684.25
276.799	706.25
277.031	717.25
277.262	715.25
277.494	715.25
277.726	705.25
277.957	735.25
278.189	712.25
278.421	736.25
278.652	705.25
278.884	741.25
279.115	724.25
279.347	758.25
279.579	740.25
279.81	744.25
280.042	760.25
280.273	756.25
280.505	756.25
280.736	772.25
280.968	782.25
281.199	769.25
281.431	796.25
281.662	777.25
281.894	810.25
282.125	783.25
282.356	803.25
282.588	794.25
282.819	785.25
283.051	787.25
283.282	791.25
283.513	803.25
283.745	813.25
283.976	804.25
284.207	825.25
284.439	840.25
284.67	795.25
284.901	823.25
285.132	816.25
285.364	814.25
285.595	825.25
285.826	824.25
286.057	834.25
286.288	827.25
286.52	849.25
286.751	844.25
286.982	842.25
287.213	841.25
287.444	857.25
287.675	856.25
287.906	850.25
288.138	864.25
288.369	860.25
288.6	862.25
288.831	845.25
289.062	874.25
289.293	846.25
289.524	866.25
289.755	873.25
289.986	860.25
290.217	909.25
290.448	873.25
290.679	856.25
290.91	859.25
291.141	898.25
291.371	886.25
291.602	877.25
291.833	859.25
292.064	859.25
292.295	888.25
292.526	896.25
292.757	901.25
292.987	906.25
293.218	880.25
293.449	900.25
293.68	896.25
293.91	872.25
294.141	875.25
294.372	904.25
294.603	891.25
294.833	885.25
295.064	904.25
295.295	904.25
295.525	906.25
295.756	919.25
295.987	910.25
296.217	908.25
296.448	893.25
296.679	916.25
296.909	912.25
297.14	930.25
297.37	935.25
297.601	948.25
297.831	941.25
298.062	927.25
298.292	933.25
298.523	947.25
298.753	978.25
298.984	930.25
299.214	972.25
299.445	939.25
299.675	966.25
299.905	989.25
300.136	941.25
300.366	956.25
300.597	978.25
300.827	988.25
301.057	992.25
301.288	986.25
301.518	1016.25
301.748	988.25
301.979	1042.25
302.209	1008.25
302.439	1025.25
302.669	1015.25
302.9	1006.25
303.13	991.25
303.36	1015.25
303.59	990.25
303.82	1023.25
304.051	991.25
304.281	1003.25
304.511	1011.25
304.741	1007.25
304.971	1012.25
305.201	989.25
305.431	1000.25
305.661	1030.25
305.891	1006.25
306.121	989.25
306.352	976.25
306.582	992.25
306.812	971.25
307.042	1021.25
307.272	1001.25
307.502	982.25
307.731	994.25
307.961	991.25
308.191	982.25
308.421	1000.25
308.651	987.25
308.881	985.25
309.111	994.25
309.341	964.25
309.571	995.25
309.8	1018.25
310.03	993.25
310.26	1010.25
310.49	991.25
310.72	1035.25
310.949	1030.25
311.179	1031.25
311.409	996.25
311.639	1032.25
311.868	1028.25
312.098	1027.25
312.328	1039.25
312.557	1025.25
312.787	1028.25
313.017	1068.25
313.246	1058.25
313.476	1049.25
313.706	1082.25
313.935	1092.25
314.165	1089.25
314.394	1099.25
314.624	1068.25
314.853	1061.25
315.083	1061.25
315.312	1063.25
315.542	1096.25
315.771	1083.25
316.001	1057.25
316.23	1049.25
316.46	1064.25
316.689	1077.25
316.919	1039.25
317.148	1033.25
317.377	1096.25
317.607	1038.25
317.836	1043.25
318.065	1086.25
318.295	1064.25
318.524	1049.25
318.753	1045.25
318.983	1054.25
319.212	1045.25
319.441	1079.25
319.67	1055.25
319.9	1036.25
320.129	1072.25
320.358	1071.25
320.587	1067.25
320.816	1075.25
321.046	1064.25
321.275	1099.25
321.504	1074.25
321.733	1085.25
321.962	1110.25
322.191	1077.25
322.42	1060.25
322.649	1109.25
322.878	1062.25
323.108	1071.25
323.337	1079.25
323.566	1085.25
323.795	1097.25
324.024	1127.25
324.253	1085.25
324.482	1119.25
324.71	1112.25
324.939	1138.25
325.168	1121.25
325.397	1101.25
325.626	1141.25
325.855	1149.25
326.084	1177.25
326.313	1184.25
326.542	1146.25
326.77	1155.25
326.999	1156.25
327.228	1158.25
327.457	1159.25
327.686	1147.25
327.914	1174.25
328.143	1166.25
328.372	1138.25
328.6	1159.25
328.829	1171.25
329.058	1144.25
329.287	1176.25
329.515	1185.25
329.744	1174.25
329.972	1169.25
330.201	1213.25
330.43	1181.25
330.658	1188.25
330.887	1196.25
331.115	1202.25
331.344	1254.25
331.572	1218.25
331.801	1258.25
332.03	1260.25
332.258	1273.25
332.486	1300.25
332.715	1327.25
332.943	1376.25
333.172	1391.25
333.4	1407.25
333.629	1489.25
333.857	1512.25
334.085	1511.25
334.314	1461.25
334.542	1496.25
334.771	1467.25
334.999	1486.25
335.227	1460.25
335.455	1471.25
335.684	1402.25
335.912	1437.25
336.14	1430.25
336.369	1394.25
336.597	1388.25
336.825	1417.25
337.053	1399.25
337.281	1392.25
337.51	1357.25
337.738	1346.25
337.966	1338.25
338.194	1296.25
338.422	1264.25
338.65	1277.25
338.878	1273.25
339.106	1295.25
339.334	1267.25
339.562	1271.25
339.79	1253.25
340.018	1251.25
340.246	1222.25
340.474	1234.25
340.702	1239.25
340.93	1233.25
341.158	1226.25
341.386	1217.25
341.614	1250.25
341.842	1231.25
342.07	1220.25
342.298	1199.25
342.526	1180.25
342.754	1243.25
342.981	1205.25
343.209	1235.25
343.437	1295.25
343.665	1336.25
343.893	1420.25
344.12	1430.25
344.348	1434.25
344.576	1380.25
344.804	1343.25
345.031	1274.25
345.259	1279.25
345.487	1242.25
345.714	1237.25
345.942	1209.25
346.17	1223.25
346.397	1187.25
346.625	1213.25
346.853	1188.25
347.08	1162.25
347.308	1183.25
347.535	1185.25
347.763	1168.25
347.99	1167.25
348.218	1183.25
348.445	1181.25
348.673	1171.25
348.9	1182.25
349.128	1144.25
349.355	1172.25
349.583	1150.25
349.81	1164.25
350.037	1129.25
350.265	1115.25
350.492	1145.25
350.72	1120.25
350.947	1126.25
351.174	1136.25
351.402	1101.25
351.629	1156.25
351.856	1114.25
352.083	1124.25
352.311	1139.25
352.538	1130.25
352.765	1141.25
352.992	1109.25
353.22	1097.25
353.447	1122.25
353.674	1104.25
353.901	1155.25
354.128	1102.25
354.355	1149.25
354.583	1111.25
354.81	1145.25
355.037	1164.25
355.264	1135.25
355.491	1140.25
355.718	1125.25
355.945	1100.25
356.172	1135.25
356.399	1127.25
356.626	1143.25
356.853	1185.25
357.08	1174.25
357.307	1131.25
357.534	1126.25
357.761	1123.25
357.988	1145.25
358.215	1139.25
358.441	1125.25
358.668	1154.25
358.895	1127.25
359.122	1097.25
359.349	1148.25
359.576	1134.25
359.802	1133.25
360.029	1123.25
360.256	1164.25
360.483	1139.25
360.709	1133.25
360.936	1147.25
361.163	1141.25
361.39	1144.25
361.616	1154.25
361.843	1154.25
362.07	1150.25
362.296	1151.25
362.523	1142.25
362.749	1133.25
362.976	1135.25
363.203	1113.25
363.429	1122.25
363.656	1131.25
363.882	1136.25
364.109	1157.25
364.335	1118.25
364.562	1137.25
364.788	1153.25
365.015	1153.25
365.241	1132.25
365.468	1141.25
365.694	1144.25
365.92	1141.25
366.147	1135.25
366.373	1130.25
366.599	1157.25
366.826	1121.25
367.052	1117.25
367.278	1157.25
367.505	1144.25
367.731	1135.25
367.957	1155.25
368.184	1165.25
368.41	1128.25
368.636	1181.25
368.862	1175.25
369.089	1178.25
369.315	1152.25
369.541	1189.25
369.767	1186.25
369.993	1172.25
370.219	1207.25
370.445	1223.25
370.672	1220.25
370.898	1218.25
371.124	1211.25
371.35	1238.25
371.576	1237.25
371.802	1214.25
372.028	1243.25
372.254	1212.25
372.48	1239.25
372.706	1287.25
372.932	1272.25
373.158	1279.25
373.384	1231.25
373.61	1253.25
373.835	1256.25
374.061	1231.25
374.287	1250.25
374.513	1293.25
374.739	1324.25
374.965	1300.25
375.191	1342.25
375.416	1367.25
375.642	1320.25
375.868	1329.25
376.094	1293.25
376.319	1278.25
376.545	1253.25
376.771	1228.25
376.997	1228.25
377.222	1268.25
377.448	1221.25
377.674	1222.25
377.899	1211.25
378.125	1237.25
378.35	1214.25
378.576	1214.25
378.802	1226.25
379.027	1239.25
379.253	1217.25
379.478	1201.25
379.704	1210.25
379.929	1237.25
380.155	1196.25
380.38	1215.25
380.606	1216.25
380.831	1228.25
381.057	1211.25
381.282	1209.25
381.507	1242.25
381.733	1217.25
381.958	1269.25
382.184	1224.25
382.409	1287.25
382.634	1313.25
382.86	1262.25
383.085	1281.25
383.31	1303.25
383.535	1357.25
383.761	1359.25
383.986	1380.25
384.211	1382.25
384.436	1365.25
384.662	1416.25
384.887	1413.25
385.112	1413.25
385.337	1443.25
385.562	1460.25
385.787	1456.25
386.013	1465.25
386.238	1488.25
386.463	1493.25
386.688	1487.25
386.913	1471.25
387.138	1488.25
387.363	1475.25
387.588	1463.25
387.813	1460.25
388.038	1477.25
388.263	1466.25
388.488	1465.25
388.713	1472.25
388.938	1468.25
389.163	1457.25
389.387	1499.25
389.612	1402.25
389.837	1444.25
390.062	1438.25
390.287	1414.25
390.512	1419.25
390.736	1478.25
390.961	1509.25
391.186	1499.25
391.411	1575.25
391.636	1536.25
391.86	1608.25
392.085	1648.25
392.31	1623.25
392.534	1611.25
392.759	1569.25
392.984	1562.25
393.208	1574.25
393.433	1580.25
393.658	1625.25
393.882	1543.25
394.107	1538.25
394.331	1593.25
394.556	1567.25
394.78	1555.25
395.005	1585.25
395.229	1588.25
395.454	1638.25
395.678	1636.25
395.903	1632.25
396.127	1624.25
396.352	1614.25
396.576	1576.25
396.801	1568.25
397.025	1620.25
397.249	1650.25
397.474	1652.25
397.698	1636.25
397.922	1657.25
398.147	1669.25
398.371	1715.25
398.595	1742.25
398.82	1795.25
399.044	1939.25
399.268	2075.25
399.492	2288.25
399.717	2515.25
399.941	2490.25
400.165	2363.25
400.389	2191.25
400.613	2061.25
400.837	1917.25
401.062	1868.25
401.286	1836.25
401.51	1837.25
401.734	1823.25
401.958	1820.25
402.182	1851.25
402.406	1851.25
402.63	1896.25
402.854	1882.25
403.078	1891.25
403.302	1916.25
403.526	1945.25
403.75	1951.25
403.974	1976.25
404.198	2001.25
404.422	1967.25
404.645	2006.25
404.869	1999.25
405.093	1968.25
405.317	1917.25
405.541	1945.25
405.765	1951.25
405.988	1940.25
406.212	1996.25
406.436	1937.25
406.66	2059.25
406.883	2026.25
407.107	2143.25
407.331	2212.25
407.555	2335.25
407.778	2261.25
408.002	2272.25
408.226	2176.25
408.449	2155.25
408.673	2115.25
408.896	2043.25
409.12	2032.25
409.344	2072.25
409.567	2020.25
409.791	2032.25
410.014	1990.25
410.238	1986.25
410.461	2000.25
410.685	1955.25
410.908	1964.25
411.132	1931.25
411.355	1906.25
411.578	1908.25
411.802	1908.25
412.025	1858.25
412.249	1923.25
412.472	1923.25
412.695	1857.25
412.919	1834.25
413.142	1875.25
413.365	1824.25
413.589	1843.25
413.812	1818.25
414.035	1748.25
414.258	1806.25
414.482	1809.25
414.705	1839.25
414.928	1836.25
415.151	1784.25
415.374	1863.25
415.597	1782.25
415.821	1771.25
416.044	1748.25
416.267	1764.25
416.49	1727.25
416.713	1727.25
416.936	1798.25
417.159	1762.25
417.382	1695.25
417.605	1745.25
417.828	1761.25
418.051	1767.25
418.274	1768.25
418.497	1750.25
418.72	1801.25
418.943	1773.25
419.166	1879.25
419.389	2010.25
419.611	1969.25
419.834	1871.25
420.057	1853.25
420.28	1778.25
420.503	1757.25
420.726	1750.25
420.948	1740.25
421.171	1738.25
421.394	1730.25
421.617	1723.25
421.839	1736.25
422.062	1781.25
422.285	1715.25
422.507	1770.25
422.73	1791.25
422.953	1801.25
423.175	1822.25
423.398	1767.25
423.621	1756.25
423.843	1821.25
424.066	1794.25
424.288	1774.25
424.511	1782.25
424.733	1788.25
424.956	1760.25
425.178	1757.25
425.401	1739.25
425.623	1770.25
425.846	1737.25
426.068	1734.25
426.291	1723.25
426.513	1678.25
426.735	1668.25
426.958	1657.25
427.18	1647.25
427.402	1678.25
427.625	1625.25
427.847	1591.25
428.069	1627.25
428.292	1605.25
428.514	1630.25
428.736	1642.25
428.958	1602.25
429.181	1554.25
429.403	1548.25
429.625	1596.25
429.847	1582.25
430.069	1557.25
430.292	1569.25
430.514	1552.25
430.736	1590.25
430.958	1564.25
431.18	1612.25
431.402	1602.25
431.624	1590.25
431.846	1614.25
432.068	1640.25
432.29	1683.25
432.512	1592.25
432.734	1614.25
432.956	1595.25
433.178	1609.25
433.4	1633.25
433.622	1619.25
433.844	1659.25
434.066	1649.25
434.287	1691.25
434.509	1716.25
434.731	1754.25
434.953	1765.25
435.175	1802.25
435.397	1712.25
435.618	1688.25
435.84	1659.25
436.062	1603.25
436.284	1619.25
436.505	1637.25
436.727	1613.25
436.949	1600.25
437.17	1579.25
437.392	1551.25
437.614	1556.25
437.835	1515.25
438.057	1534.25
438.278	1507.25
438.5	1503.25
438.721	1513.25
438.943	1528.25
439.165	1537.25
439.386	1549.25
439.608	1579.25
439.829	1567.25
440.05	1569.25
440.272	1607.25
440.493	1629.25
440.715	1571.25
440.936	1579.25
441.158	1695.25
441.379	1698.25
441.6	1753.25
441.822	1744.25
442.043	1737.25
442.264	1720.25
442.486	1637.25
442.707	1665.25
442.928	1660.25
443.149	1703.25
443.371	1703.25
443.592	1695.25
443.813	1731.25
444.034	1756.25
444.255	1791.25
444.476	1810.25
444.698	1907.25
444.919	1985.25
445.14	2086.25
445.361	1877.25
445.582	1797.25
445.803	1695.25
446.024	1650.25
446.245	1640.25
446.466	1607.25
446.687	1570.25
446.908	1540.25
447.129	1567.25
447.35	1539.25
447.571	1516.25
447.792	1448.25
448.013	1466.25
448.234	1461.25
448.455	1438.25
448.675	1428.25
448.896	1429.25
449.117	1414.25
449.338	1411.25
449.559	1418.25
449.779	1384.25
450	1427.25
450.221	1423.25
450.442	1440.25
450.662	1429.25
450.883	1415.25
451.104	1448.25
451.324	1404.25
451.545	1456.25
451.766	1445.25
451.986	1407.25
452.207	1394.25
452.428	1412.25
452.648	1394.25
452.869	1391.25
453.089	1373.25
453.31	1419.25
453.53	1369.25
453.751	1373.25
453.971	1378.25
454.192	1367.25
454.412	1331.25
454.633	1345.25
454.853	1341.25
455.073	1343.25
455.294	1336.25
455.514	1336.25
455.734	1352.25
455.955	1314.25
456.175	1351.25
456.395	1313.25
456.616	1288.25
456.836	1303.25
457.056	1329.25
457.276	1336.25
457.497	1376.25
457.717	1363.25
457.937	1340.25
458.157	1364.25
458.377	1414.25
458.598	1397.25
458.818	1433.25
459.038	1488.25
459.258	1519.25
459.478	1576.25
459.698	1600.25
459.918	1627.25
460.138	1649.25
460.358	1750.25
460.578	1780.25
460.798	1811.25
461.018	1787.25
461.238	1790.25
461.458	1762.25
461.678	1759.25
461.898	1832.25
462.118	1833.25
462.338	1896.25
462.558	1927.25
462.777	1991.25
462.997	2119.25
463.217	2222.25
463.437	2234.25
463.657	2137.25
463.876	2063.25
464.096	2097.25
464.316	2041.25
464.536	2021.25
464.755	1953.25
464.975	1959.25
465.195	1817.25
465.414	1769.25
465.634	1671.25
465.854	1655.25
466.073	1617.25
466.293	1562.25
466.512	1519.25
466.732	1500.25
466.951	1521.25
467.171	1481.25
467.391	1497.25
467.61	1507.25
467.829	1475.25
468.049	1506.25
468.268	1426.25
468.488	1431.25
468.707	1436.25
468.927	1444.25
469.146	1444.25
469.365	1501.25
469.585	1455.25
469.804	1500.25
470.023	1484.25
470.243	1513.25
470.462	1505.25
470.681	1534.25
470.901	1576.25
471.12	1526.25
471.339	1486.25
471.558	1462.25
471.777	1480.25
471.997	1460.25
472.216	1443.25
472.435	1441.25
472.654	1413.25
472.873	1384.25
473.092	1417.25
473.311	1403.25
473.53	1459.25
473.749	1422.25
473.968	1420.25
474.187	1440.25
474.406	1409.25
474.625	1456.25
474.844	1386.25
475.063	1425.25
475.282	1451.25
475.501	1459.25
475.72	1446.25
475.939	1466.25
476.158	1506.25
476.377	1504.25
476.596	1508.25
476.814	1544.25
477.033	1524.25
477.252	1549.25
477.471	1597.25
477.69	1589.25
477.908	1664.25
478.127	1672.25
478.346	1658.25
478.564	1740.25
478.783	1736.25
479.002	1795.25
479.22	1808.25
479.439	1825.25
479.658	1773.25
479.876	1755.25
480.095	1823.25
480.313	1876.25
480.532	1899.25
480.751	1888.25
480.969	1865.25
481.188	1799.25
481.406	1752.25
481.624	1789.25
481.843	1744.25
482.061	1727.25
482.28	1756.25
482.498	1749.25
482.717	1752.25
482.935	1753.25
483.153	1739.25
483.372	1725.25
483.59	1784.25
483.808	1750.25
484.027	1768.25
484.245	1769.25
484.463	1839.25
484.681	1824.25
484.9	1847.25
485.118	1867.25
485.336	1875.25
485.554	1880.25
485.772	1963.25
485.99	1906.25
486.209	1881.25
486.427	1900.25
486.645	1881.25
486.863	1857.25
487.081	1906.25
487.299	1859.25
487.517	1852.25
487.735	1865.25
487.953	1883.25
488.171	1881.25
488.389	1803.25
488.607	1782.25
488.825	1800.25
489.043	1813.25
489.261	1800.25
489.479	1795.25
489.696	1789.25
489.914	1780.25
490.132	1823.25
490.35	1809.25
490.568	1798.25
490.786	1795.25
491.003	1807.25
491.221	1815.25
491.439	1816.25
491.657	1820.25
491.874	1781.25
492.092	1815.25
492.31	1803.25
492.527	1811.25
492.745	1806.25
492.963	1816.25
493.18	1851.25
493.398	1826.25
493.615	1827.25
493.833	1848.25
494.05	1848.25
494.268	1864.25
494.485	1848.25
494.703	1814.25
494.92	1840.25
495.138	1815.25
495.355	1828.25
495.573	1853.25
495.79	1851.25
496.008	1896.25
496.225	1881.25
496.442	1839.25
496.66	1925.25
496.877	1923.25
497.094	1990.25
497.312	1998.25
497.529	2002.25
497.746	2097.25
497.963	2108.25
498.181	2200.25
498.398	2282.25
498.615	2419.25
498.832	2566.25
499.049	2666.25
499.267	2836.25
499.484	3124.25
499.701	3393.25
499.918	3641.25
500.135	4037.25
500.352	4436.25
500.569	4591.25
500.786	4493.25
501.003	4396.25
501.22	3967.25
501.437	3636.25
501.654	3276.25
501.871	3024.25
502.088	2801.25
502.305	2721.25
502.522	2557.25
502.739	2455.25
502.956	2370.25
503.172	2229.25
503.389	2134.25
503.606	2111.25
503.823	2080.25
504.04	2065.25
504.256	2045.25
504.473	2062.25
504.69	2079.25
504.907	2017.25
505.123	1959.25
505.34	1865.25
505.557	1758.25
505.773	1736.25
505.99	1711.25
506.207	1679.25
506.423	1659.25
506.64	1651.25
506.856	1609.25
507.073	1601.25
507.289	1591.25
507.506	1559.25
507.722	1563.25
507.939	1560.25
508.155	1519.25
508.372	1537.25
508.588	1495.25
508.805	1498.25
509.021	1528.25
509.238	1490.25
509.454	1501.25
509.67	1437.25
509.887	1473.25
510.103	1422.25
510.319	1433.25
510.536	1441.25
510.752	1414.25
510.968	1421.25
511.184	1425.25
511.401	1435.25
511.617	1426.25
511.833	1436.25
512.049	1438.25
512.265	1429.25
512.481	1419.25
512.698	1386.25
512.914	1421.25
513.13	1419.25
513.346	1419.25
513.562	1395.25
513.778	1449.25
513.994	1417.25
514.21	1437.25
514.426	1457.25
514.642	1409.25
514.858	1466.25
515.074	1471.25
515.29	1491.25
515.506	1459.25
515.721	1510.25
515.937	1539.25
516.153	1553.25
516.369	1580.25
516.585	1607.25
516.801	1650.25
517.016	1732.25
517.232	1756.25
517.448	1815.25
517.664	1841.25
517.879	1871.25
518.095	1863.25
518.311	1885.25
518.527	1814.25
518.742	1751.25
518.958	1650.25
519.173	1602.25
519.389	1597.25
519.605	1537.25
519.82	1516.25
520.036	1523.25
520.251	1455.25
520.467	1455.25
520.682	1421.25
520.898	1412.25
521.113	1368.25
521.329	1401.25
521.544	1415.25
521.76	1384.25
521.975	1391.25
522.19	1363.25
522.406	1355.25
522.621	1335.25
522.836	1316.25
523.052	1325.25
523.267	1327.25
523.482	1319.25
523.698	1323.25
523.913	1334.25
524.128	1317.25
524.343	1301.25
524.559	1283.25
524.774	1266.25
524.989	1308.25
525.204	1310.25
525.419	1287.25
525.634	1279.25
525.849	1306.25
526.064	1260.25
526.28	1304.25
526.495	1276.25
526.71	1252.25
526.925	1250.25
527.14	1241.25
527.355	1244.25
527.57	1248.25
527.785	1247.25
527.999	1230.25
528.214	1263.25
528.429	1268.25
528.644	1268.25
528.859	1264.25
529.074	1238.25
529.289	1257.25
529.503	1228.25
529.718	1246.25
529.933	1251.25
530.148	1224.25
530.363	1258.25
530.577	1234.25
530.792	1274.25
531.007	1246.25
531.221	1244.25
531.436	1240.25
531.651	1253.25
531.865	1263.25
532.08	1244.25
532.295	1256.25
532.509	1244.25
532.724	1254.25
532.938	1240.25
533.153	1220.25
533.367	1240.25
533.582	1222.25
533.796	1212.25
534.011	1249.25
534.225	1244.25
534.44	1175.25
534.654	1196.25
534.868	1221.25
535.083	1203.25
535.297	1188.25
535.511	1212.25
535.726	1205.25
535.94	1217.25
536.154	1173.25
536.369	1181.25
536.583	1161.25
536.797	1189.25
537.011	1149.25
537.225	1124.25
537.44	1167.25
537.654	1163.25
537.868	1115.25
538.082	1125.25
538.296	1163.25
538.51	1129.25
538.724	1142.25
538.938	1137.25
539.153	1157.25
539.367	1120.25
539.581	1123.25
539.795	1094.25
540.009	1136.25
540.222	1131.25
540.436	1095.25
540.65	1119.25
540.864	1105.25
541.078	1102.25
541.292	1129.25
541.506	1107.25
541.72	1084.25
541.934	1128.25
542.147	1096.25
542.361	1098.25
542.575	1088.25
542.789	1113.25
543.002	1107.25
543.216	1100.25
543.43	1095.25
543.644	1072.25
543.857	1057.25
544.071	1066.25
544.285	1102.25
544.498	1075.25
544.712	1113.25
544.925	1081.25
545.139	1111.25
545.352	1108.25
545.566	1121.25
545.779	1132.25
545.993	1108.25
546.206	1099.25
546.42	1120.25
546.633	1097.25
546.847	1116.25
547.06	1115.25
547.274	1114.25
547.487	1093.25
547.7	1100.25
547.914	1129.25
548.127	1119.25
548.34	1124.25
548.554	1128.25
548.767	1126.25
548.98	1110.25
549.193	1105.25
549.407	1113.25
549.62	1116.25
549.833	1151.25
550.046	1115.25
550.259	1126.25
550.473	1068.25
550.686	1116.25
550.899	1129.25
551.112	1095.25
551.325	1103.25
551.538	1096.25
551.751	1086.25
551.964	1088.25
552.177	1142.25
552.39	1145.25
552.603	1129.25
552.816	1172.25
553.029	1187.25
553.242	1190.25
553.455	1184.25
553.667	1220.25
553.88	1168.25
554.093	1157.25
554.306	1114.25
554.519	1116.25
554.732	1100.25
554.944	1067.25
555.157	1084.25
555.37	1026.25
555.583	1037.25
555.795	1036.25
556.008	996.25
556.221	977.25
556.433	982.25
556.646	995.25
556.859	988.25
557.071	999.25
557.284	958.25
557.496	955.25
557.709	963.25
557.921	956.25
558.134	954.25
558.346	948.25
558.559	935.25
558.771	947.25
558.984	938.25
559.196	958.25
559.409	937.25
559.621	933.25
559.833	958.25
560.046	940.25
560.258	905.25
560.47	901.25
560.683	949.25
560.895	917.25
561.107	925.25
561.32	925.25
561.532	900.25
561.744	913.25
561.956	923.25
562.168	901.25
562.381	898.25
562.593	913.25
562.805	923.25
563.017	905.25
563.229	915.25
563.441	948.25
563.653	957.25
563.865	942.25
564.077	945.25
564.289	970.25
564.501	995.25
564.713	1009.25
564.925	986.25
565.137	991.25
565.349	1000.25
565.561	1050.25
565.773	1081.25
565.985	1137.25
566.197	1165.25
566.408	1245.25
566.62	1312.25
566.832	1378.25
567.044	1423.25
567.255	1409.25
567.467	1461.25
567.679	1496.25
567.891	1594.25
568.102	1595.25
568.314	1526.25
568.526	1432.25
568.737	1337.25
568.949	1223.25
569.161	1120.25
569.372	1098.25
569.584	1056.25
569.795	1012.25
570.007	1008.25
570.218	948.25
570.43	957.25
570.641	926.25
570.853	954.25
571.064	938.25
571.276	940.25
571.487	918.25
571.698	882.25
571.91	866.25
572.121	848.25
572.333	832.25
572.544	824.25
572.755	793.25
572.966	796.25
573.178	787.25
573.389	774.25
573.6	767.25
573.811	755.25
574.023	753.25
574.234	772.25
574.445	736.25
574.656	721.25
574.867	738.25
575.078	748.25
575.289	752.25
575.501	751.25
575.712	720.25
575.923	705.25
576.134	717.25
576.345	709.25
576.556	712.25
576.767	680.25
576.978	690.25
577.188	709.25
577.399	682.25
577.61	693.25
577.821	691.25
578.032	663.25
578.243	665.25
578.454	684.25
578.665	661.25
578.875	645.25
579.086	644.25
579.297	666.25
579.508	672.25
579.718	666.25
579.929	645.25
580.14	633.25
580.35	637.25
580.561	656.25
580.772	643.25
580.982	638.25
581.193	630.25
581.403	641.25
581.614	650.25
581.825	637.25
582.035	639.25
582.246	631.25
582.456	618.25
582.667	615.25
582.877	627.25
583.087	611.25
583.298	603.25
583.508	621.25
583.719	630.25
583.929	665.25
584.139	613.25
584.35	608.25
584.56	627.25
584.77	612.25
584.981	615.25
585.191	590.25
585.401	593.25
585.611	605.25
585.821	601.25
586.032	606.25
586.242	590.25
586.452	607.25
586.662	613.25
586.872	582.25
587.082	593.25
587.292	598.25
587.502	590.25
587.713	600.25
587.923	593.25
588.133	594.25
588.343	592.25
588.553	606.25
588.762	583.25
588.972	612.25
589.182	627.25
589.392	607.25
589.602	622.25
589.812	612.25
590.022	601.25
590.232	585.25
590.441	591.25
590.651	603.25
590.861	588.25
591.071	604.25
591.281	607.25
591.49	599.25
591.7	628.25
591.91	637.25
592.119	623.25
592.329	641.25
592.539	672.25
592.748	656.25
592.958	680.25
593.167	703.25
593.377	689.25
593.587	722.25
593.796	717.25
594.006	767.25
594.215	728.25
594.424	703.25
594.634	682.25
594.843	665.25
595.053	665.25
595.262	639.25
595.472	624.25
595.681	607.25
595.89	595.25
596.1	592.25
596.309	576.25
596.518	576.25
596.727	579.25
596.937	569.25
597.146	556.25
597.355	550.25
597.564	553.25
597.774	533.25
597.983	551.25
598.192	522.25
598.401	529.25
598.61	535.25
598.819	527.25
599.028	503.25
599.237	501.25
599.446	489.25
599.655	512.25
599.864	498.25
600.073	509.25
600.282	492.25
600.491	491.25
600.7	491.25
600.909	493.25
601.118	489.25
601.327	475.25
601.536	485.25
601.745	491.25
601.953	464.25
602.162	512.25
602.371	504.25
602.58	481.25
602.789	468.25
602.997	473.25
603.206	468.25
603.415	466.25
603.623	450.25
603.832	480.25
604.041	452.25
604.249	476.25
604.458	465.25
604.666	449.25
604.875	445.25
605.084	436.25
605.292	441.25
605.501	453.25
605.709	449.25
605.918	444.25
606.126	457.25
606.334	443.25
606.543	435.25
606.751	455.25
606.96	456.25
607.168	444.25
607.376	423.25
607.585	464.25
607.793	436.25
608.001	442.25
608.21	431.25
608.418	425.25
608.626	443.25
608.834	455.25
609.043	448.25
609.251	442.25
609.459	426.25
609.667	437.25
609.875	422.25
610.083	445.25
610.291	428.25
610.499	448.25
610.707	431.25
610.916	428.25
611.124	425.25
611.332	439.25
611.54	439.25
611.748	421.25
611.955	419.25
612.163	425.25
612.371	406.25
612.579	435.25
612.787	427.25
612.995	426.25
613.203	417.25
613.411	429.25
613.618	419.25
613.826	404.25
614.034	419.25
614.242	423.25
614.449	413.25
614.657	412.25
614.865	406.25
615.072	394.25
615.28	408.25
615.488	416.25
615.695	412.25
615.903	418.25
616.111	417.25
616.318	419.25
616.526	415.25
616.733	421.25
616.941	415.25
617.148	416.25
617.356	425.25
617.563	402.25
617.771	407.25
617.978	411.25
618.185	435.25
618.393	401.25
618.6	403.25
618.807	404.25
619.015	418.25
619.222	417.25
619.429	402.25
619.637	399.25
619.844	409.25
620.051	397.25
620.258	386.25
620.466	382.25
620.673	408.25
620.88	385.25
621.087	381.25
621.294	369.25
621.501	383.25
621.708	399.25
621.915	379.25
622.122	391.25
622.329	377.25
622.536	377.25
622.743	386.25
622.95	367.25
623.157	354.25
623.364	387.25
623.571	374.25
623.778	373.25
623.985	374.25
624.192	372.25
624.399	375.25
624.606	371.25
624.812	354.25
625.019	345.25
625.226	340.25
625.433	368.25
625.639	347.25
625.846	341.25
626.053	343.25
626.259	346.25
626.466	337.25
626.673	328.25
626.879	347.25
627.086	356.25
627.293	352.25
627.499	324.25
627.706	337.25
627.912	345.25
628.119	335.25
628.325	342.25
628.532	354.25
628.738	345.25
628.945	332.25
629.151	331.25
629.357	332.25
629.564	317.25
629.77	323.25
629.976	328.25
630.183	333.25
630.389	342.25
630.595	354.25
630.802	318.25
631.008	317.25
631.214	313.25
631.42	328.25
631.627	310.25
631.833	314.25
632.039	319.25
632.245	300.25
632.451	293.25
632.657	340.25
632.863	311.25
633.069	287.25
633.275	327.25
633.481	303.25
633.688	297.25
633.893	327.25
634.099	305.25
634.305	315.25
634.511	303.25
634.717	311.25
634.923	292.25
635.129	290.25
635.335	294.25
635.541	304.25
635.747	295.25
635.952	300.25
636.158	305.25
636.364	294.25
636.57	298.25
636.775	292.25
636.981	292.25
637.187	297.25
637.392	290.25
637.598	297.25
637.804	312.25
638.009	295.25
638.215	293.25
638.421	296.25
638.626	280.25
638.832	292.25
639.037	280.25
639.243	284.25
639.448	284.25
639.654	282.25
639.859	275.25
640.065	270.25
640.27	278.25
640.475	282.25
640.681	287.25
640.886	275.25
641.091	265.25
641.297	279.25
641.502	283.25
641.707	284.25
641.913	260.25
642.118	288.25
642.323	284.25
642.528	279.25
642.733	289.25
642.939	277.25
643.144	276.25
643.349	281.25
643.554	282.25
643.759	266.25
643.964	278.25
644.169	264.25
644.374	283.25
644.579	284.25
644.784	284.25
644.989	280.25
645.194	268.25
645.399	263.25
645.604	291.25
645.809	283.25
646.014	265.25
646.219	275.25
646.423	259.25
646.628	282.25
646.833	278.25
647.038	287.25
647.243	290.25
647.447	288.25
647.652	294.25
647.857	293.25
648.062	288.25
648.266	300.25
648.471	303.25
648.676	307.25
648.88	314.25
649.085	317.25
649.289	294.25
649.494	297.25
649.698	294.25
649.903	295.25
650.107	273.25
650.312	305.25
650.516	269.25
650.721	279.25
650.925	298.25
651.13	275.25
651.334	260.25
651.539	270.25
651.743	277.25
651.947	268.25
652.152	281.25
652.356	269.25
652.56	268.25
652.764	272.25
652.969	271.25
653.173	283.25
653.377	266.25
653.581	275.25
653.785	273.25
653.99	268.25
654.194	261.25
654.398	284.25
654.602	287.25
654.806	267.25
655.01	298.25
655.214	293.25
655.418	296.25
655.622	296.25
655.826	316.25
656.03	329.25
656.234	375.25
656.438	393.25
656.642	363.25
656.846	345.25
657.049	338.25
657.253	275.25
657.457	256.25
657.661	232.25
657.865	235.25
658.068	221.25
658.272	193.25
658.476	203.25
658.68	168.25
658.883	165.25
659.087	163.25
659.291	146.25
659.494	135.25
659.698	131.25
659.901	137.25
660.105	128.25
660.309	135.25
660.512	119.25
660.716	116.25
660.919	133.25
661.123	104.25
661.326	105.25
661.53	104.25
661.733	96.25
661.936	101.25
662.14	91.25
662.343	99.25
662.546	86.25
662.75	83.25
662.953	87.25
663.156	85.25
663.36	87.25
663.563	76.25
663.766	89.25
663.969	83.25
664.173	97.25
664.376	98.25
664.579	73.25
664.782	92.25
664.985	94.25
665.188	77.25
665.391	76.25
665.594	80.25
665.797	70.25
666	81.25
666.203	77.25
666.406	91.25
666.609	74.25
666.812	91.25
667.015	85.25
667.218	78.25
667.421	90.25
667.624	92.25
667.827	75.25
668.03	91.25
668.232	84.25
668.435	81.25
668.638	88.25
668.841	88.25
669.043	80.25
669.246	77.25
669.449	84.25
669.651	82.25
669.854	77.25
670.057	73.25
670.259	80.25
670.462	88.25
670.665	64.25
670.867	84.25
671.07	81.25
671.272	82.25
671.475	87.25
671.677	84.25
671.88	95.25
672.082	87.25
672.284	83.25
672.487	77.25
672.689	93.25
672.892	81.25
