Data from NiCl2@0.125M.TitratingCurve.Agarose3%dH2O.NegLispCup.LampEnergy10.LIBS07252019_HRD10591_18-28-32-578.txt Node
Date: Thu Jul 25 18:28:32 EDT 2019
User: cochatt
Spectrometer: HR+D1059
Trigger mode: 1
Integration Time (sec): 1.000000E-1
Scans to average: 1
Electric dark correction enabled: true
Nonlinearity correction enabled: false
Boxcar width: 0
XAxis mode: Wavelengths
Number of Pixels in Spectrum: 2048
>>>>>Begin Spectral Data<<<<<
223.165	-23.12
223.4	-23.12
223.635	-23.12
223.869	-22.12
224.104	-17.12
224.338	-15.12
224.573	-19.12
224.808	0.88
225.042	-4.12
225.277	-11.12
225.511	-12.12
225.746	8.88
225.98	-1.12
226.215	8.88
226.449	25.88
226.683	21.88
226.918	31.88
227.152	26.88
227.387	33.88
227.621	40.88
227.856	51.88
228.09	44.88
228.324	51.88
228.559	48.88
228.793	67.88
229.027	107.88
229.262	114.88
229.496	105.88
229.73	102.88
229.964	136.88
230.199	128.88
230.433	132.88
230.667	147.88
230.901	128.88
231.136	148.88
231.37	145.88
231.604	139.88
231.838	130.88
232.072	158.88
232.306	149.88
232.541	159.88
232.775	141.88
233.009	146.88
233.243	133.88
233.477	148.88
233.711	160.88
233.945	167.88
234.179	145.88
234.413	158.88
234.647	149.88
234.881	143.88
235.115	148.88
235.349	167.88
235.583	160.88
235.817	145.88
236.051	157.88
236.285	153.88
236.519	161.88
236.753	170.88
236.987	169.88
237.221	156.88
237.455	156.88
237.689	166.88
237.922	156.88
238.156	172.88
238.39	181.88
238.624	151.88
238.858	188.88
239.091	178.88
239.325	177.88
239.559	188.88
239.793	168.88
240.027	182.88
240.26	197.88
240.494	174.88
240.728	192.88
240.961	183.88
241.195	190.88
241.429	188.88
241.662	202.88
241.896	206.88
242.13	209.88
242.363	201.88
242.597	207.88
242.83	213.88
243.064	194.88
243.298	207.88
243.531	211.88
243.765	195.88
243.998	211.88
244.232	218.88
244.465	213.88
244.699	219.88
244.932	223.88
245.166	214.88
245.399	232.88
245.633	236.88
245.866	242.88
246.099	230.88
246.333	222.88
246.566	231.88
246.8	234.88
247.033	234.88
247.266	246.88
247.5	234.88
247.733	244.88
247.966	227.88
248.2	256.88
248.433	258.88
248.666	250.88
248.899	255.88
249.133	256.88
249.366	258.88
249.599	264.88
249.832	241.88
250.066	258.88
250.299	247.88
250.532	257.88
250.765	284.88
250.998	272.88
251.231	268.88
251.465	253.88
251.698	273.88
251.931	279.88
252.164	271.88
252.397	285.88
252.63	294.88
252.863	280.88
253.096	265.88
253.329	295.88
253.562	284.88
253.795	296.88
254.028	287.88
254.261	298.88
254.494	317.88
254.727	282.88
254.96	285.88
255.193	300.88
255.426	285.88
255.659	278.88
255.892	300.88
256.124	294.88
256.357	291.88
256.59	299.88
256.823	306.88
257.056	299.88
257.289	312.88
257.521	311.88
257.754	285.88
257.987	322.88
258.22	312.88
258.452	297.88
258.685	312.88
258.918	333.88
259.151	334.88
259.383	318.88
259.616	338.88
259.849	309.88
260.081	321.88
260.314	319.88
260.547	338.88
260.779	340.88
261.012	337.88
261.244	341.88
261.477	344.88
261.71	329.88
261.942	353.88
262.175	345.88
262.407	368.88
262.64	350.88
262.872	359.88
263.105	354.88
263.337	350.88
263.57	365.88
263.802	371.88
264.035	367.88
264.267	342.88
264.499	372.88
264.732	375.88
264.964	362.88
265.197	373.88
265.429	352.88
265.661	374.88
265.894	382.88
266.126	391.88
266.358	389.88
266.591	378.88
266.823	393.88
267.055	389.88
267.287	387.88
267.52	371.88
267.752	368.88
267.984	406.88
268.216	394.88
268.448	372.88
268.681	396.88
268.913	397.88
269.145	386.88
269.377	380.88
269.609	416.88
269.841	395.88
270.073	377.88
270.306	420.88
270.538	405.88
270.77	405.88
271.002	395.88
271.234	414.88
271.466	410.88
271.698	406.88
271.93	388.88
272.162	421.88
272.394	412.88
272.626	428.88
272.858	394.88
273.09	415.88
273.322	418.88
273.553	405.88
273.785	417.88
274.017	425.88
274.249	411.88
274.481	438.88
274.713	425.88
274.945	428.88
275.176	412.88
275.408	428.88
275.64	437.88
275.872	436.88
276.104	441.88
276.335	440.88
276.567	444.88
276.799	448.88
277.031	446.88
277.262	449.88
277.494	429.88
277.726	450.88
277.957	449.88
278.189	441.88
278.421	452.88
278.652	462.88
278.884	450.88
279.115	460.88
279.347	452.88
279.579	468.88
279.81	461.88
280.042	440.88
280.273	468.88
280.505	477.88
280.736	467.88
280.968	477.88
281.199	473.88
281.431	482.88
281.662	483.88
281.894	471.88
282.125	499.88
282.356	504.88
282.588	484.88
282.819	502.88
283.051	490.88
283.282	520.88
283.513	509.88
283.745	517.88
283.976	486.88
284.207	503.88
284.439	508.88
284.67	519.88
284.901	520.88
285.132	510.88
285.364	520.88
285.595	498.88
285.826	519.88
286.057	510.88
286.288	498.88
286.52	537.88
286.751	498.88
286.982	528.88
287.213	513.88
287.444	545.88
287.675	546.88
287.906	545.88
288.138	549.88
288.369	546.88
288.6	553.88
288.831	545.88
289.062	545.88
289.293	531.88
289.524	529.88
289.755	526.88
289.986	550.88
290.217	501.88
290.448	560.88
290.679	544.88
290.91	526.88
291.141	545.88
291.371	556.88
291.602	552.88
291.833	559.88
292.064	544.88
292.295	537.88
292.526	558.88
292.757	578.88
292.987	547.88
293.218	553.88
293.449	549.88
293.68	549.88
293.91	546.88
294.141	562.88
294.372	572.88
294.603	562.88
294.833	578.88
295.064	574.88
295.295	569.88
295.525	573.88
295.756	565.88
295.987	563.88
296.217	554.88
296.448	564.88
296.679	568.88
296.909	581.88
297.14	579.88
297.37	581.88
297.601	602.88
297.831	592.88
298.062	608.88
298.292	615.88
298.523	611.88
298.753	633.88
298.984	628.88
299.214	627.88
299.445	622.88
299.675	595.88
299.905	605.88
300.136	616.88
300.366	580.88
300.597	631.88
300.827	617.88
301.057	627.88
301.288	656.88
301.518	647.88
301.748	637.88
301.979	657.88
302.209	631.88
302.439	636.88
302.669	649.88
302.9	623.88
303.13	621.88
303.36	633.88
303.59	635.88
303.82	639.88
304.051	613.88
304.281	617.88
304.511	610.88
304.741	622.88
304.971	630.88
305.201	616.88
305.431	607.88
305.661	628.88
305.891	612.88
306.121	617.88
306.352	610.88
306.582	607.88
306.812	610.88
307.042	617.88
307.272	634.88
307.502	604.88
307.731	612.88
307.961	610.88
308.191	610.88
308.421	610.88
308.651	633.88
308.881	617.88
309.111	600.88
309.341	602.88
309.571	620.88
309.8	620.88
310.03	623.88
310.26	623.88
310.49	617.88
310.72	633.88
310.949	622.88
311.179	608.88
311.409	621.88
311.639	624.88
311.868	612.88
312.098	642.88
312.328	640.88
312.557	643.88
312.787	640.88
313.017	625.88
313.246	655.88
313.476	656.88
313.706	673.88
313.935	648.88
314.165	674.88
314.394	663.88
314.624	646.88
314.853	651.88
315.083	657.88
315.312	646.88
315.542	649.88
315.771	629.88
316.001	647.88
316.23	661.88
316.46	640.88
316.689	655.88
316.919	622.88
317.148	650.88
317.377	646.88
317.607	625.88
317.836	636.88
318.065	641.88
318.295	615.88
318.524	621.88
318.753	618.88
318.983	629.88
319.212	632.88
319.441	630.88
319.67	625.88
319.9	631.88
320.129	640.88
320.358	669.88
320.587	638.88
320.816	631.88
321.046	633.88
321.275	626.88
321.504	634.88
321.733	650.88
321.962	637.88
322.191	654.88
322.42	650.88
322.649	644.88
322.878	635.88
323.108	657.88
323.337	667.88
323.566	679.88
323.795	656.88
324.024	660.88
324.253	666.88
324.482	665.88
324.71	671.88
324.939	661.88
325.168	650.88
325.397	670.88
325.626	692.88
325.855	674.88
326.084	671.88
326.313	700.88
326.542	701.88
326.77	713.88
326.999	708.88
327.228	682.88
327.457	692.88
327.686	681.88
327.914	699.88
328.143	694.88
328.372	695.88
328.6	709.88
328.829	697.88
329.058	705.88
329.287	716.88
329.515	698.88
329.744	695.88
329.972	728.88
330.201	704.88
330.43	716.88
330.658	711.88
330.887	697.88
331.115	701.88
331.344	714.88
331.572	725.88
331.801	754.88
332.03	782.88
332.258	792.88
332.486	805.88
332.715	837.88
332.943	878.88
333.172	902.88
333.4	921.88
333.629	943.88
333.857	980.88
334.085	963.88
334.314	950.88
334.542	930.88
334.771	899.88
334.999	878.88
335.227	891.88
335.455	873.88
335.684	873.88
335.912	866.88
336.14	842.88
336.369	866.88
336.597	865.88
336.825	866.88
337.053	841.88
337.281	816.88
337.51	820.88
337.738	804.88
337.966	796.88
338.194	816.88
338.422	766.88
338.65	769.88
338.878	757.88
339.106	743.88
339.334	749.88
339.562	739.88
339.79	732.88
340.018	733.88
340.246	712.88
340.474	741.88
340.702	740.88
340.93	730.88
341.158	744.88
341.386	716.88
341.614	745.88
341.842	739.88
342.07	740.88
342.298	705.88
342.526	720.88
342.754	713.88
342.981	728.88
343.209	708.88
343.437	759.88
343.665	847.88
343.893	879.88
344.12	933.88
344.348	886.88
344.576	841.88
344.804	826.88
345.031	777.88
345.259	774.88
345.487	771.88
345.714	743.88
345.942	759.88
346.17	749.88
346.397	729.88
346.625	704.88
346.853	720.88
347.08	713.88
347.308	724.88
347.535	720.88
347.763	727.88
347.99	710.88
348.218	721.88
348.445	714.88
348.673	718.88
348.9	734.88
349.128	724.88
349.355	694.88
349.583	705.88
349.81	690.88
350.037	700.88
350.265	682.88
350.492	691.88
350.72	684.88
350.947	699.88
351.174	698.88
351.402	722.88
351.629	695.88
351.856	693.88
352.083	678.88
352.311	687.88
352.538	687.88
352.765	682.88
352.992	688.88
353.22	660.88
353.447	665.88
353.674	675.88
353.901	678.88
354.128	686.88
354.355	679.88
354.583	658.88
354.81	679.88
355.037	697.88
355.264	665.88
355.491	688.88
355.718	710.88
355.945	699.88
356.172	697.88
356.399	657.88
356.626	681.88
356.853	679.88
357.08	673.88
357.307	696.88
357.534	704.88
357.761	693.88
357.988	690.88
358.215	698.88
358.441	691.88
358.668	688.88
358.895	687.88
359.122	689.88
359.349	682.88
359.576	707.88
359.802	680.88
360.029	702.88
360.256	700.88
360.483	707.88
360.709	701.88
360.936	693.88
361.163	690.88
361.39	665.88
361.616	691.88
361.843	709.88
362.07	676.88
362.296	702.88
362.523	702.88
362.749	699.88
362.976	678.88
363.203	684.88
363.429	681.88
363.656	690.88
363.882	698.88
364.109	692.88
364.335	689.88
364.562	681.88
364.788	714.88
365.015	662.88
365.241	701.88
365.468	672.88
365.694	690.88
365.92	672.88
366.147	667.88
366.373	660.88
366.599	658.88
366.826	684.88
367.052	664.88
367.278	668.88
367.505	675.88
367.731	685.88
367.957	684.88
368.184	681.88
368.41	678.88
368.636	695.88
368.862	701.88
369.089	685.88
369.315	682.88
369.541	729.88
369.767	696.88
369.993	710.88
370.219	722.88
370.445	722.88
370.672	748.88
370.898	718.88
371.124	711.88
371.35	738.88
371.576	739.88
371.802	743.88
372.028	762.88
372.254	718.88
372.48	736.88
372.706	751.88
372.932	767.88
373.158	800.88
373.384	746.88
373.61	764.88
373.835	768.88
374.061	736.88
374.287	745.88
374.513	765.88
374.739	763.88
374.965	821.88
375.191	818.88
375.416	851.88
375.642	801.88
375.868	786.88
376.094	796.88
376.319	771.88
376.545	758.88
376.771	771.88
376.997	762.88
377.222	780.88
377.448	745.88
377.674	731.88
377.899	749.88
378.125	750.88
378.35	745.88
378.576	732.88
378.802	745.88
379.027	724.88
379.253	720.88
379.478	724.88
379.704	718.88
379.929	752.88
380.155	725.88
380.38	749.88
380.606	721.88
380.831	753.88
381.057	750.88
381.282	734.88
381.507	733.88
381.733	758.88
381.958	743.88
382.184	742.88
382.409	787.88
382.634	782.88
382.86	779.88
383.085	810.88
383.31	799.88
383.535	822.88
383.761	834.88
383.986	853.88
384.211	836.88
384.436	872.88
384.662	900.88
384.887	894.88
385.112	923.88
385.337	899.88
385.562	924.88
385.787	905.88
386.013	936.88
386.238	922.88
386.463	922.88
386.688	916.88
386.913	893.88
387.138	928.88
387.363	920.88
387.588	908.88
387.813	926.88
388.038	877.88
388.263	905.88
388.488	917.88
388.713	924.88
388.938	899.88
389.163	884.88
389.387	870.88
389.612	862.88
389.837	889.88
390.062	867.88
390.287	878.88
390.512	870.88
390.736	879.88
390.961	876.88
391.186	913.88
391.411	956.88
391.636	978.88
391.86	1029.88
392.085	1026.88
392.31	1026.88
392.534	1010.88
392.759	968.88
392.984	959.88
393.208	949.88
393.433	958.88
393.658	965.88
393.882	935.88
394.107	955.88
394.331	958.88
394.556	963.88
394.78	960.88
395.005	958.88
395.229	970.88
395.454	995.88
395.678	1028.88
395.903	1003.88
396.127	1006.88
396.352	975.88
396.576	931.88
396.801	949.88
397.025	943.88
397.249	974.88
397.474	985.88
397.698	1033.88
397.922	987.88
398.147	1026.88
398.371	1070.88
398.595	1050.88
398.82	1098.88
399.044	1205.88
399.268	1308.88
399.492	1505.88
399.717	1676.88
399.941	1772.88
400.165	1581.88
400.389	1404.88
400.613	1296.88
400.837	1208.88
401.062	1168.88
401.286	1146.88
401.51	1119.88
401.734	1155.88
401.958	1166.88
402.182	1154.88
402.406	1181.88
402.63	1189.88
402.854	1200.88
403.078	1213.88
403.302	1256.88
403.526	1270.88
403.75	1296.88
403.974	1277.88
404.198	1282.88
404.422	1315.88
404.645	1308.88
404.869	1314.88
405.093	1289.88
405.317	1260.88
405.541	1254.88
405.765	1252.88
405.988	1268.88
406.212	1255.88
406.436	1259.88
406.66	1264.88
406.883	1302.88
407.107	1357.88
407.331	1428.88
407.555	1486.88
407.778	1477.88
408.002	1429.88
408.226	1390.88
408.449	1375.88
408.673	1317.88
408.896	1294.88
409.12	1303.88
409.344	1335.88
409.567	1273.88
409.791	1326.88
410.014	1301.88
410.238	1289.88
410.461	1247.88
410.685	1236.88
410.908	1207.88
411.132	1190.88
411.355	1172.88
411.578	1188.88
411.802	1197.88
412.025	1175.88
412.249	1210.88
412.472	1222.88
412.695	1153.88
412.919	1152.88
413.142	1126.88
413.365	1138.88
413.589	1156.88
413.812	1150.88
414.035	1136.88
414.258	1126.88
414.482	1158.88
414.705	1165.88
414.928	1168.88
415.151	1168.88
415.374	1126.88
415.597	1146.88
415.821	1137.88
416.044	1129.88
416.267	1097.88
416.49	1111.88
416.713	1105.88
416.936	1153.88
417.159	1108.88
417.382	1092.88
417.605	1093.88
417.828	1108.88
418.051	1160.88
418.274	1119.88
418.497	1118.88
418.72	1159.88
418.943	1164.88
419.166	1241.88
419.389	1342.88
419.611	1256.88
419.834	1226.88
420.057	1181.88
420.28	1199.88
420.503	1125.88
420.726	1097.88
420.948	1109.88
421.171	1115.88
421.394	1114.88
421.617	1142.88
421.839	1125.88
422.062	1126.88
422.285	1111.88
422.507	1161.88
422.73	1149.88
422.953	1177.88
423.175	1177.88
423.398	1189.88
423.621	1174.88
423.843	1196.88
424.066	1219.88
424.288	1173.88
424.511	1220.88
424.733	1200.88
424.956	1156.88
425.178	1123.88
425.401	1123.88
425.623	1120.88
425.846	1127.88
426.068	1107.88
426.291	1079.88
426.513	1060.88
426.735	1038.88
426.958	1062.88
427.18	1054.88
427.402	1069.88
427.625	1026.88
427.847	1003.88
428.069	982.88
428.292	1028.88
428.514	1014.88
428.736	991.88
428.958	1008.88
429.181	980.88
429.403	1016.88
429.625	973.88
429.847	995.88
430.069	948.88
430.292	1006.88
430.514	964.88
430.736	1002.88
430.958	984.88
431.18	989.88
431.402	974.88
431.624	965.88
431.846	1018.88
432.068	1031.88
432.29	1053.88
432.512	1006.88
432.734	1007.88
432.956	1007.88
433.178	1048.88
433.4	1009.88
433.622	1025.88
433.844	1023.88
434.066	1031.88
434.287	1057.88
434.509	1109.88
434.731	1087.88
434.953	1161.88
435.175	1146.88
435.397	1168.88
435.618	1087.88
435.84	1055.88
436.062	1014.88
436.284	997.88
436.505	1023.88
436.727	1030.88
436.949	1039.88
437.17	1056.88
437.392	988.88
437.614	980.88
437.835	973.88
438.057	973.88
438.278	953.88
438.5	980.88
438.721	961.88
438.943	1000.88
439.165	1010.88
439.386	998.88
439.608	1014.88
439.829	1020.88
440.05	1000.88
440.272	1052.88
440.493	1005.88
440.715	1030.88
440.936	1079.88
441.158	1080.88
441.379	1120.88
441.6	1154.88
441.822	1188.88
442.043	1196.88
442.264	1124.88
442.486	1112.88
442.707	1134.88
442.928	1112.88
443.149	1143.88
443.371	1139.88
443.592	1129.88
443.813	1158.88
444.034	1159.88
444.255	1182.88
444.476	1244.88
444.698	1294.88
444.919	1407.88
445.14	1466.88
445.361	1364.88
445.582	1196.88
445.803	1106.88
446.024	1086.88
446.245	1070.88
446.466	1065.88
446.687	1029.88
446.908	1057.88
447.129	1013.88
447.35	992.88
447.571	979.88
447.792	968.88
448.013	985.88
448.234	966.88
448.455	986.88
448.675	935.88
448.896	956.88
449.117	940.88
449.338	935.88
449.559	916.88
449.779	934.88
450	909.88
450.221	924.88
450.442	960.88
450.662	919.88
450.883	930.88
451.104	980.88
451.324	968.88
451.545	976.88
451.766	952.88
451.986	970.88
452.207	936.88
452.428	949.88
452.648	962.88
452.869	941.88
453.089	922.88
453.31	961.88
453.53	893.88
453.751	886.88
453.971	899.88
454.192	897.88
454.412	911.88
454.633	901.88
454.853	912.88
455.073	873.88
455.294	896.88
455.514	908.88
455.734	882.88
455.955	849.88
456.175	881.88
456.395	898.88
456.616	863.88
456.836	898.88
457.056	885.88
457.276	854.88
457.497	895.88
457.717	888.88
457.937	896.88
458.157	894.88
458.377	906.88
458.598	934.88
458.818	949.88
459.038	990.88
459.258	997.88
459.478	1033.88
459.698	1063.88
459.918	1079.88
460.138	1121.88
460.358	1202.88
460.578	1216.88
460.798	1219.88
461.018	1224.88
461.238	1211.88
461.458	1190.88
461.678	1190.88
461.898	1221.88
462.118	1260.88
462.338	1292.88
462.558	1318.88
462.777	1373.88
462.997	1510.88
463.217	1658.88
463.437	1646.88
463.657	1518.88
463.876	1447.88
464.096	1416.88
464.316	1436.88
464.536	1437.88
464.755	1396.88
464.975	1332.88
465.195	1265.88
465.414	1215.88
465.634	1134.88
465.854	1109.88
466.073	1064.88
466.293	1045.88
466.512	1029.88
466.732	1016.88
466.951	993.88
467.171	1007.88
467.391	1001.88
467.61	993.88
467.829	995.88
468.049	966.88
468.268	931.88
468.488	957.88
468.707	930.88
468.927	936.88
469.146	922.88
469.365	957.88
469.585	980.88
469.804	989.88
470.023	1019.88
470.243	1006.88
470.462	1038.88
470.681	1019.88
470.901	1030.88
471.12	990.88
471.339	1021.88
471.558	958.88
471.777	971.88
471.997	949.88
472.216	962.88
472.435	957.88
472.654	926.88
472.873	916.88
473.092	933.88
473.311	919.88
473.53	926.88
473.749	935.88
473.968	901.88
474.187	907.88
474.406	907.88
474.625	936.88
474.844	903.88
475.063	933.88
475.282	933.88
475.501	932.88
475.72	925.88
475.939	967.88
476.158	947.88
476.377	942.88
476.596	935.88
476.814	944.88
477.033	950.88
477.252	966.88
477.471	979.88
477.69	1023.88
477.908	1056.88
478.127	1106.88
478.346	1116.88
478.564	1112.88
478.783	1130.88
479.002	1168.88
479.22	1141.88
479.439	1155.88
479.658	1133.88
479.876	1161.88
480.095	1148.88
480.313	1217.88
480.532	1241.88
480.751	1267.88
480.969	1180.88
481.188	1154.88
481.406	1103.88
481.624	1122.88
481.843	1077.88
482.061	1064.88
482.28	1054.88
482.498	1065.88
482.717	1026.88
482.935	1044.88
483.153	1053.88
483.372	1040.88
483.59	1076.88
483.808	1017.88
484.027	1065.88
484.245	1071.88
484.463	1060.88
484.681	1093.88
484.9	1048.88
485.118	1126.88
485.336	1102.88
485.554	1114.88
485.772	1135.88
485.99	1111.88
486.209	1098.88
486.427	1084.88
486.645	1138.88
486.863	1128.88
487.081	1129.88
487.299	1137.88
487.517	1128.88
487.735	1106.88
487.953	1134.88
488.171	1110.88
488.389	1112.88
488.607	1082.88
488.825	1065.88
489.043	1098.88
489.261	1063.88
489.479	1112.88
489.696	1100.88
489.914	1109.88
490.132	1100.88
490.35	1118.88
490.568	1112.88
490.786	1114.88
491.003	1114.88
491.221	1149.88
491.439	1112.88
491.657	1116.88
491.874	1163.88
492.092	1094.88
492.31	1121.88
492.527	1132.88
492.745	1152.88
492.963	1137.88
493.18	1158.88
493.398	1170.88
493.615	1158.88
493.833	1172.88
494.05	1141.88
494.268	1133.88
494.485	1171.88
494.703	1149.88
494.92	1172.88
495.138	1163.88
495.355	1172.88
495.573	1126.88
495.79	1174.88
496.008	1187.88
496.225	1191.88
496.442	1210.88
496.66	1200.88
496.877	1213.88
497.094	1240.88
497.312	1287.88
497.529	1314.88
497.746	1332.88
497.963	1361.88
498.181	1433.88
498.398	1464.88
498.615	1574.88
498.832	1670.88
499.049	1807.88
499.267	1930.88
499.484	2136.88
499.701	2358.88
499.918	2615.88
500.135	2984.88
500.352	3377.88
500.569	3531.88
500.786	3557.88
501.003	3282.88
501.22	3016.88
501.437	2632.88
501.654	2285.88
501.871	2114.88
502.088	1912.88
502.305	1784.88
502.522	1696.88
502.739	1621.88
502.956	1542.88
503.172	1497.88
503.389	1412.88
503.606	1364.88
503.823	1349.88
504.04	1334.88
504.256	1368.88
504.473	1382.88
504.69	1422.88
504.907	1395.88
505.123	1284.88
505.34	1241.88
505.557	1156.88
505.773	1133.88
505.99	1098.88
506.207	1088.88
506.423	1087.88
506.64	1084.88
506.856	1070.88
507.073	1046.88
507.289	1049.88
507.506	1044.88
507.722	1001.88
507.939	994.88
508.155	1005.88
508.372	1033.88
508.588	993.88
508.805	1007.88
509.021	963.88
509.238	969.88
509.454	967.88
509.67	973.88
509.887	963.88
510.103	968.88
510.319	958.88
510.536	921.88
510.752	968.88
510.968	960.88
511.184	943.88
511.401	955.88
511.617	941.88
511.833	944.88
512.049	943.88
512.265	962.88
512.481	926.88
512.698	943.88
512.914	937.88
513.13	930.88
513.346	943.88
513.562	946.88
513.778	904.88
513.994	926.88
514.21	943.88
514.426	967.88
514.642	949.88
514.858	958.88
515.074	968.88
515.29	975.88
515.506	981.88
515.721	1009.88
515.937	1025.88
516.153	1042.88
516.369	1038.88
516.585	1065.88
516.801	1119.88
517.016	1132.88
517.232	1230.88
517.448	1274.88
517.664	1282.88
517.879	1290.88
518.095	1316.88
518.311	1284.88
518.527	1213.88
518.742	1201.88
518.958	1120.88
519.173	1092.88
519.389	1075.88
519.605	1037.88
519.82	1014.88
520.036	992.88
520.251	936.88
520.467	969.88
520.682	954.88
520.898	957.88
521.113	942.88
521.329	921.88
521.544	893.88
521.76	918.88
521.975	912.88
522.19	898.88
522.406	893.88
522.621	904.88
522.836	898.88
523.052	905.88
523.267	928.88
523.482	873.88
523.698	900.88
523.913	898.88
524.128	857.88
524.343	884.88
524.559	914.88
524.774	864.88
524.989	871.88
525.204	888.88
525.419	869.88
525.634	850.88
525.849	871.88
526.064	869.88
526.28	850.88
526.495	846.88
526.71	885.88
526.925	854.88
527.14	857.88
527.355	853.88
527.57	887.88
527.785	848.88
527.999	861.88
528.214	844.88
528.429	880.88
528.644	881.88
528.859	850.88
529.074	837.88
529.289	853.88
529.503	855.88
529.718	842.88
529.933	836.88
530.148	860.88
530.363	847.88
530.577	837.88
530.792	842.88
531.007	855.88
531.221	868.88
531.436	827.88
531.651	842.88
531.865	881.88
532.08	838.88
532.295	864.88
532.509	836.88
532.724	845.88
532.938	853.88
533.153	833.88
533.367	864.88
533.582	847.88
533.796	860.88
534.011	847.88
534.225	837.88
534.44	848.88
534.654	830.88
534.868	819.88
535.083	815.88
535.297	819.88
535.511	829.88
535.726	857.88
535.94	814.88
536.154	792.88
536.369	809.88
536.583	805.88
536.797	814.88
537.011	794.88
537.225	773.88
537.44	761.88
537.654	800.88
537.868	762.88
538.082	799.88
538.296	777.88
538.51	807.88
538.724	762.88
538.938	766.88
539.153	778.88
539.367	771.88
539.581	780.88
539.795	745.88
540.009	788.88
540.222	766.88
540.436	766.88
540.65	768.88
540.864	770.88
541.078	754.88
541.292	784.88
541.506	776.88
541.72	767.88
541.934	776.88
542.147	776.88
542.361	758.88
542.575	744.88
542.789	767.88
543.002	767.88
543.216	753.88
543.43	765.88
543.644	718.88
543.857	737.88
544.071	714.88
544.285	739.88
544.498	774.88
544.712	776.88
544.925	788.88
545.139	745.88
545.352	779.88
545.566	773.88
545.779	786.88
545.993	776.88
546.206	790.88
546.42	784.88
546.633	779.88
546.847	775.88
547.06	785.88
547.274	790.88
547.487	774.88
547.7	757.88
547.914	800.88
548.127	763.88
548.34	785.88
548.554	778.88
548.767	782.88
548.98	788.88
549.193	799.88
549.407	808.88
549.62	803.88
549.833	798.88
550.046	805.88
550.259	771.88
550.473	802.88
550.686	789.88
550.899	760.88
551.112	772.88
551.325	752.88
551.538	739.88
551.751	764.88
551.964	773.88
552.177	772.88
552.39	791.88
552.603	780.88
552.816	820.88
553.029	843.88
553.242	858.88
553.455	880.88
553.667	869.88
553.88	864.88
554.093	819.88
554.306	816.88
554.519	777.88
554.732	782.88
554.944	755.88
555.157	751.88
555.37	724.88
555.583	736.88
555.795	690.88
556.008	706.88
556.221	701.88
556.433	701.88
556.646	694.88
556.859	688.88
557.071	684.88
557.284	669.88
557.496	678.88
557.709	658.88
557.921	650.88
558.134	642.88
558.346	650.88
558.559	664.88
558.771	668.88
558.984	661.88
559.196	646.88
559.409	666.88
559.621	673.88
559.833	658.88
560.046	647.88
560.258	640.88
560.47	656.88
560.683	649.88
560.895	637.88
561.107	650.88
561.32	642.88
561.532	651.88
561.744	633.88
561.956	645.88
562.168	641.88
562.381	627.88
562.593	649.88
562.805	632.88
563.017	663.88
563.229	660.88
563.441	660.88
563.653	670.88
563.865	648.88
564.077	677.88
564.289	665.88
564.501	707.88
564.713	692.88
564.925	689.88
565.137	691.88
565.349	712.88
565.561	751.88
565.773	766.88
565.985	795.88
566.197	854.88
566.408	922.88
566.62	975.88
566.832	1068.88
567.044	1116.88
567.255	1068.88
567.467	1118.88
567.679	1168.88
567.891	1252.88
568.102	1275.88
568.314	1203.88
568.526	1095.88
568.737	1006.88
568.949	905.88
569.161	859.88
569.372	799.88
569.584	754.88
569.795	716.88
570.007	717.88
570.218	677.88
570.43	696.88
570.641	656.88
570.853	674.88
571.064	698.88
571.276	676.88
571.487	665.88
571.698	644.88
571.91	616.88
572.121	610.88
572.333	596.88
572.544	580.88
572.755	557.88
572.966	585.88
573.178	566.88
573.389	558.88
573.6	546.88
573.811	525.88
574.023	530.88
574.234	554.88
574.445	546.88
574.656	531.88
574.867	530.88
575.078	549.88
575.289	538.88
575.501	559.88
575.712	518.88
575.923	494.88
576.134	512.88
576.345	517.88
576.556	503.88
576.767	502.88
576.978	515.88
577.188	515.88
577.399	493.88
577.61	482.88
577.821	497.88
578.032	499.88
578.243	489.88
578.454	484.88
578.665	486.88
578.875	484.88
579.086	481.88
579.297	469.88
579.508	479.88
579.718	450.88
579.929	475.88
580.14	483.88
580.35	461.88
580.561	481.88
580.772	465.88
580.982	462.88
581.193	458.88
581.403	468.88
581.614	461.88
581.825	477.88
582.035	467.88
582.246	458.88
582.456	472.88
582.667	466.88
582.877	448.88
583.087	459.88
583.298	449.88
583.508	432.88
583.719	421.88
583.929	458.88
584.139	449.88
584.35	448.88
584.56	437.88
584.77	432.88
584.981	454.88
585.191	448.88
585.401	445.88
585.611	434.88
585.821	442.88
586.032	443.88
586.242	449.88
586.452	440.88
586.662	426.88
586.872	430.88
587.082	445.88
587.292	451.88
587.502	452.88
587.713	431.88
587.923	416.88
588.133	440.88
588.343	436.88
588.553	423.88
588.762	433.88
588.972	429.88
589.182	445.88
589.392	476.88
589.602	439.88
589.812	444.88
590.022	457.88
590.232	444.88
590.441	429.88
590.651	447.88
590.861	445.88
591.071	439.88
591.281	445.88
591.49	455.88
591.7	456.88
591.91	453.88
592.119	472.88
592.329	476.88
592.539	494.88
592.748	498.88
592.958	518.88
593.167	549.88
593.377	548.88
593.587	554.88
593.796	563.88
594.006	560.88
594.215	573.88
594.424	572.88
594.634	549.88
594.843	516.88
595.053	529.88
595.262	492.88
595.472	459.88
595.681	465.88
595.89	440.88
596.1	437.88
596.309	420.88
596.518	409.88
596.727	421.88
596.937	402.88
597.146	408.88
597.355	413.88
597.564	409.88
597.774	398.88
597.983	386.88
598.192	390.88
598.401	392.88
598.61	383.88
598.819	389.88
599.028	373.88
599.237	385.88
599.446	374.88
599.655	383.88
599.864	376.88
600.073	360.88
600.282	368.88
600.491	364.88
600.7	362.88
600.909	376.88
601.118	368.88
601.327	358.88
601.536	355.88
601.745	368.88
601.953	360.88
602.162	370.88
602.371	344.88
602.58	348.88
602.789	341.88
602.997	368.88
603.206	366.88
603.415	368.88
603.623	352.88
603.832	330.88
604.041	360.88
604.249	341.88
604.458	359.88
604.666	345.88
604.875	337.88
605.084	338.88
605.292	332.88
605.501	347.88
605.709	360.88
605.918	340.88
606.126	323.88
606.334	332.88
606.543	319.88
606.751	328.88
606.96	332.88
607.168	328.88
607.376	320.88
607.585	324.88
607.793	337.88
608.001	341.88
608.21	316.88
608.418	327.88
608.626	329.88
608.834	328.88
609.043	333.88
609.251	330.88
609.459	332.88
609.667	330.88
609.875	322.88
610.083	320.88
610.291	303.88
610.499	308.88
610.707	319.88
610.916	326.88
611.124	328.88
611.332	324.88
611.54	331.88
611.748	335.88
611.955	326.88
612.163	312.88
612.371	309.88
612.579	324.88
612.787	309.88
612.995	305.88
613.203	312.88
613.411	319.88
613.618	337.88
613.826	329.88
614.034	309.88
614.242	326.88
614.449	310.88
614.657	309.88
614.865	303.88
615.072	315.88
615.28	298.88
615.488	325.88
615.695	319.88
615.903	301.88
616.111	335.88
616.318	323.88
616.526	307.88
616.733	300.88
616.941	318.88
617.148	318.88
617.356	316.88
617.563	321.88
617.771	328.88
617.978	310.88
618.185	301.88
618.393	305.88
618.6	322.88
618.807	311.88
619.015	304.88
619.222	319.88
619.429	303.88
619.637	304.88
619.844	301.88
620.051	297.88
620.258	297.88
620.466	301.88
620.673	304.88
620.88	285.88
621.087	292.88
621.294	263.88
621.501	288.88
621.708	288.88
621.915	286.88
622.122	303.88
622.329	293.88
622.536	286.88
622.743	280.88
622.95	289.88
623.157	278.88
623.364	272.88
623.571	274.88
623.778	277.88
623.985	285.88
624.192	284.88
624.399	286.88
624.606	284.88
624.812	281.88
625.019	263.88
625.226	254.88
625.433	257.88
625.639	275.88
625.846	269.88
626.053	277.88
626.259	284.88
626.466	265.88
626.673	267.88
626.879	250.88
627.086	270.88
627.293	285.88
627.499	279.88
627.706	256.88
627.912	252.88
628.119	261.88
628.325	275.88
628.532	264.88
628.738	241.88
628.945	248.88
629.151	257.88
629.357	258.88
629.564	249.88
629.77	242.88
629.976	255.88
630.183	263.88
630.389	245.88
630.595	233.88
630.802	266.88
631.008	242.88
631.214	265.88
631.42	253.88
631.627	248.88
631.833	260.88
632.039	230.88
632.245	243.88
632.451	249.88
632.657	258.88
632.863	250.88
633.069	250.88
633.275	236.88
633.481	228.88
633.688	241.88
633.893	234.88
634.099	243.88
634.305	232.88
634.511	208.88
634.717	236.88
634.923	228.88
635.129	211.88
635.335	233.88
635.541	223.88
635.747	224.88
635.952	230.88
636.158	214.88
636.364	221.88
636.57	225.88
636.775	228.88
636.981	222.88
637.187	233.88
637.392	218.88
637.598	225.88
637.804	227.88
638.009	213.88
638.215	232.88
638.421	212.88
638.626	200.88
638.832	223.88
639.037	226.88
639.243	225.88
639.448	231.88
639.654	216.88
639.859	198.88
640.065	210.88
640.27	216.88
640.475	214.88
640.681	206.88
640.886	205.88
641.091	235.88
641.297	226.88
641.502	206.88
641.707	220.88
641.913	210.88
642.118	213.88
642.323	202.88
642.528	217.88
642.733	222.88
642.939	206.88
643.144	203.88
643.349	200.88
643.554	228.88
643.759	205.88
643.964	188.88
644.169	212.88
644.374	215.88
644.579	199.88
644.784	208.88
644.989	206.88
645.194	207.88
645.399	203.88
645.604	200.88
645.809	188.88
646.014	205.88
646.219	206.88
646.423	213.88
646.628	215.88
646.833	240.88
647.038	202.88
647.243	232.88
647.447	221.88
647.652	213.88
647.857	214.88
648.062	216.88
648.266	220.88
648.471	217.88
648.676	228.88
648.88	231.88
649.085	205.88
649.289	193.88
649.494	190.88
649.698	197.88
649.903	176.88
650.107	213.88
650.312	195.88
650.516	205.88
650.721	187.88
650.925	184.88
651.13	196.88
651.334	190.88
651.539	167.88
651.743	172.88
651.947	166.88
652.152	178.88
652.356	190.88
652.56	174.88
652.764	159.88
652.969	186.88
653.173	174.88
653.377	137.88
653.581	172.88
653.785	174.88
653.99	152.88
654.194	176.88
654.398	155.88
654.602	159.88
654.806	152.88
655.01	147.88
655.214	149.88
655.418	154.88
655.622	135.88
655.826	150.88
656.03	152.88
656.234	156.88
656.438	135.88
656.642	142.88
656.846	145.88
657.049	142.88
657.253	138.88
657.457	144.88
657.661	134.88
657.865	120.88
658.068	132.88
658.272	114.88
658.476	122.88
658.68	114.88
658.883	106.88
659.087	119.88
659.291	111.88
659.494	107.88
659.698	110.88
659.901	113.88
660.105	104.88
660.309	94.88
660.512	81.88
660.716	98.88
660.919	94.88
661.123	97.88
661.326	99.88
661.53	105.88
661.733	100.88
661.936	93.88
662.14	87.88
662.343	105.88
662.546	100.88
662.75	95.88
662.953	95.88
663.156	101.88
663.36	82.88
663.563	61.88
663.766	83.88
663.969	77.88
664.173	72.88
664.376	90.88
664.579	82.88
664.782	85.88
664.985	77.88
665.188	76.88
665.391	73.88
665.594	85.88
665.797	71.88
666	74.88
666.203	73.88
666.406	82.88
666.609	81.88
666.812	82.88
667.015	84.88
667.218	71.88
667.421	62.88
667.624	77.88
667.827	80.88
668.03	79.88
668.232	87.88
668.435	75.88
668.638	69.88
668.841	101.88
669.043	90.88
669.246	71.88
669.449	74.88
669.651	92.88
669.854	86.88
670.057	81.88
670.259	77.88
670.462	80.88
670.665	79.88
670.867	98.88
671.07	80.88
671.272	82.88
671.475	80.88
671.677	73.88
671.88	72.88
672.082	88.88
672.284	87.88
672.487	74.88
672.689	83.88
672.892	77.88
