Data from NiCl2@0.0625M.TitratingCurve.Agarose3%dH2O.NegLispCup.LampEnergy10.LIBS07252019_HRD10591_18-34-46-577.txt Node
Date: Thu Jul 25 18:34:46 EDT 2019
User: cochatt
Spectrometer: HR+D1059
Trigger mode: 1
Integration Time (sec): 1.000000E-1
Scans to average: 1
Electric dark correction enabled: true
Nonlinearity correction enabled: false
Boxcar width: 0
XAxis mode: Wavelengths
Number of Pixels in Spectrum: 2048
>>>>>Begin Spectral Data<<<<<
223.165	-3.12
223.4	-3.12
223.635	-3.12
223.869	0.88
224.104	-14.12
224.338	-10.12
224.573	-21.12
224.808	-12.12
225.042	-19.12
225.277	-11.12
225.511	-15.12
225.746	-6.12
225.98	8.88
226.215	13.88
226.449	1.88
226.683	20.88
226.918	28.88
227.152	36.88
227.387	29.88
227.621	33.88
227.856	42.88
228.09	36.88
228.324	40.88
228.559	56.88
228.793	81.88
229.027	132.88
229.262	141.88
229.496	147.88
229.73	151.88
229.964	159.88
230.199	156.88
230.433	178.88
230.667	174.88
230.901	176.88
231.136	172.88
231.37	158.88
231.604	189.88
231.838	174.88
232.072	183.88
232.306	187.88
232.541	183.88
232.775	186.88
233.009	184.88
233.243	169.88
233.477	194.88
233.711	178.88
233.945	188.88
234.179	199.88
234.413	203.88
234.647	211.88
234.881	194.88
235.115	191.88
235.349	206.88
235.583	206.88
235.817	202.88
236.051	193.88
236.285	199.88
236.519	203.88
236.753	221.88
236.987	208.88
237.221	209.88
237.455	197.88
237.689	211.88
237.922	216.88
238.156	226.88
238.39	215.88
238.624	229.88
238.858	213.88
239.091	236.88
239.325	235.88
239.559	231.88
239.793	233.88
240.027	258.88
240.26	250.88
240.494	239.88
240.728	251.88
240.961	248.88
241.195	255.88
241.429	278.88
241.662	257.88
241.896	251.88
242.13	271.88
242.363	275.88
242.597	281.88
242.83	262.88
243.064	278.88
243.298	293.88
243.531	287.88
243.765	287.88
243.998	295.88
244.232	286.88
244.465	296.88
244.699	298.88
244.932	309.88
245.166	294.88
245.399	316.88
245.633	293.88
245.866	314.88
246.099	310.88
246.333	316.88
246.566	313.88
246.8	332.88
247.033	320.88
247.266	326.88
247.5	326.88
247.733	322.88
247.966	335.88
248.2	332.88
248.433	333.88
248.666	339.88
248.899	345.88
249.133	350.88
249.366	356.88
249.599	351.88
249.832	338.88
250.066	362.88
250.299	371.88
250.532	358.88
250.765	355.88
250.998	346.88
251.231	388.88
251.465	366.88
251.698	393.88
251.931	386.88
252.164	374.88
252.397	376.88
252.63	397.88
252.863	391.88
253.096	390.88
253.329	399.88
253.562	394.88
253.795	408.88
254.028	409.88
254.261	416.88
254.494	400.88
254.727	417.88
254.96	407.88
255.193	420.88
255.426	412.88
255.659	405.88
255.892	430.88
256.124	416.88
256.357	419.88
256.59	439.88
256.823	444.88
257.056	430.88
257.289	457.88
257.521	445.88
257.754	441.88
257.987	435.88
258.22	443.88
258.452	451.88
258.685	458.88
258.918	458.88
259.151	441.88
259.383	452.88
259.616	459.88
259.849	464.88
260.081	462.88
260.314	467.88
260.547	464.88
260.779	464.88
261.012	452.88
261.244	486.88
261.477	468.88
261.71	496.88
261.942	463.88
262.175	482.88
262.407	481.88
262.64	479.88
262.872	486.88
263.105	494.88
263.337	488.88
263.57	466.88
263.802	508.88
264.035	507.88
264.267	515.88
264.499	495.88
264.732	534.88
264.964	533.88
265.197	504.88
265.429	518.88
265.661	502.88
265.894	512.88
266.126	536.88
266.358	527.88
266.591	535.88
266.823	543.88
267.055	517.88
267.287	529.88
267.52	518.88
267.752	533.88
267.984	530.88
268.216	537.88
268.448	553.88
268.681	546.88
268.913	555.88
269.145	565.88
269.377	572.88
269.609	561.88
269.841	562.88
270.073	558.88
270.306	540.88
270.538	571.88
270.77	580.88
271.002	578.88
271.234	588.88
271.466	587.88
271.698	579.88
271.93	567.88
272.162	586.88
272.394	574.88
272.626	607.88
272.858	600.88
273.09	595.88
273.322	595.88
273.553	591.88
273.785	592.88
274.017	610.88
274.249	615.88
274.481	630.88
274.713	619.88
274.945	599.88
275.176	621.88
275.408	625.88
275.64	629.88
275.872	625.88
276.104	644.88
276.335	651.88
276.567	647.88
276.799	635.88
277.031	646.88
277.262	647.88
277.494	663.88
277.726	652.88
277.957	655.88
278.189	644.88
278.421	644.88
278.652	670.88
278.884	681.88
279.115	657.88
279.347	664.88
279.579	674.88
279.81	661.88
280.042	708.88
280.273	650.88
280.505	704.88
280.736	682.88
280.968	713.88
281.199	691.88
281.431	711.88
281.662	698.88
281.894	683.88
282.125	686.88
282.356	712.88
282.588	717.88
282.819	704.88
283.051	708.88
283.282	711.88
283.513	714.88
283.745	716.88
283.976	711.88
284.207	734.88
284.439	727.88
284.67	726.88
284.901	724.88
285.132	728.88
285.364	739.88
285.595	736.88
285.826	741.88
286.057	756.88
286.288	736.88
286.52	730.88
286.751	742.88
286.982	752.88
287.213	759.88
287.444	737.88
287.675	763.88
287.906	756.88
288.138	771.88
288.369	770.88
288.6	774.88
288.831	767.88
289.062	781.88
289.293	784.88
289.524	779.88
289.755	785.88
289.986	798.88
290.217	804.88
290.448	747.88
290.679	778.88
290.91	803.88
291.141	797.88
291.371	773.88
291.602	799.88
291.833	788.88
292.064	809.88
292.295	794.88
292.526	794.88
292.757	795.88
292.987	796.88
293.218	824.88
293.449	816.88
293.68	770.88
293.91	821.88
294.141	801.88
294.372	766.88
294.603	788.88
294.833	806.88
295.064	796.88
295.295	817.88
295.525	809.88
295.756	830.88
295.987	823.88
296.217	810.88
296.448	845.88
296.679	814.88
296.909	814.88
297.14	821.88
297.37	857.88
297.601	859.88
297.831	840.88
298.062	853.88
298.292	854.88
298.523	844.88
298.753	857.88
298.984	847.88
299.214	884.88
299.445	870.88
299.675	860.88
299.905	851.88
300.136	860.88
300.366	859.88
300.597	867.88
300.827	880.88
301.057	906.88
301.288	888.88
301.518	880.88
301.748	909.88
301.979	904.88
302.209	894.88
302.439	904.88
302.669	891.88
302.9	895.88
303.13	902.88
303.36	923.88
303.59	895.88
303.82	900.88
304.051	916.88
304.281	942.88
304.511	869.88
304.741	910.88
304.971	914.88
305.201	923.88
305.431	928.88
305.661	929.88
305.891	919.88
306.121	903.88
306.352	880.88
306.582	934.88
306.812	897.88
307.042	894.88
307.272	887.88
307.502	866.88
307.731	890.88
307.961	875.88
308.191	882.88
308.421	879.88
308.651	888.88
308.881	895.88
309.111	894.88
309.341	859.88
309.571	883.88
309.8	894.88
310.03	904.88
310.26	888.88
310.49	918.88
310.72	909.88
310.949	915.88
311.179	918.88
311.409	923.88
311.639	929.88
311.868	952.88
312.098	935.88
312.328	942.88
312.557	968.88
312.787	909.88
313.017	934.88
313.246	936.88
313.476	919.88
313.706	977.88
313.935	958.88
314.165	989.88
314.394	966.88
314.624	998.88
314.853	968.88
315.083	933.88
315.312	979.88
315.542	987.88
315.771	947.88
316.001	972.88
316.23	950.88
316.46	940.88
316.689	975.88
316.919	924.88
317.148	975.88
317.377	936.88
317.607	958.88
317.836	924.88
318.065	943.88
318.295	966.88
318.524	970.88
318.753	967.88
318.983	961.88
319.212	929.88
319.441	952.88
319.67	956.88
319.9	972.88
320.129	968.88
320.358	961.88
320.587	970.88
320.816	963.88
321.046	948.88
321.275	947.88
321.504	956.88
321.733	958.88
321.962	952.88
322.191	989.88
322.42	961.88
322.649	954.88
322.878	958.88
323.108	969.88
323.337	950.88
323.566	981.88
323.795	1013.88
324.024	1008.88
324.253	982.88
324.482	995.88
324.71	984.88
324.939	996.88
325.168	1008.88
325.397	1007.88
325.626	1021.88
325.855	1013.88
326.084	1072.88
326.313	1059.88
326.542	1049.88
326.77	1090.88
326.999	1044.88
327.228	1044.88
327.457	1027.88
327.686	1032.88
327.914	1030.88
328.143	1018.88
328.372	1054.88
328.6	1045.88
328.829	1023.88
329.058	1051.88
329.287	1040.88
329.515	1065.88
329.744	1062.88
329.972	1058.88
330.201	1079.88
330.43	1030.88
330.658	1072.88
330.887	1087.88
331.115	1101.88
331.344	1107.88
331.572	1103.88
331.801	1128.88
332.03	1115.88
332.258	1158.88
332.486	1198.88
332.715	1195.88
332.943	1219.88
333.172	1231.88
333.4	1273.88
333.629	1285.88
333.857	1332.88
334.085	1305.88
334.314	1331.88
334.542	1321.88
334.771	1307.88
334.999	1273.88
335.227	1314.88
335.455	1287.88
335.684	1304.88
335.912	1279.88
336.14	1247.88
336.369	1239.88
336.597	1254.88
336.825	1243.88
337.053	1216.88
337.281	1191.88
337.51	1188.88
337.738	1193.88
337.966	1196.88
338.194	1183.88
338.422	1142.88
338.65	1135.88
338.878	1141.88
339.106	1132.88
339.334	1156.88
339.562	1145.88
339.79	1087.88
340.018	1114.88
340.246	1117.88
340.474	1089.88
340.702	1091.88
340.93	1106.88
341.158	1112.88
341.386	1078.88
341.614	1101.88
341.842	1107.88
342.07	1079.88
342.298	1090.88
342.526	1089.88
342.754	1080.88
342.981	1109.88
343.209	1074.88
343.437	1143.88
343.665	1193.88
343.893	1251.88
344.12	1313.88
344.348	1241.88
344.576	1224.88
344.804	1178.88
345.031	1156.88
345.259	1134.88
345.487	1111.88
345.714	1095.88
345.942	1104.88
346.17	1111.88
346.397	1063.88
346.625	1058.88
346.853	1070.88
347.08	1041.88
347.308	1042.88
347.535	1057.88
347.763	1086.88
347.99	1056.88
348.218	1042.88
348.445	1028.88
348.673	1042.88
348.9	1048.88
349.128	1048.88
349.355	1008.88
349.583	1064.88
349.81	1029.88
350.037	991.88
350.265	1000.88
350.492	1032.88
350.72	1028.88
350.947	1046.88
351.174	1017.88
351.402	1003.88
351.629	1018.88
351.856	981.88
352.083	1014.88
352.311	990.88
352.538	1000.88
352.765	1037.88
352.992	994.88
353.22	996.88
353.447	1018.88
353.674	1009.88
353.901	1026.88
354.128	1015.88
354.355	1011.88
354.583	983.88
354.81	1007.88
355.037	1017.88
355.264	1008.88
355.491	1028.88
355.718	1007.88
355.945	1030.88
356.172	1010.88
356.399	1001.88
356.626	1012.88
356.853	1000.88
357.08	1020.88
357.307	1019.88
357.534	1025.88
357.761	1009.88
357.988	1022.88
358.215	1023.88
358.441	1037.88
358.668	1006.88
358.895	1011.88
359.122	1018.88
359.349	988.88
359.576	987.88
359.802	977.88
360.029	1016.88
360.256	1030.88
360.483	1019.88
360.709	1012.88
360.936	998.88
361.163	1017.88
361.39	1020.88
361.616	1034.88
361.843	985.88
362.07	1018.88
362.296	992.88
362.523	1015.88
362.749	1041.88
362.976	985.88
363.203	1043.88
363.429	1027.88
363.656	994.88
363.882	994.88
364.109	1020.88
364.335	1022.88
364.562	1049.88
364.788	1016.88
365.015	1041.88
365.241	1026.88
365.468	1020.88
365.694	982.88
365.92	984.88
366.147	1026.88
366.373	1022.88
366.599	1029.88
366.826	1025.88
367.052	1030.88
367.278	1016.88
367.505	1016.88
367.731	1034.88
367.957	1022.88
368.184	1038.88
368.41	1028.88
368.636	1079.88
368.862	1042.88
369.089	1039.88
369.315	1029.88
369.541	1044.88
369.767	1090.88
369.993	1035.88
370.219	1074.88
370.445	1095.88
370.672	1067.88
370.898	1091.88
371.124	1096.88
371.35	1113.88
371.576	1114.88
371.802	1118.88
372.028	1094.88
372.254	1092.88
372.48	1123.88
372.706	1122.88
372.932	1138.88
373.158	1152.88
373.384	1122.88
373.61	1111.88
373.835	1120.88
374.061	1097.88
374.287	1120.88
374.513	1152.88
374.739	1134.88
374.965	1188.88
375.191	1224.88
375.416	1178.88
375.642	1152.88
375.868	1134.88
376.094	1112.88
376.319	1114.88
376.545	1135.88
376.771	1115.88
376.997	1101.88
377.222	1106.88
377.448	1113.88
377.674	1092.88
377.899	1109.88
378.125	1075.88
378.35	1078.88
378.576	1071.88
378.802	1067.88
379.027	1094.88
379.253	1092.88
379.478	1116.88
379.704	1096.88
379.929	1104.88
380.155	1112.88
380.38	1065.88
380.606	1076.88
380.831	1064.88
381.057	1104.88
381.282	1102.88
381.507	1093.88
381.733	1089.88
381.958	1097.88
382.184	1121.88
382.409	1108.88
382.634	1155.88
382.86	1143.88
383.085	1191.88
383.31	1157.88
383.535	1207.88
383.761	1184.88
383.986	1196.88
384.211	1228.88
384.436	1244.88
384.662	1218.88
384.887	1278.88
385.112	1258.88
385.337	1286.88
385.562	1266.88
385.787	1291.88
386.013	1302.88
386.238	1302.88
386.463	1351.88
386.688	1281.88
386.913	1270.88
387.138	1299.88
387.363	1275.88
387.588	1306.88
387.813	1302.88
388.038	1301.88
388.263	1266.88
388.488	1294.88
388.713	1318.88
388.938	1251.88
389.163	1274.88
389.387	1289.88
389.612	1251.88
389.837	1268.88
390.062	1282.88
390.287	1299.88
390.512	1278.88
390.736	1324.88
390.961	1314.88
391.186	1318.88
391.411	1348.88
391.636	1399.88
391.86	1414.88
392.085	1446.88
392.31	1447.88
392.534	1445.88
392.759	1417.88
392.984	1389.88
393.208	1370.88
393.433	1389.88
393.658	1352.88
393.882	1372.88
394.107	1357.88
394.331	1345.88
394.556	1370.88
394.78	1382.88
395.005	1360.88
395.229	1390.88
395.454	1426.88
395.678	1451.88
395.903	1438.88
396.127	1456.88
396.352	1400.88
396.576	1376.88
396.801	1390.88
397.025	1408.88
397.249	1424.88
397.474	1456.88
397.698	1440.88
397.922	1506.88
398.147	1536.88
398.371	1476.88
398.595	1531.88
398.82	1575.88
399.044	1720.88
399.268	1817.88
399.492	2003.88
399.717	2138.88
399.941	2189.88
400.165	2080.88
400.389	1936.88
400.613	1799.88
400.837	1718.88
401.062	1657.88
401.286	1668.88
401.51	1608.88
401.734	1613.88
401.958	1635.88
402.182	1647.88
402.406	1640.88
402.63	1672.88
402.854	1701.88
403.078	1651.88
403.302	1728.88
403.526	1705.88
403.75	1714.88
403.974	1760.88
404.198	1738.88
404.422	1790.88
404.645	1752.88
404.869	1738.88
405.093	1760.88
405.317	1739.88
405.541	1711.88
405.765	1756.88
405.988	1792.88
406.212	1764.88
406.436	1737.88
406.66	1824.88
406.883	1834.88
407.107	1893.88
407.331	1961.88
407.555	1997.88
407.778	2015.88
408.002	1983.88
408.226	1929.88
408.449	1937.88
408.673	1870.88
408.896	1810.88
409.12	1796.88
409.344	1857.88
409.567	1769.88
409.791	1817.88
410.014	1755.88
410.238	1751.88
410.461	1755.88
410.685	1749.88
410.908	1749.88
411.132	1702.88
411.355	1680.88
411.578	1668.88
411.802	1668.88
412.025	1718.88
412.249	1722.88
412.472	1712.88
412.695	1664.88
412.919	1591.88
413.142	1631.88
413.365	1606.88
413.589	1699.88
413.812	1590.88
414.035	1619.88
414.258	1643.88
414.482	1599.88
414.705	1618.88
414.928	1626.88
415.151	1588.88
415.374	1626.88
415.597	1602.88
415.821	1588.88
416.044	1529.88
416.267	1548.88
416.49	1540.88
416.713	1502.88
416.936	1556.88
417.159	1516.88
417.382	1554.88
417.605	1540.88
417.828	1561.88
418.051	1571.88
418.274	1582.88
418.497	1566.88
418.72	1577.88
418.943	1587.88
419.166	1693.88
419.389	1790.88
419.611	1751.88
419.834	1710.88
420.057	1624.88
420.28	1593.88
420.503	1554.88
420.726	1565.88
420.948	1570.88
421.171	1537.88
421.394	1565.88
421.617	1559.88
421.839	1560.88
422.062	1543.88
422.285	1499.88
422.507	1592.88
422.73	1573.88
422.953	1554.88
423.175	1563.88
423.398	1576.88
423.621	1609.88
423.843	1611.88
424.066	1615.88
424.288	1603.88
424.511	1589.88
424.733	1543.88
424.956	1550.88
425.178	1556.88
425.401	1529.88
425.623	1550.88
425.846	1519.88
426.068	1513.88
426.291	1530.88
426.513	1479.88
426.735	1497.88
426.958	1448.88
427.18	1411.88
427.402	1406.88
427.625	1459.88
427.847	1428.88
428.069	1418.88
428.292	1419.88
428.514	1427.88
428.736	1437.88
428.958	1441.88
429.181	1386.88
429.403	1408.88
429.625	1404.88
429.847	1397.88
430.069	1383.88
430.292	1398.88
430.514	1384.88
430.736	1400.88
430.958	1396.88
431.18	1402.88
431.402	1430.88
431.624	1407.88
431.846	1434.88
432.068	1411.88
432.29	1474.88
432.512	1424.88
432.734	1426.88
432.956	1418.88
433.178	1442.88
433.4	1415.88
433.622	1458.88
433.844	1478.88
434.066	1456.88
434.287	1434.88
434.509	1529.88
434.731	1562.88
434.953	1591.88
435.175	1587.88
435.397	1568.88
435.618	1513.88
435.84	1458.88
436.062	1454.88
436.284	1440.88
436.505	1426.88
436.727	1450.88
436.949	1421.88
437.17	1440.88
437.392	1406.88
437.614	1351.88
437.835	1350.88
438.057	1387.88
438.278	1331.88
438.5	1344.88
438.721	1373.88
438.943	1399.88
439.165	1345.88
439.386	1381.88
439.608	1371.88
439.829	1405.88
440.05	1389.88
440.272	1378.88
440.493	1402.88
440.715	1416.88
440.936	1454.88
441.158	1457.88
441.379	1499.88
441.6	1529.88
441.822	1536.88
442.043	1542.88
442.264	1510.88
442.486	1490.88
442.707	1488.88
442.928	1510.88
443.149	1503.88
443.371	1504.88
443.592	1531.88
443.813	1566.88
444.034	1549.88
444.255	1584.88
444.476	1646.88
444.698	1676.88
444.919	1720.88
445.14	1804.88
445.361	1717.88
445.582	1584.88
445.803	1528.88
446.024	1496.88
446.245	1436.88
446.466	1420.88
446.687	1415.88
446.908	1410.88
447.129	1345.88
447.35	1362.88
447.571	1356.88
447.792	1315.88
448.013	1304.88
448.234	1321.88
448.455	1296.88
448.675	1289.88
448.896	1266.88
449.117	1255.88
449.338	1296.88
449.559	1246.88
449.779	1227.88
450	1266.88
450.221	1246.88
450.442	1241.88
450.662	1291.88
450.883	1272.88
451.104	1282.88
451.324	1253.88
451.545	1262.88
451.766	1250.88
451.986	1251.88
452.207	1251.88
452.428	1264.88
452.648	1258.88
452.869	1224.88
453.089	1197.88
453.31	1235.88
453.53	1216.88
453.751	1222.88
453.971	1201.88
454.192	1224.88
454.412	1165.88
454.633	1174.88
454.853	1226.88
455.073	1188.88
455.294	1208.88
455.514	1181.88
455.734	1176.88
455.955	1156.88
456.175	1186.88
456.395	1177.88
456.616	1180.88
456.836	1192.88
457.056	1172.88
457.276	1194.88
457.497	1234.88
457.717	1200.88
457.937	1240.88
458.157	1234.88
458.377	1231.88
458.598	1278.88
458.818	1281.88
459.038	1301.88
459.258	1330.88
459.478	1416.88
459.698	1414.88
459.918	1427.88
460.138	1470.88
460.358	1521.88
460.578	1590.88
460.798	1579.88
461.018	1606.88
461.238	1582.88
461.458	1559.88
461.678	1552.88
461.898	1604.88
462.118	1633.88
462.338	1696.88
462.558	1758.88
462.777	1759.88
462.997	1891.88
463.217	1953.88
463.437	1939.88
463.657	1894.88
463.876	1858.88
464.096	1827.88
464.316	1838.88
464.536	1794.88
464.755	1760.88
464.975	1730.88
465.195	1642.88
465.414	1582.88
465.634	1434.88
465.854	1439.88
466.073	1420.88
466.293	1400.88
466.512	1364.88
466.732	1338.88
466.951	1342.88
467.171	1344.88
467.391	1317.88
467.61	1272.88
467.829	1341.88
468.049	1317.88
468.268	1283.88
468.488	1280.88
468.707	1274.88
468.927	1282.88
469.146	1278.88
469.365	1294.88
469.585	1291.88
469.804	1350.88
470.023	1319.88
470.243	1344.88
470.462	1369.88
470.681	1376.88
470.901	1369.88
471.12	1318.88
471.339	1318.88
471.558	1335.88
471.777	1314.88
471.997	1334.88
472.216	1264.88
472.435	1284.88
472.654	1290.88
472.873	1282.88
473.092	1266.88
473.311	1251.88
473.53	1274.88
473.749	1230.88
473.968	1249.88
474.187	1263.88
474.406	1273.88
474.625	1232.88
474.844	1273.88
475.063	1314.88
475.282	1306.88
475.501	1271.88
475.72	1301.88
475.939	1346.88
476.158	1330.88
476.377	1338.88
476.596	1319.88
476.814	1363.88
477.033	1386.88
477.252	1392.88
477.471	1385.88
477.69	1416.88
477.908	1476.88
478.127	1508.88
478.346	1516.88
478.564	1542.88
478.783	1547.88
479.002	1561.88
479.22	1575.88
479.439	1573.88
479.658	1580.88
479.876	1592.88
480.095	1566.88
480.313	1630.88
480.532	1699.88
480.751	1660.88
480.969	1659.88
481.188	1600.88
481.406	1600.88
481.624	1571.88
481.843	1568.88
482.061	1560.88
482.28	1578.88
482.498	1539.88
482.717	1521.88
482.935	1545.88
483.153	1568.88
483.372	1582.88
483.59	1523.88
483.808	1615.88
484.027	1637.88
484.245	1638.88
484.463	1612.88
484.681	1628.88
484.9	1630.88
485.118	1660.88
485.336	1630.88
485.554	1678.88
485.772	1708.88
485.99	1708.88
486.209	1716.88
486.427	1700.88
486.645	1685.88
486.863	1676.88
487.081	1675.88
487.299	1667.88
487.517	1649.88
487.735	1689.88
487.953	1669.88
488.171	1632.88
488.389	1624.88
488.607	1611.88
488.825	1594.88
489.043	1612.88
489.261	1649.88
489.479	1622.88
489.696	1639.88
489.914	1625.88
490.132	1627.88
490.35	1593.88
490.568	1612.88
490.786	1579.88
491.003	1615.88
491.221	1611.88
491.439	1590.88
491.657	1591.88
491.874	1586.88
492.092	1587.88
492.31	1625.88
492.527	1589.88
492.745	1604.88
492.963	1612.88
493.18	1607.88
493.398	1602.88
493.615	1646.88
493.833	1645.88
494.05	1625.88
494.268	1637.88
494.485	1631.88
494.703	1660.88
494.92	1627.88
495.138	1636.88
495.355	1654.88
495.573	1656.88
495.79	1650.88
496.008	1604.88
496.225	1657.88
496.442	1686.88
496.66	1669.88
496.877	1695.88
497.094	1734.88
497.312	1758.88
497.529	1781.88
497.746	1830.88
497.963	1907.88
498.181	1968.88
498.398	1987.88
498.615	2110.88
498.832	2198.88
499.049	2386.88
499.267	2596.88
499.484	2787.88
499.701	2967.88
499.918	3218.88
500.135	3566.88
500.352	3904.88
500.569	4014.88
500.786	3968.88
501.003	3825.88
501.22	3515.88
501.437	3217.88
501.654	2874.88
501.871	2682.88
502.088	2490.88
502.305	2348.88
502.522	2250.88
502.739	2172.88
502.956	2105.88
503.172	2023.88
503.389	1928.88
503.606	1892.88
503.823	1867.88
504.04	1847.88
504.256	1819.88
504.473	1818.88
504.69	1819.88
504.907	1803.88
505.123	1675.88
505.34	1638.88
505.557	1602.88
505.773	1576.88
505.99	1526.88
506.207	1509.88
506.423	1462.88
506.64	1449.88
506.856	1473.88
507.073	1419.88
507.289	1414.88
507.506	1378.88
507.722	1412.88
507.939	1350.88
508.155	1400.88
508.372	1344.88
508.588	1358.88
508.805	1311.88
509.021	1312.88
509.238	1344.88
509.454	1326.88
509.67	1283.88
509.887	1320.88
510.103	1283.88
510.319	1266.88
510.536	1266.88
510.752	1267.88
510.968	1298.88
511.184	1295.88
511.401	1271.88
511.617	1276.88
511.833	1280.88
512.049	1214.88
512.265	1274.88
512.481	1294.88
512.698	1225.88
512.914	1242.88
513.13	1263.88
513.346	1238.88
513.562	1262.88
513.778	1274.88
513.994	1267.88
514.21	1310.88
514.426	1284.88
514.642	1247.88
514.858	1274.88
515.074	1307.88
515.29	1314.88
515.506	1298.88
515.721	1319.88
515.937	1338.88
516.153	1390.88
516.369	1387.88
516.585	1440.88
516.801	1465.88
517.016	1506.88
517.232	1569.88
517.448	1628.88
517.664	1618.88
517.879	1624.88
518.095	1651.88
518.311	1604.88
518.527	1562.88
518.742	1554.88
518.958	1473.88
519.173	1437.88
519.389	1409.88
519.605	1376.88
519.82	1352.88
520.036	1352.88
520.251	1297.88
520.467	1271.88
520.682	1275.88
520.898	1263.88
521.113	1246.88
521.329	1253.88
521.544	1210.88
521.76	1206.88
521.975	1197.88
522.19	1195.88
522.406	1206.88
522.621	1234.88
522.836	1172.88
523.052	1167.88
523.267	1172.88
523.482	1150.88
523.698	1170.88
523.913	1202.88
524.128	1159.88
524.343	1138.88
524.559	1143.88
524.774	1138.88
524.989	1129.88
525.204	1136.88
525.419	1132.88
525.634	1119.88
525.849	1138.88
526.064	1148.88
526.28	1129.88
526.495	1115.88
526.71	1130.88
526.925	1101.88
527.14	1107.88
527.355	1120.88
527.57	1114.88
527.785	1120.88
527.999	1087.88
528.214	1127.88
528.429	1123.88
528.644	1144.88
528.859	1108.88
529.074	1102.88
529.289	1107.88
529.503	1089.88
529.718	1131.88
529.933	1105.88
530.148	1119.88
530.363	1109.88
530.577	1072.88
530.792	1083.88
531.007	1091.88
531.221	1129.88
531.436	1114.88
531.651	1123.88
531.865	1111.88
532.08	1124.88
532.295	1116.88
532.509	1078.88
532.724	1118.88
532.938	1119.88
533.153	1124.88
533.367	1117.88
533.582	1105.88
533.796	1059.88
534.011	1092.88
534.225	1086.88
534.44	1091.88
534.654	1068.88
534.868	1082.88
535.083	1057.88
535.297	1083.88
535.511	1072.88
535.726	1064.88
535.94	1036.88
536.154	1026.88
536.369	1035.88
536.583	1026.88
536.797	1024.88
537.011	1031.88
537.225	1028.88
537.44	1054.88
537.654	1030.88
537.868	998.88
538.082	1012.88
538.296	996.88
538.51	1044.88
538.724	1010.88
538.938	993.88
539.153	1009.88
539.367	1015.88
539.581	977.88
539.795	974.88
540.009	991.88
540.222	988.88
540.436	976.88
540.65	975.88
540.864	957.88
541.078	990.88
541.292	963.88
541.506	976.88
541.72	968.88
541.934	1002.88
542.147	986.88
542.361	965.88
542.575	961.88
542.789	969.88
543.002	946.88
543.216	978.88
543.43	976.88
543.644	935.88
543.857	948.88
544.071	966.88
544.285	976.88
544.498	969.88
544.712	942.88
544.925	966.88
545.139	998.88
545.352	980.88
545.566	985.88
545.779	964.88
545.993	986.88
546.206	983.88
546.42	992.88
546.633	1001.88
546.847	966.88
547.06	977.88
547.274	992.88
547.487	976.88
547.7	951.88
547.914	995.88
548.127	967.88
548.34	1008.88
548.554	979.88
548.767	978.88
548.98	978.88
549.193	1012.88
549.407	979.88
549.62	1004.88
549.833	1001.88
550.046	1012.88
550.259	1002.88
550.473	979.88
550.686	992.88
550.899	968.88
551.112	964.88
551.325	978.88
551.538	986.88
551.751	981.88
551.964	963.88
552.177	1006.88
552.39	1004.88
552.603	1030.88
552.816	1048.88
553.029	1036.88
553.242	1049.88
553.455	1066.88
553.667	1035.88
553.88	1037.88
554.093	1043.88
554.306	1000.88
554.519	982.88
554.732	960.88
554.944	945.88
555.157	926.88
555.37	951.88
555.583	925.88
555.795	903.88
556.008	910.88
556.221	890.88
556.433	883.88
556.646	871.88
556.859	870.88
557.071	875.88
557.284	871.88
557.496	842.88
557.709	833.88
557.921	872.88
558.134	867.88
558.346	860.88
558.559	832.88
558.771	839.88
558.984	859.88
559.196	822.88
559.409	834.88
559.621	817.88
559.833	809.88
560.046	811.88
560.258	827.88
560.47	804.88
560.683	825.88
560.895	842.88
561.107	820.88
561.32	826.88
561.532	823.88
561.744	820.88
561.956	799.88
562.168	822.88
562.381	808.88
562.593	822.88
562.805	778.88
563.017	833.88
563.229	810.88
563.441	795.88
563.653	857.88
563.865	840.88
564.077	847.88
564.289	841.88
564.501	847.88
564.713	871.88
564.925	904.88
565.137	920.88
565.349	922.88
565.561	951.88
565.773	982.88
565.985	1004.88
566.197	1065.88
566.408	1116.88
566.62	1163.88
566.832	1266.88
567.044	1269.88
567.255	1288.88
567.467	1313.88
567.679	1335.88
567.891	1360.88
568.102	1359.88
568.314	1339.88
568.526	1236.88
568.737	1150.88
568.949	1098.88
569.161	1054.88
569.372	976.88
569.584	918.88
569.795	894.88
570.007	854.88
570.218	853.88
570.43	856.88
570.641	842.88
570.853	840.88
571.064	815.88
571.276	853.88
571.487	816.88
571.698	787.88
571.91	779.88
572.121	750.88
572.333	746.88
572.544	708.88
572.755	706.88
572.966	698.88
573.178	702.88
573.389	671.88
573.6	688.88
573.811	660.88
574.023	656.88
574.234	679.88
574.445	675.88
574.656	672.88
574.867	676.88
575.078	683.88
575.289	673.88
575.501	632.88
575.712	638.88
575.923	656.88
576.134	656.88
576.345	665.88
576.556	665.88
576.767	617.88
576.978	630.88
577.188	632.88
577.399	625.88
577.61	616.88
577.821	590.88
578.032	598.88
578.243	586.88
578.454	613.88
578.665	594.88
578.875	582.88
579.086	578.88
579.297	585.88
579.508	580.88
579.718	580.88
579.929	576.88
580.14	584.88
580.35	581.88
580.561	597.88
580.772	583.88
580.982	568.88
581.193	565.88
581.403	565.88
581.614	586.88
581.825	571.88
582.035	576.88
582.246	556.88
582.456	568.88
582.667	551.88
582.877	553.88
583.087	569.88
583.298	578.88
583.508	555.88
583.719	547.88
583.929	551.88
584.139	550.88
584.35	537.88
584.56	548.88
584.77	535.88
584.981	548.88
585.191	555.88
585.401	557.88
585.611	546.88
585.821	535.88
586.032	534.88
586.242	541.88
586.452	522.88
586.662	530.88
586.872	516.88
587.082	509.88
587.292	530.88
587.502	540.88
587.713	528.88
587.923	525.88
588.133	531.88
588.343	537.88
588.553	551.88
588.762	539.88
588.972	527.88
589.182	538.88
589.392	524.88
589.602	547.88
589.812	542.88
590.022	537.88
590.232	516.88
590.441	541.88
590.651	545.88
590.861	537.88
591.071	520.88
591.281	566.88
591.49	546.88
591.7	553.88
591.91	563.88
592.119	560.88
592.329	568.88
592.539	574.88
592.748	607.88
592.958	617.88
593.167	623.88
593.377	611.88
593.587	660.88
593.796	619.88
594.006	640.88
594.215	646.88
594.424	638.88
594.634	619.88
594.843	622.88
595.053	594.88
595.262	563.88
595.472	556.88
595.681	546.88
595.89	538.88
596.1	538.88
596.309	542.88
596.518	492.88
596.727	514.88
596.937	510.88
597.146	481.88
597.355	496.88
597.564	508.88
597.774	488.88
597.983	476.88
598.192	487.88
598.401	475.88
598.61	448.88
598.819	472.88
599.028	458.88
599.237	463.88
599.446	473.88
599.655	443.88
599.864	456.88
600.073	451.88
600.282	453.88
600.491	437.88
600.7	442.88
600.909	452.88
601.118	428.88
601.327	439.88
601.536	447.88
601.745	450.88
601.953	428.88
602.162	425.88
602.371	417.88
602.58	431.88
602.789	420.88
602.997	423.88
603.206	436.88
603.415	415.88
603.623	407.88
603.832	443.88
604.041	406.88
604.249	426.88
604.458	430.88
604.666	410.88
604.875	409.88
605.084	412.88
605.292	411.88
605.501	412.88
605.709	406.88
605.918	413.88
606.126	393.88
606.334	398.88
606.543	379.88
606.751	387.88
606.96	399.88
607.168	393.88
607.376	386.88
607.585	384.88
607.793	407.88
608.001	388.88
608.21	400.88
608.418	403.88
608.626	400.88
608.834	412.88
609.043	396.88
609.251	384.88
609.459	392.88
609.667	394.88
609.875	406.88
610.083	364.88
610.291	383.88
610.499	387.88
610.707	386.88
610.916	388.88
611.124	387.88
611.332	389.88
611.54	373.88
611.748	379.88
611.955	360.88
612.163	365.88
612.371	377.88
612.579	397.88
612.787	368.88
612.995	388.88
613.203	375.88
613.411	377.88
613.618	366.88
613.826	392.88
614.034	370.88
614.242	373.88
614.449	378.88
614.657	375.88
614.865	375.88
615.072	369.88
615.28	356.88
615.488	364.88
615.695	334.88
615.903	355.88
616.111	363.88
616.318	374.88
616.526	376.88
616.733	373.88
616.941	374.88
617.148	377.88
617.356	382.88
617.563	386.88
617.771	384.88
617.978	376.88
618.185	349.88
618.393	356.88
618.6	384.88
618.807	373.88
619.015	374.88
619.222	360.88
619.429	366.88
619.637	362.88
619.844	351.88
620.051	368.88
620.258	353.88
620.466	348.88
620.673	333.88
620.88	359.88
621.087	338.88
621.294	342.88
621.501	342.88
621.708	347.88
621.915	340.88
622.122	326.88
622.329	341.88
622.536	333.88
622.743	352.88
622.95	347.88
623.157	336.88
623.364	349.88
623.571	317.88
623.778	336.88
623.985	338.88
624.192	329.88
624.399	329.88
624.606	340.88
624.812	315.88
625.019	326.88
625.226	331.88
625.433	326.88
625.639	312.88
625.846	337.88
626.053	329.88
626.259	324.88
626.466	329.88
626.673	334.88
626.879	297.88
627.086	336.88
627.293	302.88
627.499	316.88
627.706	310.88
627.912	296.88
628.119	296.88
628.325	312.88
628.532	307.88
628.738	319.88
628.945	305.88
629.151	295.88
629.357	302.88
629.564	293.88
629.77	311.88
629.976	295.88
630.183	288.88
630.389	294.88
630.595	295.88
630.802	299.88
631.008	273.88
631.214	279.88
631.42	283.88
631.627	277.88
631.833	291.88
632.039	295.88
632.245	288.88
632.451	289.88
632.657	302.88
632.863	286.88
633.069	280.88
633.275	280.88
633.481	280.88
633.688	276.88
633.893	298.88
634.099	280.88
634.305	261.88
634.511	267.88
634.717	275.88
634.923	268.88
635.129	264.88
635.335	289.88
635.541	287.88
635.747	268.88
635.952	260.88
636.158	280.88
636.364	266.88
636.57	278.88
636.775	258.88
636.981	265.88
637.187	274.88
637.392	273.88
637.598	282.88
637.804	278.88
638.009	261.88
638.215	266.88
638.421	274.88
638.626	270.88
638.832	276.88
639.037	282.88
639.243	289.88
639.448	264.88
639.654	261.88
639.859	246.88
640.065	244.88
640.27	248.88
640.475	255.88
640.681	254.88
640.886	272.88
641.091	247.88
641.297	264.88
641.502	257.88
641.707	246.88
641.913	250.88
642.118	260.88
642.323	260.88
642.528	247.88
642.733	249.88
642.939	255.88
643.144	239.88
643.349	250.88
643.554	251.88
643.759	243.88
643.964	240.88
644.169	269.88
644.374	256.88
644.579	254.88
644.784	251.88
644.989	254.88
645.194	248.88
645.399	244.88
645.604	251.88
645.809	267.88
646.014	266.88
646.219	265.88
646.423	256.88
646.628	266.88
646.833	253.88
647.038	276.88
647.243	264.88
647.447	254.88
647.652	268.88
647.857	277.88
648.062	265.88
648.266	257.88
648.471	265.88
648.676	278.88
648.88	262.88
649.085	276.88
649.289	290.88
649.494	253.88
649.698	263.88
649.903	274.88
650.107	268.88
650.312	276.88
650.516	268.88
650.721	261.88
650.925	254.88
651.13	244.88
651.334	260.88
651.539	251.88
651.743	229.88
651.947	242.88
652.152	241.88
652.356	250.88
652.56	248.88
652.764	243.88
652.969	248.88
653.173	246.88
653.377	247.88
653.581	263.88
653.785	251.88
653.99	243.88
654.194	239.88
654.398	258.88
654.602	272.88
654.806	265.88
655.01	264.88
655.214	270.88
655.418	267.88
655.622	288.88
655.826	306.88
656.03	323.88
656.234	326.88
656.438	366.88
656.642	349.88
656.846	342.88
657.049	316.88
657.253	288.88
657.457	238.88
657.661	240.88
657.865	218.88
658.068	200.88
658.272	176.88
658.476	182.88
658.68	180.88
658.883	166.88
659.087	142.88
659.291	150.88
659.494	133.88
659.698	145.88
659.901	139.88
660.105	127.88
660.309	119.88
660.512	125.88
660.716	116.88
660.919	102.88
661.123	109.88
661.326	99.88
661.53	103.88
661.733	88.88
661.936	94.88
662.14	109.88
662.343	100.88
662.546	99.88
662.75	87.88
662.953	104.88
663.156	90.88
663.36	89.88
663.563	93.88
663.766	96.88
663.969	87.88
664.173	70.88
664.376	84.88
664.579	89.88
664.782	80.88
664.985	83.88
665.188	86.88
665.391	94.88
665.594	80.88
665.797	82.88
666	98.88
666.203	82.88
666.406	77.88
666.609	85.88
666.812	76.88
667.015	76.88
667.218	83.88
667.421	87.88
667.624	95.88
667.827	84.88
668.03	68.88
668.232	70.88
668.435	68.88
668.638	67.88
668.841	85.88
669.043	69.88
669.246	87.88
669.449	79.88
669.651	84.88
669.854	86.88
670.057	75.88
670.259	96.88
670.462	96.88
670.665	85.88
670.867	85.88
671.07	81.88
671.272	82.88
671.475	75.88
671.677	72.88
671.88	81.88
672.082	81.88
672.284	91.88
672.487	80.88
672.689	86.88
672.892	73.88
