Data from NiCl2@0.25M.TitratingCurve.Agarose3%dH2O.NegLispCup.LampEnergy10.LIBS07252019_HRD10591_18-25-29-573.txt Node
Date: Thu Jul 25 18:25:29 EDT 2019
User: cochatt
Spectrometer: HR+D1059
Trigger mode: 1
Integration Time (sec): 1.000000E-1
Scans to average: 1
Electric dark correction enabled: true
Nonlinearity correction enabled: false
Boxcar width: 0
XAxis mode: Wavelengths
Number of Pixels in Spectrum: 2048
>>>>>Begin Spectral Data<<<<<
223.165	-16.62
223.4	-16.62
223.635	-16.62
223.869	-10.62
224.104	-23.62
224.338	-13.62
224.573	-20.62
224.808	-23.62
225.042	-19.62
225.277	-2.62
225.511	9.38
225.746	6.38
225.98	10.38
226.215	2.38
226.449	26.38
226.683	12.38
226.918	37.38
227.152	26.38
227.387	36.38
227.621	44.38
227.856	56.38
228.09	42.38
228.324	54.38
228.559	64.38
228.793	82.38
229.027	131.38
229.262	129.38
229.496	135.38
229.73	140.38
229.964	145.38
230.199	148.38
230.433	141.38
230.667	163.38
230.901	152.38
231.136	148.38
231.37	162.38
231.604	160.38
231.838	162.38
232.072	176.38
232.306	166.38
232.541	174.38
232.775	165.38
233.009	160.38
233.243	177.38
233.477	182.38
233.711	182.38
233.945	186.38
234.179	175.38
234.413	170.38
234.647	181.38
234.881	185.38
235.115	195.38
235.349	186.38
235.583	188.38
235.817	174.38
236.051	173.38
236.285	159.38
236.519	175.38
236.753	174.38
236.987	192.38
237.221	191.38
237.455	210.38
237.689	186.38
237.922	213.38
238.156	213.38
238.39	207.38
238.624	204.38
238.858	195.38
239.091	205.38
239.325	204.38
239.559	211.38
239.793	201.38
240.027	218.38
240.26	219.38
240.494	211.38
240.728	219.38
240.961	209.38
241.195	227.38
241.429	234.38
241.662	226.38
241.896	245.38
242.13	242.38
242.363	240.38
242.597	232.38
242.83	243.38
243.064	240.38
243.298	245.38
243.531	231.38
243.765	259.38
243.998	261.38
244.232	244.38
244.465	236.38
244.699	264.38
244.932	259.38
245.166	267.38
245.399	266.38
245.633	260.38
245.866	265.38
246.099	273.38
246.333	265.38
246.566	258.38
246.8	261.38
247.033	286.38
247.266	285.38
247.5	290.38
247.733	266.38
247.966	297.38
248.2	288.38
248.433	300.38
248.666	282.38
248.899	290.38
249.133	285.38
249.366	296.38
249.599	312.38
249.832	306.38
250.066	316.38
250.299	328.38
250.532	306.38
250.765	313.38
250.998	314.38
251.231	324.38
251.465	304.38
251.698	335.38
251.931	346.38
252.164	326.38
252.397	336.38
252.63	352.38
252.863	332.38
253.096	341.38
253.329	334.38
253.562	334.38
253.795	332.38
254.028	330.38
254.261	328.38
254.494	341.38
254.727	356.38
254.96	356.38
255.193	331.38
255.426	338.38
255.659	346.38
255.892	376.38
256.124	367.38
256.357	353.38
256.59	354.38
256.823	354.38
257.056	354.38
257.289	359.38
257.521	363.38
257.754	357.38
257.987	351.38
258.22	391.38
258.452	386.38
258.685	396.38
258.918	360.38
259.151	386.38
259.383	390.38
259.616	390.38
259.849	384.38
260.081	374.38
260.314	390.38
260.547	396.38
260.779	391.38
261.012	394.38
261.244	406.38
261.477	390.38
261.71	409.38
261.942	391.38
262.175	408.38
262.407	402.38
262.64	407.38
262.872	413.38
263.105	429.38
263.337	424.38
263.57	414.38
263.802	417.38
264.035	392.38
264.267	413.38
264.499	429.38
264.732	419.38
264.964	420.38
265.197	445.38
265.429	414.38
265.661	428.38
265.894	411.38
266.126	435.38
266.358	458.38
266.591	423.38
266.823	424.38
267.055	429.38
267.287	464.38
267.52	458.38
267.752	455.38
267.984	457.38
268.216	462.38
268.448	454.38
268.681	450.38
268.913	468.38
269.145	450.38
269.377	477.38
269.609	472.38
269.841	450.38
270.073	471.38
270.306	469.38
270.538	469.38
270.77	478.38
271.002	464.38
271.234	485.38
271.466	480.38
271.698	474.38
271.93	506.38
272.162	490.38
272.394	479.38
272.626	499.38
272.858	495.38
273.09	514.38
273.322	497.38
273.553	492.38
273.785	508.38
274.017	489.38
274.249	492.38
274.481	483.38
274.713	542.38
274.945	516.38
275.176	516.38
275.408	511.38
275.64	543.38
275.872	528.38
276.104	534.38
276.335	540.38
276.567	535.38
276.799	533.38
277.031	537.38
277.262	532.38
277.494	516.38
277.726	523.38
277.957	536.38
278.189	528.38
278.421	537.38
278.652	547.38
278.884	536.38
279.115	548.38
279.347	568.38
279.579	530.38
279.81	558.38
280.042	570.38
280.273	547.38
280.505	572.38
280.736	570.38
280.968	554.38
281.199	550.38
281.431	596.38
281.662	580.38
281.894	581.38
282.125	570.38
282.356	592.38
282.588	591.38
282.819	588.38
283.051	598.38
283.282	584.38
283.513	608.38
283.745	581.38
283.976	598.38
284.207	607.38
284.439	615.38
284.67	600.38
284.901	629.38
285.132	604.38
285.364	596.38
285.595	612.38
285.826	615.38
286.057	608.38
286.288	607.38
286.52	617.38
286.751	603.38
286.982	643.38
287.213	629.38
287.444	636.38
287.675	618.38
287.906	623.38
288.138	636.38
288.369	656.38
288.6	632.38
288.831	638.38
289.062	648.38
289.293	653.38
289.524	654.38
289.755	630.38
289.986	638.38
290.217	654.38
290.448	653.38
290.679	667.38
290.91	667.38
291.141	657.38
291.371	657.38
291.602	656.38
291.833	652.38
292.064	668.38
292.295	657.38
292.526	664.38
292.757	671.38
292.987	677.38
293.218	665.38
293.449	679.38
293.68	659.38
293.91	646.38
294.141	656.38
294.372	632.38
294.603	658.38
294.833	674.38
295.064	687.38
295.295	656.38
295.525	658.38
295.756	686.38
295.987	662.38
296.217	667.38
296.448	645.38
296.679	692.38
296.909	667.38
297.14	724.38
297.37	715.38
297.601	707.38
297.831	678.38
298.062	721.38
298.292	747.38
298.523	740.38
298.753	726.38
298.984	732.38
299.214	706.38
299.445	724.38
299.675	716.38
299.905	740.38
300.136	698.38
300.366	712.38
300.597	714.38
300.827	758.38
301.057	747.38
301.288	743.38
301.518	739.38
301.748	751.38
301.979	771.38
302.209	790.38
302.439	768.38
302.669	776.38
302.9	776.38
303.13	728.38
303.36	752.38
303.59	754.38
303.82	759.38
304.051	770.38
304.281	764.38
304.511	756.38
304.741	744.38
304.971	746.38
305.201	757.38
305.431	745.38
305.661	746.38
305.891	746.38
306.121	748.38
306.352	745.38
306.582	735.38
306.812	730.38
307.042	717.38
307.272	730.38
307.502	720.38
307.731	730.38
307.961	731.38
308.191	722.38
308.421	717.38
308.651	719.38
308.881	717.38
309.111	724.38
309.341	730.38
309.571	726.38
309.8	751.38
310.03	756.38
310.26	737.38
310.49	738.38
310.72	735.38
310.949	755.38
311.179	744.38
311.409	743.38
311.639	759.38
311.868	742.38
312.098	746.38
312.328	780.38
312.557	760.38
312.787	771.38
313.017	770.38
313.246	776.38
313.476	791.38
313.706	792.38
313.935	772.38
314.165	771.38
314.394	760.38
314.624	780.38
314.853	790.38
315.083	802.38
315.312	795.38
315.542	798.38
315.771	796.38
316.001	784.38
316.23	796.38
316.46	791.38
316.689	777.38
316.919	763.38
317.148	761.38
317.377	784.38
317.607	763.38
317.836	778.38
318.065	758.38
318.295	765.38
318.524	755.38
318.753	775.38
318.983	773.38
319.212	761.38
319.441	778.38
319.67	778.38
319.9	784.38
320.129	749.38
320.358	798.38
320.587	772.38
320.816	757.38
321.046	767.38
321.275	772.38
321.504	792.38
321.733	771.38
321.962	772.38
322.191	780.38
322.42	776.38
322.649	788.38
322.878	761.38
323.108	788.38
323.337	811.38
323.566	793.38
323.795	775.38
324.024	795.38
324.253	788.38
324.482	799.38
324.71	808.38
324.939	806.38
325.168	800.38
325.397	781.38
325.626	809.38
325.855	809.38
326.084	839.38
326.313	826.38
326.542	845.38
326.77	838.38
326.999	832.38
327.228	827.38
327.457	847.38
327.686	828.38
327.914	849.38
328.143	831.38
328.372	847.38
328.6	847.38
328.829	838.38
329.058	856.38
329.287	847.38
329.515	850.38
329.744	867.38
329.972	869.38
330.201	845.38
330.43	880.38
330.658	863.38
330.887	868.38
331.115	891.38
331.344	882.38
331.572	873.38
331.801	922.38
332.03	903.38
332.258	932.38
332.486	957.38
332.715	985.38
332.943	986.38
333.172	1052.38
333.4	1088.38
333.629	1080.38
333.857	1120.38
334.085	1139.38
334.314	1107.38
334.542	1107.38
334.771	1127.38
334.999	1080.38
335.227	1063.38
335.455	1114.38
335.684	1088.38
335.912	1069.38
336.14	1048.38
336.369	1031.38
336.597	1034.38
336.825	1052.38
337.053	1029.38
337.281	1023.38
337.51	986.38
337.738	987.38
337.966	936.38
338.194	959.38
338.422	948.38
338.65	911.38
338.878	922.38
339.106	911.38
339.334	889.38
339.562	904.38
339.79	903.38
340.018	896.38
340.246	879.38
340.474	857.38
340.702	895.38
340.93	899.38
341.158	870.38
341.386	892.38
341.614	890.38
341.842	885.38
342.07	861.38
342.298	874.38
342.526	872.38
342.754	893.38
342.981	882.38
343.209	908.38
343.437	933.38
343.665	992.38
343.893	1028.38
344.12	1048.38
344.348	1065.38
344.576	1031.38
344.804	1012.38
345.031	942.38
345.259	911.38
345.487	904.38
345.714	874.38
345.942	878.38
346.17	876.38
346.397	890.38
346.625	854.38
346.853	832.38
347.08	854.38
347.308	875.38
347.535	859.38
347.763	862.38
347.99	881.38
348.218	874.38
348.445	879.38
348.673	843.38
348.9	864.38
349.128	836.38
349.355	846.38
349.583	834.38
349.81	850.38
350.037	835.38
350.265	821.38
350.492	794.38
350.72	797.38
350.947	799.38
351.174	819.38
351.402	854.38
351.629	840.38
351.856	824.38
352.083	825.38
352.311	845.38
352.538	835.38
352.765	815.38
352.992	826.38
353.22	779.38
353.447	818.38
353.674	821.38
353.901	819.38
354.128	814.38
354.355	811.38
354.583	836.38
354.81	806.38
355.037	827.38
355.264	803.38
355.491	831.38
355.718	838.38
355.945	811.38
356.172	820.38
356.399	809.38
356.626	834.38
356.853	823.38
357.08	810.38
357.307	819.38
357.534	804.38
357.761	804.38
357.988	811.38
358.215	812.38
358.441	804.38
358.668	819.38
358.895	817.38
359.122	826.38
359.349	822.38
359.576	834.38
359.802	835.38
360.029	813.38
360.256	810.38
360.483	823.38
360.709	826.38
360.936	812.38
361.163	828.38
361.39	829.38
361.616	823.38
361.843	810.38
362.07	822.38
362.296	826.38
362.523	805.38
362.749	831.38
362.976	827.38
363.203	843.38
363.429	812.38
363.656	826.38
363.882	804.38
364.109	828.38
364.335	798.38
364.562	823.38
364.788	807.38
365.015	816.38
365.241	828.38
365.468	808.38
365.694	803.38
365.92	808.38
366.147	839.38
366.373	831.38
366.599	804.38
366.826	800.38
367.052	811.38
367.278	831.38
367.505	830.38
367.731	816.38
367.957	809.38
368.184	841.38
368.41	830.38
368.636	853.38
368.862	840.38
369.089	838.38
369.315	850.38
369.541	850.38
369.767	829.38
369.993	845.38
370.219	853.38
370.445	861.38
370.672	879.38
370.898	874.38
371.124	891.38
371.35	896.38
371.576	894.38
371.802	917.38
372.028	885.38
372.254	893.38
372.48	898.38
372.706	922.38
372.932	906.38
373.158	944.38
373.384	895.38
373.61	866.38
373.835	890.38
374.061	916.38
374.287	903.38
374.513	924.38
374.739	913.38
374.965	961.38
375.191	975.38
375.416	973.38
375.642	943.38
375.868	956.38
376.094	895.38
376.319	934.38
376.545	907.38
376.771	929.38
376.997	867.38
377.222	905.38
377.448	910.38
377.674	907.38
377.899	908.38
378.125	874.38
378.35	886.38
378.576	889.38
378.802	856.38
379.027	883.38
379.253	879.38
379.478	901.38
379.704	888.38
379.929	866.38
380.155	864.38
380.38	875.38
380.606	872.38
380.831	886.38
381.057	888.38
381.282	861.38
381.507	893.38
381.733	906.38
381.958	915.38
382.184	915.38
382.409	907.38
382.634	943.38
382.86	949.38
383.085	936.38
383.31	954.38
383.535	946.38
383.761	961.38
383.986	965.38
384.211	1002.38
384.436	1018.38
384.662	1039.38
384.887	1050.38
385.112	1059.38
385.337	1090.38
385.562	1052.38
385.787	1108.38
386.013	1099.38
386.238	1100.38
386.463	1098.38
386.688	1087.38
386.913	1048.38
387.138	1088.38
387.363	1082.38
387.588	1078.38
387.813	1080.38
388.038	1059.38
388.263	1074.38
388.488	1079.38
388.713	1077.38
388.938	1060.38
389.163	1067.38
389.387	1093.38
389.612	1039.38
389.837	1062.38
390.062	1073.38
390.287	1072.38
390.512	1067.38
390.736	1125.38
390.961	1117.38
391.186	1120.38
391.411	1150.38
391.636	1168.38
391.86	1197.38
392.085	1215.38
392.31	1241.38
392.534	1184.38
392.759	1178.38
392.984	1159.38
393.208	1150.38
393.433	1146.38
393.658	1149.38
393.882	1151.38
394.107	1134.38
394.331	1146.38
394.556	1126.38
394.78	1150.38
395.005	1179.38
395.229	1180.38
395.454	1151.38
395.678	1176.38
395.903	1221.38
396.127	1213.38
396.352	1195.38
396.576	1170.38
396.801	1162.38
397.025	1214.38
397.249	1204.38
397.474	1221.38
397.698	1225.38
397.922	1249.38
398.147	1259.38
398.371	1277.38
398.595	1325.38
398.82	1372.38
399.044	1454.38
399.268	1529.38
399.492	1777.38
399.717	1947.38
399.941	1991.38
400.165	1844.38
400.389	1732.38
400.613	1600.38
400.837	1513.38
401.062	1473.38
401.286	1376.38
401.51	1416.38
401.734	1387.38
401.958	1392.38
402.182	1390.38
402.406	1375.38
402.63	1443.38
402.854	1434.38
403.078	1429.38
403.302	1434.38
403.526	1464.38
403.75	1523.38
403.974	1500.38
404.198	1480.38
404.422	1526.38
404.645	1524.38
404.869	1501.38
405.093	1545.38
405.317	1510.38
405.541	1510.38
405.765	1467.38
405.988	1499.38
406.212	1514.38
406.436	1526.38
406.66	1519.38
406.883	1549.38
407.107	1636.38
407.331	1698.38
407.555	1717.38
407.778	1728.38
408.002	1719.38
408.226	1726.38
408.449	1672.38
408.673	1596.38
408.896	1520.38
409.12	1530.38
409.344	1548.38
409.567	1565.38
409.791	1558.38
410.014	1520.38
410.238	1499.38
410.461	1508.38
410.685	1493.38
410.908	1473.38
411.132	1452.38
411.355	1395.38
411.578	1440.38
411.802	1415.38
412.025	1418.38
412.249	1431.38
412.472	1456.38
412.695	1399.38
412.919	1403.38
413.142	1390.38
413.365	1388.38
413.589	1412.38
413.812	1378.38
414.035	1354.38
414.258	1338.38
414.482	1341.38
414.705	1396.38
414.928	1404.38
415.151	1379.38
415.374	1374.38
415.597	1360.38
415.821	1328.38
416.044	1328.38
416.267	1303.38
416.49	1344.38
416.713	1300.38
416.936	1352.38
417.159	1315.38
417.382	1320.38
417.605	1287.38
417.828	1325.38
418.051	1362.38
418.274	1349.38
418.497	1326.38
418.72	1381.38
418.943	1355.38
419.166	1457.38
419.389	1578.38
419.611	1538.38
419.834	1431.38
420.057	1438.38
420.28	1379.38
420.503	1350.38
420.726	1338.38
420.948	1285.38
421.171	1321.38
421.394	1345.38
421.617	1292.38
421.839	1377.38
422.062	1334.38
422.285	1367.38
422.507	1358.38
422.73	1338.38
422.953	1358.38
423.175	1379.38
423.398	1345.38
423.621	1353.38
423.843	1382.38
424.066	1389.38
424.288	1375.38
424.511	1371.38
424.733	1335.38
424.956	1326.38
425.178	1339.38
425.401	1349.38
425.623	1330.38
425.846	1302.38
426.068	1307.38
426.291	1295.38
426.513	1219.38
426.735	1272.38
426.958	1286.38
427.18	1238.38
427.402	1240.38
427.625	1238.38
427.847	1204.38
428.069	1180.38
428.292	1208.38
428.514	1206.38
428.736	1199.38
428.958	1226.38
429.181	1187.38
429.403	1197.38
429.625	1182.38
429.847	1174.38
430.069	1149.38
430.292	1154.38
430.514	1181.38
430.736	1161.38
430.958	1181.38
431.18	1151.38
431.402	1149.38
431.624	1166.38
431.846	1205.38
432.068	1196.38
432.29	1186.38
432.512	1206.38
432.734	1209.38
432.956	1192.38
433.178	1180.38
433.4	1181.38
433.622	1222.38
433.844	1228.38
434.066	1237.38
434.287	1222.38
434.509	1273.38
434.731	1294.38
434.953	1318.38
435.175	1313.38
435.397	1309.38
435.618	1295.38
435.84	1231.38
436.062	1186.38
436.284	1204.38
436.505	1183.38
436.727	1212.38
436.949	1178.38
437.17	1182.38
437.392	1186.38
437.614	1180.38
437.835	1116.38
438.057	1162.38
438.278	1127.38
438.5	1139.38
438.721	1151.38
438.943	1169.38
439.165	1154.38
439.386	1135.38
439.608	1186.38
439.829	1182.38
440.05	1178.38
440.272	1186.38
440.493	1227.38
440.715	1187.38
440.936	1226.38
441.158	1224.38
441.379	1236.38
441.6	1301.38
441.822	1334.38
442.043	1321.38
442.264	1323.38
442.486	1300.38
442.707	1290.38
442.928	1292.38
443.149	1264.38
443.371	1301.38
443.592	1320.38
443.813	1315.38
444.034	1368.38
444.255	1351.38
444.476	1410.38
444.698	1506.38
444.919	1513.38
445.14	1610.38
445.361	1464.38
445.582	1391.38
445.803	1327.38
446.024	1277.38
446.245	1276.38
446.466	1236.38
446.687	1198.38
446.908	1203.38
447.129	1192.38
447.35	1154.38
447.571	1150.38
447.792	1130.38
448.013	1127.38
448.234	1136.38
448.455	1130.38
448.675	1108.38
448.896	1107.38
449.117	1089.38
449.338	1090.38
449.559	1078.38
449.779	1045.38
450	1079.38
450.221	1084.38
450.442	1089.38
450.662	1100.38
450.883	1100.38
451.104	1127.38
451.324	1111.38
451.545	1094.38
451.766	1079.38
451.986	1099.38
452.207	1076.38
452.428	1058.38
452.648	1093.38
452.869	1046.38
453.089	1034.38
453.31	1074.38
453.53	1079.38
453.751	1045.38
453.971	1045.38
454.192	1055.38
454.412	1026.38
454.633	1030.38
454.853	1036.38
455.073	1015.38
455.294	1049.38
455.514	1014.38
455.734	998.38
455.955	1011.38
456.175	1035.38
456.395	1023.38
456.616	1009.38
456.836	1048.38
457.056	1010.38
457.276	995.38
457.497	1045.38
457.717	1015.38
457.937	1028.38
458.157	1048.38
458.377	1036.38
458.598	1086.38
458.818	1121.38
459.038	1135.38
459.258	1183.38
459.478	1199.38
459.698	1211.38
459.918	1286.38
460.138	1295.38
460.358	1362.38
460.578	1424.38
460.798	1394.38
461.018	1407.38
461.238	1390.38
461.458	1428.38
461.678	1415.38
461.898	1427.38
462.118	1442.38
462.338	1528.38
462.558	1519.38
462.777	1623.38
462.997	1706.38
463.217	1794.38
463.437	1848.38
463.657	1788.38
463.876	1694.38
464.096	1672.38
464.316	1615.38
464.536	1645.38
464.755	1594.38
464.975	1539.38
465.195	1463.38
465.414	1399.38
465.634	1298.38
465.854	1268.38
466.073	1237.38
466.293	1194.38
466.512	1170.38
466.732	1147.38
466.951	1148.38
467.171	1160.38
467.391	1177.38
467.61	1144.38
467.829	1122.38
468.049	1143.38
468.268	1112.38
468.488	1050.38
468.707	1075.38
468.927	1117.38
469.146	1098.38
469.365	1102.38
469.585	1105.38
469.804	1124.38
470.023	1159.38
470.243	1150.38
470.462	1145.38
470.681	1169.38
470.901	1175.38
471.12	1158.38
471.339	1123.38
471.558	1118.38
471.777	1138.38
471.997	1135.38
472.216	1117.38
472.435	1107.38
472.654	1071.38
472.873	1103.38
473.092	1074.38
473.311	1087.38
473.53	1082.38
473.749	1063.38
473.968	1085.38
474.187	1083.38
474.406	1074.38
474.625	1066.38
474.844	1059.38
475.063	1093.38
475.282	1115.38
475.501	1085.38
475.72	1101.38
475.939	1145.38
476.158	1108.38
476.377	1110.38
476.596	1117.38
476.814	1140.38
477.033	1160.38
477.252	1166.38
477.471	1206.38
477.69	1216.38
477.908	1241.38
478.127	1279.38
478.346	1274.38
478.564	1344.38
478.783	1304.38
479.002	1313.38
479.22	1350.38
479.439	1349.38
479.658	1366.38
479.876	1359.38
480.095	1372.38
480.313	1406.38
480.532	1430.38
480.751	1413.38
480.969	1397.38
481.188	1332.38
481.406	1309.38
481.624	1290.38
481.843	1252.38
482.061	1261.38
482.28	1255.38
482.498	1267.38
482.717	1228.38
482.935	1257.38
483.153	1216.38
483.372	1236.38
483.59	1227.38
483.808	1248.38
484.027	1242.38
484.245	1251.38
484.463	1249.38
484.681	1281.38
484.9	1296.38
485.118	1286.38
485.336	1282.38
485.554	1298.38
485.772	1318.38
485.99	1296.38
486.209	1298.38
486.427	1298.38
486.645	1278.38
486.863	1302.38
487.081	1330.38
487.299	1302.38
487.517	1308.38
487.735	1282.38
487.953	1308.38
488.171	1323.38
488.389	1275.38
488.607	1267.38
488.825	1293.38
489.043	1261.38
489.261	1255.38
489.479	1259.38
489.696	1262.38
489.914	1295.38
490.132	1248.38
490.35	1284.38
490.568	1297.38
490.786	1302.38
491.003	1325.38
491.221	1304.38
491.439	1270.38
491.657	1290.38
491.874	1297.38
492.092	1297.38
492.31	1305.38
492.527	1333.38
492.745	1344.38
492.963	1372.38
493.18	1359.38
493.398	1356.38
493.615	1332.38
493.833	1341.38
494.05	1349.38
494.268	1382.38
494.485	1357.38
494.703	1369.38
494.92	1373.38
495.138	1398.38
495.355	1353.38
495.573	1408.38
495.79	1410.38
496.008	1424.38
496.225	1394.38
496.442	1447.38
496.66	1462.38
496.877	1461.38
497.094	1507.38
497.312	1554.38
497.529	1593.38
497.746	1620.38
497.963	1710.38
498.181	1731.38
498.398	1819.38
498.615	1932.38
498.832	2043.38
499.049	2213.38
499.267	2401.38
499.484	2603.38
499.701	2851.38
499.918	3140.38
500.135	3459.38
500.352	3780.38
500.569	3944.38
500.786	3895.38
501.003	3718.38
501.22	3442.38
501.437	3160.38
501.654	2850.38
501.871	2566.38
502.088	2382.38
502.305	2219.38
502.522	2100.38
502.739	1993.38
502.956	1938.38
503.172	1810.38
503.389	1723.38
503.606	1698.38
503.823	1632.38
504.04	1636.38
504.256	1637.38
504.473	1654.38
504.69	1636.38
504.907	1592.38
505.123	1525.38
505.34	1497.38
505.557	1474.38
505.773	1358.38
505.99	1345.38
506.207	1323.38
506.423	1300.38
506.64	1302.38
506.856	1270.38
507.073	1279.38
507.289	1233.38
507.506	1216.38
507.722	1231.38
507.939	1219.38
508.155	1182.38
508.372	1203.38
508.588	1189.38
508.805	1201.38
509.021	1178.38
509.238	1150.38
509.454	1132.38
509.67	1138.38
509.887	1156.38
510.103	1133.38
510.319	1102.38
510.536	1145.38
510.752	1146.38
510.968	1122.38
511.184	1110.38
511.401	1084.38
511.617	1144.38
511.833	1108.38
512.049	1087.38
512.265	1112.38
512.481	1110.38
512.698	1117.38
512.914	1107.38
513.13	1108.38
513.346	1115.38
513.562	1130.38
513.778	1103.38
513.994	1113.38
514.21	1135.38
514.426	1128.38
514.642	1123.38
514.858	1149.38
515.074	1144.38
515.29	1158.38
515.506	1173.38
515.721	1204.38
515.937	1212.38
516.153	1237.38
516.369	1268.38
516.585	1325.38
516.801	1316.38
517.016	1360.38
517.232	1437.38
517.448	1486.38
517.664	1493.38
517.879	1545.38
518.095	1554.38
518.311	1526.38
518.527	1464.38
518.742	1402.38
518.958	1358.38
519.173	1300.38
519.389	1263.38
519.605	1253.38
519.82	1219.38
520.036	1198.38
520.251	1146.38
520.467	1138.38
520.682	1114.38
520.898	1124.38
521.113	1107.38
521.329	1111.38
521.544	1105.38
521.76	1100.38
521.975	1064.38
522.19	1084.38
522.406	1098.38
522.621	1052.38
522.836	1050.38
523.052	1021.38
523.267	1060.38
523.482	1041.38
523.698	1049.38
523.913	1026.38
524.128	1053.38
524.343	1031.38
524.559	1007.38
524.774	1011.38
524.989	1035.38
525.204	1018.38
525.419	1016.38
525.634	995.38
525.849	1016.38
526.064	1016.38
526.28	1005.38
526.495	1007.38
526.71	1003.38
526.925	986.38
527.14	974.38
527.355	1012.38
527.57	971.38
527.785	995.38
527.999	1019.38
528.214	992.38
528.429	978.38
528.644	1001.38
528.859	1015.38
529.074	989.38
529.289	985.38
529.503	1008.38
529.718	1020.38
529.933	974.38
530.148	960.38
530.363	1003.38
530.577	982.38
530.792	966.38
531.007	981.38
531.221	986.38
531.436	990.38
531.651	983.38
531.865	987.38
532.08	971.38
532.295	1021.38
532.509	1012.38
532.724	1000.38
532.938	1008.38
533.153	1014.38
533.367	1022.38
533.582	990.38
533.796	958.38
534.011	988.38
534.225	996.38
534.44	976.38
534.654	998.38
534.868	1003.38
535.083	963.38
535.297	980.38
535.511	966.38
535.726	940.38
535.94	962.38
536.154	930.38
536.369	953.38
536.583	946.38
536.797	946.38
537.011	926.38
537.225	926.38
537.44	894.38
537.654	918.38
537.868	914.38
538.082	923.38
538.296	905.38
538.51	904.38
538.724	928.38
538.938	919.38
539.153	885.38
539.367	928.38
539.581	906.38
539.795	888.38
540.009	889.38
540.222	900.38
540.436	912.38
540.65	858.38
540.864	871.38
541.078	885.38
541.292	899.38
541.506	892.38
541.72	884.38
541.934	878.38
542.147	930.38
542.361	875.38
542.575	873.38
542.789	878.38
543.002	871.38
543.216	874.38
543.43	870.38
543.644	860.38
543.857	889.38
544.071	866.38
544.285	864.38
544.498	885.38
544.712	882.38
544.925	907.38
545.139	910.38
545.352	921.38
545.566	920.38
545.779	925.38
545.993	935.38
546.206	919.38
546.42	908.38
546.633	882.38
546.847	925.38
547.06	888.38
547.274	922.38
547.487	888.38
547.7	908.38
547.914	898.38
548.127	919.38
548.34	932.38
548.554	937.38
548.767	943.38
548.98	908.38
549.193	924.38
549.407	932.38
549.62	963.38
549.833	948.38
550.046	910.38
550.259	900.38
550.473	882.38
550.686	917.38
550.899	912.38
551.112	891.38
551.325	887.38
551.538	898.38
551.751	870.38
551.964	922.38
552.177	926.38
552.39	926.38
552.603	943.38
552.816	938.38
553.029	979.38
553.242	999.38
553.455	986.38
553.667	1005.38
553.88	963.38
554.093	966.38
554.306	939.38
554.519	903.38
554.732	902.38
554.944	915.38
555.157	884.38
555.37	859.38
555.583	861.38
555.795	840.38
556.008	820.38
556.221	830.38
556.433	836.38
556.646	773.38
556.859	799.38
557.071	786.38
557.284	782.38
557.496	789.38
557.709	799.38
557.921	790.38
558.134	783.38
558.346	819.38
558.559	784.38
558.771	768.38
558.984	784.38
559.196	740.38
559.409	788.38
559.621	742.38
559.833	760.38
560.046	735.38
560.258	749.38
560.47	767.38
560.683	780.38
560.895	789.38
561.107	730.38
561.32	746.38
561.532	760.38
561.744	730.38
561.956	762.38
562.168	726.38
562.381	742.38
562.593	755.38
562.805	770.38
563.017	748.38
563.229	764.38
563.441	756.38
563.653	795.38
563.865	783.38
564.077	790.38
564.289	788.38
564.501	800.38
564.713	810.38
564.925	822.38
565.137	834.38
565.349	832.38
565.561	876.38
565.773	929.38
565.985	956.38
566.197	994.38
566.408	1088.38
566.62	1122.38
566.832	1197.38
567.044	1244.38
567.255	1203.38
567.467	1262.38
567.679	1342.38
567.891	1371.38
568.102	1363.38
568.314	1332.38
568.526	1220.38
568.737	1121.38
568.949	1078.38
569.161	974.38
569.372	931.38
569.584	891.38
569.795	859.38
570.007	803.38
570.218	819.38
570.43	797.38
570.641	761.38
570.853	802.38
571.064	783.38
571.276	782.38
571.487	749.38
571.698	746.38
571.91	687.38
572.121	695.38
572.333	662.38
572.544	664.38
572.755	647.38
572.966	658.38
573.178	647.38
573.389	640.38
573.6	628.38
573.811	638.38
574.023	622.38
574.234	632.38
574.445	626.38
574.656	627.38
574.867	626.38
575.078	634.38
575.289	605.38
575.501	610.38
575.712	597.38
575.923	606.38
576.134	587.38
576.345	602.38
576.556	592.38
576.767	598.38
576.978	569.38
577.188	580.38
577.399	584.38
577.61	564.38
577.821	572.38
578.032	571.38
578.243	559.38
578.454	543.38
578.665	570.38
578.875	552.38
579.086	543.38
579.297	542.38
579.508	524.38
579.718	554.38
579.929	541.38
580.14	541.38
580.35	547.38
580.561	533.38
580.772	548.38
580.982	530.38
581.193	530.38
581.403	532.38
581.614	534.38
581.825	525.38
582.035	540.38
582.246	528.38
582.456	519.38
582.667	525.38
582.877	518.38
583.087	535.38
583.298	531.38
583.508	493.38
583.719	516.38
583.929	506.38
584.139	507.38
584.35	481.38
584.56	506.38
584.77	502.38
584.981	499.38
585.191	501.38
585.401	489.38
585.611	491.38
585.821	477.38
586.032	495.38
586.242	498.38
586.452	490.38
586.662	486.38
586.872	501.38
587.082	505.38
587.292	480.38
587.502	492.38
587.713	508.38
587.923	502.38
588.133	498.38
588.343	468.38
588.553	482.38
588.762	498.38
588.972	502.38
589.182	519.38
589.392	485.38
589.602	494.38
589.812	504.38
590.022	501.38
590.232	507.38
590.441	487.38
590.651	504.38
590.861	528.38
591.071	528.38
591.281	536.38
591.49	534.38
591.7	543.38
591.91	534.38
592.119	556.38
592.329	538.38
592.539	578.38
592.748	584.38
592.958	605.38
593.167	617.38
593.377	595.38
593.587	619.38
593.796	645.38
594.006	623.38
594.215	631.38
594.424	605.38
594.634	610.38
594.843	582.38
595.053	574.38
595.262	555.38
595.472	538.38
595.681	553.38
595.89	514.38
596.1	509.38
596.309	502.38
596.518	488.38
596.727	488.38
596.937	457.38
597.146	455.38
597.355	474.38
597.564	459.38
597.774	439.38
597.983	436.38
598.192	435.38
598.401	450.38
598.61	451.38
598.819	428.38
599.028	430.38
599.237	425.38
599.446	402.38
599.655	417.38
599.864	412.38
600.073	402.38
600.282	406.38
600.491	414.38
600.7	421.38
600.909	425.38
601.118	408.38
601.327	402.38
601.536	400.38
601.745	399.38
601.953	405.38
602.162	401.38
602.371	387.38
602.58	402.38
602.789	415.38
602.997	413.38
603.206	383.38
603.415	385.38
603.623	394.38
603.832	394.38
604.041	390.38
604.249	396.38
604.458	389.38
604.666	377.38
604.875	378.38
605.084	377.38
605.292	363.38
605.501	378.38
605.709	374.38
605.918	358.38
606.126	360.38
606.334	383.38
606.543	355.38
606.751	392.38
606.96	356.38
607.168	382.38
607.376	369.38
607.585	361.38
607.793	369.38
608.001	376.38
608.21	363.38
608.418	378.38
608.626	358.38
608.834	360.38
609.043	366.38
609.251	354.38
609.459	344.38
609.667	355.38
609.875	365.38
610.083	345.38
610.291	366.38
610.499	365.38
610.707	343.38
610.916	367.38
611.124	375.38
611.332	344.38
611.54	351.38
611.748	374.38
611.955	367.38
612.163	359.38
612.371	362.38
612.579	356.38
612.787	341.38
612.995	365.38
613.203	356.38
613.411	363.38
613.618	357.38
613.826	344.38
614.034	350.38
614.242	354.38
614.449	356.38
614.657	347.38
614.865	343.38
615.072	333.38
615.28	346.38
615.488	356.38
615.695	344.38
615.903	341.38
616.111	340.38
616.318	354.38
616.526	345.38
616.733	342.38
616.941	340.38
617.148	356.38
617.356	351.38
617.563	345.38
617.771	326.38
617.978	349.38
618.185	346.38
618.393	349.38
618.6	337.38
618.807	342.38
619.015	336.38
619.222	342.38
619.429	326.38
619.637	339.38
619.844	335.38
620.051	319.38
620.258	323.38
620.466	328.38
620.673	309.38
620.88	322.38
621.087	299.38
621.294	336.38
621.501	331.38
621.708	321.38
621.915	315.38
622.122	325.38
622.329	322.38
622.536	318.38
622.743	317.38
622.95	317.38
623.157	311.38
623.364	330.38
623.571	302.38
623.778	313.38
623.985	309.38
624.192	320.38
624.399	300.38
624.606	315.38
624.812	304.38
625.019	302.38
625.226	290.38
625.433	316.38
625.639	310.38
625.846	281.38
626.053	282.38
626.259	280.38
626.466	291.38
626.673	301.38
626.879	310.38
627.086	306.38
627.293	312.38
627.499	288.38
627.706	283.38
627.912	283.38
628.119	295.38
628.325	306.38
628.532	289.38
628.738	295.38
628.945	288.38
629.151	299.38
629.357	290.38
629.564	282.38
629.77	272.38
629.976	292.38
630.183	285.38
630.389	270.38
630.595	282.38
630.802	277.38
631.008	254.38
631.214	275.38
631.42	283.38
631.627	281.38
631.833	275.38
632.039	275.38
632.245	250.38
632.451	269.38
632.657	267.38
632.863	268.38
633.069	254.38
633.275	258.38
633.481	276.38
633.688	253.38
633.893	246.38
634.099	264.38
634.305	257.38
634.511	258.38
634.717	244.38
634.923	254.38
635.129	262.38
635.335	270.38
635.541	264.38
635.747	260.38
635.952	267.38
636.158	243.38
636.364	249.38
636.57	247.38
636.775	260.38
636.981	258.38
637.187	241.38
637.392	234.38
637.598	244.38
637.804	251.38
638.009	258.38
638.215	240.38
638.421	245.38
638.626	236.38
638.832	256.38
639.037	235.38
639.243	230.38
639.448	243.38
639.654	264.38
639.859	220.38
640.065	236.38
640.27	254.38
640.475	240.38
640.681	231.38
640.886	230.38
641.091	242.38
641.297	231.38
641.502	227.38
641.707	251.38
641.913	227.38
642.118	233.38
642.323	229.38
642.528	223.38
642.733	231.38
642.939	229.38
643.144	239.38
643.349	226.38
643.554	216.38
643.759	205.38
643.964	231.38
644.169	236.38
644.374	221.38
644.579	233.38
644.784	241.38
644.989	230.38
645.194	222.38
645.399	217.38
645.604	214.38
645.809	216.38
646.014	214.38
646.219	227.38
646.423	230.38
646.628	210.38
646.833	231.38
647.038	214.38
647.243	214.38
647.447	200.38
647.652	223.38
647.857	239.38
648.062	231.38
648.266	211.38
648.471	237.38
648.676	235.38
648.88	240.38
649.085	222.38
649.289	214.38
649.494	202.38
649.698	209.38
649.903	199.38
650.107	197.38
650.312	195.38
650.516	202.38
650.721	202.38
650.925	200.38
651.13	198.38
651.334	190.38
651.539	185.38
651.743	196.38
651.947	191.38
652.152	196.38
652.356	201.38
652.56	186.38
652.764	179.38
652.969	194.38
653.173	175.38
653.377	170.38
653.581	165.38
653.785	182.38
653.99	175.38
654.194	175.38
654.398	163.38
654.602	180.38
654.806	164.38
655.01	148.38
655.214	155.38
655.418	142.38
655.622	162.38
655.826	142.38
656.03	157.38
656.234	172.38
656.438	173.38
656.642	145.38
656.846	144.38
657.049	153.38
657.253	146.38
657.457	142.38
657.661	123.38
657.865	129.38
658.068	130.38
658.272	119.38
658.476	100.38
658.68	118.38
658.883	106.38
659.087	111.38
659.291	115.38
659.494	127.38
659.698	114.38
659.901	120.38
660.105	90.38
660.309	111.38
660.512	90.38
660.716	111.38
660.919	95.38
661.123	114.38
661.326	104.38
661.53	89.38
661.733	97.38
661.936	108.38
662.14	89.38
662.343	90.38
662.546	87.38
662.75	104.38
662.953	90.38
663.156	86.38
663.36	86.38
663.563	83.38
663.766	91.38
663.969	95.38
664.173	95.38
664.376	88.38
664.579	89.38
664.782	86.38
664.985	77.38
665.188	91.38
665.391	102.38
665.594	89.38
665.797	82.38
666	85.38
666.203	101.38
666.406	80.38
666.609	98.38
666.812	94.38
667.015	79.38
667.218	87.38
667.421	100.38
667.624	86.38
667.827	75.38
668.03	75.38
668.232	63.38
668.435	87.38
668.638	98.38
668.841	88.38
669.043	76.38
669.246	88.38
669.449	82.38
669.651	95.38
669.854	79.38
670.057	70.38
670.259	85.38
670.462	90.38
670.665	83.38
670.867	87.38
671.07	72.38
671.272	92.38
671.475	104.38
671.677	80.38
671.88	79.38
672.082	92.38
672.284	91.38
672.487	104.38
672.689	89.38
672.892	75.38
