Data from NiCl2@0.0625M.TitratingCurve.Agarose3%dH2O.NegLispCup.LampEnergy10.LIBS07252019_HRD10591_18-35-19-577.txt Node
Date: Thu Jul 25 18:35:19 EDT 2019
User: cochatt
Spectrometer: HR+D1059
Trigger mode: 1
Integration Time (sec): 1.000000E-1
Scans to average: 1
Electric dark correction enabled: true
Nonlinearity correction enabled: false
Boxcar width: 0
XAxis mode: Wavelengths
Number of Pixels in Spectrum: 2048
>>>>>Begin Spectral Data<<<<<
223.165	-5.94
223.4	-5.94
223.635	-5.94
223.869	-13.94
224.104	-10.94
224.338	-22.94
224.573	-14.94
224.808	-22.94
225.042	1.06
225.277	0.06
225.511	4.06
225.746	2.06
225.98	10.06
226.215	12.06
226.449	6.06
226.683	5.06
226.918	19.06
227.152	32.06
227.387	26.06
227.621	30.06
227.856	40.06
228.09	50.06
228.324	42.06
228.559	51.06
228.793	82.06
229.027	145.06
229.262	150.06
229.496	150.06
229.73	151.06
229.964	177.06
230.199	146.06
230.433	168.06
230.667	171.06
230.901	166.06
231.136	175.06
231.37	189.06
231.604	169.06
231.838	182.06
232.072	181.06
232.306	183.06
232.541	188.06
232.775	198.06
233.009	206.06
233.243	193.06
233.477	187.06
233.711	203.06
233.945	205.06
234.179	188.06
234.413	193.06
234.647	210.06
234.881	218.06
235.115	210.06
235.349	223.06
235.583	222.06
235.817	213.06
236.051	218.06
236.285	201.06
236.519	210.06
236.753	228.06
236.987	226.06
237.221	218.06
237.455	232.06
237.689	233.06
237.922	247.06
238.156	223.06
238.39	229.06
238.624	227.06
238.858	234.06
239.091	246.06
239.325	233.06
239.559	244.06
239.793	244.06
240.027	265.06
240.26	262.06
240.494	259.06
240.728	269.06
240.961	269.06
241.195	264.06
241.429	273.06
241.662	267.06
241.896	294.06
242.13	299.06
242.363	292.06
242.597	297.06
242.83	278.06
243.064	292.06
243.298	294.06
243.531	295.06
243.765	311.06
243.998	325.06
244.232	319.06
244.465	311.06
244.699	303.06
244.932	328.06
245.166	324.06
245.399	316.06
245.633	332.06
245.866	325.06
246.099	329.06
246.333	318.06
246.566	323.06
246.8	333.06
247.033	339.06
247.266	345.06
247.5	335.06
247.733	351.06
247.966	348.06
248.2	366.06
248.433	357.06
248.666	358.06
248.899	359.06
249.133	354.06
249.366	370.06
249.599	374.06
249.832	365.06
250.066	373.06
250.299	393.06
250.532	389.06
250.765	375.06
250.998	379.06
251.231	395.06
251.465	410.06
251.698	402.06
251.931	384.06
252.164	400.06
252.397	403.06
252.63	406.06
252.863	436.06
253.096	415.06
253.329	406.06
253.562	416.06
253.795	430.06
254.028	425.06
254.261	440.06
254.494	444.06
254.727	440.06
254.96	417.06
255.193	422.06
255.426	441.06
255.659	450.06
255.892	442.06
256.124	451.06
256.357	436.06
256.59	452.06
256.823	459.06
257.056	453.06
257.289	462.06
257.521	454.06
257.754	473.06
257.987	462.06
258.22	460.06
258.452	475.06
258.685	477.06
258.918	490.06
259.151	470.06
259.383	478.06
259.616	491.06
259.849	498.06
260.081	516.06
260.314	486.06
260.547	495.06
260.779	487.06
261.012	511.06
261.244	506.06
261.477	516.06
261.71	532.06
261.942	521.06
262.175	492.06
262.407	508.06
262.64	498.06
262.872	515.06
263.105	511.06
263.337	537.06
263.57	521.06
263.802	544.06
264.035	530.06
264.267	558.06
264.499	567.06
264.732	540.06
264.964	546.06
265.197	536.06
265.429	570.06
265.661	555.06
265.894	545.06
266.126	539.06
266.358	568.06
266.591	565.06
266.823	552.06
267.055	545.06
267.287	562.06
267.52	583.06
267.752	583.06
267.984	591.06
268.216	601.06
268.448	597.06
268.681	583.06
268.913	583.06
269.145	596.06
269.377	602.06
269.609	592.06
269.841	626.06
270.073	596.06
270.306	609.06
270.538	612.06
270.77	599.06
271.002	608.06
271.234	626.06
271.466	616.06
271.698	616.06
271.93	623.06
272.162	624.06
272.394	643.06
272.626	640.06
272.858	613.06
273.09	632.06
273.322	633.06
273.553	626.06
273.785	625.06
274.017	642.06
274.249	650.06
274.481	660.06
274.713	665.06
274.945	648.06
275.176	684.06
275.408	691.06
275.64	687.06
275.872	670.06
276.104	696.06
276.335	692.06
276.567	700.06
276.799	682.06
277.031	694.06
277.262	699.06
277.494	670.06
277.726	680.06
277.957	683.06
278.189	713.06
278.421	696.06
278.652	698.06
278.884	706.06
279.115	707.06
279.347	714.06
279.579	737.06
279.81	725.06
280.042	714.06
280.273	729.06
280.505	720.06
280.736	730.06
280.968	713.06
281.199	745.06
281.431	748.06
281.662	739.06
281.894	768.06
282.125	736.06
282.356	772.06
282.588	768.06
282.819	775.06
283.051	762.06
283.282	782.06
283.513	798.06
283.745	804.06
283.976	785.06
284.207	779.06
284.439	784.06
284.67	771.06
284.901	792.06
285.132	809.06
285.364	780.06
285.595	818.06
285.826	787.06
286.057	803.06
286.288	801.06
286.52	801.06
286.751	797.06
286.982	827.06
287.213	807.06
287.444	808.06
287.675	857.06
287.906	843.06
288.138	845.06
288.369	836.06
288.6	826.06
288.831	849.06
289.062	816.06
289.293	832.06
289.524	858.06
289.755	815.06
289.986	843.06
290.217	850.06
290.448	840.06
290.679	863.06
290.91	834.06
291.141	854.06
291.371	839.06
291.602	857.06
291.833	861.06
292.064	872.06
292.295	851.06
292.526	869.06
292.757	850.06
292.987	856.06
293.218	837.06
293.449	871.06
293.68	859.06
293.91	873.06
294.141	878.06
294.372	861.06
294.603	867.06
294.833	883.06
295.064	886.06
295.295	872.06
295.525	842.06
295.756	879.06
295.987	854.06
296.217	878.06
296.448	894.06
296.679	891.06
296.909	878.06
297.14	926.06
297.37	910.06
297.601	922.06
297.831	901.06
298.062	902.06
298.292	912.06
298.523	966.06
298.753	967.06
298.984	942.06
299.214	965.06
299.445	901.06
299.675	927.06
299.905	903.06
300.136	938.06
300.366	946.06
300.597	944.06
300.827	952.06
301.057	955.06
301.288	963.06
301.518	970.06
301.748	953.06
301.979	975.06
302.209	986.06
302.439	998.06
302.669	975.06
302.9	971.06
303.13	963.06
303.36	988.06
303.59	973.06
303.82	955.06
304.051	983.06
304.281	989.06
304.511	995.06
304.741	996.06
304.971	981.06
305.201	936.06
305.431	995.06
305.661	965.06
305.891	1002.06
306.121	979.06
306.352	960.06
306.582	960.06
306.812	928.06
307.042	964.06
307.272	967.06
307.502	973.06
307.731	972.06
307.961	948.06
308.191	973.06
308.421	955.06
308.651	984.06
308.881	935.06
309.111	947.06
309.341	967.06
309.571	995.06
309.8	930.06
310.03	972.06
310.26	965.06
310.49	987.06
310.72	989.06
310.949	978.06
311.179	983.06
311.409	1000.06
311.639	1026.06
311.868	999.06
312.098	996.06
312.328	1015.06
312.557	1028.06
312.787	1027.06
313.017	1021.06
313.246	1027.06
313.476	1035.06
313.706	1037.06
313.935	1033.06
314.165	1041.06
314.394	1024.06
314.624	1028.06
314.853	1035.06
315.083	1030.06
315.312	1042.06
315.542	1044.06
315.771	1047.06
316.001	1029.06
316.23	1009.06
316.46	1039.06
316.689	1034.06
316.919	1062.06
317.148	1028.06
317.377	1041.06
317.607	991.06
317.836	1028.06
318.065	1037.06
318.295	1034.06
318.524	1008.06
318.753	1031.06
318.983	1002.06
319.212	990.06
319.441	1030.06
319.67	980.06
319.9	1008.06
320.129	1006.06
320.358	1016.06
320.587	1048.06
320.816	1051.06
321.046	1048.06
321.275	1058.06
321.504	1046.06
321.733	1048.06
321.962	1051.06
322.191	1056.06
322.42	1045.06
322.649	1059.06
322.878	1042.06
323.108	1038.06
323.337	1054.06
323.566	1054.06
323.795	1091.06
324.024	1058.06
324.253	1072.06
324.482	1061.06
324.71	1056.06
324.939	1099.06
325.168	1103.06
325.397	1098.06
325.626	1078.06
325.855	1115.06
326.084	1130.06
326.313	1110.06
326.542	1120.06
326.77	1114.06
326.999	1104.06
327.228	1094.06
327.457	1089.06
327.686	1117.06
327.914	1117.06
328.143	1143.06
328.372	1131.06
328.6	1139.06
328.829	1135.06
329.058	1144.06
329.287	1137.06
329.515	1148.06
329.744	1126.06
329.972	1118.06
330.201	1145.06
330.43	1182.06
330.658	1163.06
330.887	1170.06
331.115	1147.06
331.344	1168.06
331.572	1191.06
331.801	1201.06
332.03	1223.06
332.258	1248.06
332.486	1298.06
332.715	1288.06
332.943	1357.06
333.172	1384.06
333.4	1432.06
333.629	1467.06
333.857	1496.06
334.085	1479.06
334.314	1459.06
334.542	1450.06
334.771	1446.06
334.999	1424.06
335.227	1402.06
335.455	1376.06
335.684	1376.06
335.912	1372.06
336.14	1363.06
336.369	1379.06
336.597	1350.06
336.825	1337.06
337.053	1360.06
337.281	1336.06
337.51	1313.06
337.738	1316.06
337.966	1268.06
338.194	1259.06
338.422	1252.06
338.65	1237.06
338.878	1226.06
339.106	1250.06
339.334	1250.06
339.562	1194.06
339.79	1203.06
340.018	1194.06
340.246	1212.06
340.474	1209.06
340.702	1191.06
340.93	1205.06
341.158	1191.06
341.386	1204.06
341.614	1239.06
341.842	1203.06
342.07	1156.06
342.298	1182.06
342.526	1195.06
342.754	1174.06
342.981	1190.06
343.209	1210.06
343.437	1281.06
343.665	1321.06
343.893	1363.06
344.12	1394.06
344.348	1363.06
344.576	1312.06
344.804	1285.06
345.031	1263.06
345.259	1246.06
345.487	1174.06
345.714	1217.06
345.942	1159.06
346.17	1173.06
346.397	1144.06
346.625	1142.06
346.853	1127.06
347.08	1136.06
347.308	1158.06
347.535	1160.06
347.763	1154.06
347.99	1162.06
348.218	1137.06
348.445	1136.06
348.673	1133.06
348.9	1133.06
349.128	1129.06
349.355	1108.06
349.583	1105.06
349.81	1093.06
350.037	1105.06
350.265	1126.06
350.492	1125.06
350.72	1129.06
350.947	1098.06
351.174	1118.06
351.402	1087.06
351.629	1078.06
351.856	1072.06
352.083	1080.06
352.311	1100.06
352.538	1098.06
352.765	1094.06
352.992	1080.06
353.22	1077.06
353.447	1055.06
353.674	1086.06
353.901	1120.06
354.128	1074.06
354.355	1085.06
354.583	1073.06
354.81	1071.06
355.037	1070.06
355.264	1100.06
355.491	1118.06
355.718	1105.06
355.945	1065.06
356.172	1089.06
356.399	1086.06
356.626	1106.06
356.853	1110.06
357.08	1098.06
357.307	1097.06
357.534	1090.06
357.761	1107.06
357.988	1102.06
358.215	1077.06
358.441	1099.06
358.668	1107.06
358.895	1071.06
359.122	1095.06
359.349	1106.06
359.576	1096.06
359.802	1061.06
360.029	1083.06
360.256	1100.06
360.483	1115.06
360.709	1067.06
360.936	1096.06
361.163	1112.06
361.39	1105.06
361.616	1096.06
361.843	1110.06
362.07	1108.06
362.296	1134.06
362.523	1106.06
362.749	1106.06
362.976	1131.06
363.203	1106.06
363.429	1107.06
363.656	1092.06
363.882	1122.06
364.109	1102.06
364.335	1125.06
364.562	1104.06
364.788	1072.06
365.015	1106.06
365.241	1097.06
365.468	1107.06
365.694	1088.06
365.92	1100.06
366.147	1084.06
366.373	1101.06
366.599	1105.06
366.826	1072.06
367.052	1072.06
367.278	1108.06
367.505	1104.06
367.731	1144.06
367.957	1114.06
368.184	1117.06
368.41	1125.06
368.636	1119.06
368.862	1116.06
369.089	1119.06
369.315	1152.06
369.541	1123.06
369.767	1158.06
369.993	1128.06
370.219	1144.06
370.445	1188.06
370.672	1160.06
370.898	1186.06
371.124	1171.06
371.35	1182.06
371.576	1186.06
371.802	1202.06
372.028	1176.06
372.254	1164.06
372.48	1222.06
372.706	1221.06
372.932	1235.06
373.158	1272.06
373.384	1246.06
373.61	1185.06
373.835	1208.06
374.061	1185.06
374.287	1225.06
374.513	1215.06
374.739	1254.06
374.965	1318.06
375.191	1326.06
375.416	1290.06
375.642	1262.06
375.868	1259.06
376.094	1254.06
376.319	1219.06
376.545	1206.06
376.771	1196.06
376.997	1174.06
377.222	1204.06
377.448	1201.06
377.674	1184.06
377.899	1197.06
378.125	1178.06
378.35	1197.06
378.576	1180.06
378.802	1168.06
379.027	1227.06
379.253	1193.06
379.478	1174.06
379.704	1168.06
379.929	1179.06
380.155	1170.06
380.38	1193.06
380.606	1176.06
380.831	1186.06
381.057	1171.06
381.282	1191.06
381.507	1205.06
381.733	1216.06
381.958	1151.06
382.184	1196.06
382.409	1230.06
382.634	1230.06
382.86	1235.06
383.085	1242.06
383.31	1289.06
383.535	1297.06
383.761	1286.06
383.986	1318.06
384.211	1320.06
384.436	1336.06
384.662	1370.06
384.887	1396.06
385.112	1370.06
385.337	1407.06
385.562	1403.06
385.787	1426.06
386.013	1444.06
386.238	1413.06
386.463	1471.06
386.688	1436.06
386.913	1414.06
387.138	1404.06
387.363	1435.06
387.588	1403.06
387.813	1372.06
388.038	1402.06
388.263	1396.06
388.488	1426.06
388.713	1446.06
388.938	1422.06
389.163	1395.06
389.387	1384.06
389.612	1375.06
389.837	1393.06
390.062	1386.06
390.287	1423.06
390.512	1441.06
390.736	1453.06
390.961	1445.06
391.186	1449.06
391.411	1497.06
391.636	1510.06
391.86	1578.06
392.085	1600.06
392.31	1564.06
392.534	1582.06
392.759	1534.06
392.984	1474.06
393.208	1510.06
393.433	1464.06
393.658	1444.06
393.882	1501.06
394.107	1515.06
394.331	1523.06
394.556	1512.06
394.78	1512.06
395.005	1546.06
395.229	1515.06
395.454	1561.06
395.678	1572.06
395.903	1588.06
396.127	1557.06
396.352	1584.06
396.576	1514.06
396.801	1536.06
397.025	1544.06
397.249	1595.06
397.474	1556.06
397.698	1619.06
397.922	1615.06
398.147	1638.06
398.371	1638.06
398.595	1660.06
398.82	1785.06
399.044	1844.06
399.268	2032.06
399.492	2245.06
399.717	2427.06
399.941	2472.06
400.165	2318.06
400.389	2108.06
400.613	1978.06
400.837	1869.06
401.062	1829.06
401.286	1814.06
401.51	1785.06
401.734	1748.06
401.958	1823.06
402.182	1810.06
402.406	1797.06
402.63	1785.06
402.854	1882.06
403.078	1825.06
403.302	1871.06
403.526	1920.06
403.75	1916.06
403.974	1941.06
404.198	1937.06
404.422	1963.06
404.645	1927.06
404.869	1953.06
405.093	1960.06
405.317	1890.06
405.541	1918.06
405.765	1857.06
405.988	1918.06
406.212	1945.06
406.436	1928.06
406.66	1996.06
406.883	2015.06
407.107	2082.06
407.331	2152.06
407.555	2224.06
407.778	2235.06
408.002	2220.06
408.226	2125.06
408.449	2106.06
408.673	2054.06
408.896	2006.06
409.12	2004.06
409.344	1993.06
409.567	1974.06
409.791	1973.06
410.014	1968.06
410.238	1963.06
410.461	1956.06
410.685	1943.06
410.908	1877.06
411.132	1870.06
411.355	1836.06
411.578	1866.06
411.802	1863.06
412.025	1887.06
412.249	1849.06
412.472	1907.06
412.695	1813.06
412.919	1787.06
413.142	1823.06
413.365	1793.06
413.589	1829.06
413.812	1753.06
414.035	1753.06
414.258	1744.06
414.482	1734.06
414.705	1812.06
414.928	1766.06
415.151	1828.06
415.374	1755.06
415.597	1730.06
415.821	1696.06
416.044	1723.06
416.267	1688.06
416.49	1692.06
416.713	1691.06
416.936	1720.06
417.159	1709.06
417.382	1700.06
417.605	1690.06
417.828	1704.06
418.051	1737.06
418.274	1736.06
418.497	1733.06
418.72	1730.06
418.943	1721.06
419.166	1811.06
419.389	1946.06
419.611	1943.06
419.834	1859.06
420.057	1790.06
420.28	1759.06
420.503	1705.06
420.726	1719.06
420.948	1686.06
421.171	1711.06
421.394	1697.06
421.617	1708.06
421.839	1697.06
422.062	1717.06
422.285	1701.06
422.507	1709.06
422.73	1728.06
422.953	1723.06
423.175	1735.06
423.398	1751.06
423.621	1770.06
423.843	1753.06
424.066	1783.06
424.288	1757.06
424.511	1778.06
424.733	1717.06
424.956	1702.06
425.178	1721.06
425.401	1715.06
425.623	1733.06
425.846	1662.06
426.068	1667.06
426.291	1666.06
426.513	1685.06
426.735	1601.06
426.958	1607.06
427.18	1564.06
427.402	1588.06
427.625	1582.06
427.847	1579.06
428.069	1576.06
428.292	1588.06
428.514	1571.06
428.736	1529.06
428.958	1585.06
429.181	1523.06
429.403	1507.06
429.625	1558.06
429.847	1504.06
430.069	1491.06
430.292	1506.06
430.514	1515.06
430.736	1531.06
430.958	1519.06
431.18	1510.06
431.402	1558.06
431.624	1507.06
431.846	1590.06
432.068	1577.06
432.29	1556.06
432.512	1537.06
432.734	1595.06
432.956	1543.06
433.178	1611.06
433.4	1598.06
433.622	1580.06
433.844	1610.06
434.066	1579.06
434.287	1630.06
434.509	1668.06
434.731	1734.06
434.953	1720.06
435.175	1736.06
435.397	1699.06
435.618	1629.06
435.84	1634.06
436.062	1568.06
436.284	1575.06
436.505	1582.06
436.727	1558.06
436.949	1534.06
437.17	1539.06
437.392	1541.06
437.614	1511.06
437.835	1503.06
438.057	1479.06
438.278	1471.06
438.5	1490.06
438.721	1480.06
438.943	1466.06
439.165	1457.06
439.386	1478.06
439.608	1540.06
439.829	1534.06
440.05	1546.06
440.272	1544.06
440.493	1552.06
440.715	1554.06
440.936	1567.06
441.158	1582.06
441.379	1610.06
441.6	1672.06
441.822	1719.06
442.043	1672.06
442.264	1664.06
442.486	1621.06
442.707	1656.06
442.928	1658.06
443.149	1645.06
443.371	1666.06
443.592	1719.06
443.813	1690.06
444.034	1726.06
444.255	1748.06
444.476	1793.06
444.698	1858.06
444.919	1931.06
445.14	1994.06
445.361	1811.06
445.582	1761.06
445.803	1686.06
446.024	1593.06
446.245	1577.06
446.466	1584.06
446.687	1530.06
446.908	1530.06
447.129	1520.06
447.35	1502.06
447.571	1445.06
447.792	1406.06
448.013	1425.06
448.234	1383.06
448.455	1395.06
448.675	1365.06
448.896	1412.06
449.117	1378.06
449.338	1367.06
449.559	1397.06
449.779	1370.06
450	1386.06
450.221	1328.06
450.442	1374.06
450.662	1411.06
450.883	1374.06
451.104	1368.06
451.324	1419.06
451.545	1370.06
451.766	1388.06
451.986	1360.06
452.207	1359.06
452.428	1381.06
452.648	1361.06
452.869	1348.06
453.089	1342.06
453.31	1343.06
453.53	1323.06
453.751	1326.06
453.971	1330.06
454.192	1319.06
454.412	1289.06
454.633	1305.06
454.853	1312.06
455.073	1274.06
455.294	1302.06
455.514	1316.06
455.734	1268.06
455.955	1258.06
456.175	1282.06
456.395	1317.06
456.616	1272.06
456.836	1273.06
457.056	1315.06
457.276	1300.06
457.497	1326.06
457.717	1302.06
457.937	1313.06
458.157	1360.06
458.377	1383.06
458.598	1403.06
458.818	1433.06
459.038	1414.06
459.258	1459.06
459.478	1551.06
459.698	1539.06
459.918	1616.06
460.138	1646.06
460.358	1707.06
460.578	1747.06
460.798	1775.06
461.018	1736.06
461.238	1809.06
461.458	1698.06
461.678	1724.06
461.898	1792.06
462.118	1797.06
462.338	1878.06
462.558	1906.06
462.777	2007.06
462.997	2102.06
463.217	2222.06
463.437	2235.06
463.657	2123.06
463.876	2066.06
464.096	2077.06
464.316	2000.06
464.536	1990.06
464.755	1951.06
464.975	1918.06
465.195	1811.06
465.414	1690.06
465.634	1640.06
465.854	1590.06
466.073	1541.06
466.293	1524.06
466.512	1450.06
466.732	1479.06
466.951	1476.06
467.171	1424.06
467.391	1470.06
467.61	1460.06
467.829	1412.06
468.049	1434.06
468.268	1412.06
468.488	1386.06
468.707	1379.06
468.927	1395.06
469.146	1390.06
469.365	1413.06
469.585	1407.06
469.804	1458.06
470.023	1468.06
470.243	1468.06
470.462	1487.06
470.681	1524.06
470.901	1521.06
471.12	1486.06
471.339	1436.06
471.558	1458.06
471.777	1436.06
471.997	1396.06
472.216	1403.06
472.435	1417.06
472.654	1362.06
472.873	1364.06
473.092	1396.06
473.311	1377.06
473.53	1355.06
473.749	1370.06
473.968	1396.06
474.187	1360.06
474.406	1373.06
474.625	1399.06
474.844	1410.06
475.063	1393.06
475.282	1403.06
475.501	1423.06
475.72	1440.06
475.939	1401.06
476.158	1463.06
476.377	1441.06
476.596	1429.06
476.814	1463.06
477.033	1510.06
477.252	1523.06
477.471	1526.06
477.69	1550.06
477.908	1597.06
478.127	1623.06
478.346	1640.06
478.564	1691.06
478.783	1717.06
479.002	1674.06
479.22	1735.06
479.439	1763.06
479.658	1747.06
479.876	1746.06
480.095	1743.06
480.313	1809.06
480.532	1872.06
480.751	1825.06
480.969	1778.06
481.188	1760.06
481.406	1724.06
481.624	1693.06
481.843	1697.06
482.061	1663.06
482.28	1668.06
482.498	1645.06
482.717	1662.06
482.935	1685.06
483.153	1705.06
483.372	1678.06
483.59	1711.06
483.808	1728.06
484.027	1688.06
484.245	1738.06
484.463	1734.06
484.681	1813.06
484.9	1808.06
485.118	1820.06
485.336	1832.06
485.554	1826.06
485.772	1861.06
485.99	1831.06
486.209	1850.06
486.427	1814.06
486.645	1841.06
486.863	1840.06
487.081	1848.06
487.299	1815.06
487.517	1822.06
487.735	1764.06
487.953	1778.06
488.171	1814.06
488.389	1808.06
488.607	1787.06
488.825	1731.06
489.043	1784.06
489.261	1744.06
489.479	1761.06
489.696	1772.06
489.914	1760.06
490.132	1762.06
490.35	1725.06
490.568	1714.06
490.786	1719.06
491.003	1718.06
491.221	1748.06
491.439	1731.06
491.657	1741.06
491.874	1756.06
492.092	1752.06
492.31	1758.06
492.527	1741.06
492.745	1685.06
492.963	1774.06
493.18	1753.06
493.398	1757.06
493.615	1760.06
493.833	1750.06
494.05	1774.06
494.268	1773.06
494.485	1730.06
494.703	1778.06
494.92	1780.06
495.138	1758.06
495.355	1796.06
495.573	1798.06
495.79	1810.06
496.008	1812.06
496.225	1815.06
496.442	1880.06
496.66	1826.06
496.877	1877.06
497.094	1883.06
497.312	1939.06
497.529	2002.06
497.746	2028.06
497.963	2099.06
498.181	2189.06
498.398	2197.06
498.615	2430.06
498.832	2460.06
499.049	2685.06
499.267	2823.06
499.484	3041.06
499.701	3362.06
499.918	3642.06
500.135	4002.06
500.352	4385.06
500.569	4538.06
500.786	4510.06
501.003	4260.06
501.22	3980.06
501.437	3601.06
501.654	3256.06
501.871	2974.06
502.088	2780.06
502.305	2623.06
502.522	2486.06
502.739	2391.06
502.956	2294.06
503.172	2180.06
503.389	2126.06
503.606	2070.06
503.823	2011.06
504.04	2002.06
504.256	2013.06
504.473	2015.06
504.69	1984.06
504.907	1969.06
505.123	1876.06
505.34	1803.06
505.557	1744.06
505.773	1707.06
505.99	1667.06
506.207	1621.06
506.423	1619.06
506.64	1567.06
506.856	1573.06
507.073	1540.06
507.289	1526.06
507.506	1550.06
507.722	1518.06
507.939	1516.06
508.155	1515.06
508.372	1531.06
508.588	1472.06
508.805	1433.06
509.021	1467.06
509.238	1411.06
509.454	1424.06
509.67	1392.06
509.887	1426.06
510.103	1395.06
510.319	1395.06
510.536	1396.06
510.752	1386.06
510.968	1374.06
511.184	1338.06
511.401	1382.06
511.617	1376.06
511.833	1377.06
512.049	1368.06
512.265	1394.06
512.481	1379.06
512.698	1384.06
512.914	1361.06
513.13	1387.06
513.346	1355.06
513.562	1367.06
513.778	1354.06
513.994	1372.06
514.21	1380.06
514.426	1367.06
514.642	1426.06
514.858	1422.06
515.074	1441.06
515.29	1438.06
515.506	1428.06
515.721	1482.06
515.937	1464.06
516.153	1520.06
516.369	1572.06
516.585	1568.06
516.801	1585.06
517.016	1664.06
517.232	1726.06
517.448	1751.06
517.664	1815.06
517.879	1814.06
518.095	1808.06
518.311	1784.06
518.527	1750.06
518.742	1674.06
518.958	1656.06
519.173	1577.06
519.389	1554.06
519.605	1500.06
519.82	1480.06
520.036	1506.06
520.251	1427.06
520.467	1388.06
520.682	1386.06
520.898	1376.06
521.113	1346.06
521.329	1393.06
521.544	1355.06
521.76	1332.06
521.975	1328.06
522.19	1331.06
522.406	1316.06
522.621	1300.06
522.836	1295.06
523.052	1298.06
523.267	1289.06
523.482	1275.06
523.698	1285.06
523.913	1269.06
524.128	1297.06
524.343	1258.06
524.559	1274.06
524.774	1257.06
524.989	1237.06
525.204	1282.06
525.419	1239.06
525.634	1246.06
525.849	1242.06
526.064	1258.06
526.28	1239.06
526.495	1237.06
526.71	1215.06
526.925	1214.06
527.14	1218.06
527.355	1219.06
527.57	1238.06
527.785	1223.06
527.999	1206.06
528.214	1233.06
528.429	1225.06
528.644	1217.06
528.859	1248.06
529.074	1227.06
529.289	1219.06
529.503	1213.06
529.718	1242.06
529.933	1207.06
530.148	1193.06
530.363	1189.06
530.577	1183.06
530.792	1228.06
531.007	1208.06
531.221	1218.06
531.436	1206.06
531.651	1206.06
531.865	1225.06
532.08	1246.06
532.295	1216.06
532.509	1196.06
532.724	1197.06
532.938	1218.06
533.153	1186.06
533.367	1225.06
533.582	1223.06
533.796	1171.06
534.011	1187.06
534.225	1217.06
534.44	1186.06
534.654	1211.06
534.868	1158.06
535.083	1188.06
535.297	1155.06
535.511	1188.06
535.726	1135.06
535.94	1149.06
536.154	1151.06
536.369	1135.06
536.583	1123.06
536.797	1115.06
537.011	1136.06
537.225	1123.06
537.44	1117.06
537.654	1130.06
537.868	1140.06
538.082	1094.06
538.296	1108.06
538.51	1113.06
538.724	1100.06
538.938	1072.06
539.153	1097.06
539.367	1085.06
539.581	1088.06
539.795	1089.06
540.009	1099.06
540.222	1087.06
540.436	1050.06
540.65	1106.06
540.864	1081.06
541.078	1084.06
541.292	1081.06
541.506	1082.06
541.72	1080.06
541.934	1114.06
542.147	1066.06
542.361	1076.06
542.575	1073.06
542.789	1039.06
543.002	1040.06
543.216	1054.06
543.43	1035.06
543.644	1033.06
543.857	1051.06
544.071	1027.06
544.285	1076.06
544.498	1093.06
544.712	1064.06
544.925	1062.06
545.139	1081.06
545.352	1085.06
545.566	1081.06
545.779	1104.06
545.993	1092.06
546.206	1097.06
546.42	1103.06
546.633	1108.06
546.847	1048.06
547.06	1076.06
547.274	1063.06
547.487	1062.06
547.7	1090.06
547.914	1097.06
548.127	1104.06
548.34	1107.06
548.554	1090.06
548.767	1097.06
548.98	1102.06
549.193	1092.06
549.407	1094.06
549.62	1096.06
549.833	1116.06
550.046	1116.06
550.259	1101.06
550.473	1081.06
550.686	1086.06
550.899	1107.06
551.112	1068.06
551.325	1074.06
551.538	1099.06
551.751	1047.06
551.964	1086.06
552.177	1099.06
552.39	1094.06
552.603	1090.06
552.816	1113.06
553.029	1183.06
553.242	1174.06
553.455	1190.06
553.667	1174.06
553.88	1167.06
554.093	1079.06
554.306	1136.06
554.519	1118.06
554.732	1058.06
554.944	1006.06
555.157	1046.06
555.37	1004.06
555.583	1014.06
555.795	990.06
556.008	990.06
556.221	958.06
556.433	974.06
556.646	969.06
556.859	947.06
557.071	928.06
557.284	943.06
557.496	927.06
557.709	951.06
557.921	934.06
558.134	933.06
558.346	925.06
558.559	950.06
558.771	905.06
558.984	920.06
559.196	898.06
559.409	909.06
559.621	908.06
559.833	908.06
560.046	890.06
560.258	884.06
560.47	882.06
560.683	878.06
560.895	857.06
561.107	916.06
561.32	874.06
561.532	916.06
561.744	895.06
561.956	896.06
562.168	904.06
562.381	889.06
562.593	895.06
562.805	881.06
563.017	879.06
563.229	903.06
563.441	934.06
563.653	892.06
563.865	914.06
564.077	946.06
564.289	946.06
564.501	954.06
564.713	963.06
564.925	990.06
565.137	978.06
565.349	1003.06
565.561	1035.06
565.773	1067.06
565.985	1108.06
566.197	1171.06
566.408	1206.06
566.62	1300.06
566.832	1378.06
567.044	1384.06
567.255	1425.06
567.467	1450.06
567.679	1472.06
567.891	1544.06
568.102	1567.06
568.314	1519.06
568.526	1426.06
568.737	1290.06
568.949	1195.06
569.161	1110.06
569.372	1062.06
569.584	1016.06
569.795	951.06
570.007	967.06
570.218	972.06
570.43	947.06
570.641	935.06
570.853	913.06
571.064	913.06
571.276	897.06
571.487	860.06
571.698	846.06
571.91	847.06
572.121	826.06
572.333	812.06
572.544	801.06
572.755	779.06
572.966	780.06
573.178	771.06
573.389	754.06
573.6	741.06
573.811	743.06
574.023	735.06
574.234	752.06
574.445	724.06
574.656	726.06
574.867	727.06
575.078	712.06
575.289	723.06
575.501	698.06
575.712	703.06
575.923	704.06
576.134	707.06
576.345	690.06
576.556	699.06
576.767	700.06
576.978	670.06
577.188	686.06
577.399	695.06
577.61	664.06
577.821	687.06
578.032	662.06
578.243	653.06
578.454	651.06
578.665	651.06
578.875	660.06
579.086	628.06
579.297	631.06
579.508	638.06
579.718	653.06
579.929	662.06
580.14	650.06
580.35	650.06
580.561	640.06
580.772	633.06
580.982	619.06
581.193	606.06
581.403	606.06
581.614	631.06
581.825	635.06
582.035	610.06
582.246	614.06
582.456	603.06
582.667	603.06
582.877	587.06
583.087	606.06
583.298	607.06
583.508	626.06
583.719	598.06
583.929	603.06
584.139	615.06
584.35	583.06
584.56	610.06
584.77	615.06
584.981	635.06
585.191	602.06
585.401	586.06
585.611	574.06
585.821	603.06
586.032	582.06
586.242	582.06
586.452	599.06
586.662	605.06
586.872	587.06
587.082	593.06
587.292	590.06
587.502	590.06
587.713	587.06
587.923	580.06
588.133	576.06
588.343	583.06
588.553	586.06
588.762	578.06
588.972	580.06
589.182	603.06
589.392	589.06
589.602	571.06
589.812	573.06
590.022	588.06
590.232	595.06
590.441	586.06
590.651	604.06
590.861	585.06
591.071	591.06
591.281	598.06
591.49	583.06
591.7	625.06
591.91	610.06
592.119	612.06
592.329	630.06
592.539	642.06
592.748	689.06
592.958	696.06
593.167	691.06
593.377	683.06
593.587	700.06
593.796	725.06
594.006	682.06
594.215	730.06
594.424	722.06
594.634	689.06
594.843	692.06
595.053	620.06
595.262	636.06
595.472	596.06
595.681	582.06
595.89	590.06
596.1	591.06
596.309	570.06
596.518	553.06
596.727	569.06
596.937	560.06
597.146	546.06
597.355	536.06
597.564	545.06
597.774	542.06
597.983	516.06
598.192	519.06
598.401	527.06
598.61	500.06
598.819	495.06
599.028	504.06
599.237	484.06
599.446	501.06
599.655	480.06
599.864	503.06
600.073	473.06
600.282	471.06
600.491	487.06
600.7	475.06
600.909	470.06
601.118	492.06
601.327	476.06
601.536	500.06
601.745	476.06
601.953	460.06
602.162	481.06
602.371	458.06
602.58	475.06
602.789	466.06
602.997	445.06
603.206	464.06
603.415	474.06
603.623	455.06
603.832	444.06
604.041	441.06
604.249	444.06
604.458	447.06
604.666	444.06
604.875	430.06
605.084	450.06
605.292	438.06
605.501	459.06
605.709	443.06
605.918	446.06
606.126	423.06
606.334	422.06
606.543	431.06
606.751	410.06
606.96	439.06
607.168	450.06
607.376	438.06
607.585	443.06
607.793	440.06
608.001	424.06
608.21	432.06
608.418	408.06
608.626	429.06
608.834	422.06
609.043	446.06
609.251	441.06
609.459	414.06
609.667	437.06
609.875	432.06
610.083	424.06
610.291	430.06
610.499	426.06
610.707	406.06
610.916	402.06
611.124	424.06
611.332	385.06
611.54	438.06
611.748	388.06
611.955	385.06
612.163	406.06
612.371	438.06
612.579	426.06
612.787	423.06
612.995	399.06
613.203	414.06
613.411	403.06
613.618	417.06
613.826	416.06
614.034	414.06
614.242	417.06
614.449	397.06
614.657	380.06
614.865	391.06
615.072	421.06
615.28	396.06
615.488	383.06
615.695	412.06
615.903	406.06
616.111	394.06
616.318	418.06
616.526	411.06
616.733	403.06
616.941	402.06
617.148	408.06
617.356	397.06
617.563	419.06
617.771	404.06
617.978	409.06
618.185	408.06
618.393	394.06
618.6	409.06
618.807	379.06
619.015	398.06
619.222	386.06
619.429	387.06
619.637	384.06
619.844	397.06
620.051	410.06
620.258	359.06
620.466	362.06
620.673	357.06
620.88	372.06
621.087	378.06
621.294	368.06
621.501	369.06
621.708	382.06
621.915	374.06
622.122	385.06
622.329	375.06
622.536	366.06
622.743	392.06
622.95	369.06
623.157	359.06
623.364	359.06
623.571	356.06
623.778	364.06
623.985	363.06
624.192	374.06
624.399	368.06
624.606	361.06
624.812	338.06
625.019	361.06
625.226	360.06
625.433	354.06
625.639	333.06
625.846	330.06
626.053	334.06
626.259	334.06
626.466	347.06
626.673	337.06
626.879	347.06
627.086	343.06
627.293	353.06
627.499	360.06
627.706	350.06
627.912	336.06
628.119	326.06
628.325	349.06
628.532	341.06
628.738	321.06
628.945	328.06
629.151	340.06
629.357	339.06
629.564	315.06
629.77	307.06
629.976	314.06
630.183	309.06
630.389	320.06
630.595	311.06
630.802	320.06
631.008	332.06
631.214	315.06
631.42	311.06
631.627	324.06
631.833	306.06
632.039	311.06
632.245	313.06
632.451	295.06
632.657	311.06
632.863	305.06
633.069	316.06
633.275	313.06
633.481	302.06
633.688	314.06
633.893	281.06
634.099	306.06
634.305	293.06
634.511	298.06
634.717	285.06
634.923	293.06
635.129	312.06
635.335	309.06
635.541	290.06
635.747	298.06
635.952	278.06
636.158	285.06
636.364	294.06
636.57	299.06
636.775	290.06
636.981	300.06
637.187	294.06
637.392	274.06
637.598	276.06
637.804	281.06
638.009	293.06
638.215	281.06
638.421	289.06
638.626	274.06
638.832	289.06
639.037	283.06
639.243	283.06
639.448	281.06
639.654	286.06
639.859	282.06
640.065	278.06
640.27	283.06
640.475	277.06
640.681	272.06
640.886	269.06
641.091	287.06
641.297	275.06
641.502	274.06
641.707	245.06
641.913	276.06
642.118	261.06
642.323	258.06
642.528	259.06
642.733	279.06
642.939	240.06
643.144	265.06
643.349	259.06
643.554	254.06
643.759	255.06
643.964	265.06
644.169	273.06
644.374	284.06
644.579	287.06
644.784	264.06
644.989	266.06
645.194	267.06
645.399	272.06
645.604	268.06
645.809	258.06
646.014	269.06
646.219	280.06
646.423	254.06
646.628	286.06
646.833	271.06
647.038	275.06
647.243	281.06
647.447	273.06
647.652	286.06
647.857	281.06
648.062	306.06
648.266	294.06
648.471	292.06
648.676	301.06
648.88	298.06
649.085	292.06
649.289	286.06
649.494	288.06
649.698	294.06
649.903	288.06
650.107	285.06
650.312	277.06
650.516	278.06
650.721	282.06
650.925	269.06
651.13	266.06
651.334	259.06
651.539	262.06
651.743	269.06
651.947	262.06
652.152	249.06
652.356	250.06
652.56	252.06
652.764	260.06
652.969	246.06
653.173	278.06
653.377	250.06
653.581	283.06
653.785	267.06
653.99	258.06
654.194	264.06
654.398	265.06
654.602	254.06
654.806	267.06
655.01	276.06
655.214	275.06
655.418	280.06
655.622	288.06
655.826	300.06
656.03	334.06
656.234	351.06
656.438	370.06
656.642	386.06
656.846	359.06
657.049	329.06
657.253	271.06
657.457	261.06
657.661	230.06
657.865	228.06
658.068	197.06
658.272	193.06
658.476	171.06
658.68	182.06
658.883	146.06
659.087	153.06
659.291	143.06
659.494	144.06
659.698	132.06
659.901	128.06
660.105	119.06
660.309	108.06
660.512	122.06
660.716	121.06
660.919	111.06
661.123	118.06
661.326	111.06
661.53	102.06
661.733	105.06
661.936	97.06
662.14	89.06
662.343	89.06
662.546	95.06
662.75	88.06
662.953	98.06
663.156	82.06
663.36	91.06
663.563	79.06
663.766	89.06
663.969	77.06
664.173	83.06
664.376	81.06
664.579	81.06
664.782	84.06
664.985	88.06
665.188	83.06
665.391	81.06
665.594	75.06
665.797	83.06
666	76.06
666.203	86.06
666.406	88.06
666.609	72.06
666.812	73.06
667.015	84.06
667.218	76.06
667.421	94.06
667.624	75.06
667.827	81.06
668.03	83.06
668.232	81.06
668.435	78.06
668.638	85.06
668.841	81.06
669.043	80.06
669.246	86.06
669.449	106.06
669.651	89.06
669.854	96.06
670.057	95.06
670.259	79.06
670.462	74.06
670.665	82.06
670.867	74.06
671.07	91.06
671.272	98.06
671.475	83.06
671.677	86.06
671.88	65.06
672.082	76.06
672.284	82.06
672.487	81.06
672.689	81.06
672.892	74.06
