Data from NiCl2@0.125M.TitratingCurve.Agarose3%dH2O.NegLispCup.LampEnergy10.LIBS07252019_HRD10591_18-29-07-575.txt Node
Date: Thu Jul 25 18:29:07 EDT 2019
User: cochatt
Spectrometer: HR+D1059
Trigger mode: 1
Integration Time (sec): 1.000000E-1
Scans to average: 1
Electric dark correction enabled: true
Nonlinearity correction enabled: false
Boxcar width: 0
XAxis mode: Wavelengths
Number of Pixels in Spectrum: 2048
>>>>>Begin Spectral Data<<<<<
223.165	-15.5
223.4	-15.5
223.635	-15.5
223.869	-15.5
224.104	-17.5
224.338	-7.5
224.573	-7.5
224.808	-9.5
225.042	-10.5
225.277	-8.5
225.511	-4.5
225.746	0.5
225.98	8.5
226.215	0.5
226.449	12.5
226.683	26.5
226.918	29.5
227.152	18.5
227.387	27.5
227.621	44.5
227.856	52.5
228.09	48.5
228.324	46.5
228.559	48.5
228.793	67.5
229.027	91.5
229.262	119.5
229.496	117.5
229.73	122.5
229.964	125.5
230.199	126.5
230.433	126.5
230.667	129.5
230.901	129.5
231.136	136.5
231.37	149.5
231.604	135.5
231.838	127.5
232.072	145.5
232.306	149.5
232.541	141.5
232.775	158.5
233.009	142.5
233.243	145.5
233.477	155.5
233.711	148.5
233.945	140.5
234.179	151.5
234.413	140.5
234.647	163.5
234.881	143.5
235.115	143.5
235.349	161.5
235.583	154.5
235.817	148.5
236.051	167.5
236.285	145.5
236.519	168.5
236.753	151.5
236.987	174.5
237.221	181.5
237.455	173.5
237.689	168.5
237.922	171.5
238.156	153.5
238.39	173.5
238.624	173.5
238.858	184.5
239.091	176.5
239.325	188.5
239.559	172.5
239.793	174.5
240.027	187.5
240.26	170.5
240.494	196.5
240.728	176.5
240.961	192.5
241.195	171.5
241.429	194.5
241.662	189.5
241.896	202.5
242.13	188.5
242.363	188.5
242.597	194.5
242.83	206.5
243.064	200.5
243.298	208.5
243.531	205.5
243.765	217.5
243.998	215.5
244.232	221.5
244.465	197.5
244.699	220.5
244.932	228.5
245.166	236.5
245.399	222.5
245.633	225.5
245.866	220.5
246.099	206.5
246.333	232.5
246.566	233.5
246.8	231.5
247.033	222.5
247.266	249.5
247.5	229.5
247.733	241.5
247.966	218.5
248.2	234.5
248.433	249.5
248.666	259.5
248.899	246.5
249.133	258.5
249.366	257.5
249.599	259.5
249.832	258.5
250.066	260.5
250.299	246.5
250.532	259.5
250.765	260.5
250.998	257.5
251.231	264.5
251.465	275.5
251.698	278.5
251.931	264.5
252.164	290.5
252.397	267.5
252.63	292.5
252.863	291.5
253.096	294.5
253.329	279.5
253.562	278.5
253.795	286.5
254.028	274.5
254.261	300.5
254.494	301.5
254.727	289.5
254.96	276.5
255.193	296.5
255.426	299.5
255.659	278.5
255.892	302.5
256.124	278.5
256.357	285.5
256.59	290.5
256.823	299.5
257.056	317.5
257.289	301.5
257.521	310.5
257.754	308.5
257.987	286.5
258.22	311.5
258.452	304.5
258.685	312.5
258.918	328.5
259.151	317.5
259.383	325.5
259.616	318.5
259.849	326.5
260.081	320.5
260.314	339.5
260.547	325.5
260.779	345.5
261.012	330.5
261.244	318.5
261.477	333.5
261.71	333.5
261.942	332.5
262.175	324.5
262.407	337.5
262.64	329.5
262.872	336.5
263.105	337.5
263.337	354.5
263.57	338.5
263.802	344.5
264.035	344.5
264.267	343.5
264.499	349.5
264.732	355.5
264.964	358.5
265.197	357.5
265.429	363.5
265.661	352.5
265.894	357.5
266.126	364.5
266.358	372.5
266.591	353.5
266.823	373.5
267.055	371.5
267.287	377.5
267.52	380.5
267.752	387.5
267.984	387.5
268.216	358.5
268.448	380.5
268.681	376.5
268.913	374.5
269.145	384.5
269.377	370.5
269.609	364.5
269.841	396.5
270.073	364.5
270.306	376.5
270.538	389.5
270.77	394.5
271.002	390.5
271.234	382.5
271.466	410.5
271.698	392.5
271.93	394.5
272.162	390.5
272.394	380.5
272.626	403.5
272.858	404.5
273.09	406.5
273.322	390.5
273.553	393.5
273.785	405.5
274.017	390.5
274.249	395.5
274.481	421.5
274.713	410.5
274.945	409.5
275.176	412.5
275.408	434.5
275.64	437.5
275.872	434.5
276.104	438.5
276.335	402.5
276.567	436.5
276.799	410.5
277.031	440.5
277.262	419.5
277.494	424.5
277.726	419.5
277.957	414.5
278.189	426.5
278.421	433.5
278.652	461.5
278.884	437.5
279.115	436.5
279.347	445.5
279.579	437.5
279.81	448.5
280.042	442.5
280.273	448.5
280.505	467.5
280.736	449.5
280.968	454.5
281.199	461.5
281.431	455.5
281.662	445.5
281.894	473.5
282.125	471.5
282.356	471.5
282.588	469.5
282.819	484.5
283.051	478.5
283.282	490.5
283.513	481.5
283.745	484.5
283.976	485.5
284.207	469.5
284.439	485.5
284.67	476.5
284.901	490.5
285.132	488.5
285.364	482.5
285.595	518.5
285.826	495.5
286.057	526.5
286.288	491.5
286.52	499.5
286.751	520.5
286.982	485.5
287.213	517.5
287.444	528.5
287.675	518.5
287.906	527.5
288.138	500.5
288.369	512.5
288.6	516.5
288.831	508.5
289.062	512.5
289.293	528.5
289.524	516.5
289.755	506.5
289.986	532.5
290.217	526.5
290.448	552.5
290.679	536.5
290.91	527.5
291.141	535.5
291.371	540.5
291.602	555.5
291.833	533.5
292.064	547.5
292.295	538.5
292.526	546.5
292.757	530.5
292.987	541.5
293.218	573.5
293.449	550.5
293.68	544.5
293.91	541.5
294.141	544.5
294.372	544.5
294.603	537.5
294.833	548.5
295.064	539.5
295.295	561.5
295.525	536.5
295.756	562.5
295.987	549.5
296.217	553.5
296.448	566.5
296.679	573.5
296.909	566.5
297.14	572.5
297.37	583.5
297.601	585.5
297.831	570.5
298.062	573.5
298.292	608.5
298.523	619.5
298.753	597.5
298.984	597.5
299.214	580.5
299.445	588.5
299.675	557.5
299.905	600.5
300.136	589.5
300.366	582.5
300.597	580.5
300.827	582.5
301.057	599.5
301.288	624.5
301.518	600.5
301.748	598.5
301.979	634.5
302.209	609.5
302.439	617.5
302.669	618.5
302.9	618.5
303.13	574.5
303.36	602.5
303.59	594.5
303.82	600.5
304.051	605.5
304.281	587.5
304.511	588.5
304.741	610.5
304.971	598.5
305.201	593.5
305.431	618.5
305.661	604.5
305.891	590.5
306.121	574.5
306.352	589.5
306.582	576.5
306.812	572.5
307.042	586.5
307.272	581.5
307.502	567.5
307.731	570.5
307.961	582.5
308.191	564.5
308.421	587.5
308.651	581.5
308.881	576.5
309.111	588.5
309.341	593.5
309.571	594.5
309.8	605.5
310.03	591.5
310.26	588.5
310.49	595.5
310.72	583.5
310.949	598.5
311.179	609.5
311.409	604.5
311.639	588.5
311.868	619.5
312.098	588.5
312.328	619.5
312.557	609.5
312.787	612.5
313.017	619.5
313.246	630.5
313.476	634.5
313.706	636.5
313.935	655.5
314.165	650.5
314.394	630.5
314.624	641.5
314.853	628.5
315.083	634.5
315.312	649.5
315.542	644.5
315.771	628.5
316.001	634.5
316.23	619.5
316.46	600.5
316.689	590.5
316.919	604.5
317.148	606.5
317.377	635.5
317.607	595.5
317.836	605.5
318.065	611.5
318.295	619.5
318.524	616.5
318.753	606.5
318.983	607.5
319.212	600.5
319.441	595.5
319.67	606.5
319.9	630.5
320.129	638.5
320.358	599.5
320.587	598.5
320.816	632.5
321.046	615.5
321.275	621.5
321.504	597.5
321.733	610.5
321.962	612.5
322.191	613.5
322.42	622.5
322.649	614.5
322.878	624.5
323.108	619.5
323.337	638.5
323.566	605.5
323.795	638.5
324.024	608.5
324.253	632.5
324.482	649.5
324.71	639.5
324.939	643.5
325.168	653.5
325.397	634.5
325.626	632.5
325.855	656.5
326.084	638.5
326.313	704.5
326.542	681.5
326.77	700.5
326.999	676.5
327.228	658.5
327.457	688.5
327.686	692.5
327.914	673.5
328.143	686.5
328.372	677.5
328.6	672.5
328.829	676.5
329.058	653.5
329.287	669.5
329.515	672.5
329.744	637.5
329.972	698.5
330.201	678.5
330.43	696.5
330.658	698.5
330.887	666.5
331.115	688.5
331.344	688.5
331.572	714.5
331.801	740.5
332.03	730.5
332.258	767.5
332.486	791.5
332.715	815.5
332.943	847.5
333.172	870.5
333.4	916.5
333.629	910.5
333.857	946.5
334.085	892.5
334.314	901.5
334.542	860.5
334.771	886.5
334.999	840.5
335.227	838.5
335.455	869.5
335.684	830.5
335.912	829.5
336.14	806.5
336.369	814.5
336.597	820.5
336.825	818.5
337.053	803.5
337.281	777.5
337.51	782.5
337.738	778.5
337.966	758.5
338.194	759.5
338.422	727.5
338.65	716.5
338.878	731.5
339.106	716.5
339.334	716.5
339.562	739.5
339.79	696.5
340.018	698.5
340.246	678.5
340.474	692.5
340.702	688.5
340.93	699.5
341.158	710.5
341.386	704.5
341.614	695.5
341.842	712.5
342.07	711.5
342.298	716.5
342.526	712.5
342.754	682.5
342.981	709.5
343.209	713.5
343.437	743.5
343.665	788.5
343.893	889.5
344.12	901.5
344.348	864.5
344.576	801.5
344.804	747.5
345.031	711.5
345.259	707.5
345.487	711.5
345.714	690.5
345.942	685.5
346.17	694.5
346.397	676.5
346.625	665.5
346.853	685.5
347.08	675.5
347.308	728.5
347.535	702.5
347.763	693.5
347.99	713.5
348.218	682.5
348.445	716.5
348.673	689.5
348.9	688.5
349.128	668.5
349.355	675.5
349.583	678.5
349.81	676.5
350.037	655.5
350.265	662.5
350.492	652.5
350.72	644.5
350.947	640.5
351.174	640.5
351.402	655.5
351.629	634.5
351.856	666.5
352.083	672.5
352.311	658.5
352.538	638.5
352.765	640.5
352.992	652.5
353.22	644.5
353.447	644.5
353.674	640.5
353.901	629.5
354.128	628.5
354.355	626.5
354.583	635.5
354.81	648.5
355.037	663.5
355.264	652.5
355.491	658.5
355.718	656.5
355.945	636.5
356.172	672.5
356.399	632.5
356.626	669.5
356.853	674.5
357.08	670.5
357.307	654.5
357.534	641.5
357.761	668.5
357.988	648.5
358.215	640.5
358.441	649.5
358.668	630.5
358.895	658.5
359.122	641.5
359.349	647.5
359.576	659.5
359.802	641.5
360.029	662.5
360.256	668.5
360.483	646.5
360.709	654.5
360.936	652.5
361.163	657.5
361.39	662.5
361.616	669.5
361.843	642.5
362.07	618.5
362.296	649.5
362.523	648.5
362.749	648.5
362.976	648.5
363.203	641.5
363.429	651.5
363.656	655.5
363.882	638.5
364.109	663.5
364.335	636.5
364.562	638.5
364.788	659.5
365.015	626.5
365.241	636.5
365.468	626.5
365.694	640.5
365.92	647.5
366.147	646.5
366.373	648.5
366.599	643.5
366.826	663.5
367.052	647.5
367.278	640.5
367.505	650.5
367.731	624.5
367.957	660.5
368.184	665.5
368.41	655.5
368.636	660.5
368.862	675.5
369.089	658.5
369.315	669.5
369.541	680.5
369.767	637.5
369.993	677.5
370.219	652.5
370.445	680.5
370.672	707.5
370.898	682.5
371.124	680.5
371.35	714.5
371.576	730.5
371.802	704.5
372.028	700.5
372.254	721.5
372.48	702.5
372.706	700.5
372.932	754.5
373.158	754.5
373.384	748.5
373.61	692.5
373.835	707.5
374.061	713.5
374.287	743.5
374.513	747.5
374.739	769.5
374.965	770.5
375.191	805.5
375.416	798.5
375.642	770.5
375.868	776.5
376.094	742.5
376.319	737.5
376.545	706.5
376.771	719.5
376.997	704.5
377.222	741.5
377.448	742.5
377.674	726.5
377.899	723.5
378.125	712.5
378.35	704.5
378.576	715.5
378.802	694.5
379.027	705.5
379.253	699.5
379.478	724.5
379.704	699.5
379.929	705.5
380.155	733.5
380.38	684.5
380.606	706.5
380.831	694.5
381.057	718.5
381.282	700.5
381.507	729.5
381.733	713.5
381.958	720.5
382.184	717.5
382.409	741.5
382.634	741.5
382.86	736.5
383.085	729.5
383.31	764.5
383.535	781.5
383.761	815.5
383.986	816.5
384.211	818.5
384.436	818.5
384.662	839.5
384.887	850.5
385.112	842.5
385.337	845.5
385.562	886.5
385.787	872.5
386.013	884.5
386.238	860.5
386.463	882.5
386.688	869.5
386.913	872.5
387.138	825.5
387.363	853.5
387.588	833.5
387.813	849.5
388.038	846.5
388.263	836.5
388.488	827.5
388.713	830.5
388.938	856.5
389.163	839.5
389.387	862.5
389.612	800.5
389.837	839.5
390.062	835.5
390.287	813.5
390.512	808.5
390.736	836.5
390.961	846.5
391.186	892.5
391.411	887.5
391.636	923.5
391.86	944.5
392.085	952.5
392.31	932.5
392.534	930.5
392.759	935.5
392.984	908.5
393.208	898.5
393.433	901.5
393.658	895.5
393.882	901.5
394.107	894.5
394.331	903.5
394.556	891.5
394.78	920.5
395.005	912.5
395.229	924.5
395.454	928.5
395.678	956.5
395.903	928.5
396.127	929.5
396.352	937.5
396.576	874.5
396.801	883.5
397.025	918.5
397.249	929.5
397.474	939.5
397.698	920.5
397.922	962.5
398.147	918.5
398.371	948.5
398.595	973.5
398.82	1017.5
399.044	1132.5
399.268	1220.5
399.492	1434.5
399.717	1678.5
399.941	1704.5
400.165	1427.5
400.389	1283.5
400.613	1171.5
400.837	1112.5
401.062	1082.5
401.286	1080.5
401.51	1045.5
401.734	1035.5
401.958	1087.5
402.182	1097.5
402.406	1095.5
402.63	1090.5
402.854	1139.5
403.078	1167.5
403.302	1191.5
403.526	1225.5
403.75	1232.5
403.974	1257.5
404.198	1258.5
404.422	1308.5
404.645	1254.5
404.869	1213.5
405.093	1226.5
405.317	1191.5
405.541	1202.5
405.765	1193.5
405.988	1152.5
406.212	1170.5
406.436	1166.5
406.66	1203.5
406.883	1216.5
407.107	1299.5
407.331	1370.5
407.555	1404.5
407.778	1408.5
408.002	1391.5
408.226	1305.5
408.449	1282.5
408.673	1235.5
408.896	1188.5
409.12	1216.5
409.344	1213.5
409.567	1225.5
409.791	1276.5
410.014	1231.5
410.238	1238.5
410.461	1196.5
410.685	1178.5
410.908	1158.5
411.132	1154.5
411.355	1128.5
411.578	1137.5
411.802	1095.5
412.025	1153.5
412.249	1140.5
412.472	1125.5
412.695	1090.5
412.919	1080.5
413.142	1093.5
413.365	1051.5
413.589	1087.5
413.812	1056.5
414.035	1075.5
414.258	1027.5
414.482	1048.5
414.705	1099.5
414.928	1067.5
415.151	1081.5
415.374	1059.5
415.597	1051.5
415.821	1037.5
416.044	1072.5
416.267	1047.5
416.49	1013.5
416.713	1039.5
416.936	1081.5
417.159	1066.5
417.382	1049.5
417.605	1031.5
417.828	1067.5
418.051	1069.5
418.274	1078.5
418.497	1049.5
418.72	1102.5
418.943	1098.5
419.166	1161.5
419.389	1230.5
419.611	1208.5
419.834	1157.5
420.057	1125.5
420.28	1097.5
420.503	1068.5
420.726	1069.5
420.948	1062.5
421.171	1066.5
421.394	1048.5
421.617	1056.5
421.839	1062.5
422.062	1058.5
422.285	1032.5
422.507	1090.5
422.73	1089.5
422.953	1102.5
423.175	1139.5
423.398	1137.5
423.621	1118.5
423.843	1156.5
424.066	1138.5
424.288	1147.5
424.511	1146.5
424.733	1145.5
424.956	1093.5
425.178	1056.5
425.401	1080.5
425.623	1049.5
425.846	1030.5
426.068	1004.5
426.291	999.5
426.513	1016.5
426.735	985.5
426.958	995.5
427.18	944.5
427.402	966.5
427.625	961.5
427.847	971.5
428.069	945.5
428.292	937.5
428.514	963.5
428.736	936.5
428.958	939.5
429.181	917.5
429.403	907.5
429.625	909.5
429.847	924.5
430.069	925.5
430.292	918.5
430.514	926.5
430.736	922.5
430.958	938.5
431.18	902.5
431.402	950.5
431.624	928.5
431.846	933.5
432.068	961.5
432.29	976.5
432.512	925.5
432.734	966.5
432.956	946.5
433.178	936.5
433.4	949.5
433.622	939.5
433.844	954.5
434.066	963.5
434.287	965.5
434.509	992.5
434.731	1036.5
434.953	1077.5
435.175	1081.5
435.397	1035.5
435.618	1004.5
435.84	967.5
436.062	930.5
436.284	921.5
436.505	938.5
436.727	929.5
436.949	939.5
437.17	932.5
437.392	944.5
437.614	932.5
437.835	883.5
438.057	940.5
438.278	896.5
438.5	912.5
438.721	925.5
438.943	935.5
439.165	901.5
439.386	923.5
439.608	924.5
439.829	932.5
440.05	924.5
440.272	945.5
440.493	955.5
440.715	979.5
440.936	983.5
441.158	1012.5
441.379	1022.5
441.6	1077.5
441.822	1124.5
442.043	1091.5
442.264	1061.5
442.486	1027.5
442.707	1058.5
442.928	1056.5
443.149	1054.5
443.371	1063.5
443.592	1078.5
443.813	1070.5
444.034	1093.5
444.255	1088.5
444.476	1191.5
444.698	1234.5
444.919	1302.5
445.14	1386.5
445.361	1250.5
445.582	1091.5
445.803	1048.5
446.024	1001.5
446.245	1013.5
446.466	980.5
446.687	933.5
446.908	964.5
447.129	978.5
447.35	925.5
447.571	929.5
447.792	892.5
448.013	914.5
448.234	870.5
448.455	869.5
448.675	877.5
448.896	867.5
449.117	884.5
449.338	875.5
449.559	877.5
449.779	866.5
450	865.5
450.221	870.5
450.442	870.5
450.662	891.5
450.883	884.5
451.104	905.5
451.324	893.5
451.545	891.5
451.766	916.5
451.986	896.5
452.207	887.5
452.428	891.5
452.648	873.5
452.869	868.5
453.089	877.5
453.31	869.5
453.53	877.5
453.751	872.5
453.971	854.5
454.192	850.5
454.412	820.5
454.633	838.5
454.853	868.5
455.073	818.5
455.294	834.5
455.514	800.5
455.734	825.5
455.955	813.5
456.175	811.5
456.395	793.5
456.616	797.5
456.836	826.5
457.056	794.5
457.276	811.5
457.497	809.5
457.717	785.5
457.937	800.5
458.157	830.5
458.377	825.5
458.598	842.5
458.818	867.5
459.038	901.5
459.258	896.5
459.478	938.5
459.698	1002.5
459.918	998.5
460.138	1037.5
460.358	1107.5
460.578	1132.5
460.798	1149.5
461.018	1126.5
461.238	1104.5
461.458	1082.5
461.678	1109.5
461.898	1134.5
462.118	1132.5
462.338	1191.5
462.558	1207.5
462.777	1265.5
462.997	1394.5
463.217	1537.5
463.437	1557.5
463.657	1427.5
463.876	1358.5
464.096	1308.5
464.316	1304.5
464.536	1344.5
464.755	1269.5
464.975	1210.5
465.195	1165.5
465.414	1108.5
465.634	966.5
465.854	967.5
466.073	962.5
466.293	938.5
466.512	910.5
466.732	936.5
466.951	911.5
467.171	893.5
467.391	891.5
467.61	892.5
467.829	894.5
468.049	881.5
468.268	875.5
468.488	854.5
468.707	858.5
468.927	849.5
469.146	885.5
469.365	892.5
469.585	885.5
469.804	898.5
470.023	920.5
470.243	929.5
470.462	960.5
470.681	952.5
470.901	980.5
471.12	943.5
471.339	928.5
471.558	910.5
471.777	871.5
471.997	858.5
472.216	894.5
472.435	838.5
472.654	837.5
472.873	847.5
473.092	850.5
473.311	835.5
473.53	860.5
473.749	862.5
473.968	849.5
474.187	829.5
474.406	849.5
474.625	820.5
474.844	849.5
475.063	850.5
475.282	874.5
475.501	847.5
475.72	874.5
475.939	867.5
476.158	871.5
476.377	900.5
476.596	896.5
476.814	880.5
477.033	875.5
477.252	867.5
477.471	935.5
477.69	946.5
477.908	981.5
478.127	1007.5
478.346	1015.5
478.564	1013.5
478.783	1008.5
479.002	1075.5
479.22	1068.5
479.439	1076.5
479.658	1035.5
479.876	1030.5
480.095	1061.5
480.313	1101.5
480.532	1160.5
480.751	1174.5
480.969	1080.5
481.188	1067.5
481.406	1018.5
481.624	992.5
481.843	973.5
482.061	963.5
482.28	930.5
482.498	944.5
482.717	948.5
482.935	963.5
483.153	970.5
483.372	989.5
483.59	992.5
483.808	954.5
484.027	950.5
484.245	972.5
484.463	965.5
484.681	980.5
484.9	954.5
485.118	996.5
485.336	963.5
485.554	1005.5
485.772	1013.5
485.99	1012.5
486.209	1004.5
486.427	1004.5
486.645	1023.5
486.863	1012.5
487.081	1029.5
487.299	972.5
487.517	1008.5
487.735	992.5
487.953	1002.5
488.171	1000.5
488.389	987.5
488.607	982.5
488.825	951.5
489.043	975.5
489.261	991.5
489.479	996.5
489.696	982.5
489.914	1013.5
490.132	1003.5
490.35	1003.5
490.568	985.5
490.786	994.5
491.003	1016.5
491.221	1019.5
491.439	1001.5
491.657	1016.5
491.874	992.5
492.092	1018.5
492.31	1044.5
492.527	1013.5
492.745	1032.5
492.963	1044.5
493.18	1049.5
493.398	1010.5
493.615	1039.5
493.833	1069.5
494.05	1045.5
494.268	1056.5
494.485	1086.5
494.703	1070.5
494.92	1057.5
495.138	1048.5
495.355	1050.5
495.573	1058.5
495.79	1082.5
496.008	1104.5
496.225	1077.5
496.442	1063.5
496.66	1092.5
496.877	1083.5
497.094	1112.5
497.312	1108.5
497.529	1160.5
497.746	1188.5
497.963	1211.5
498.181	1237.5
498.398	1314.5
498.615	1396.5
498.832	1499.5
499.049	1614.5
499.267	1751.5
499.484	1893.5
499.701	2155.5
499.918	2361.5
500.135	2797.5
500.352	3269.5
500.569	3452.5
500.786	3388.5
501.003	3177.5
501.22	2777.5
501.437	2391.5
501.654	2066.5
501.871	1902.5
502.088	1732.5
502.305	1602.5
502.522	1469.5
502.739	1475.5
502.956	1388.5
503.172	1328.5
503.389	1254.5
503.606	1256.5
503.823	1207.5
504.04	1206.5
504.256	1226.5
504.473	1259.5
504.69	1317.5
504.907	1261.5
505.123	1184.5
505.34	1084.5
505.557	1062.5
505.773	1046.5
505.99	993.5
506.207	964.5
506.423	950.5
506.64	963.5
506.856	919.5
507.073	952.5
507.289	949.5
507.506	908.5
507.722	922.5
507.939	905.5
508.155	881.5
508.372	920.5
508.588	899.5
508.805	916.5
509.021	893.5
509.238	884.5
509.454	861.5
509.67	859.5
509.887	877.5
510.103	851.5
510.319	852.5
510.536	901.5
510.752	875.5
510.968	876.5
511.184	851.5
511.401	852.5
511.617	834.5
511.833	845.5
512.049	846.5
512.265	866.5
512.481	855.5
512.698	855.5
512.914	862.5
513.13	835.5
513.346	823.5
513.562	853.5
513.778	840.5
513.994	862.5
514.21	835.5
514.426	875.5
514.642	857.5
514.858	876.5
515.074	887.5
515.29	894.5
515.506	869.5
515.721	889.5
515.937	913.5
516.153	927.5
516.369	964.5
516.585	989.5
516.801	1041.5
517.016	1052.5
517.232	1107.5
517.448	1145.5
517.664	1206.5
517.879	1229.5
518.095	1246.5
518.311	1208.5
518.527	1120.5
518.742	1082.5
518.958	1017.5
519.173	986.5
519.389	971.5
519.605	932.5
519.82	910.5
520.036	910.5
520.251	888.5
520.467	869.5
520.682	867.5
520.898	862.5
521.113	867.5
521.329	858.5
521.544	836.5
521.76	828.5
521.975	841.5
522.19	828.5
522.406	813.5
522.621	825.5
522.836	829.5
523.052	818.5
523.267	819.5
523.482	782.5
523.698	798.5
523.913	809.5
524.128	791.5
524.343	800.5
524.559	778.5
524.774	801.5
524.989	788.5
525.204	789.5
525.419	768.5
525.634	773.5
525.849	770.5
526.064	781.5
526.28	781.5
526.495	763.5
526.71	793.5
526.925	773.5
527.14	766.5
527.355	755.5
527.57	769.5
527.785	784.5
527.999	789.5
528.214	789.5
528.429	790.5
528.644	787.5
528.859	774.5
529.074	775.5
529.289	794.5
529.503	784.5
529.718	766.5
529.933	779.5
530.148	777.5
530.363	792.5
530.577	782.5
530.792	752.5
531.007	776.5
531.221	791.5
531.436	766.5
531.651	768.5
531.865	767.5
532.08	774.5
532.295	791.5
532.509	782.5
532.724	756.5
532.938	773.5
533.153	772.5
533.367	776.5
533.582	782.5
533.796	798.5
534.011	766.5
534.225	775.5
534.44	754.5
534.654	747.5
534.868	735.5
535.083	753.5
535.297	765.5
535.511	761.5
535.726	740.5
535.94	760.5
536.154	731.5
536.369	709.5
536.583	720.5
536.797	715.5
537.011	720.5
537.225	720.5
537.44	717.5
537.654	717.5
537.868	708.5
538.082	701.5
538.296	714.5
538.51	703.5
538.724	681.5
538.938	704.5
539.153	710.5
539.367	712.5
539.581	718.5
539.795	697.5
540.009	684.5
540.222	691.5
540.436	695.5
540.65	692.5
540.864	728.5
541.078	704.5
541.292	709.5
541.506	692.5
541.72	678.5
541.934	667.5
542.147	682.5
542.361	693.5
542.575	693.5
542.789	667.5
543.002	680.5
543.216	725.5
543.43	683.5
543.644	645.5
543.857	692.5
544.071	670.5
544.285	677.5
544.498	692.5
544.712	693.5
544.925	700.5
545.139	732.5
545.352	711.5
545.566	724.5
545.779	714.5
545.993	732.5
546.206	713.5
546.42	712.5
546.633	708.5
546.847	704.5
547.06	727.5
547.274	706.5
547.487	699.5
547.7	688.5
547.914	696.5
548.127	731.5
548.34	712.5
548.554	712.5
548.767	712.5
548.98	711.5
549.193	700.5
549.407	684.5
549.62	740.5
549.833	753.5
550.046	747.5
550.259	707.5
550.473	713.5
550.686	698.5
550.899	684.5
551.112	685.5
551.325	693.5
551.538	707.5
551.751	705.5
551.964	675.5
552.177	725.5
552.39	732.5
552.603	717.5
552.816	756.5
553.029	794.5
553.242	796.5
553.455	783.5
553.667	793.5
553.88	787.5
554.093	778.5
554.306	739.5
554.519	713.5
554.732	704.5
554.944	673.5
555.157	692.5
555.37	683.5
555.583	651.5
555.795	656.5
556.008	616.5
556.221	626.5
556.433	612.5
556.646	615.5
556.859	608.5
557.071	633.5
557.284	625.5
557.496	624.5
557.709	608.5
557.921	610.5
558.134	587.5
558.346	602.5
558.559	608.5
558.771	596.5
558.984	590.5
559.196	589.5
559.409	604.5
559.621	583.5
559.833	570.5
560.046	579.5
560.258	545.5
560.47	591.5
560.683	588.5
560.895	594.5
561.107	589.5
561.32	595.5
561.532	604.5
561.744	578.5
561.956	604.5
562.168	585.5
562.381	580.5
562.593	558.5
562.805	581.5
563.017	598.5
563.229	606.5
563.441	581.5
563.653	579.5
563.865	597.5
564.077	595.5
564.289	607.5
564.501	607.5
564.713	598.5
564.925	634.5
565.137	648.5
565.349	650.5
565.561	638.5
565.773	680.5
565.985	692.5
566.197	747.5
566.408	830.5
566.62	878.5
566.832	946.5
567.044	1001.5
567.255	991.5
567.467	1007.5
567.679	1043.5
567.891	1140.5
568.102	1212.5
568.314	1148.5
568.526	1001.5
568.737	882.5
568.949	836.5
569.161	754.5
569.372	712.5
569.584	639.5
569.795	603.5
570.007	616.5
570.218	601.5
570.43	623.5
570.641	622.5
570.853	599.5
571.064	615.5
571.276	620.5
571.487	612.5
571.698	569.5
571.91	567.5
572.121	555.5
572.333	526.5
572.544	520.5
572.755	507.5
572.966	494.5
573.178	531.5
573.389	506.5
573.6	475.5
573.811	484.5
574.023	513.5
574.234	494.5
574.445	478.5
574.656	504.5
574.867	486.5
575.078	484.5
575.289	497.5
575.501	488.5
575.712	475.5
575.923	479.5
576.134	459.5
576.345	479.5
576.556	466.5
576.767	469.5
576.978	453.5
577.188	465.5
577.399	449.5
577.61	456.5
577.821	429.5
578.032	440.5
578.243	406.5
578.454	437.5
578.665	436.5
578.875	423.5
579.086	440.5
579.297	425.5
579.508	441.5
579.718	411.5
579.929	415.5
580.14	414.5
580.35	418.5
580.561	419.5
580.772	426.5
580.982	418.5
581.193	412.5
581.403	418.5
581.614	416.5
581.825	405.5
582.035	402.5
582.246	417.5
582.456	416.5
582.667	410.5
582.877	420.5
583.087	414.5
583.298	419.5
583.508	415.5
583.719	394.5
583.929	405.5
584.139	419.5
584.35	416.5
584.56	399.5
584.77	403.5
584.981	388.5
585.191	413.5
585.401	386.5
585.611	415.5
585.821	390.5
586.032	401.5
586.242	412.5
586.452	393.5
586.662	396.5
586.872	388.5
587.082	374.5
587.292	385.5
587.502	417.5
587.713	374.5
587.923	380.5
588.133	384.5
588.343	401.5
588.553	406.5
588.762	392.5
588.972	398.5
589.182	404.5
589.392	379.5
589.602	392.5
589.812	392.5
590.022	403.5
590.232	386.5
590.441	410.5
590.651	402.5
590.861	390.5
591.071	398.5
591.281	399.5
591.49	412.5
591.7	414.5
591.91	428.5
592.119	420.5
592.329	422.5
592.539	438.5
592.748	484.5
592.958	504.5
593.167	500.5
593.377	486.5
593.587	516.5
593.796	499.5
594.006	509.5
594.215	546.5
594.424	514.5
594.634	519.5
594.843	472.5
595.053	470.5
595.262	448.5
595.472	433.5
595.681	428.5
595.89	411.5
596.1	389.5
596.309	387.5
596.518	371.5
596.727	389.5
596.937	378.5
597.146	382.5
597.355	377.5
597.564	371.5
597.774	368.5
597.983	353.5
598.192	340.5
598.401	363.5
598.61	351.5
598.819	359.5
599.028	341.5
599.237	336.5
599.446	329.5
599.655	330.5
599.864	355.5
600.073	334.5
600.282	317.5
600.491	332.5
600.7	333.5
600.909	340.5
601.118	310.5
601.327	329.5
601.536	318.5
601.745	321.5
601.953	326.5
602.162	336.5
602.371	310.5
602.58	325.5
602.789	316.5
602.997	326.5
603.206	341.5
603.415	330.5
603.623	320.5
603.832	319.5
604.041	305.5
604.249	302.5
604.458	304.5
604.666	300.5
604.875	303.5
605.084	314.5
605.292	322.5
605.501	316.5
605.709	322.5
605.918	318.5
606.126	295.5
606.334	282.5
606.543	299.5
606.751	310.5
606.96	298.5
607.168	313.5
607.376	301.5
607.585	308.5
607.793	290.5
608.001	316.5
608.21	300.5
608.418	298.5
608.626	300.5
608.834	300.5
609.043	274.5
609.251	299.5
609.459	292.5
609.667	302.5
609.875	284.5
610.083	303.5
610.291	296.5
610.499	300.5
610.707	303.5
610.916	308.5
611.124	293.5
611.332	288.5
611.54	279.5
611.748	294.5
611.955	280.5
612.163	288.5
612.371	296.5
612.579	290.5
612.787	295.5
612.995	292.5
613.203	286.5
613.411	279.5
613.618	291.5
613.826	290.5
614.034	272.5
614.242	281.5
614.449	291.5
614.657	306.5
614.865	274.5
615.072	297.5
615.28	287.5
615.488	292.5
615.695	264.5
615.903	281.5
616.111	283.5
616.318	268.5
616.526	297.5
616.733	280.5
616.941	281.5
617.148	309.5
617.356	277.5
617.563	278.5
617.771	285.5
617.978	296.5
618.185	294.5
618.393	279.5
618.6	292.5
618.807	291.5
619.015	294.5
619.222	283.5
619.429	274.5
619.637	272.5
619.844	284.5
620.051	266.5
620.258	260.5
620.466	267.5
620.673	281.5
620.88	261.5
621.087	275.5
621.294	264.5
621.501	254.5
621.708	267.5
621.915	261.5
622.122	273.5
622.329	275.5
622.536	257.5
622.743	250.5
622.95	263.5
623.157	256.5
623.364	266.5
623.571	239.5
623.778	263.5
623.985	252.5
624.192	252.5
624.399	252.5
624.606	256.5
624.812	248.5
625.019	260.5
625.226	246.5
625.433	234.5
625.639	257.5
625.846	241.5
626.053	266.5
626.259	241.5
626.466	231.5
626.673	242.5
626.879	248.5
627.086	255.5
627.293	229.5
627.499	224.5
627.706	242.5
627.912	229.5
628.119	243.5
628.325	256.5
628.532	245.5
628.738	233.5
628.945	218.5
629.151	229.5
629.357	223.5
629.564	222.5
629.77	227.5
629.976	207.5
630.183	227.5
630.389	225.5
630.595	232.5
630.802	244.5
631.008	233.5
631.214	221.5
631.42	232.5
631.627	186.5
631.833	224.5
632.039	225.5
632.245	204.5
632.451	221.5
632.657	229.5
632.863	233.5
633.069	217.5
633.275	218.5
633.481	217.5
633.688	208.5
633.893	201.5
634.099	214.5
634.305	209.5
634.511	212.5
634.717	219.5
634.923	205.5
635.129	212.5
635.335	209.5
635.541	182.5
635.747	214.5
635.952	218.5
636.158	203.5
636.364	196.5
636.57	198.5
636.775	203.5
636.981	216.5
637.187	189.5
637.392	200.5
637.598	204.5
637.804	210.5
638.009	202.5
638.215	211.5
638.421	205.5
638.626	188.5
638.832	207.5
639.037	200.5
639.243	199.5
639.448	209.5
639.654	199.5
639.859	179.5
640.065	194.5
640.27	198.5
640.475	185.5
640.681	200.5
640.886	202.5
641.091	183.5
641.297	196.5
641.502	196.5
641.707	193.5
641.913	192.5
642.118	205.5
642.323	206.5
642.528	186.5
642.733	191.5
642.939	178.5
643.144	186.5
643.349	192.5
643.554	188.5
643.759	182.5
643.964	188.5
644.169	188.5
644.374	203.5
644.579	173.5
644.784	188.5
644.989	201.5
645.194	180.5
645.399	188.5
645.604	187.5
645.809	173.5
646.014	194.5
646.219	188.5
646.423	181.5
646.628	194.5
646.833	197.5
647.038	196.5
647.243	181.5
647.447	171.5
647.652	180.5
647.857	204.5
648.062	200.5
648.266	214.5
648.471	191.5
648.676	204.5
648.88	195.5
649.085	205.5
649.289	182.5
649.494	189.5
649.698	174.5
649.903	181.5
650.107	183.5
650.312	176.5
650.516	179.5
650.721	180.5
650.925	168.5
651.13	160.5
651.334	142.5
651.539	171.5
651.743	176.5
651.947	176.5
652.152	166.5
652.356	160.5
652.56	165.5
652.764	158.5
652.969	148.5
653.173	141.5
653.377	156.5
653.581	148.5
653.785	145.5
653.99	134.5
654.194	161.5
654.398	144.5
654.602	143.5
654.806	140.5
655.01	136.5
655.214	133.5
655.418	130.5
655.622	136.5
655.826	137.5
656.03	134.5
656.234	132.5
656.438	136.5
656.642	151.5
656.846	136.5
657.049	127.5
657.253	115.5
657.457	125.5
657.661	127.5
657.865	123.5
658.068	123.5
658.272	92.5
658.476	123.5
658.68	107.5
658.883	97.5
659.087	118.5
659.291	107.5
659.494	94.5
659.698	96.5
659.901	95.5
660.105	104.5
660.309	104.5
660.512	96.5
660.716	102.5
660.919	86.5
661.123	81.5
661.326	83.5
661.53	82.5
661.733	80.5
661.936	105.5
662.14	97.5
662.343	92.5
662.546	92.5
662.75	90.5
662.953	97.5
663.156	79.5
663.36	91.5
663.563	103.5
663.766	91.5
663.969	88.5
664.173	75.5
664.376	75.5
664.579	79.5
664.782	74.5
664.985	78.5
665.188	81.5
665.391	77.5
665.594	83.5
665.797	69.5
666	71.5
666.203	92.5
666.406	78.5
666.609	82.5
666.812	83.5
667.015	89.5
667.218	90.5
667.421	78.5
667.624	70.5
667.827	73.5
668.03	89.5
668.232	80.5
668.435	75.5
668.638	87.5
668.841	100.5
669.043	71.5
669.246	77.5
669.449	76.5
669.651	79.5
669.854	82.5
670.057	80.5
670.259	70.5
670.462	76.5
670.665	81.5
670.867	87.5
671.07	104.5
671.272	85.5
671.475	78.5
671.677	76.5
671.88	72.5
672.082	90.5
672.284	88.5
672.487	77.5
672.689	86.5
672.892	82.5
