Data from NiCl2@0.5M.TitratingCurve.Agarose3%dH2O.NegLispCup.LampEnergy10.LIBS07252019_HRD10591_18-18-47-571.txt Node
Date: Thu Jul 25 18:18:47 EDT 2019
User: cochatt
Spectrometer: HR+D1059
Trigger mode: 1
Integration Time (sec): 1.000000E-1
Scans to average: 1
Electric dark correction enabled: true
Nonlinearity correction enabled: false
Boxcar width: 0
XAxis mode: Wavelengths
Number of Pixels in Spectrum: 2048
>>>>>Begin Spectral Data<<<<<
223.165	-19.06
223.4	-19.06
223.635	-19.06
223.869	-18.06
224.104	-22.06
224.338	-23.06
224.573	-20.06
224.808	-5.06
225.042	-4.06
225.277	-5.06
225.511	0.94
225.746	2.94
225.98	11.94
226.215	17.94
226.449	21.94
226.683	12.94
226.918	6.94
227.152	40.94
227.387	34.94
227.621	28.94
227.856	45.94
228.09	55.94
228.324	56.94
228.559	58.94
228.793	71.94
229.027	144.94
229.262	156.94
229.496	152.94
229.73	153.94
229.964	166.94
230.199	163.94
230.433	190.94
230.667	170.94
230.901	199.94
231.136	190.94
231.37	200.94
231.604	204.94
231.838	209.94
232.072	197.94
232.306	210.94
232.541	196.94
232.775	204.94
233.009	210.94
233.243	201.94
233.477	188.94
233.711	205.94
233.945	216.94
234.179	210.94
234.413	203.94
234.647	215.94
234.881	205.94
235.115	216.94
235.349	227.94
235.583	222.94
235.817	205.94
236.051	206.94
236.285	228.94
236.519	221.94
236.753	213.94
236.987	224.94
237.221	204.94
237.455	223.94
237.689	235.94
237.922	242.94
238.156	244.94
238.39	227.94
238.624	244.94
238.858	238.94
239.091	251.94
239.325	268.94
239.559	258.94
239.793	264.94
240.027	271.94
240.26	271.94
240.494	269.94
240.728	264.94
240.961	271.94
241.195	267.94
241.429	281.94
241.662	310.94
241.896	298.94
242.13	292.94
242.363	308.94
242.597	301.94
242.83	297.94
243.064	300.94
243.298	295.94
243.531	296.94
243.765	311.94
243.998	330.94
244.232	294.94
244.465	311.94
244.699	306.94
244.932	335.94
245.166	331.94
245.399	343.94
245.633	335.94
245.866	333.94
246.099	317.94
246.333	323.94
246.566	347.94
246.8	327.94
247.033	336.94
247.266	354.94
247.5	329.94
247.733	347.94
247.966	360.94
248.2	362.94
248.433	366.94
248.666	363.94
248.899	373.94
249.133	375.94
249.366	370.94
249.599	378.94
249.832	368.94
250.066	359.94
250.299	376.94
250.532	396.94
250.765	394.94
250.998	407.94
251.231	408.94
251.465	414.94
251.698	395.94
251.931	404.94
252.164	384.94
252.397	394.94
252.63	423.94
252.863	429.94
253.096	422.94
253.329	434.94
253.562	423.94
253.795	429.94
254.028	428.94
254.261	428.94
254.494	428.94
254.727	438.94
254.96	416.94
255.193	440.94
255.426	445.94
255.659	455.94
255.892	462.94
256.124	432.94
256.357	447.94
256.59	469.94
256.823	457.94
257.056	454.94
257.289	456.94
257.521	469.94
257.754	472.94
257.987	483.94
258.22	483.94
258.452	486.94
258.685	481.94
258.918	503.94
259.151	494.94
259.383	502.94
259.616	500.94
259.849	492.94
260.081	495.94
260.314	498.94
260.547	500.94
260.779	501.94
261.012	507.94
261.244	498.94
261.477	514.94
261.71	528.94
261.942	490.94
262.175	537.94
262.407	544.94
262.64	525.94
262.872	538.94
263.105	534.94
263.337	519.94
263.57	513.94
263.802	533.94
264.035	551.94
264.267	551.94
264.499	556.94
264.732	529.94
264.964	574.94
265.197	574.94
265.429	552.94
265.661	570.94
265.894	552.94
266.126	573.94
266.358	563.94
266.591	580.94
266.823	577.94
267.055	558.94
267.287	594.94
267.52	576.94
267.752	565.94
267.984	586.94
268.216	598.94
268.448	610.94
268.681	626.94
268.913	592.94
269.145	589.94
269.377	594.94
269.609	594.94
269.841	591.94
270.073	582.94
270.306	616.94
270.538	605.94
270.77	612.94
271.002	647.94
271.234	632.94
271.466	621.94
271.698	613.94
271.93	653.94
272.162	630.94
272.394	652.94
272.626	613.94
272.858	638.94
273.09	647.94
273.322	645.94
273.553	664.94
273.785	650.94
274.017	662.94
274.249	683.94
274.481	675.94
274.713	668.94
274.945	653.94
275.176	667.94
275.408	667.94
275.64	676.94
275.872	697.94
276.104	682.94
276.335	694.94
276.567	692.94
276.799	678.94
277.031	718.94
277.262	704.94
277.494	688.94
277.726	698.94
277.957	706.94
278.189	711.94
278.421	717.94
278.652	731.94
278.884	731.94
279.115	701.94
279.347	710.94
279.579	739.94
279.81	736.94
280.042	759.94
280.273	750.94
280.505	747.94
280.736	747.94
280.968	742.94
281.199	780.94
281.431	759.94
281.662	763.94
281.894	781.94
282.125	764.94
282.356	778.94
282.588	778.94
282.819	781.94
283.051	771.94
283.282	784.94
283.513	811.94
283.745	790.94
283.976	797.94
284.207	793.94
284.439	780.94
284.67	824.94
284.901	824.94
285.132	811.94
285.364	828.94
285.595	830.94
285.826	839.94
286.057	815.94
286.288	814.94
286.52	821.94
286.751	830.94
286.982	826.94
287.213	832.94
287.444	841.94
287.675	856.94
287.906	855.94
288.138	836.94
288.369	840.94
288.6	846.94
288.831	854.94
289.062	889.94
289.293	842.94
289.524	861.94
289.755	859.94
289.986	842.94
290.217	866.94
290.448	880.94
290.679	892.94
290.91	896.94
291.141	871.94
291.371	875.94
291.602	884.94
291.833	905.94
292.064	854.94
292.295	882.94
292.526	869.94
292.757	863.94
292.987	877.94
293.218	869.94
293.449	907.94
293.68	894.94
293.91	891.94
294.141	870.94
294.372	899.94
294.603	887.94
294.833	898.94
295.064	895.94
295.295	911.94
295.525	890.94
295.756	897.94
295.987	886.94
296.217	900.94
296.448	920.94
296.679	918.94
296.909	910.94
297.14	929.94
297.37	933.94
297.601	942.94
297.831	934.94
298.062	942.94
298.292	935.94
298.523	969.94
298.753	982.94
298.984	951.94
299.214	978.94
299.445	985.94
299.675	988.94
299.905	993.94
300.136	972.94
300.366	1004.94
300.597	1029.94
300.827	1006.94
301.057	1002.94
301.288	1023.94
301.518	1052.94
301.748	1030.94
301.979	1007.94
302.209	993.94
302.439	1022.94
302.669	1009.94
302.9	995.94
303.13	995.94
303.36	1012.94
303.59	1028.94
303.82	1012.94
304.051	1063.94
304.281	1018.94
304.511	1002.94
304.741	1028.94
304.971	1040.94
305.201	1067.94
305.431	1046.94
305.661	1062.94
305.891	1052.94
306.121	1014.94
306.352	1034.94
306.582	1005.94
306.812	998.94
307.042	1019.94
307.272	984.94
307.502	990.94
307.731	975.94
307.961	981.94
308.191	1029.94
308.421	1027.94
308.651	1039.94
308.881	987.94
309.111	986.94
309.341	1026.94
309.571	1028.94
309.8	1031.94
310.03	1056.94
310.26	1087.94
310.49	1124.94
310.72	1067.94
310.949	1033.94
311.179	997.94
311.409	1008.94
311.639	1017.94
311.868	1046.94
312.098	1060.94
312.328	1044.94
312.557	1055.94
312.787	1037.94
313.017	1047.94
313.246	1069.94
313.476	1117.94
313.706	1086.94
313.935	1117.94
314.165	1094.94
314.394	1064.94
314.624	1096.94
314.853	1058.94
315.083	1060.94
315.312	1085.94
315.542	1082.94
315.771	1110.94
316.001	1064.94
316.23	1072.94
316.46	1098.94
316.689	1087.94
316.919	1077.94
317.148	1090.94
317.377	1076.94
317.607	1076.94
317.836	1062.94
318.065	1063.94
318.295	1061.94
318.524	1066.94
318.753	1061.94
318.983	1075.94
319.212	1070.94
319.441	1087.94
319.67	1062.94
319.9	1074.94
320.129	1070.94
320.358	1058.94
320.587	1059.94
320.816	1090.94
321.046	1087.94
321.275	1071.94
321.504	1093.94
321.733	1069.94
321.962	1098.94
322.191	1093.94
322.42	1094.94
322.649	1109.94
322.878	1104.94
323.108	1118.94
323.337	1143.94
323.566	1158.94
323.795	1144.94
324.024	1138.94
324.253	1138.94
324.482	1134.94
324.71	1122.94
324.939	1126.94
325.168	1127.94
325.397	1131.94
325.626	1126.94
325.855	1126.94
326.084	1171.94
326.313	1184.94
326.542	1172.94
326.77	1190.94
326.999	1165.94
327.228	1175.94
327.457	1187.94
327.686	1132.94
327.914	1174.94
328.143	1157.94
328.372	1158.94
328.6	1178.94
328.829	1220.94
329.058	1160.94
329.287	1174.94
329.515	1211.94
329.744	1208.94
329.972	1191.94
330.201	1207.94
330.43	1195.94
330.658	1204.94
330.887	1218.94
331.115	1227.94
331.344	1249.94
331.572	1259.94
331.801	1300.94
332.03	1345.94
332.258	1332.94
332.486	1378.94
332.715	1356.94
332.943	1419.94
333.172	1437.94
333.4	1498.94
333.629	1498.94
333.857	1534.94
334.085	1524.94
334.314	1524.94
334.542	1507.94
334.771	1493.94
334.999	1472.94
335.227	1488.94
335.455	1458.94
335.684	1454.94
335.912	1453.94
336.14	1464.94
336.369	1492.94
336.597	1495.94
336.825	1501.94
337.053	1474.94
337.281	1433.94
337.51	1382.94
337.738	1388.94
337.966	1373.94
338.194	1410.94
338.422	1370.94
338.65	1332.94
338.878	1291.94
339.106	1347.94
339.334	1400.94
339.562	1377.94
339.79	1254.94
340.018	1227.94
340.246	1211.94
340.474	1223.94
340.702	1277.94
340.93	1260.94
341.158	1258.94
341.386	1286.94
341.614	1400.94
341.842	1352.94
342.07	1232.94
342.298	1220.94
342.526	1268.94
342.754	1263.94
342.981	1238.94
343.209	1300.94
343.437	1350.94
343.665	1418.94
343.893	1462.94
344.12	1537.94
344.348	1448.94
344.576	1424.94
344.804	1412.94
345.031	1372.94
345.259	1298.94
345.487	1282.94
345.714	1331.94
345.942	1319.94
346.17	1368.94
346.397	1346.94
346.625	1216.94
346.853	1172.94
347.08	1197.94
347.308	1232.94
347.535	1251.94
347.763	1221.94
347.99	1158.94
348.218	1173.94
348.445	1181.94
348.673	1207.94
348.9	1200.94
349.128	1206.94
349.355	1261.94
349.583	1240.94
349.81	1176.94
350.037	1144.94
350.265	1175.94
350.492	1160.94
350.72	1147.94
350.947	1128.94
351.174	1228.94
351.402	1233.94
351.629	1268.94
351.856	1258.94
352.083	1164.94
352.311	1183.94
352.538	1252.94
352.765	1266.94
352.992	1162.94
353.22	1132.94
353.447	1107.94
353.674	1139.94
353.901	1087.94
354.128	1108.94
354.355	1087.94
354.583	1122.94
354.81	1140.94
355.037	1139.94
355.264	1140.94
355.491	1116.94
355.718	1122.94
355.945	1122.94
356.172	1116.94
356.399	1144.94
356.626	1181.94
356.853	1235.94
357.08	1160.94
357.307	1142.94
357.534	1142.94
357.761	1118.94
357.988	1114.94
358.215	1125.94
358.441	1128.94
358.668	1124.94
358.895	1107.94
359.122	1118.94
359.349	1140.94
359.576	1143.94
359.802	1160.94
360.029	1167.94
360.256	1175.94
360.483	1106.94
360.709	1116.94
360.936	1174.94
361.163	1174.94
361.39	1196.94
361.616	1173.94
361.843	1202.94
362.07	1269.94
362.296	1250.94
362.523	1156.94
362.749	1129.94
362.976	1144.94
363.203	1114.94
363.429	1092.94
363.656	1095.94
363.882	1114.94
364.109	1101.94
364.335	1127.94
364.562	1112.94
364.788	1082.94
365.015	1124.94
365.241	1098.94
365.468	1120.94
365.694	1065.94
365.92	1107.94
366.147	1126.94
366.373	1112.94
366.599	1108.94
366.826	1107.94
367.052	1120.94
367.278	1132.94
367.505	1101.94
367.731	1131.94
367.957	1101.94
368.184	1100.94
368.41	1130.94
368.636	1097.94
368.862	1123.94
369.089	1123.94
369.315	1156.94
369.541	1142.94
369.767	1120.94
369.993	1151.94
370.219	1144.94
370.445	1135.94
370.672	1178.94
370.898	1165.94
371.124	1172.94
371.35	1191.94
371.576	1167.94
371.802	1190.94
372.028	1183.94
372.254	1186.94
372.48	1179.94
372.706	1209.94
372.932	1232.94
373.158	1185.94
373.384	1197.94
373.61	1227.94
373.835	1188.94
374.061	1203.94
374.287	1198.94
374.513	1219.94
374.739	1250.94
374.965	1274.94
375.191	1299.94
375.416	1282.94
375.642	1287.94
375.868	1259.94
376.094	1257.94
376.319	1237.94
376.545	1216.94
376.771	1195.94
376.997	1170.94
377.222	1200.94
377.448	1190.94
377.674	1220.94
377.899	1198.94
378.125	1169.94
378.35	1178.94
378.576	1181.94
378.802	1168.94
379.027	1168.94
379.253	1174.94
379.478	1164.94
379.704	1167.94
379.929	1166.94
380.155	1176.94
380.38	1188.94
380.606	1180.94
380.831	1171.94
381.057	1204.94
381.282	1158.94
381.507	1192.94
381.733	1194.94
381.958	1202.94
382.184	1177.94
382.409	1220.94
382.634	1227.94
382.86	1223.94
383.085	1254.94
383.31	1246.94
383.535	1271.94
383.761	1301.94
383.986	1306.94
384.211	1335.94
384.436	1357.94
384.662	1352.94
384.887	1396.94
385.112	1373.94
385.337	1425.94
385.562	1424.94
385.787	1419.94
386.013	1500.94
386.238	1415.94
386.463	1433.94
386.688	1417.94
386.913	1370.94
387.138	1420.94
387.363	1395.94
387.588	1376.94
387.813	1393.94
388.038	1428.94
388.263	1401.94
388.488	1403.94
388.713	1416.94
388.938	1413.94
389.163	1396.94
389.387	1389.94
389.612	1378.94
389.837	1398.94
390.062	1369.94
390.287	1394.94
390.512	1374.94
390.736	1422.94
390.961	1438.94
391.186	1434.94
391.411	1471.94
391.636	1501.94
391.86	1552.94
392.085	1567.94
392.31	1610.94
392.534	1542.94
392.759	1510.94
392.984	1507.94
393.208	1464.94
393.433	1500.94
393.658	1486.94
393.882	1480.94
394.107	1476.94
394.331	1503.94
394.556	1502.94
394.78	1533.94
395.005	1517.94
395.229	1503.94
395.454	1552.94
395.678	1560.94
395.903	1581.94
396.127	1570.94
396.352	1526.94
396.576	1470.94
396.801	1490.94
397.025	1524.94
397.249	1544.94
397.474	1582.94
397.698	1609.94
397.922	1600.94
398.147	1583.94
398.371	1657.94
398.595	1674.94
398.82	1775.94
399.044	1886.94
399.268	2007.94
399.492	2307.94
399.717	2508.94
399.941	2503.94
400.165	2320.94
400.389	2145.94
400.613	1976.94
400.837	1864.94
401.062	1826.94
401.286	1778.94
401.51	1774.94
401.734	1757.94
401.958	1784.94
402.182	1804.94
402.406	1806.94
402.63	1849.94
402.854	1860.94
403.078	1859.94
403.302	1906.94
403.526	1945.94
403.75	1961.94
403.974	1965.94
404.198	1965.94
404.422	1980.94
404.645	1967.94
404.869	1970.94
405.093	1944.94
405.317	1930.94
405.541	1980.94
405.765	1954.94
405.988	1922.94
406.212	1945.94
406.436	1945.94
406.66	1976.94
406.883	1999.94
407.107	2093.94
407.331	2182.94
407.555	2274.94
407.778	2234.94
408.002	2167.94
408.226	2141.94
408.449	2090.94
408.673	2000.94
408.896	1964.94
409.12	1978.94
409.344	2023.94
409.567	1973.94
409.791	1982.94
410.014	1949.94
410.238	1865.94
410.461	1917.94
410.685	1906.94
410.908	1877.94
411.132	1911.94
411.355	1846.94
411.578	1812.94
411.802	1804.94
412.025	1839.94
412.249	1883.94
412.472	1866.94
412.695	1825.94
412.919	1799.94
413.142	1781.94
413.365	1728.94
413.589	1784.94
413.812	1773.94
414.035	1727.94
414.258	1764.94
414.482	1808.94
414.705	1795.94
414.928	1800.94
415.151	1790.94
415.374	1766.94
415.597	1766.94
415.821	1758.94
416.044	1707.94
416.267	1728.94
416.49	1704.94
416.713	1696.94
416.936	1730.94
417.159	1720.94
417.382	1729.94
417.605	1721.94
417.828	1734.94
418.051	1743.94
418.274	1739.94
418.497	1722.94
418.72	1772.94
418.943	1778.94
419.166	1921.94
419.389	1952.94
419.611	1941.94
419.834	1903.94
420.057	1861.94
420.28	1802.94
420.503	1722.94
420.726	1716.94
420.948	1720.94
421.171	1734.94
421.394	1760.94
421.617	1730.94
421.839	1782.94
422.062	1780.94
422.285	1703.94
422.507	1780.94
422.73	1762.94
422.953	1782.94
423.175	1796.94
423.398	1816.94
423.621	1853.94
423.843	1811.94
424.066	1822.94
424.288	1834.94
424.511	1813.94
424.733	1808.94
424.956	1798.94
425.178	1772.94
425.401	1768.94
425.623	1748.94
425.846	1670.94
426.068	1693.94
426.291	1710.94
426.513	1696.94
426.735	1667.94
426.958	1636.94
427.18	1633.94
427.402	1635.94
427.625	1637.94
427.847	1607.94
428.069	1579.94
428.292	1580.94
428.514	1582.94
428.736	1552.94
428.958	1579.94
429.181	1584.94
429.403	1566.94
429.625	1557.94
429.847	1520.94
430.069	1539.94
430.292	1558.94
430.514	1546.94
430.736	1555.94
430.958	1546.94
431.18	1575.94
431.402	1554.94
431.624	1579.94
431.846	1596.94
432.068	1606.94
432.29	1652.94
432.512	1538.94
432.734	1612.94
432.956	1569.94
433.178	1608.94
433.4	1620.94
433.622	1584.94
433.844	1616.94
434.066	1621.94
434.287	1667.94
434.509	1720.94
434.731	1768.94
434.953	1806.94
435.175	1800.94
435.397	1756.94
435.618	1677.94
435.84	1676.94
436.062	1637.94
436.284	1583.94
436.505	1590.94
436.727	1596.94
436.949	1605.94
437.17	1580.94
437.392	1577.94
437.614	1567.94
437.835	1501.94
438.057	1518.94
438.278	1511.94
438.5	1535.94
438.721	1532.94
438.943	1552.94
439.165	1529.94
439.386	1545.94
439.608	1559.94
439.829	1620.94
440.05	1592.94
440.272	1592.94
440.493	1638.94
440.715	1629.94
440.936	1617.94
441.158	1682.94
441.379	1728.94
441.6	1767.94
441.822	1767.94
442.043	1797.94
442.264	1750.94
442.486	1691.94
442.707	1733.94
442.928	1702.94
443.149	1700.94
443.371	1715.94
443.592	1786.94
443.813	1826.94
444.034	1800.94
444.255	1843.94
444.476	1865.94
444.698	2032.94
444.919	2046.94
445.14	2122.94
445.361	1920.94
445.582	1852.94
445.803	1750.94
446.024	1707.94
446.245	1630.94
446.466	1639.94
446.687	1624.94
446.908	1584.94
447.129	1580.94
447.35	1567.94
447.571	1546.94
447.792	1522.94
448.013	1498.94
448.234	1459.94
448.455	1408.94
448.675	1486.94
448.896	1477.94
449.117	1452.94
449.338	1430.94
449.559	1439.94
449.779	1426.94
450	1416.94
450.221	1454.94
450.442	1454.94
450.662	1485.94
450.883	1490.94
451.104	1480.94
451.324	1464.94
451.545	1475.94
451.766	1472.94
451.986	1459.94
452.207	1448.94
452.428	1428.94
452.648	1410.94
452.869	1402.94
453.089	1395.94
453.31	1421.94
453.53	1367.94
453.751	1382.94
453.971	1404.94
454.192	1405.94
454.412	1381.94
454.633	1385.94
454.853	1401.94
455.073	1387.94
455.294	1367.94
455.514	1351.94
455.734	1360.94
455.955	1362.94
456.175	1346.94
456.395	1345.94
456.616	1337.94
456.836	1384.94
457.056	1374.94
457.276	1339.94
457.497	1359.94
457.717	1357.94
457.937	1368.94
458.157	1405.94
458.377	1380.94
458.598	1445.94
458.818	1488.94
459.038	1501.94
459.258	1569.94
459.478	1614.94
459.698	1664.94
459.918	1714.94
460.138	1763.94
460.358	1819.94
460.578	1850.94
460.798	1886.94
461.018	1918.94
461.238	1886.94
461.458	1887.94
461.678	1839.94
461.898	1893.94
462.118	1917.94
462.338	1993.94
462.558	2074.94
462.777	2118.94
462.997	2287.94
463.217	2390.94
463.437	2386.94
463.657	2271.94
463.876	2208.94
464.096	2191.94
464.316	2180.94
464.536	2143.94
464.755	2114.94
464.975	2043.94
465.195	1925.94
465.414	1848.94
465.634	1726.94
465.854	1690.94
466.073	1670.94
466.293	1629.94
466.512	1599.94
466.732	1617.94
466.951	1532.94
467.171	1542.94
467.391	1548.94
467.61	1562.94
467.829	1492.94
468.049	1554.94
468.268	1482.94
468.488	1487.94
468.707	1483.94
468.927	1502.94
469.146	1462.94
469.365	1503.94
469.585	1508.94
469.804	1551.94
470.023	1543.94
470.243	1598.94
470.462	1576.94
470.681	1615.94
470.901	1580.94
471.12	1590.94
471.339	1540.94
471.558	1554.94
471.777	1544.94
471.997	1532.94
472.216	1483.94
472.435	1475.94
472.654	1472.94
472.873	1464.94
473.092	1475.94
473.311	1472.94
473.53	1448.94
473.749	1463.94
473.968	1454.94
474.187	1452.94
474.406	1470.94
474.625	1449.94
474.844	1440.94
475.063	1458.94
475.282	1497.94
475.501	1471.94
475.72	1493.94
475.939	1512.94
476.158	1522.94
476.377	1553.94
476.596	1553.94
476.814	1550.94
477.033	1599.94
477.252	1590.94
477.471	1636.94
477.69	1670.94
477.908	1698.94
478.127	1761.94
478.346	1765.94
478.564	1811.94
478.783	1816.94
479.002	1841.94
479.22	1864.94
479.439	1833.94
479.658	1852.94
479.876	1846.94
480.095	1895.94
480.313	1909.94
480.532	1980.94
480.751	1956.94
480.969	1906.94
481.188	1808.94
481.406	1778.94
481.624	1803.94
481.843	1710.94
482.061	1747.94
482.28	1734.94
482.498	1742.94
482.717	1707.94
482.935	1742.94
483.153	1754.94
483.372	1733.94
483.59	1761.94
483.808	1742.94
484.027	1736.94
484.245	1734.94
484.463	1762.94
484.681	1795.94
484.9	1802.94
485.118	1813.94
485.336	1784.94
485.554	1803.94
485.772	1807.94
485.99	1823.94
486.209	1868.94
486.427	1808.94
486.645	1820.94
486.863	1853.94
487.081	1813.94
487.299	1824.94
487.517	1814.94
487.735	1793.94
487.953	1856.94
488.171	1817.94
488.389	1814.94
488.607	1805.94
488.825	1758.94
489.043	1782.94
489.261	1794.94
489.479	1798.94
489.696	1808.94
489.914	1831.94
490.132	1773.94
490.35	1806.94
490.568	1790.94
490.786	1839.94
491.003	1806.94
491.221	1870.94
491.439	1819.94
491.657	1844.94
491.874	1827.94
492.092	1841.94
492.31	1868.94
492.527	1840.94
492.745	1878.94
492.963	1855.94
493.18	1879.94
493.398	1878.94
493.615	1890.94
493.833	1911.94
494.05	1857.94
494.268	1904.94
494.485	1921.94
494.703	1916.94
494.92	1936.94
495.138	1871.94
495.355	1930.94
495.573	1919.94
495.79	1927.94
496.008	1936.94
496.225	1974.94
496.442	1960.94
496.66	1964.94
496.877	2025.94
497.094	2080.94
497.312	2070.94
497.529	2123.94
497.746	2202.94
497.963	2272.94
498.181	2347.94
498.398	2405.94
498.615	2559.94
498.832	2722.94
499.049	2893.94
499.267	3110.94
499.484	3426.94
499.701	3750.94
499.918	4098.94
500.135	4571.94
500.352	5025.94
500.569	5150.94
500.786	5070.94
501.003	4840.94
501.22	4456.94
501.437	3946.94
501.654	3601.94
501.871	3285.94
502.088	3034.94
502.305	2856.94
502.522	2723.94
502.739	2591.94
502.956	2444.94
503.172	2395.94
503.389	2284.94
503.606	2235.94
503.823	2238.94
504.04	2216.94
504.256	2234.94
504.473	2219.94
504.69	2206.94
504.907	2136.94
505.123	2052.94
505.34	1974.94
505.557	1878.94
505.773	1864.94
505.99	1796.94
506.207	1710.94
506.423	1729.94
506.64	1721.94
506.856	1675.94
507.073	1665.94
507.289	1644.94
507.506	1658.94
507.722	1664.94
507.939	1633.94
508.155	1619.94
508.372	1646.94
508.588	1595.94
508.805	1588.94
509.021	1610.94
509.238	1575.94
509.454	1500.94
509.67	1528.94
509.887	1501.94
510.103	1491.94
510.319	1536.94
510.536	1496.94
510.752	1508.94
510.968	1487.94
511.184	1493.94
511.401	1486.94
511.617	1475.94
511.833	1503.94
512.049	1474.94
512.265	1491.94
512.481	1462.94
512.698	1445.94
512.914	1503.94
513.13	1483.94
513.346	1487.94
513.562	1492.94
513.778	1546.94
513.994	1524.94
514.21	1496.94
514.426	1511.94
514.642	1521.94
514.858	1549.94
515.074	1553.94
515.29	1562.94
515.506	1588.94
515.721	1599.94
515.937	1602.94
516.153	1642.94
516.369	1696.94
516.585	1703.94
516.801	1812.94
517.016	1821.94
517.232	1917.94
517.448	1947.94
517.664	2005.94
517.879	2038.94
518.095	2012.94
518.311	1990.94
518.527	1898.94
518.742	1852.94
518.958	1754.94
519.173	1724.94
519.389	1683.94
519.605	1638.94
519.82	1576.94
520.036	1607.94
520.251	1543.94
520.467	1546.94
520.682	1495.94
520.898	1484.94
521.113	1487.94
521.329	1467.94
521.544	1465.94
521.76	1438.94
521.975	1431.94
522.19	1438.94
522.406	1381.94
522.621	1391.94
522.836	1395.94
523.052	1345.94
523.267	1390.94
523.482	1398.94
523.698	1346.94
523.913	1376.94
524.128	1377.94
524.343	1375.94
524.559	1327.94
524.774	1368.94
524.989	1354.94
525.204	1338.94
525.419	1356.94
525.634	1342.94
525.849	1338.94
526.064	1346.94
526.28	1344.94
526.495	1341.94
526.71	1320.94
526.925	1337.94
527.14	1293.94
527.355	1310.94
527.57	1328.94
527.785	1308.94
527.999	1350.94
528.214	1338.94
528.429	1310.94
528.644	1344.94
528.859	1314.94
529.074	1330.94
529.289	1355.94
529.503	1348.94
529.718	1297.94
529.933	1302.94
530.148	1311.94
530.363	1347.94
530.577	1298.94
530.792	1330.94
531.007	1292.94
531.221	1336.94
531.436	1316.94
531.651	1318.94
531.865	1307.94
532.08	1292.94
532.295	1359.94
532.509	1302.94
532.724	1306.94
532.938	1310.94
533.153	1314.94
533.367	1309.94
533.582	1312.94
533.796	1308.94
534.011	1279.94
534.225	1288.94
534.44	1291.94
534.654	1261.94
534.868	1318.94
535.083	1282.94
535.297	1244.94
535.511	1271.94
535.726	1237.94
535.94	1265.94
536.154	1240.94
536.369	1229.94
536.583	1215.94
536.797	1228.94
537.011	1195.94
537.225	1199.94
537.44	1217.94
537.654	1202.94
537.868	1209.94
538.082	1198.94
538.296	1221.94
538.51	1154.94
538.724	1224.94
538.938	1204.94
539.153	1153.94
539.367	1170.94
539.581	1184.94
539.795	1165.94
540.009	1169.94
540.222	1176.94
540.436	1145.94
540.65	1175.94
540.864	1206.94
541.078	1155.94
541.292	1181.94
541.506	1188.94
541.72	1160.94
541.934	1184.94
542.147	1199.94
542.361	1197.94
542.575	1165.94
542.789	1173.94
543.002	1176.94
543.216	1185.94
543.43	1206.94
543.644	1158.94
543.857	1142.94
544.071	1164.94
544.285	1170.94
544.498	1166.94
544.712	1179.94
544.925	1156.94
545.139	1186.94
545.352	1192.94
545.566	1183.94
545.779	1210.94
545.993	1202.94
546.206	1224.94
546.42	1204.94
546.633	1195.94
546.847	1198.94
547.06	1219.94
547.274	1224.94
547.487	1223.94
547.7	1201.94
547.914	1245.94
548.127	1216.94
548.34	1200.94
548.554	1205.94
548.767	1260.94
548.98	1231.94
549.193	1199.94
549.407	1195.94
549.62	1205.94
549.833	1239.94
550.046	1231.94
550.259	1219.94
550.473	1216.94
550.686	1208.94
550.899	1205.94
551.112	1174.94
551.325	1163.94
551.538	1174.94
551.751	1183.94
551.964	1161.94
552.177	1202.94
552.39	1205.94
552.603	1253.94
552.816	1245.94
553.029	1251.94
553.242	1313.94
553.455	1316.94
553.667	1292.94
553.88	1271.94
554.093	1250.94
554.306	1222.94
554.519	1226.94
554.732	1195.94
554.944	1172.94
555.157	1145.94
555.37	1140.94
555.583	1106.94
555.795	1096.94
556.008	1066.94
556.221	1063.94
556.433	1080.94
556.646	1061.94
556.859	1034.94
557.071	1065.94
557.284	1035.94
557.496	1034.94
557.709	1041.94
557.921	1034.94
558.134	1006.94
558.346	1022.94
558.559	1034.94
558.771	1023.94
558.984	976.94
559.196	968.94
559.409	991.94
559.621	983.94
559.833	949.94
560.046	964.94
560.258	952.94
560.47	945.94
560.683	988.94
560.895	976.94
561.107	996.94
561.32	964.94
561.532	970.94
561.744	968.94
561.956	969.94
562.168	977.94
562.381	991.94
562.593	980.94
562.805	948.94
563.017	979.94
563.229	1010.94
563.441	992.94
563.653	985.94
563.865	1037.94
564.077	1023.94
564.289	1004.94
564.501	1045.94
564.713	1050.94
564.925	1087.94
565.137	1052.94
565.349	1101.94
565.561	1146.94
565.773	1180.94
565.985	1193.94
566.197	1267.94
566.408	1365.94
566.62	1441.94
566.832	1508.94
567.044	1544.94
567.255	1570.94
567.467	1574.94
567.679	1664.94
567.891	1765.94
568.102	1821.94
568.314	1688.94
568.526	1546.94
568.737	1421.94
568.949	1330.94
569.161	1246.94
569.372	1160.94
569.584	1108.94
569.795	1078.94
570.007	1026.94
570.218	1032.94
570.43	1030.94
570.641	996.94
570.853	986.94
571.064	986.94
571.276	994.94
571.487	958.94
571.698	922.94
571.91	912.94
572.121	910.94
572.333	855.94
572.544	864.94
572.755	836.94
572.966	848.94
573.178	823.94
573.389	804.94
573.6	806.94
573.811	808.94
574.023	811.94
574.234	811.94
574.445	782.94
574.656	799.94
574.867	796.94
575.078	804.94
575.289	781.94
575.501	774.94
575.712	758.94
575.923	768.94
576.134	731.94
576.345	737.94
576.556	743.94
576.767	730.94
576.978	740.94
577.188	729.94
577.399	714.94
577.61	713.94
577.821	725.94
578.032	718.94
578.243	695.94
578.454	705.94
578.665	715.94
578.875	704.94
579.086	695.94
579.297	700.94
579.508	695.94
579.718	680.94
579.929	676.94
580.14	682.94
580.35	635.94
580.561	668.94
580.772	674.94
580.982	679.94
581.193	672.94
581.403	669.94
581.614	656.94
581.825	664.94
582.035	647.94
582.246	642.94
582.456	652.94
582.667	675.94
582.877	642.94
583.087	627.94
583.298	637.94
583.508	644.94
583.719	636.94
583.929	643.94
584.139	647.94
584.35	637.94
584.56	632.94
584.77	628.94
584.981	627.94
585.191	634.94
585.401	618.94
585.611	610.94
585.821	619.94
586.032	630.94
586.242	632.94
586.452	643.94
586.662	618.94
586.872	615.94
587.082	627.94
587.292	642.94
587.502	625.94
587.713	639.94
587.923	620.94
588.133	642.94
588.343	629.94
588.553	625.94
588.762	618.94
588.972	670.94
589.182	915.94
589.392	848.94
589.602	687.94
589.812	839.94
590.022	736.94
590.232	640.94
590.441	606.94
590.651	630.94
590.861	636.94
591.071	637.94
591.281	637.94
591.49	662.94
591.7	674.94
591.91	669.94
592.119	691.94
592.329	682.94
592.539	701.94
592.748	709.94
592.958	755.94
593.167	720.94
593.377	758.94
593.587	766.94
593.796	768.94
594.006	765.94
594.215	792.94
594.424	760.94
594.634	762.94
594.843	749.94
595.053	712.94
595.262	684.94
595.472	647.94
595.681	654.94
595.89	630.94
596.1	626.94
596.309	617.94
596.518	610.94
596.727	599.94
596.937	577.94
597.146	588.94
597.355	569.94
597.564	553.94
597.774	571.94
597.983	548.94
598.192	552.94
598.401	572.94
598.61	548.94
598.819	541.94
599.028	525.94
599.237	508.94
599.446	511.94
599.655	530.94
599.864	502.94
600.073	517.94
600.282	535.94
600.491	513.94
600.7	499.94
600.909	502.94
601.118	503.94
601.327	503.94
601.536	509.94
601.745	482.94
601.953	498.94
602.162	511.94
602.371	498.94
602.58	471.94
602.789	473.94
602.997	485.94
603.206	508.94
603.415	476.94
603.623	476.94
603.832	473.94
604.041	479.94
604.249	458.94
604.458	475.94
604.666	478.94
604.875	456.94
605.084	481.94
605.292	492.94
605.501	478.94
605.709	477.94
605.918	451.94
606.126	491.94
606.334	466.94
606.543	480.94
606.751	435.94
606.96	451.94
607.168	469.94
607.376	485.94
607.585	457.94
607.793	451.94
608.001	472.94
608.21	465.94
608.418	470.94
608.626	454.94
608.834	429.94
609.043	442.94
609.251	447.94
609.459	451.94
609.667	450.94
609.875	444.94
610.083	441.94
610.291	434.94
610.499	438.94
610.707	430.94
610.916	450.94
611.124	448.94
611.332	435.94
611.54	442.94
611.748	470.94
611.955	435.94
612.163	413.94
612.371	451.94
612.579	440.94
612.787	429.94
612.995	426.94
613.203	413.94
613.411	426.94
613.618	427.94
613.826	424.94
614.034	439.94
614.242	424.94
614.449	411.94
614.657	430.94
614.865	413.94
615.072	426.94
615.28	437.94
615.488	427.94
615.695	434.94
615.903	434.94
616.111	436.94
616.318	420.94
616.526	444.94
616.733	426.94
616.941	428.94
617.148	404.94
617.356	412.94
617.563	436.94
617.771	429.94
617.978	418.94
618.185	431.94
618.393	433.94
618.6	438.94
618.807	416.94
619.015	416.94
619.222	418.94
619.429	412.94
619.637	395.94
619.844	412.94
620.051	421.94
620.258	400.94
620.466	391.94
620.673	375.94
620.88	394.94
621.087	382.94
621.294	399.94
621.501	397.94
621.708	407.94
621.915	404.94
622.122	376.94
622.329	394.94
622.536	388.94
622.743	379.94
622.95	372.94
623.157	390.94
623.364	383.94
623.571	394.94
623.778	387.94
623.985	378.94
624.192	376.94
624.399	381.94
624.606	394.94
624.812	356.94
625.019	384.94
625.226	380.94
625.433	386.94
625.639	370.94
625.846	358.94
626.053	374.94
626.259	359.94
626.466	360.94
626.673	357.94
626.879	342.94
627.086	350.94
627.293	358.94
627.499	338.94
627.706	352.94
627.912	348.94
628.119	334.94
628.325	351.94
628.532	343.94
628.738	355.94
628.945	352.94
629.151	348.94
629.357	345.94
629.564	340.94
629.77	349.94
629.976	331.94
630.183	325.94
630.389	335.94
630.595	332.94
630.802	338.94
631.008	326.94
631.214	325.94
631.42	329.94
631.627	311.94
631.833	331.94
632.039	330.94
632.245	306.94
632.451	311.94
632.657	327.94
632.863	325.94
633.069	346.94
633.275	294.94
633.481	306.94
633.688	306.94
633.893	304.94
634.099	310.94
634.305	327.94
634.511	313.94
634.717	329.94
634.923	298.94
635.129	315.94
635.335	315.94
635.541	308.94
635.747	300.94
635.952	298.94
636.158	302.94
636.364	284.94
636.57	326.94
636.775	299.94
636.981	310.94
637.187	294.94
637.392	299.94
637.598	300.94
637.804	294.94
638.009	290.94
638.215	303.94
638.421	301.94
638.626	306.94
638.832	292.94
639.037	295.94
639.243	300.94
639.448	289.94
639.654	302.94
639.859	288.94
640.065	279.94
640.27	298.94
640.475	282.94
640.681	282.94
640.886	284.94
641.091	291.94
641.297	283.94
641.502	262.94
641.707	285.94
641.913	272.94
642.118	273.94
642.323	278.94
642.528	289.94
642.733	281.94
642.939	263.94
643.144	271.94
643.349	270.94
643.554	276.94
643.759	287.94
643.964	274.94
644.169	291.94
644.374	270.94
644.579	261.94
644.784	250.94
644.989	268.94
645.194	271.94
645.399	270.94
645.604	289.94
645.809	286.94
646.014	272.94
646.219	289.94
646.423	272.94
646.628	273.94
646.833	269.94
647.038	262.94
647.243	282.94
647.447	285.94
647.652	300.94
647.857	309.94
648.062	283.94
648.266	288.94
648.471	299.94
648.676	262.94
648.88	306.94
649.085	303.94
649.289	282.94
649.494	271.94
649.698	264.94
649.903	262.94
650.107	261.94
650.312	265.94
650.516	258.94
650.721	269.94
650.925	276.94
651.13	254.94
651.334	254.94
651.539	256.94
651.743	247.94
651.947	250.94
652.152	250.94
652.356	243.94
652.56	247.94
652.764	237.94
652.969	235.94
653.173	223.94
653.377	220.94
653.581	223.94
653.785	222.94
653.99	239.94
654.194	233.94
654.398	239.94
654.602	218.94
654.806	231.94
655.01	226.94
655.214	244.94
655.418	230.94
655.622	238.94
655.826	230.94
656.03	232.94
656.234	230.94
656.438	245.94
656.642	247.94
656.846	248.94
657.049	229.94
657.253	205.94
657.457	209.94
657.661	201.94
657.865	178.94
658.068	168.94
658.272	151.94
658.476	160.94
658.68	146.94
658.883	154.94
659.087	135.94
659.291	142.94
659.494	152.94
659.698	128.94
659.901	143.94
660.105	136.94
660.309	116.94
660.512	127.94
660.716	130.94
660.919	99.94
661.123	109.94
661.326	104.94
661.53	102.94
661.733	96.94
661.936	94.94
662.14	98.94
662.343	102.94
662.546	91.94
662.75	84.94
662.953	81.94
663.156	100.94
663.36	85.94
663.563	110.94
663.766	88.94
663.969	96.94
664.173	86.94
664.376	92.94
664.579	93.94
664.782	84.94
664.985	87.94
665.188	70.94
665.391	71.94
665.594	83.94
665.797	91.94
666	84.94
666.203	101.94
666.406	90.94
666.609	73.94
666.812	90.94
667.015	74.94
667.218	80.94
667.421	78.94
667.624	106.94
667.827	81.94
668.03	86.94
668.232	90.94
668.435	83.94
668.638	88.94
668.841	93.94
669.043	94.94
669.246	90.94
669.449	90.94
669.651	81.94
669.854	80.94
670.057	81.94
670.259	68.94
670.462	84.94
670.665	82.94
670.867	80.94
671.07	74.94
671.272	75.94
671.475	85.94
671.677	79.94
671.88	86.94
672.082	71.94
672.284	99.94
672.487	80.94
672.689	79.94
672.892	79.94
