Data from NiCl2@0.0625M.TitratingCurve.Agarose3%dH2O.NegLispCup.LampEnergy10.LIBS07252019_HRD10591_18-33-28-576.txt Node
Date: Thu Jul 25 18:33:28 EDT 2019
User: cochatt
Spectrometer: HR+D1059
Trigger mode: 1
Integration Time (sec): 1.000000E-1
Scans to average: 1
Electric dark correction enabled: true
Nonlinearity correction enabled: false
Boxcar width: 0
XAxis mode: Wavelengths
Number of Pixels in Spectrum: 2048
>>>>>Begin Spectral Data<<<<<
223.165	-7.31
223.4	-7.31
223.635	-7.31
223.869	-16.31
224.104	-17.31
224.338	-15.31
224.573	-0.31
224.808	-14.31
225.042	-3.31
225.277	-14.31
225.511	1.69
225.746	-5.31
225.98	7.69
226.215	12.69
226.449	6.69
226.683	12.69
226.918	20.69
227.152	31.69
227.387	34.69
227.621	28.69
227.856	59.69
228.09	43.69
228.324	47.69
228.559	59.69
228.793	76.69
229.027	141.69
229.262	184.69
229.496	153.69
229.73	169.69
229.964	190.69
230.199	172.69
230.433	193.69
230.667	182.69
230.901	172.69
231.136	180.69
231.37	187.69
231.604	186.69
231.838	205.69
232.072	204.69
232.306	201.69
232.541	202.69
232.775	210.69
233.009	211.69
233.243	199.69
233.477	203.69
233.711	208.69
233.945	214.69
234.179	218.69
234.413	213.69
234.647	210.69
234.881	228.69
235.115	228.69
235.349	232.69
235.583	230.69
235.817	216.69
236.051	224.69
236.285	225.69
236.519	219.69
236.753	232.69
236.987	248.69
237.221	231.69
237.455	232.69
237.689	235.69
237.922	246.69
238.156	258.69
238.39	259.69
238.624	259.69
238.858	261.69
239.091	257.69
239.325	272.69
239.559	271.69
239.793	273.69
240.027	283.69
240.26	264.69
240.494	279.69
240.728	268.69
240.961	273.69
241.195	309.69
241.429	299.69
241.662	311.69
241.896	294.69
242.13	309.69
242.363	303.69
242.597	299.69
242.83	299.69
243.064	326.69
243.298	314.69
243.531	313.69
243.765	325.69
243.998	327.69
244.232	321.69
244.465	331.69
244.699	327.69
244.932	361.69
245.166	341.69
245.399	341.69
245.633	349.69
245.866	351.69
246.099	359.69
246.333	359.69
246.566	349.69
246.8	350.69
247.033	347.69
247.266	344.69
247.5	358.69
247.733	367.69
247.966	381.69
248.2	380.69
248.433	414.69
248.666	379.69
248.899	391.69
249.133	409.69
249.366	400.69
249.599	397.69
249.832	392.69
250.066	383.69
250.299	411.69
250.532	404.69
250.765	404.69
250.998	418.69
251.231	424.69
251.465	423.69
251.698	428.69
251.931	419.69
252.164	396.69
252.397	447.69
252.63	435.69
252.863	436.69
253.096	433.69
253.329	454.69
253.562	442.69
253.795	452.69
254.028	459.69
254.261	480.69
254.494	455.69
254.727	461.69
254.96	467.69
255.193	463.69
255.426	446.69
255.659	482.69
255.892	465.69
256.124	500.69
256.357	471.69
256.59	474.69
256.823	485.69
257.056	475.69
257.289	482.69
257.521	499.69
257.754	496.69
257.987	505.69
258.22	510.69
258.452	522.69
258.685	511.69
258.918	516.69
259.151	507.69
259.383	521.69
259.616	506.69
259.849	500.69
260.081	543.69
260.314	542.69
260.547	529.69
260.779	551.69
261.012	529.69
261.244	530.69
261.477	507.69
261.71	555.69
261.942	559.69
262.175	540.69
262.407	572.69
262.64	551.69
262.872	556.69
263.105	550.69
263.337	580.69
263.57	585.69
263.802	599.69
264.035	567.69
264.267	579.69
264.499	553.69
264.732	583.69
264.964	578.69
265.197	615.69
265.429	588.69
265.661	602.69
265.894	600.69
266.126	605.69
266.358	604.69
266.591	603.69
266.823	622.69
267.055	608.69
267.287	601.69
267.52	611.69
267.752	610.69
267.984	637.69
268.216	635.69
268.448	635.69
268.681	637.69
268.913	653.69
269.145	613.69
269.377	641.69
269.609	629.69
269.841	652.69
270.073	637.69
270.306	634.69
270.538	637.69
270.77	621.69
271.002	641.69
271.234	666.69
271.466	689.69
271.698	634.69
271.93	691.69
272.162	673.69
272.394	666.69
272.626	658.69
272.858	662.69
273.09	702.69
273.322	706.69
273.553	694.69
273.785	690.69
274.017	692.69
274.249	706.69
274.481	680.69
274.713	712.69
274.945	706.69
275.176	706.69
275.408	723.69
275.64	720.69
275.872	721.69
276.104	747.69
276.335	732.69
276.567	755.69
276.799	743.69
277.031	763.69
277.262	753.69
277.494	764.69
277.726	775.69
277.957	740.69
278.189	743.69
278.421	757.69
278.652	779.69
278.884	764.69
279.115	754.69
279.347	763.69
279.579	754.69
279.81	781.69
280.042	795.69
280.273	775.69
280.505	786.69
280.736	765.69
280.968	793.69
281.199	794.69
281.431	794.69
281.662	795.69
281.894	808.69
282.125	812.69
282.356	800.69
282.588	827.69
282.819	810.69
283.051	815.69
283.282	817.69
283.513	844.69
283.745	843.69
283.976	832.69
284.207	842.69
284.439	865.69
284.67	841.69
284.901	836.69
285.132	823.69
285.364	855.69
285.595	853.69
285.826	853.69
286.057	832.69
286.288	878.69
286.52	883.69
286.751	889.69
286.982	874.69
287.213	892.69
287.444	887.69
287.675	900.69
287.906	871.69
288.138	901.69
288.369	894.69
288.6	893.69
288.831	879.69
289.062	896.69
289.293	904.69
289.524	888.69
289.755	900.69
289.986	891.69
290.217	901.69
290.448	917.69
290.679	914.69
290.91	918.69
291.141	928.69
291.371	903.69
291.602	927.69
291.833	910.69
292.064	916.69
292.295	897.69
292.526	916.69
292.757	911.69
292.987	898.69
293.218	913.69
293.449	925.69
293.68	907.69
293.91	904.69
294.141	933.69
294.372	910.69
294.603	934.69
294.833	938.69
295.064	953.69
295.295	903.69
295.525	953.69
295.756	929.69
295.987	916.69
296.217	947.69
296.448	945.69
296.679	958.69
296.909	931.69
297.14	959.69
297.37	971.69
297.601	984.69
297.831	993.69
298.062	980.69
298.292	998.69
298.523	1001.69
298.753	1016.69
298.984	1002.69
299.214	1005.69
299.445	1003.69
299.675	1013.69
299.905	974.69
300.136	1012.69
300.366	1029.69
300.597	1002.69
300.827	1017.69
301.057	1014.69
301.288	1076.69
301.518	1048.69
301.748	1084.69
301.979	1066.69
302.209	1073.69
302.439	1037.69
302.669	1037.69
302.9	1034.69
303.13	1000.69
303.36	1048.69
303.59	1079.69
303.82	1066.69
304.051	1052.69
304.281	1028.69
304.511	1004.69
304.741	1016.69
304.971	1049.69
305.201	1047.69
305.431	1075.69
305.661	1060.69
305.891	1042.69
306.121	1032.69
306.352	1011.69
306.582	1039.69
306.812	1024.69
307.042	1045.69
307.272	1023.69
307.502	1001.69
307.731	1022.69
307.961	1055.69
308.191	1058.69
308.421	1026.69
308.651	1042.69
308.881	997.69
309.111	1007.69
309.341	1042.69
309.571	1044.69
309.8	1025.69
310.03	1049.69
310.26	1051.69
310.49	1034.69
310.72	1051.69
310.949	1034.69
311.179	1065.69
311.409	1064.69
311.639	1047.69
311.868	1051.69
312.098	1047.69
312.328	1073.69
312.557	1110.69
312.787	1109.69
313.017	1054.69
313.246	1105.69
313.476	1116.69
313.706	1114.69
313.935	1126.69
314.165	1116.69
314.394	1105.69
314.624	1115.69
314.853	1120.69
315.083	1111.69
315.312	1114.69
315.542	1126.69
315.771	1120.69
316.001	1131.69
316.23	1101.69
316.46	1133.69
316.689	1119.69
316.919	1084.69
317.148	1087.69
317.377	1100.69
317.607	1123.69
317.836	1107.69
318.065	1114.69
318.295	1093.69
318.524	1107.69
318.753	1094.69
318.983	1093.69
319.212	1079.69
319.441	1106.69
319.67	1096.69
319.9	1116.69
320.129	1110.69
320.358	1114.69
320.587	1133.69
320.816	1096.69
321.046	1107.69
321.275	1108.69
321.504	1129.69
321.733	1133.69
321.962	1131.69
322.191	1145.69
322.42	1119.69
322.649	1109.69
322.878	1112.69
323.108	1129.69
323.337	1116.69
323.566	1141.69
323.795	1155.69
324.024	1148.69
324.253	1162.69
324.482	1156.69
324.71	1162.69
324.939	1174.69
325.168	1157.69
325.397	1141.69
325.626	1174.69
325.855	1179.69
326.084	1188.69
326.313	1237.69
326.542	1212.69
326.77	1235.69
326.999	1181.69
327.228	1180.69
327.457	1185.69
327.686	1195.69
327.914	1196.69
328.143	1194.69
328.372	1199.69
328.6	1208.69
328.829	1225.69
329.058	1233.69
329.287	1229.69
329.515	1251.69
329.744	1259.69
329.972	1243.69
330.201	1269.69
330.43	1243.69
330.658	1220.69
330.887	1246.69
331.115	1246.69
331.344	1257.69
331.572	1242.69
331.801	1303.69
332.03	1338.69
332.258	1344.69
332.486	1351.69
332.715	1381.69
332.943	1456.69
333.172	1504.69
333.4	1553.69
333.629	1561.69
333.857	1587.69
334.085	1576.69
334.314	1571.69
334.542	1549.69
334.771	1511.69
334.999	1499.69
335.227	1530.69
335.455	1503.69
335.684	1523.69
335.912	1516.69
336.14	1507.69
336.369	1449.69
336.597	1437.69
336.825	1453.69
337.053	1445.69
337.281	1432.69
337.51	1426.69
337.738	1433.69
337.966	1362.69
338.194	1354.69
338.422	1314.69
338.65	1331.69
338.878	1320.69
339.106	1301.69
339.334	1336.69
339.562	1328.69
339.79	1288.69
340.018	1301.69
340.246	1284.69
340.474	1279.69
340.702	1275.69
340.93	1293.69
341.158	1280.69
341.386	1279.69
341.614	1269.69
341.842	1256.69
342.07	1244.69
342.298	1254.69
342.526	1272.69
342.754	1247.69
342.981	1286.69
343.209	1263.69
343.437	1347.69
343.665	1393.69
343.893	1463.69
344.12	1521.69
344.348	1493.69
344.576	1418.69
344.804	1417.69
345.031	1281.69
345.259	1311.69
345.487	1313.69
345.714	1283.69
345.942	1251.69
346.17	1273.69
346.397	1244.69
346.625	1219.69
346.853	1216.69
347.08	1228.69
347.308	1234.69
347.535	1222.69
347.763	1248.69
347.99	1231.69
348.218	1204.69
348.445	1228.69
348.673	1221.69
348.9	1211.69
349.128	1184.69
349.355	1212.69
349.583	1186.69
349.81	1203.69
350.037	1184.69
350.265	1164.69
350.492	1195.69
350.72	1209.69
350.947	1183.69
351.174	1182.69
351.402	1186.69
351.629	1184.69
351.856	1175.69
352.083	1140.69
352.311	1154.69
352.538	1191.69
352.765	1208.69
352.992	1167.69
353.22	1182.69
353.447	1144.69
353.674	1175.69
353.901	1171.69
354.128	1137.69
354.355	1157.69
354.583	1162.69
354.81	1171.69
355.037	1187.69
355.264	1175.69
355.491	1175.69
355.718	1161.69
355.945	1169.69
356.172	1189.69
356.399	1211.69
356.626	1171.69
356.853	1162.69
357.08	1212.69
357.307	1166.69
357.534	1175.69
357.761	1148.69
357.988	1182.69
358.215	1148.69
358.441	1175.69
358.668	1164.69
358.895	1180.69
359.122	1208.69
359.349	1181.69
359.576	1178.69
359.802	1200.69
360.029	1169.69
360.256	1194.69
360.483	1191.69
360.709	1191.69
360.936	1183.69
361.163	1179.69
361.39	1175.69
361.616	1154.69
361.843	1170.69
362.07	1218.69
362.296	1206.69
362.523	1179.69
362.749	1188.69
362.976	1173.69
363.203	1184.69
363.429	1172.69
363.656	1175.69
363.882	1178.69
364.109	1159.69
364.335	1171.69
364.562	1193.69
364.788	1140.69
365.015	1181.69
365.241	1198.69
365.468	1204.69
365.694	1189.69
365.92	1182.69
366.147	1191.69
366.373	1177.69
366.599	1165.69
366.826	1188.69
367.052	1151.69
367.278	1192.69
367.505	1211.69
367.731	1216.69
367.957	1217.69
368.184	1175.69
368.41	1190.69
368.636	1214.69
368.862	1225.69
369.089	1228.69
369.315	1226.69
369.541	1217.69
369.767	1254.69
369.993	1197.69
370.219	1284.69
370.445	1222.69
370.672	1264.69
370.898	1260.69
371.124	1248.69
371.35	1265.69
371.576	1283.69
371.802	1279.69
372.028	1301.69
372.254	1298.69
372.48	1329.69
372.706	1328.69
372.932	1311.69
373.158	1307.69
373.384	1330.69
373.61	1287.69
373.835	1298.69
374.061	1299.69
374.287	1301.69
374.513	1317.69
374.739	1348.69
374.965	1379.69
375.191	1419.69
375.416	1396.69
375.642	1382.69
375.868	1344.69
376.094	1351.69
376.319	1310.69
376.545	1337.69
376.771	1284.69
376.997	1299.69
377.222	1287.69
377.448	1297.69
377.674	1268.69
377.899	1272.69
378.125	1309.69
378.35	1283.69
378.576	1255.69
378.802	1289.69
379.027	1256.69
379.253	1258.69
379.478	1246.69
379.704	1249.69
379.929	1252.69
380.155	1293.69
380.38	1294.69
380.606	1270.69
380.831	1255.69
381.057	1287.69
381.282	1285.69
381.507	1264.69
381.733	1249.69
381.958	1282.69
382.184	1294.69
382.409	1321.69
382.634	1351.69
382.86	1335.69
383.085	1338.69
383.31	1360.69
383.535	1403.69
383.761	1408.69
383.986	1438.69
384.211	1444.69
384.436	1452.69
384.662	1460.69
384.887	1518.69
385.112	1485.69
385.337	1524.69
385.562	1515.69
385.787	1470.69
386.013	1510.69
386.238	1514.69
386.463	1560.69
386.688	1553.69
386.913	1485.69
387.138	1498.69
387.363	1527.69
387.588	1522.69
387.813	1512.69
388.038	1515.69
388.263	1525.69
388.488	1504.69
388.713	1527.69
388.938	1506.69
389.163	1501.69
389.387	1511.69
389.612	1478.69
389.837	1517.69
390.062	1514.69
390.287	1507.69
390.512	1522.69
390.736	1541.69
390.961	1546.69
391.186	1580.69
391.411	1633.69
391.636	1589.69
391.86	1662.69
392.085	1694.69
392.31	1703.69
392.534	1671.69
392.759	1622.69
392.984	1617.69
393.208	1639.69
393.433	1673.69
393.658	1653.69
393.882	1615.69
394.107	1607.69
394.331	1594.69
394.556	1625.69
394.78	1643.69
395.005	1619.69
395.229	1635.69
395.454	1663.69
395.678	1721.69
395.903	1695.69
396.127	1685.69
396.352	1674.69
396.576	1660.69
396.801	1641.69
397.025	1641.69
397.249	1705.69
397.474	1748.69
397.698	1726.69
397.922	1735.69
398.147	1708.69
398.371	1768.69
398.595	1842.69
398.82	1889.69
399.044	2063.69
399.268	2128.69
399.492	2374.69
399.717	2639.69
399.941	2635.69
400.165	2460.69
400.389	2287.69
400.613	2102.69
400.837	1989.69
401.062	1942.69
401.286	1937.69
401.51	1921.69
401.734	1924.69
401.958	1891.69
402.182	1888.69
402.406	1935.69
402.63	1921.69
402.854	1946.69
403.078	1969.69
403.302	2038.69
403.526	2099.69
403.75	2051.69
403.974	2100.69
404.198	2095.69
404.422	2108.69
404.645	2088.69
404.869	2075.69
405.093	2079.69
405.317	2067.69
405.541	2082.69
405.765	2053.69
405.988	2043.69
406.212	2052.69
406.436	2038.69
406.66	2131.69
406.883	2153.69
407.107	2279.69
407.331	2327.69
407.555	2374.69
407.778	2412.69
408.002	2378.69
408.226	2314.69
408.449	2266.69
408.673	2182.69
408.896	2137.69
409.12	2128.69
409.344	2127.69
409.567	2081.69
409.791	2173.69
410.014	2081.69
410.238	2091.69
410.461	2090.69
410.685	2073.69
410.908	1979.69
411.132	1991.69
411.355	1956.69
411.578	1964.69
411.802	1973.69
412.025	1947.69
412.249	2039.69
412.472	2001.69
412.695	1939.69
412.919	1960.69
413.142	1925.69
413.365	1924.69
413.589	1949.69
413.812	1917.69
414.035	1913.69
414.258	1888.69
414.482	1885.69
414.705	1916.69
414.928	1953.69
415.151	1920.69
415.374	1904.69
415.597	1868.69
415.821	1864.69
416.044	1836.69
416.267	1798.69
416.49	1791.69
416.713	1821.69
416.936	1857.69
417.159	1791.69
417.382	1814.69
417.605	1757.69
417.828	1811.69
418.051	1826.69
418.274	1823.69
418.497	1801.69
418.72	1868.69
418.943	1862.69
419.166	1977.69
419.389	2116.69
419.611	2071.69
419.834	1981.69
420.057	1931.69
420.28	1909.69
420.503	1812.69
420.726	1770.69
420.948	1797.69
421.171	1823.69
421.394	1811.69
421.617	1839.69
421.839	1869.69
422.062	1839.69
422.285	1805.69
422.507	1882.69
422.73	1839.69
422.953	1879.69
423.175	1868.69
423.398	1891.69
423.621	1890.69
423.843	1914.69
424.066	1908.69
424.288	1856.69
424.511	1867.69
424.733	1883.69
424.956	1852.69
425.178	1817.69
425.401	1840.69
425.623	1844.69
425.846	1792.69
426.068	1831.69
426.291	1751.69
426.513	1789.69
426.735	1724.69
426.958	1757.69
427.18	1696.69
427.402	1727.69
427.625	1696.69
427.847	1658.69
428.069	1677.69
428.292	1691.69
428.514	1656.69
428.736	1655.69
428.958	1650.69
429.181	1618.69
429.403	1623.69
429.625	1639.69
429.847	1623.69
430.069	1605.69
430.292	1663.69
430.514	1630.69
430.736	1636.69
430.958	1656.69
431.18	1667.69
431.402	1674.69
431.624	1620.69
431.846	1670.69
432.068	1706.69
432.29	1688.69
432.512	1633.69
432.734	1661.69
432.956	1667.69
433.178	1694.69
433.4	1688.69
433.622	1668.69
433.844	1677.69
434.066	1741.69
434.287	1740.69
434.509	1768.69
434.731	1843.69
434.953	1851.69
435.175	1836.69
435.397	1837.69
435.618	1763.69
435.84	1703.69
436.062	1685.69
436.284	1673.69
436.505	1678.69
436.727	1667.69
436.949	1651.69
437.17	1703.69
437.392	1620.69
437.614	1624.69
437.835	1583.69
438.057	1623.69
438.278	1577.69
438.5	1605.69
438.721	1551.69
438.943	1594.69
439.165	1566.69
439.386	1619.69
439.608	1669.69
439.829	1609.69
440.05	1653.69
440.272	1614.69
440.493	1644.69
440.715	1643.69
440.936	1684.69
441.158	1695.69
441.379	1697.69
441.6	1815.69
441.822	1832.69
442.043	1823.69
442.264	1781.69
442.486	1741.69
442.707	1768.69
442.928	1744.69
443.149	1758.69
443.371	1744.69
443.592	1786.69
443.813	1845.69
444.034	1752.69
444.255	1883.69
444.476	1910.69
444.698	2028.69
444.919	2041.69
445.14	2142.69
445.361	1979.69
445.582	1841.69
445.803	1773.69
446.024	1739.69
446.245	1701.69
446.466	1675.69
446.687	1667.69
446.908	1668.69
447.129	1589.69
447.35	1581.69
447.571	1560.69
447.792	1544.69
448.013	1548.69
448.234	1476.69
448.455	1507.69
448.675	1516.69
448.896	1511.69
449.117	1486.69
449.338	1482.69
449.559	1424.69
449.779	1478.69
450	1463.69
450.221	1500.69
450.442	1488.69
450.662	1463.69
450.883	1483.69
451.104	1491.69
451.324	1497.69
451.545	1489.69
451.766	1466.69
451.986	1469.69
452.207	1421.69
452.428	1468.69
452.648	1460.69
452.869	1446.69
453.089	1415.69
453.31	1441.69
453.53	1449.69
453.751	1432.69
453.971	1402.69
454.192	1384.69
454.412	1379.69
454.633	1375.69
454.853	1421.69
455.073	1420.69
455.294	1397.69
455.514	1382.69
455.734	1355.69
455.955	1372.69
456.175	1386.69
456.395	1367.69
456.616	1380.69
456.836	1381.69
457.056	1397.69
457.276	1361.69
457.497	1384.69
457.717	1408.69
457.937	1403.69
458.157	1405.69
458.377	1467.69
458.598	1459.69
458.818	1528.69
459.038	1557.69
459.258	1605.69
459.478	1632.69
459.698	1673.69
459.918	1732.69
460.138	1761.69
460.358	1803.69
460.578	1801.69
460.798	1857.69
461.018	1900.69
461.238	1841.69
461.458	1882.69
461.678	1861.69
461.898	1921.69
462.118	1902.69
462.338	1990.69
462.558	2033.69
462.777	2088.69
462.997	2231.69
463.217	2353.69
463.437	2405.69
463.657	2276.69
463.876	2163.69
464.096	2169.69
464.316	2156.69
464.536	2131.69
464.755	2054.69
464.975	2020.69
465.195	1985.69
465.414	1860.69
465.634	1773.69
465.854	1707.69
466.073	1687.69
466.293	1655.69
466.512	1566.69
466.732	1571.69
466.951	1579.69
467.171	1562.69
467.391	1583.69
467.61	1555.69
467.829	1549.69
468.049	1559.69
468.268	1513.69
468.488	1485.69
468.707	1533.69
468.927	1511.69
469.146	1521.69
469.365	1540.69
469.585	1540.69
469.804	1582.69
470.023	1560.69
470.243	1578.69
470.462	1604.69
470.681	1617.69
470.901	1613.69
471.12	1600.69
471.339	1524.69
471.558	1550.69
471.777	1555.69
471.997	1523.69
472.216	1530.69
472.435	1505.69
472.654	1497.69
472.873	1457.69
473.092	1487.69
473.311	1478.69
473.53	1481.69
473.749	1499.69
473.968	1452.69
474.187	1479.69
474.406	1472.69
474.625	1504.69
474.844	1469.69
475.063	1476.69
475.282	1510.69
475.501	1515.69
475.72	1504.69
475.939	1528.69
476.158	1592.69
476.377	1591.69
476.596	1554.69
476.814	1593.69
477.033	1599.69
477.252	1607.69
477.471	1626.69
477.69	1682.69
477.908	1704.69
478.127	1759.69
478.346	1778.69
478.564	1783.69
478.783	1811.69
479.002	1863.69
479.22	1891.69
479.439	1864.69
479.658	1876.69
479.876	1911.69
480.095	1907.69
480.313	1959.69
480.532	2002.69
480.751	1999.69
480.969	1938.69
481.188	1884.69
481.406	1836.69
481.624	1857.69
481.843	1832.69
482.061	1845.69
482.28	1795.69
482.498	1800.69
482.717	1794.69
482.935	1831.69
483.153	1858.69
483.372	1845.69
483.59	1846.69
483.808	1842.69
484.027	1847.69
484.245	1878.69
484.463	1867.69
484.681	1935.69
484.9	1908.69
485.118	1956.69
485.336	1961.69
485.554	1948.69
485.772	1973.69
485.99	1989.69
486.209	1993.69
486.427	1956.69
486.645	1946.69
486.863	1938.69
487.081	1959.69
487.299	1973.69
487.517	1945.69
487.735	1946.69
487.953	1953.69
488.171	1917.69
488.389	1925.69
488.607	1935.69
488.825	1887.69
489.043	1884.69
489.261	1898.69
489.479	1884.69
489.696	1905.69
489.914	1882.69
490.132	1907.69
490.35	1915.69
490.568	1857.69
490.786	1855.69
491.003	1858.69
491.221	1900.69
491.439	1915.69
491.657	1866.69
491.874	1859.69
492.092	1888.69
492.31	1885.69
492.527	1873.69
492.745	1886.69
492.963	1872.69
493.18	1901.69
493.398	1898.69
493.615	1925.69
493.833	1885.69
494.05	1875.69
494.268	1929.69
494.485	1895.69
494.703	1943.69
494.92	1933.69
495.138	1880.69
495.355	1890.69
495.573	1921.69
495.79	1977.69
496.008	1944.69
496.225	1925.69
496.442	1996.69
496.66	2055.69
496.877	2017.69
497.094	2059.69
497.312	2090.69
497.529	2057.69
497.746	2128.69
497.963	2203.69
498.181	2339.69
498.398	2408.69
498.615	2490.69
498.832	2662.69
499.049	2851.69
499.267	3006.69
499.484	3279.69
499.701	3537.69
499.918	3876.69
500.135	4263.69
500.352	4661.69
500.569	4828.69
500.786	4813.69
501.003	4540.69
501.22	4195.69
501.437	3838.69
501.654	3467.69
501.871	3219.69
502.088	2972.69
502.305	2791.69
502.522	2673.69
502.739	2591.69
502.956	2407.69
503.172	2344.69
503.389	2253.69
503.606	2168.69
503.823	2137.69
504.04	2128.69
504.256	2105.69
504.473	2175.69
504.69	2187.69
504.907	2127.69
505.123	2040.69
505.34	1909.69
505.557	1860.69
505.773	1779.69
505.99	1801.69
506.207	1758.69
506.423	1705.69
506.64	1695.69
506.856	1677.69
507.073	1639.69
507.289	1676.69
507.506	1615.69
507.722	1607.69
507.939	1617.69
508.155	1612.69
508.372	1583.69
508.588	1541.69
508.805	1562.69
509.021	1583.69
509.238	1575.69
509.454	1559.69
509.67	1547.69
509.887	1515.69
510.103	1506.69
510.319	1491.69
510.536	1530.69
510.752	1473.69
510.968	1493.69
511.184	1467.69
511.401	1490.69
511.617	1488.69
511.833	1485.69
512.049	1496.69
512.265	1514.69
512.481	1479.69
512.698	1463.69
512.914	1503.69
513.13	1468.69
513.346	1460.69
513.562	1449.69
513.778	1484.69
513.994	1500.69
514.21	1491.69
514.426	1456.69
514.642	1479.69
514.858	1529.69
515.074	1512.69
515.29	1542.69
515.506	1541.69
515.721	1566.69
515.937	1617.69
516.153	1608.69
516.369	1641.69
516.585	1689.69
516.801	1741.69
517.016	1780.69
517.232	1836.69
517.448	1905.69
517.664	1932.69
517.879	1951.69
518.095	1946.69
518.311	1926.69
518.527	1878.69
518.742	1814.69
518.958	1772.69
519.173	1691.69
519.389	1691.69
519.605	1648.69
519.82	1577.69
520.036	1560.69
520.251	1542.69
520.467	1500.69
520.682	1491.69
520.898	1447.69
521.113	1439.69
521.329	1465.69
521.544	1433.69
521.76	1445.69
521.975	1406.69
522.19	1386.69
522.406	1401.69
522.621	1417.69
522.836	1399.69
523.052	1380.69
523.267	1376.69
523.482	1348.69
523.698	1376.69
523.913	1345.69
524.128	1357.69
524.343	1352.69
524.559	1348.69
524.774	1328.69
524.989	1347.69
525.204	1344.69
525.419	1329.69
525.634	1356.69
525.849	1335.69
526.064	1331.69
526.28	1330.69
526.495	1339.69
526.71	1315.69
526.925	1303.69
527.14	1286.69
527.355	1291.69
527.57	1337.69
527.785	1345.69
527.999	1320.69
528.214	1332.69
528.429	1347.69
528.644	1314.69
528.859	1293.69
529.074	1293.69
529.289	1296.69
529.503	1287.69
529.718	1296.69
529.933	1307.69
530.148	1272.69
530.363	1318.69
530.577	1299.69
530.792	1329.69
531.007	1311.69
531.221	1285.69
531.436	1307.69
531.651	1319.69
531.865	1293.69
532.08	1308.69
532.295	1301.69
532.509	1277.69
532.724	1315.69
532.938	1327.69
533.153	1359.69
533.367	1279.69
533.582	1295.69
533.796	1284.69
534.011	1285.69
534.225	1269.69
534.44	1243.69
534.654	1299.69
534.868	1271.69
535.083	1257.69
535.297	1256.69
535.511	1239.69
535.726	1254.69
535.94	1221.69
536.154	1255.69
536.369	1224.69
536.583	1211.69
536.797	1213.69
537.011	1205.69
537.225	1185.69
537.44	1210.69
537.654	1177.69
537.868	1180.69
538.082	1148.69
538.296	1187.69
538.51	1186.69
538.724	1206.69
538.938	1188.69
539.153	1196.69
539.367	1194.69
539.581	1183.69
539.795	1153.69
540.009	1154.69
540.222	1153.69
540.436	1168.69
540.65	1126.69
540.864	1146.69
541.078	1167.69
541.292	1167.69
541.506	1145.69
541.72	1109.69
541.934	1141.69
542.147	1131.69
542.361	1153.69
542.575	1127.69
542.789	1130.69
543.002	1131.69
543.216	1107.69
543.43	1143.69
543.644	1133.69
543.857	1129.69
544.071	1137.69
544.285	1137.69
544.498	1133.69
544.712	1113.69
544.925	1144.69
545.139	1184.69
545.352	1161.69
545.566	1145.69
545.779	1172.69
545.993	1173.69
546.206	1170.69
546.42	1151.69
546.633	1168.69
546.847	1160.69
547.06	1159.69
547.274	1132.69
547.487	1163.69
547.7	1157.69
547.914	1195.69
548.127	1185.69
548.34	1200.69
548.554	1177.69
548.767	1178.69
548.98	1142.69
549.193	1187.69
549.407	1166.69
549.62	1207.69
549.833	1187.69
550.046	1190.69
550.259	1196.69
550.473	1174.69
550.686	1153.69
550.899	1136.69
551.112	1154.69
551.325	1139.69
551.538	1180.69
551.751	1178.69
551.964	1169.69
552.177	1146.69
552.39	1155.69
552.603	1194.69
552.816	1237.69
553.029	1219.69
553.242	1203.69
553.455	1253.69
553.667	1258.69
553.88	1254.69
554.093	1219.69
554.306	1210.69
554.519	1151.69
554.732	1153.69
554.944	1140.69
555.157	1101.69
555.37	1109.69
555.583	1088.69
555.795	1074.69
556.008	1058.69
556.221	1040.69
556.433	1025.69
556.646	1046.69
556.859	1028.69
557.071	1023.69
557.284	1000.69
557.496	1003.69
557.709	1013.69
557.921	986.69
558.134	981.69
558.346	973.69
558.559	969.69
558.771	960.69
558.984	993.69
559.196	979.69
559.409	953.69
559.621	939.69
559.833	975.69
560.046	962.69
560.258	961.69
560.47	955.69
560.683	953.69
560.895	943.69
561.107	973.69
561.32	918.69
561.532	964.69
561.744	941.69
561.956	985.69
562.168	961.69
562.381	964.69
562.593	991.69
562.805	947.69
563.017	964.69
563.229	980.69
563.441	991.69
563.653	976.69
563.865	967.69
564.077	989.69
564.289	992.69
564.501	1027.69
564.713	1033.69
564.925	1057.69
565.137	1073.69
565.349	1091.69
565.561	1088.69
565.773	1151.69
565.985	1174.69
566.197	1220.69
566.408	1282.69
566.62	1404.69
566.832	1490.69
567.044	1502.69
567.255	1499.69
567.467	1520.69
567.679	1575.69
567.891	1708.69
568.102	1660.69
568.314	1587.69
568.526	1482.69
568.737	1384.69
568.949	1300.69
569.161	1207.69
569.372	1165.69
569.584	1076.69
569.795	1043.69
570.007	1029.69
570.218	1009.69
570.43	981.69
570.641	969.69
570.853	975.69
571.064	963.69
571.276	981.69
571.487	959.69
571.698	939.69
571.91	888.69
572.121	853.69
572.333	861.69
572.544	855.69
572.755	820.69
572.966	819.69
573.178	808.69
573.389	787.69
573.6	807.69
573.811	792.69
574.023	790.69
574.234	790.69
574.445	780.69
574.656	789.69
574.867	781.69
575.078	771.69
575.289	769.69
575.501	767.69
575.712	774.69
575.923	771.69
576.134	732.69
576.345	724.69
576.556	724.69
576.767	736.69
576.978	724.69
577.188	720.69
577.399	725.69
577.61	724.69
577.821	711.69
578.032	700.69
578.243	705.69
578.454	703.69
578.665	693.69
578.875	671.69
579.086	670.69
579.297	707.69
579.508	689.69
579.718	667.69
579.929	680.69
580.14	680.69
580.35	687.69
580.561	671.69
580.772	689.69
580.982	668.69
581.193	663.69
581.403	674.69
581.614	695.69
581.825	665.69
582.035	651.69
582.246	631.69
582.456	645.69
582.667	666.69
582.877	644.69
583.087	651.69
583.298	629.69
583.508	647.69
583.719	636.69
583.929	664.69
584.139	634.69
584.35	653.69
584.56	645.69
584.77	634.69
584.981	662.69
585.191	634.69
585.401	632.69
585.611	603.69
585.821	628.69
586.032	627.69
586.242	637.69
586.452	639.69
586.662	612.69
586.872	626.69
587.082	619.69
587.292	628.69
587.502	616.69
587.713	603.69
587.923	636.69
588.133	636.69
588.343	628.69
588.553	620.69
588.762	619.69
588.972	633.69
589.182	641.69
589.392	639.69
589.602	608.69
589.812	636.69
590.022	623.69
590.232	626.69
590.441	634.69
590.651	631.69
590.861	642.69
591.071	631.69
591.281	634.69
591.49	651.69
591.7	628.69
591.91	628.69
592.119	650.69
592.329	668.69
592.539	675.69
592.748	699.69
592.958	722.69
593.167	711.69
593.377	761.69
593.587	772.69
593.796	757.69
594.006	739.69
594.215	754.69
594.424	760.69
594.634	713.69
594.843	716.69
595.053	677.69
595.262	682.69
595.472	638.69
595.681	666.69
595.89	623.69
596.1	617.69
596.309	615.69
596.518	584.69
596.727	599.69
596.937	590.69
597.146	565.69
597.355	574.69
597.564	553.69
597.774	523.69
597.983	545.69
598.192	540.69
598.401	535.69
598.61	542.69
598.819	522.69
599.028	524.69
599.237	545.69
599.446	548.69
599.655	519.69
599.864	517.69
600.073	495.69
600.282	512.69
600.491	518.69
600.7	501.69
600.909	491.69
601.118	490.69
601.327	497.69
601.536	509.69
601.745	526.69
601.953	507.69
602.162	526.69
602.371	489.69
602.58	491.69
602.789	492.69
602.997	485.69
603.206	500.69
603.415	471.69
603.623	480.69
603.832	475.69
604.041	486.69
604.249	474.69
604.458	481.69
604.666	471.69
604.875	480.69
605.084	464.69
605.292	477.69
605.501	487.69
605.709	476.69
605.918	463.69
606.126	454.69
606.334	433.69
606.543	453.69
606.751	461.69
606.96	461.69
607.168	461.69
607.376	458.69
607.585	447.69
607.793	454.69
608.001	463.69
608.21	458.69
608.418	451.69
608.626	456.69
608.834	467.69
609.043	441.69
609.251	448.69
609.459	432.69
609.667	447.69
609.875	454.69
610.083	446.69
610.291	428.69
610.499	454.69
610.707	433.69
610.916	448.69
611.124	449.69
611.332	427.69
611.54	442.69
611.748	451.69
611.955	452.69
612.163	431.69
612.371	418.69
612.579	426.69
612.787	448.69
612.995	449.69
613.203	434.69
613.411	436.69
613.618	441.69
613.826	428.69
614.034	447.69
614.242	435.69
614.449	422.69
614.657	412.69
614.865	443.69
615.072	423.69
615.28	429.69
615.488	428.69
615.695	425.69
615.903	432.69
616.111	448.69
616.318	425.69
616.526	454.69
616.733	449.69
616.941	427.69
617.148	439.69
617.356	412.69
617.563	424.69
617.771	422.69
617.978	442.69
618.185	441.69
618.393	427.69
618.6	405.69
618.807	412.69
619.015	413.69
619.222	419.69
619.429	421.69
619.637	417.69
619.844	400.69
620.051	417.69
620.258	404.69
620.466	395.69
620.673	394.69
620.88	392.69
621.087	399.69
621.294	418.69
621.501	403.69
621.708	399.69
621.915	390.69
622.122	395.69
622.329	378.69
622.536	395.69
622.743	380.69
622.95	388.69
623.157	404.69
623.364	395.69
623.571	398.69
623.778	384.69
623.985	385.69
624.192	390.69
624.399	382.69
624.606	387.69
624.812	379.69
625.019	381.69
625.226	376.69
625.433	364.69
625.639	355.69
625.846	378.69
626.053	375.69
626.259	359.69
626.466	354.69
626.673	359.69
626.879	376.69
627.086	367.69
627.293	369.69
627.499	356.69
627.706	352.69
627.912	337.69
628.119	345.69
628.325	351.69
628.532	367.69
628.738	353.69
628.945	358.69
629.151	357.69
629.357	355.69
629.564	348.69
629.77	346.69
629.976	343.69
630.183	331.69
630.389	345.69
630.595	341.69
630.802	319.69
631.008	329.69
631.214	338.69
631.42	324.69
631.627	339.69
631.833	303.69
632.039	325.69
632.245	335.69
632.451	336.69
632.657	315.69
632.863	320.69
633.069	327.69
633.275	316.69
633.481	321.69
633.688	310.69
633.893	316.69
634.099	320.69
634.305	299.69
634.511	324.69
634.717	314.69
634.923	319.69
635.129	323.69
635.335	303.69
635.541	310.69
635.747	309.69
635.952	326.69
636.158	305.69
636.364	304.69
636.57	297.69
636.775	305.69
636.981	307.69
637.187	311.69
637.392	307.69
637.598	303.69
637.804	308.69
638.009	324.69
638.215	325.69
638.421	297.69
638.626	309.69
638.832	320.69
639.037	296.69
639.243	285.69
639.448	299.69
639.654	300.69
639.859	286.69
640.065	284.69
640.27	290.69
640.475	298.69
640.681	293.69
640.886	297.69
641.091	288.69
641.297	287.69
641.502	291.69
641.707	290.69
641.913	287.69
642.118	292.69
642.323	296.69
642.528	292.69
642.733	284.69
642.939	284.69
643.144	274.69
643.349	276.69
643.554	277.69
643.759	289.69
643.964	284.69
644.169	291.69
644.374	290.69
644.579	277.69
644.784	274.69
644.989	282.69
645.194	270.69
645.399	282.69
645.604	286.69
645.809	303.69
646.014	293.69
646.219	291.69
646.423	292.69
646.628	288.69
646.833	292.69
647.038	289.69
647.243	290.69
647.447	295.69
647.652	293.69
647.857	308.69
648.062	315.69
648.266	297.69
648.471	329.69
648.676	326.69
648.88	329.69
649.085	325.69
649.289	304.69
649.494	324.69
649.698	297.69
649.903	285.69
650.107	277.69
650.312	293.69
650.516	291.69
650.721	303.69
650.925	313.69
651.13	265.69
651.334	287.69
651.539	276.69
651.743	270.69
651.947	290.69
652.152	268.69
652.356	283.69
652.56	283.69
652.764	292.69
652.969	267.69
653.173	281.69
653.377	291.69
653.581	273.69
653.785	283.69
653.99	280.69
654.194	280.69
654.398	259.69
654.602	274.69
654.806	283.69
655.01	296.69
655.214	295.69
655.418	314.69
655.622	323.69
655.826	329.69
656.03	345.69
656.234	361.69
656.438	389.69
656.642	397.69
656.846	375.69
657.049	341.69
657.253	323.69
657.457	270.69
657.661	249.69
657.865	244.69
658.068	213.69
658.272	202.69
658.476	178.69
658.68	172.69
658.883	180.69
659.087	164.69
659.291	147.69
659.494	138.69
659.698	140.69
659.901	124.69
660.105	135.69
660.309	118.69
660.512	117.69
660.716	108.69
660.919	92.69
661.123	108.69
661.326	122.69
661.53	118.69
661.733	101.69
661.936	108.69
662.14	94.69
662.343	85.69
662.546	91.69
662.75	95.69
662.953	84.69
663.156	74.69
663.36	87.69
663.563	83.69
663.766	99.69
663.969	77.69
664.173	86.69
664.376	86.69
664.579	84.69
664.782	82.69
664.985	99.69
665.188	79.69
665.391	65.69
665.594	80.69
665.797	101.69
666	82.69
666.203	84.69
666.406	78.69
666.609	86.69
666.812	83.69
667.015	86.69
667.218	78.69
667.421	92.69
667.624	70.69
667.827	86.69
668.03	89.69
668.232	85.69
668.435	87.69
668.638	83.69
668.841	88.69
669.043	68.69
669.246	91.69
669.449	84.69
669.651	92.69
669.854	70.69
670.057	92.69
670.259	72.69
670.462	79.69
670.665	81.69
670.867	77.69
671.07	88.69
671.272	77.69
671.475	70.69
671.677	96.69
671.88	74.69
672.082	86.69
672.284	78.69
672.487	94.69
672.689	81.69
672.892	75.69
