Data from NiCl2@0.5M.TitratingCurve.Agarose3%dH2O.NegLispCup.LampEnergy10.LIBS07252019_HRD10591_18-20-43-597.txt Node
Date: Thu Jul 25 18:20:43 EDT 2019
User: cochatt
Spectrometer: HR+D1059
Trigger mode: 1
Integration Time (sec): 1.000000E-1
Scans to average: 1
Electric dark correction enabled: true
Nonlinearity correction enabled: false
Boxcar width: 0
XAxis mode: Wavelengths
Number of Pixels in Spectrum: 2048
>>>>>Begin Spectral Data<<<<<
223.165	-29.12
223.4	-29.12
223.635	-29.12
223.869	-12.12
224.104	-29.12
224.338	-13.12
224.573	-13.12
224.808	-17.12
225.042	-12.12
225.277	3.88
225.511	-6.12
225.746	-0.12
225.98	4.88
226.215	20.88
226.449	22.88
226.683	30.88
226.918	22.88
227.152	25.88
227.387	36.88
227.621	40.88
227.856	30.88
228.09	37.88
228.324	45.88
228.559	62.88
228.793	61.88
229.027	93.88
229.262	90.88
229.496	92.88
229.73	100.88
229.964	104.88
230.199	113.88
230.433	109.88
230.667	97.88
230.901	142.88
231.136	112.88
231.37	120.88
231.604	123.88
231.838	134.88
232.072	112.88
232.306	131.88
232.541	123.88
232.775	138.88
233.009	124.88
233.243	128.88
233.477	123.88
233.711	108.88
233.945	124.88
234.179	116.88
234.413	127.88
234.647	137.88
234.881	119.88
235.115	139.88
235.349	136.88
235.583	127.88
235.817	121.88
236.051	125.88
236.285	116.88
236.519	120.88
236.753	118.88
236.987	128.88
237.221	125.88
237.455	148.88
237.689	128.88
237.922	136.88
238.156	120.88
238.39	121.88
238.624	136.88
238.858	131.88
239.091	129.88
239.325	126.88
239.559	157.88
239.793	130.88
240.027	134.88
240.26	135.88
240.494	139.88
240.728	127.88
240.961	159.88
241.195	131.88
241.429	151.88
241.662	146.88
241.896	153.88
242.13	149.88
242.363	159.88
242.597	154.88
242.83	155.88
243.064	151.88
243.298	150.88
243.531	161.88
243.765	167.88
243.998	150.88
244.232	160.88
244.465	146.88
244.699	171.88
244.932	159.88
245.166	171.88
245.399	156.88
245.633	167.88
245.866	167.88
246.099	184.88
246.333	182.88
246.566	165.88
246.8	166.88
247.033	171.88
247.266	175.88
247.5	161.88
247.733	173.88
247.966	175.88
248.2	167.88
248.433	184.88
248.666	194.88
248.899	182.88
249.133	177.88
249.366	178.88
249.599	191.88
249.832	186.88
250.066	183.88
250.299	197.88
250.532	197.88
250.765	175.88
250.998	202.88
251.231	197.88
251.465	203.88
251.698	205.88
251.931	199.88
252.164	199.88
252.397	219.88
252.63	196.88
252.863	209.88
253.096	202.88
253.329	185.88
253.562	216.88
253.795	214.88
254.028	212.88
254.261	208.88
254.494	191.88
254.727	210.88
254.96	216.88
255.193	218.88
255.426	212.88
255.659	198.88
255.892	220.88
256.124	213.88
256.357	220.88
256.59	222.88
256.823	219.88
257.056	225.88
257.289	209.88
257.521	214.88
257.754	236.88
257.987	218.88
258.22	212.88
258.452	219.88
258.685	234.88
258.918	211.88
259.151	224.88
259.383	238.88
259.616	216.88
259.849	241.88
260.081	242.88
260.314	225.88
260.547	244.88
260.779	231.88
261.012	222.88
261.244	226.88
261.477	229.88
261.71	246.88
261.942	240.88
262.175	231.88
262.407	245.88
262.64	240.88
262.872	238.88
263.105	257.88
263.337	260.88
263.57	268.88
263.802	239.88
264.035	236.88
264.267	256.88
264.499	247.88
264.732	246.88
264.964	250.88
265.197	248.88
265.429	265.88
265.661	264.88
265.894	255.88
266.126	246.88
266.358	256.88
266.591	266.88
266.823	273.88
267.055	263.88
267.287	254.88
267.52	273.88
267.752	254.88
267.984	268.88
268.216	272.88
268.448	258.88
268.681	263.88
268.913	265.88
269.145	259.88
269.377	272.88
269.609	260.88
269.841	265.88
270.073	281.88
270.306	289.88
270.538	286.88
270.77	263.88
271.002	282.88
271.234	296.88
271.466	288.88
271.698	271.88
271.93	290.88
272.162	283.88
272.394	301.88
272.626	300.88
272.858	288.88
273.09	283.88
273.322	280.88
273.553	302.88
273.785	287.88
274.017	290.88
274.249	302.88
274.481	297.88
274.713	293.88
274.945	307.88
275.176	295.88
275.408	310.88
275.64	313.88
275.872	304.88
276.104	304.88
276.335	308.88
276.567	312.88
276.799	284.88
277.031	291.88
277.262	309.88
277.494	314.88
277.726	323.88
277.957	316.88
278.189	315.88
278.421	316.88
278.652	323.88
278.884	327.88
279.115	300.88
279.347	331.88
279.579	326.88
279.81	316.88
280.042	331.88
280.273	322.88
280.505	318.88
280.736	333.88
280.968	344.88
281.199	322.88
281.431	309.88
281.662	335.88
281.894	343.88
282.125	348.88
282.356	367.88
282.588	330.88
282.819	360.88
283.051	349.88
283.282	338.88
283.513	323.88
283.745	346.88
283.976	340.88
284.207	351.88
284.439	355.88
284.67	355.88
284.901	346.88
285.132	355.88
285.364	366.88
285.595	340.88
285.826	350.88
286.057	351.88
286.288	361.88
286.52	371.88
286.751	358.88
286.982	354.88
287.213	384.88
287.444	378.88
287.675	384.88
287.906	356.88
288.138	366.88
288.369	373.88
288.6	367.88
288.831	371.88
289.062	375.88
289.293	372.88
289.524	376.88
289.755	385.88
289.986	390.88
290.217	397.88
290.448	401.88
290.679	369.88
290.91	387.88
291.141	395.88
291.371	380.88
291.602	372.88
291.833	370.88
292.064	398.88
292.295	384.88
292.526	367.88
292.757	388.88
292.987	379.88
293.218	375.88
293.449	375.88
293.68	393.88
293.91	407.88
294.141	386.88
294.372	401.88
294.603	412.88
294.833	372.88
295.064	390.88
295.295	391.88
295.525	400.88
295.756	406.88
295.987	394.88
296.217	412.88
296.448	404.88
296.679	426.88
296.909	396.88
297.14	403.88
297.37	414.88
297.601	429.88
297.831	409.88
298.062	426.88
298.292	416.88
298.523	416.88
298.753	411.88
298.984	403.88
299.214	431.88
299.445	427.88
299.675	408.88
299.905	403.88
300.136	441.88
300.366	428.88
300.597	427.88
300.827	448.88
301.057	440.88
301.288	441.88
301.518	453.88
301.748	469.88
301.979	433.88
302.209	439.88
302.439	443.88
302.669	441.88
302.9	431.88
303.13	438.88
303.36	432.88
303.59	423.88
303.82	447.88
304.051	437.88
304.281	465.88
304.511	448.88
304.741	453.88
304.971	439.88
305.201	454.88
305.431	460.88
305.661	455.88
305.891	416.88
306.121	438.88
306.352	438.88
306.582	435.88
306.812	448.88
307.042	428.88
307.272	448.88
307.502	437.88
307.731	445.88
307.961	434.88
308.191	436.88
308.421	414.88
308.651	433.88
308.881	428.88
309.111	440.88
309.341	434.88
309.571	431.88
309.8	441.88
310.03	432.88
310.26	442.88
310.49	451.88
310.72	438.88
310.949	440.88
311.179	456.88
311.409	454.88
311.639	435.88
311.868	434.88
312.098	436.88
312.328	443.88
312.557	465.88
312.787	465.88
313.017	454.88
313.246	461.88
313.476	486.88
313.706	457.88
313.935	465.88
314.165	444.88
314.394	467.88
314.624	451.88
314.853	445.88
315.083	475.88
315.312	464.88
315.542	449.88
315.771	469.88
316.001	473.88
316.23	473.88
316.46	470.88
316.689	466.88
316.919	440.88
317.148	462.88
317.377	453.88
317.607	470.88
317.836	459.88
318.065	459.88
318.295	466.88
318.524	459.88
318.753	459.88
318.983	483.88
319.212	449.88
319.441	453.88
319.67	464.88
319.9	465.88
320.129	474.88
320.358	455.88
320.587	482.88
320.816	484.88
321.046	472.88
321.275	497.88
321.504	465.88
321.733	466.88
321.962	479.88
322.191	471.88
322.42	469.88
322.649	486.88
322.878	474.88
323.108	472.88
323.337	466.88
323.566	470.88
323.795	471.88
324.024	490.88
324.253	495.88
324.482	481.88
324.71	474.88
324.939	464.88
325.168	487.88
325.397	480.88
325.626	496.88
325.855	504.88
326.084	511.88
326.313	512.88
326.542	519.88
326.77	533.88
326.999	512.88
327.228	504.88
327.457	514.88
327.686	485.88
327.914	505.88
328.143	528.88
328.372	497.88
328.6	484.88
328.829	506.88
329.058	508.88
329.287	503.88
329.515	514.88
329.744	526.88
329.972	536.88
330.201	512.88
330.43	522.88
330.658	525.88
330.887	515.88
331.115	530.88
331.344	550.88
331.572	533.88
331.801	553.88
332.03	547.88
332.258	569.88
332.486	553.88
332.715	600.88
332.943	612.88
333.172	627.88
333.4	650.88
333.629	662.88
333.857	673.88
334.085	648.88
334.314	652.88
334.542	635.88
334.771	641.88
334.999	633.88
335.227	620.88
335.455	629.88
335.684	633.88
335.912	615.88
336.14	615.88
336.369	601.88
336.597	603.88
336.825	605.88
337.053	618.88
337.281	600.88
337.51	583.88
337.738	570.88
337.966	583.88
338.194	568.88
338.422	574.88
338.65	555.88
338.878	562.88
339.106	573.88
339.334	570.88
339.562	548.88
339.79	536.88
340.018	533.88
340.246	532.88
340.474	522.88
340.702	547.88
340.93	518.88
341.158	533.88
341.386	542.88
341.614	544.88
341.842	538.88
342.07	520.88
342.298	531.88
342.526	524.88
342.754	542.88
342.981	553.88
343.209	546.88
343.437	572.88
343.665	598.88
343.893	622.88
344.12	641.88
344.348	617.88
344.576	602.88
344.804	589.88
345.031	549.88
345.259	540.88
345.487	536.88
345.714	524.88
345.942	529.88
346.17	558.88
346.397	517.88
346.625	514.88
346.853	518.88
347.08	520.88
347.308	533.88
347.535	542.88
347.763	532.88
347.99	521.88
348.218	526.88
348.445	512.88
348.673	514.88
348.9	515.88
349.128	493.88
349.355	495.88
349.583	518.88
349.81	512.88
350.037	481.88
350.265	498.88
350.492	512.88
350.72	483.88
350.947	460.88
351.174	492.88
351.402	521.88
351.629	498.88
351.856	515.88
352.083	511.88
352.311	502.88
352.538	472.88
352.765	507.88
352.992	492.88
353.22	500.88
353.447	480.88
353.674	476.88
353.901	471.88
354.128	491.88
354.355	482.88
354.583	494.88
354.81	506.88
355.037	487.88
355.264	470.88
355.491	494.88
355.718	482.88
355.945	506.88
356.172	521.88
356.399	473.88
356.626	483.88
356.853	526.88
357.08	508.88
357.307	486.88
357.534	487.88
357.761	494.88
357.988	509.88
358.215	485.88
358.441	474.88
358.668	490.88
358.895	506.88
359.122	472.88
359.349	494.88
359.576	495.88
359.802	481.88
360.029	512.88
360.256	488.88
360.483	489.88
360.709	484.88
360.936	485.88
361.163	499.88
361.39	503.88
361.616	504.88
361.843	490.88
362.07	501.88
362.296	491.88
362.523	487.88
362.749	480.88
362.976	496.88
363.203	487.88
363.429	498.88
363.656	469.88
363.882	491.88
364.109	482.88
364.335	487.88
364.562	484.88
364.788	473.88
365.015	490.88
365.241	471.88
365.468	472.88
365.694	497.88
365.92	489.88
366.147	490.88
366.373	499.88
366.599	454.88
366.826	474.88
367.052	491.88
367.278	479.88
367.505	490.88
367.731	476.88
367.957	490.88
368.184	470.88
368.41	506.88
368.636	502.88
368.862	507.88
369.089	480.88
369.315	492.88
369.541	516.88
369.767	531.88
369.993	501.88
370.219	500.88
370.445	508.88
370.672	515.88
370.898	511.88
371.124	487.88
371.35	518.88
371.576	514.88
371.802	513.88
372.028	504.88
372.254	521.88
372.48	531.88
372.706	540.88
372.932	564.88
373.158	541.88
373.384	527.88
373.61	514.88
373.835	515.88
374.061	523.88
374.287	513.88
374.513	535.88
374.739	565.88
374.965	581.88
375.191	571.88
375.416	569.88
375.642	546.88
375.868	571.88
376.094	529.88
376.319	513.88
376.545	525.88
376.771	549.88
376.997	534.88
377.222	530.88
377.448	528.88
377.674	531.88
377.899	519.88
378.125	527.88
378.35	491.88
378.576	508.88
378.802	526.88
379.027	511.88
379.253	512.88
379.478	534.88
379.704	520.88
379.929	507.88
380.155	491.88
380.38	517.88
380.606	529.88
380.831	528.88
381.057	512.88
381.282	525.88
381.507	503.88
381.733	515.88
381.958	526.88
382.184	537.88
382.409	548.88
382.634	555.88
382.86	538.88
383.085	529.88
383.31	528.88
383.535	570.88
383.761	571.88
383.986	595.88
384.211	600.88
384.436	571.88
384.662	579.88
384.887	611.88
385.112	623.88
385.337	606.88
385.562	595.88
385.787	622.88
386.013	626.88
386.238	645.88
386.463	607.88
386.688	625.88
386.913	614.88
387.138	586.88
387.363	596.88
387.588	615.88
387.813	628.88
388.038	603.88
388.263	620.88
388.488	595.88
388.713	593.88
388.938	593.88
389.163	599.88
389.387	599.88
389.612	602.88
389.837	610.88
390.062	594.88
390.287	595.88
390.512	594.88
390.736	624.88
390.961	631.88
391.186	610.88
391.411	642.88
391.636	668.88
391.86	683.88
392.085	679.88
392.31	687.88
392.534	658.88
392.759	642.88
392.984	633.88
393.208	646.88
393.433	624.88
393.658	633.88
393.882	633.88
394.107	653.88
394.331	655.88
394.556	636.88
394.78	641.88
395.005	650.88
395.229	662.88
395.454	673.88
395.678	714.88
395.903	704.88
396.127	688.88
396.352	639.88
396.576	652.88
396.801	641.88
397.025	671.88
397.249	660.88
397.474	699.88
397.698	669.88
397.922	668.88
398.147	683.88
398.371	712.88
398.595	721.88
398.82	773.88
399.044	815.88
399.268	885.88
399.492	1035.88
399.717	1096.88
399.941	1095.88
400.165	978.88
400.389	906.88
400.613	841.88
400.837	804.88
401.062	770.88
401.286	781.88
401.51	774.88
401.734	733.88
401.958	776.88
402.182	800.88
402.406	782.88
402.63	817.88
402.854	794.88
403.078	840.88
403.302	833.88
403.526	828.88
403.75	863.88
403.974	890.88
404.198	865.88
404.422	871.88
404.645	876.88
404.869	856.88
405.093	858.88
405.317	841.88
405.541	843.88
405.765	852.88
405.988	850.88
406.212	855.88
406.436	838.88
406.66	886.88
406.883	875.88
407.107	902.88
407.331	940.88
407.555	992.88
407.778	994.88
408.002	948.88
408.226	921.88
408.449	912.88
408.673	866.88
408.896	859.88
409.12	888.88
409.344	886.88
409.567	873.88
409.791	883.88
410.014	864.88
410.238	876.88
410.461	854.88
410.685	862.88
410.908	852.88
411.132	837.88
411.355	790.88
411.578	826.88
411.802	790.88
412.025	818.88
412.249	800.88
412.472	796.88
412.695	783.88
412.919	774.88
413.142	805.88
413.365	774.88
413.589	785.88
413.812	788.88
414.035	780.88
414.258	783.88
414.482	778.88
414.705	794.88
414.928	768.88
415.151	792.88
415.374	768.88
415.597	784.88
415.821	759.88
416.044	725.88
416.267	763.88
416.49	761.88
416.713	733.88
416.936	742.88
417.159	761.88
417.382	769.88
417.605	773.88
417.828	777.88
418.051	771.88
418.274	753.88
418.497	767.88
418.72	779.88
418.943	781.88
419.166	843.88
419.389	897.88
419.611	875.88
419.834	822.88
420.057	791.88
420.28	778.88
420.503	774.88
420.726	763.88
420.948	770.88
421.171	759.88
421.394	783.88
421.617	785.88
421.839	766.88
422.062	772.88
422.285	753.88
422.507	782.88
422.73	786.88
422.953	789.88
423.175	811.88
423.398	805.88
423.621	803.88
423.843	785.88
424.066	825.88
424.288	816.88
424.511	798.88
424.733	796.88
424.956	785.88
425.178	781.88
425.401	773.88
425.623	782.88
425.846	753.88
426.068	758.88
426.291	762.88
426.513	744.88
426.735	739.88
426.958	742.88
427.18	692.88
427.402	719.88
427.625	722.88
427.847	714.88
428.069	721.88
428.292	683.88
428.514	680.88
428.736	716.88
428.958	697.88
429.181	713.88
429.403	695.88
429.625	700.88
429.847	718.88
430.069	694.88
430.292	674.88
430.514	654.88
430.736	689.88
430.958	707.88
431.18	649.88
431.402	703.88
431.624	718.88
431.846	686.88
432.068	677.88
432.29	728.88
432.512	711.88
432.734	725.88
432.956	714.88
433.178	697.88
433.4	711.88
433.622	714.88
433.844	700.88
434.066	705.88
434.287	688.88
434.509	753.88
434.731	774.88
434.953	768.88
435.175	799.88
435.397	774.88
435.618	765.88
435.84	730.88
436.062	734.88
436.284	698.88
436.505	692.88
436.727	715.88
436.949	739.88
437.17	710.88
437.392	713.88
437.614	675.88
437.835	675.88
438.057	690.88
438.278	664.88
438.5	660.88
438.721	711.88
438.943	701.88
439.165	682.88
439.386	692.88
439.608	699.88
439.829	684.88
440.05	695.88
440.272	724.88
440.493	699.88
440.715	728.88
440.936	736.88
441.158	766.88
441.379	764.88
441.6	804.88
441.822	802.88
442.043	787.88
442.264	785.88
442.486	773.88
442.707	789.88
442.928	785.88
443.149	787.88
443.371	783.88
443.592	778.88
443.813	799.88
444.034	803.88
444.255	832.88
444.476	851.88
444.698	886.88
444.919	904.88
445.14	977.88
445.361	902.88
445.582	832.88
445.803	802.88
446.024	757.88
446.245	776.88
446.466	747.88
446.687	739.88
446.908	772.88
447.129	717.88
447.35	698.88
447.571	696.88
447.792	683.88
448.013	699.88
448.234	682.88
448.455	655.88
448.675	675.88
448.896	655.88
449.117	649.88
449.338	663.88
449.559	649.88
449.779	670.88
450	667.88
450.221	659.88
450.442	678.88
450.662	650.88
450.883	678.88
451.104	667.88
451.324	658.88
451.545	673.88
451.766	687.88
451.986	673.88
452.207	673.88
452.428	639.88
452.648	639.88
452.869	659.88
453.089	615.88
453.31	647.88
453.53	630.88
453.751	629.88
453.971	657.88
454.192	639.88
454.412	628.88
454.633	615.88
454.853	636.88
455.073	626.88
455.294	623.88
455.514	602.88
455.734	642.88
455.955	635.88
456.175	626.88
456.395	624.88
456.616	633.88
456.836	638.88
457.056	631.88
457.276	629.88
457.497	641.88
457.717	612.88
457.937	645.88
458.157	635.88
458.377	635.88
458.598	635.88
458.818	658.88
459.038	683.88
459.258	689.88
459.478	722.88
459.698	749.88
459.918	774.88
460.138	788.88
460.358	815.88
460.578	820.88
460.798	872.88
461.018	859.88
461.238	849.88
461.458	834.88
461.678	820.88
461.898	862.88
462.118	870.88
462.338	907.88
462.558	944.88
462.777	964.88
462.997	1025.88
463.217	1075.88
463.437	1073.88
463.657	1022.88
463.876	964.88
464.096	950.88
464.316	992.88
464.536	1006.88
464.755	946.88
464.975	897.88
465.195	866.88
465.414	837.88
465.634	791.88
465.854	756.88
466.073	738.88
466.293	724.88
466.512	705.88
466.732	706.88
466.951	717.88
467.171	684.88
467.391	709.88
467.61	714.88
467.829	712.88
468.049	701.88
468.268	687.88
468.488	653.88
468.707	674.88
468.927	695.88
469.146	668.88
469.365	669.88
469.585	708.88
469.804	694.88
470.023	723.88
470.243	715.88
470.462	728.88
470.681	710.88
470.901	716.88
471.12	706.88
471.339	709.88
471.558	694.88
471.777	684.88
471.997	673.88
472.216	675.88
472.435	681.88
472.654	647.88
472.873	647.88
473.092	657.88
473.311	656.88
473.53	682.88
473.749	674.88
473.968	650.88
474.187	677.88
474.406	670.88
474.625	653.88
474.844	667.88
475.063	669.88
475.282	659.88
475.501	656.88
475.72	667.88
475.939	659.88
476.158	670.88
476.377	690.88
476.596	663.88
476.814	690.88
477.033	676.88
477.252	715.88
477.471	698.88
477.69	744.88
477.908	752.88
478.127	792.88
478.346	786.88
478.564	810.88
478.783	788.88
479.002	803.88
479.22	835.88
479.439	820.88
479.658	787.88
479.876	822.88
480.095	800.88
480.313	810.88
480.532	859.88
480.751	843.88
480.969	843.88
481.188	791.88
481.406	774.88
481.624	779.88
481.843	743.88
482.061	751.88
482.28	731.88
482.498	754.88
482.717	719.88
482.935	732.88
483.153	768.88
483.372	776.88
483.59	763.88
483.808	735.88
484.027	751.88
484.245	720.88
484.463	739.88
484.681	780.88
484.9	780.88
485.118	767.88
485.336	799.88
485.554	781.88
485.772	789.88
485.99	797.88
486.209	791.88
486.427	789.88
486.645	799.88
486.863	801.88
487.081	790.88
487.299	785.88
487.517	788.88
487.735	794.88
487.953	785.88
488.171	811.88
488.389	805.88
488.607	775.88
488.825	787.88
489.043	783.88
489.261	768.88
489.479	783.88
489.696	788.88
489.914	785.88
490.132	798.88
490.35	801.88
490.568	785.88
490.786	789.88
491.003	803.88
491.221	816.88
491.439	827.88
491.657	792.88
491.874	829.88
492.092	833.88
492.31	850.88
492.527	830.88
492.745	841.88
492.963	814.88
493.18	798.88
493.398	826.88
493.615	816.88
493.833	836.88
494.05	826.88
494.268	832.88
494.485	863.88
494.703	828.88
494.92	860.88
495.138	848.88
495.355	862.88
495.573	854.88
495.79	858.88
496.008	863.88
496.225	843.88
496.442	899.88
496.66	882.88
496.877	893.88
497.094	930.88
497.312	917.88
497.529	919.88
497.746	964.88
497.963	982.88
498.181	1008.88
498.398	1064.88
498.615	1150.88
498.832	1203.88
499.049	1279.88
499.267	1358.88
499.484	1511.88
499.701	1641.88
499.918	1801.88
500.135	2052.88
500.352	2280.88
500.569	2354.88
500.786	2293.88
501.003	2200.88
501.22	1976.88
501.437	1738.88
501.654	1575.88
501.871	1470.88
502.088	1327.88
502.305	1237.88
502.522	1162.88
502.739	1146.88
502.956	1106.88
503.172	1056.88
503.389	1001.88
503.606	968.88
503.823	964.88
504.04	963.88
504.256	946.88
504.473	998.88
504.69	984.88
504.907	976.88
505.123	894.88
505.34	868.88
505.557	830.88
505.773	844.88
505.99	799.88
506.207	783.88
506.423	759.88
506.64	763.88
506.856	760.88
507.073	741.88
507.289	730.88
507.506	734.88
507.722	724.88
507.939	724.88
508.155	705.88
508.372	710.88
508.588	730.88
508.805	704.88
509.021	705.88
509.238	703.88
509.454	724.88
509.67	684.88
509.887	678.88
510.103	699.88
510.319	667.88
510.536	683.88
510.752	678.88
510.968	663.88
511.184	668.88
511.401	666.88
511.617	662.88
511.833	649.88
512.049	660.88
512.265	680.88
512.481	683.88
512.698	643.88
512.914	673.88
513.13	687.88
513.346	694.88
513.562	676.88
513.778	667.88
513.994	670.88
514.21	673.88
514.426	680.88
514.642	680.88
514.858	678.88
515.074	679.88
515.29	692.88
515.506	735.88
515.721	710.88
515.937	723.88
516.153	717.88
516.369	734.88
516.585	754.88
516.801	812.88
517.016	822.88
517.232	817.88
517.448	891.88
517.664	947.88
517.879	927.88
518.095	918.88
518.311	898.88
518.527	848.88
518.742	824.88
518.958	793.88
519.173	784.88
519.389	758.88
519.605	762.88
519.82	721.88
520.036	715.88
520.251	711.88
520.467	700.88
520.682	670.88
520.898	668.88
521.113	696.88
521.329	648.88
521.544	670.88
521.76	641.88
521.975	656.88
522.19	633.88
522.406	649.88
522.621	634.88
522.836	626.88
523.052	636.88
523.267	616.88
523.482	638.88
523.698	638.88
523.913	624.88
524.128	623.88
524.343	630.88
524.559	610.88
524.774	618.88
524.989	612.88
525.204	632.88
525.419	615.88
525.634	622.88
525.849	624.88
526.064	617.88
526.28	588.88
526.495	604.88
526.71	613.88
526.925	600.88
527.14	587.88
527.355	587.88
527.57	594.88
527.785	616.88
527.999	611.88
528.214	592.88
528.429	610.88
528.644	602.88
528.859	618.88
529.074	610.88
529.289	588.88
529.503	602.88
529.718	618.88
529.933	600.88
530.148	589.88
530.363	588.88
530.577	623.88
530.792	610.88
531.007	608.88
531.221	608.88
531.436	590.88
531.651	612.88
531.865	604.88
532.08	618.88
532.295	603.88
532.509	603.88
532.724	610.88
532.938	580.88
533.153	586.88
533.367	596.88
533.582	584.88
533.796	599.88
534.011	602.88
534.225	566.88
534.44	573.88
534.654	592.88
534.868	599.88
535.083	586.88
535.297	578.88
535.511	570.88
535.726	596.88
535.94	587.88
536.154	594.88
536.369	578.88
536.583	583.88
536.797	562.88
537.011	540.88
537.225	570.88
537.44	553.88
537.654	575.88
537.868	551.88
538.082	562.88
538.296	554.88
538.51	550.88
538.724	543.88
538.938	568.88
539.153	523.88
539.367	560.88
539.581	578.88
539.795	554.88
540.009	563.88
540.222	550.88
540.436	556.88
540.65	562.88
540.864	536.88
541.078	533.88
541.292	550.88
541.506	559.88
541.72	551.88
541.934	552.88
542.147	565.88
542.361	566.88
542.575	556.88
542.789	551.88
543.002	534.88
543.216	545.88
543.43	535.88
543.644	536.88
543.857	559.88
544.071	547.88
544.285	577.88
544.498	550.88
544.712	564.88
544.925	555.88
545.139	553.88
545.352	566.88
545.566	567.88
545.779	555.88
545.993	572.88
546.206	552.88
546.42	558.88
546.633	582.88
546.847	545.88
547.06	561.88
547.274	546.88
547.487	563.88
547.7	578.88
547.914	579.88
548.127	582.88
548.34	574.88
548.554	570.88
548.767	569.88
548.98	567.88
549.193	559.88
549.407	576.88
549.62	597.88
549.833	579.88
550.046	592.88
550.259	558.88
550.473	577.88
550.686	566.88
550.899	546.88
551.112	552.88
551.325	550.88
551.538	579.88
551.751	538.88
551.964	536.88
552.177	555.88
552.39	566.88
552.603	574.88
552.816	590.88
553.029	592.88
553.242	594.88
553.455	586.88
553.667	616.88
553.88	578.88
554.093	574.88
554.306	597.88
554.519	571.88
554.732	570.88
554.944	551.88
555.157	556.88
555.37	546.88
555.583	524.88
555.795	511.88
556.008	520.88
556.221	500.88
556.433	491.88
556.646	518.88
556.859	481.88
557.071	498.88
557.284	486.88
557.496	467.88
557.709	466.88
557.921	473.88
558.134	492.88
558.346	472.88
558.559	474.88
558.771	480.88
558.984	454.88
559.196	472.88
559.409	487.88
559.621	460.88
559.833	487.88
560.046	454.88
560.258	453.88
560.47	467.88
560.683	471.88
560.895	482.88
561.107	484.88
561.32	480.88
561.532	464.88
561.744	483.88
561.956	466.88
562.168	457.88
562.381	447.88
562.593	448.88
562.805	465.88
563.017	460.88
563.229	465.88
563.441	459.88
563.653	468.88
563.865	450.88
564.077	485.88
564.289	468.88
564.501	485.88
564.713	483.88
564.925	516.88
565.137	538.88
565.349	520.88
565.561	527.88
565.773	540.88
565.985	570.88
566.197	591.88
566.408	629.88
566.62	673.88
566.832	728.88
567.044	723.88
567.255	694.88
567.467	721.88
567.679	770.88
567.891	823.88
568.102	841.88
568.314	788.88
568.526	721.88
568.737	671.88
568.949	634.88
569.161	584.88
569.372	541.88
569.584	515.88
569.795	507.88
570.007	489.88
570.218	465.88
570.43	479.88
570.641	487.88
570.853	469.88
571.064	480.88
571.276	466.88
571.487	425.88
571.698	440.88
571.91	442.88
572.121	414.88
572.333	405.88
572.544	400.88
572.755	402.88
572.966	385.88
573.178	411.88
573.389	398.88
573.6	413.88
573.811	399.88
574.023	380.88
574.234	369.88
574.445	370.88
574.656	375.88
574.867	384.88
575.078	388.88
575.289	369.88
575.501	374.88
575.712	379.88
575.923	362.88
576.134	362.88
576.345	356.88
576.556	353.88
576.767	342.88
576.978	366.88
577.188	366.88
577.399	362.88
577.61	353.88
577.821	347.88
578.032	360.88
578.243	331.88
578.454	336.88
578.665	344.88
578.875	348.88
579.086	346.88
579.297	338.88
579.508	311.88
579.718	342.88
579.929	336.88
580.14	330.88
580.35	325.88
580.561	334.88
580.772	343.88
580.982	327.88
581.193	340.88
581.403	347.88
581.614	314.88
581.825	332.88
582.035	310.88
582.246	329.88
582.456	320.88
582.667	335.88
582.877	316.88
583.087	284.88
583.298	319.88
583.508	319.88
583.719	314.88
583.929	324.88
584.139	313.88
584.35	292.88
584.56	307.88
584.77	324.88
584.981	294.88
585.191	311.88
585.401	329.88
585.611	312.88
585.821	315.88
586.032	306.88
586.242	313.88
586.452	311.88
586.662	292.88
586.872	295.88
587.082	288.88
587.292	316.88
587.502	315.88
587.713	298.88
587.923	322.88
588.133	317.88
588.343	291.88
588.553	314.88
588.762	298.88
588.972	306.88
589.182	348.88
589.392	353.88
589.602	329.88
589.812	357.88
590.022	322.88
590.232	316.88
590.441	324.88
590.651	310.88
590.861	290.88
591.071	322.88
591.281	332.88
591.49	334.88
591.7	319.88
591.91	322.88
592.119	323.88
592.329	328.88
592.539	321.88
592.748	352.88
592.958	371.88
593.167	370.88
593.377	369.88
593.587	383.88
593.796	383.88
594.006	396.88
594.215	387.88
594.424	385.88
594.634	382.88
594.843	356.88
595.053	364.88
595.262	368.88
595.472	352.88
595.681	334.88
595.89	321.88
596.1	298.88
596.309	310.88
596.518	291.88
596.727	292.88
596.937	288.88
597.146	290.88
597.355	272.88
597.564	287.88
597.774	288.88
597.983	274.88
598.192	264.88
598.401	256.88
598.61	267.88
598.819	282.88
599.028	283.88
599.237	268.88
599.446	250.88
599.655	246.88
599.864	268.88
600.073	255.88
600.282	261.88
600.491	258.88
600.7	254.88
600.909	243.88
601.118	268.88
601.327	260.88
601.536	263.88
601.745	259.88
601.953	256.88
602.162	243.88
602.371	266.88
602.58	267.88
602.789	247.88
602.997	242.88
603.206	252.88
603.415	258.88
603.623	251.88
603.832	254.88
604.041	249.88
604.249	258.88
604.458	257.88
604.666	253.88
604.875	241.88
605.084	263.88
605.292	258.88
605.501	255.88
605.709	259.88
605.918	237.88
606.126	248.88
606.334	223.88
606.543	230.88
606.751	249.88
606.96	239.88
607.168	224.88
607.376	245.88
607.585	246.88
607.793	230.88
608.001	236.88
608.21	229.88
608.418	240.88
608.626	248.88
608.834	236.88
609.043	250.88
609.251	249.88
609.459	232.88
609.667	236.88
609.875	220.88
610.083	229.88
610.291	245.88
610.499	227.88
610.707	224.88
610.916	215.88
611.124	231.88
611.332	239.88
611.54	224.88
611.748	238.88
611.955	231.88
612.163	224.88
612.371	237.88
612.579	235.88
612.787	227.88
612.995	230.88
613.203	220.88
613.411	231.88
613.618	228.88
613.826	231.88
614.034	219.88
614.242	226.88
614.449	247.88
614.657	220.88
614.865	232.88
615.072	234.88
615.28	219.88
615.488	223.88
615.695	207.88
615.903	220.88
616.111	241.88
616.318	257.88
616.526	224.88
616.733	236.88
616.941	222.88
617.148	219.88
617.356	238.88
617.563	226.88
617.771	233.88
617.978	219.88
618.185	243.88
618.393	238.88
618.6	222.88
618.807	230.88
619.015	235.88
619.222	227.88
619.429	219.88
619.637	222.88
619.844	216.88
620.051	202.88
620.258	217.88
620.466	215.88
620.673	220.88
620.88	215.88
621.087	207.88
621.294	197.88
621.501	208.88
621.708	222.88
621.915	213.88
622.122	211.88
622.329	207.88
622.536	197.88
622.743	206.88
622.95	216.88
623.157	224.88
623.364	221.88
623.571	198.88
623.778	198.88
623.985	198.88
624.192	207.88
624.399	202.88
624.606	216.88
624.812	209.88
625.019	201.88
625.226	200.88
625.433	196.88
625.639	191.88
625.846	181.88
626.053	199.88
626.259	194.88
626.466	206.88
626.673	192.88
626.879	206.88
627.086	192.88
627.293	197.88
627.499	197.88
627.706	197.88
627.912	190.88
628.119	202.88
628.325	194.88
628.532	191.88
628.738	182.88
628.945	190.88
629.151	172.88
629.357	178.88
629.564	193.88
629.77	170.88
629.976	190.88
630.183	196.88
630.389	193.88
630.595	191.88
630.802	194.88
631.008	173.88
631.214	206.88
631.42	177.88
631.627	197.88
631.833	182.88
632.039	185.88
632.245	177.88
632.451	175.88
632.657	174.88
632.863	159.88
633.069	180.88
633.275	178.88
633.481	166.88
633.688	180.88
633.893	186.88
634.099	181.88
634.305	166.88
634.511	176.88
634.717	168.88
634.923	168.88
635.129	171.88
635.335	170.88
635.541	179.88
635.747	159.88
635.952	159.88
636.158	169.88
636.364	178.88
636.57	179.88
636.775	172.88
636.981	181.88
637.187	175.88
637.392	167.88
637.598	182.88
637.804	187.88
638.009	161.88
638.215	174.88
638.421	163.88
638.626	164.88
638.832	171.88
639.037	174.88
639.243	181.88
639.448	165.88
639.654	175.88
639.859	161.88
640.065	169.88
640.27	152.88
640.475	159.88
640.681	168.88
640.886	166.88
641.091	147.88
641.297	168.88
641.502	174.88
641.707	166.88
641.913	177.88
642.118	152.88
642.323	169.88
642.528	162.88
642.733	166.88
642.939	160.88
643.144	172.88
643.349	162.88
643.554	147.88
643.759	152.88
643.964	161.88
644.169	155.88
644.374	168.88
644.579	170.88
644.784	164.88
644.989	171.88
645.194	171.88
645.399	158.88
645.604	163.88
645.809	160.88
646.014	161.88
646.219	168.88
646.423	172.88
646.628	170.88
646.833	164.88
647.038	137.88
647.243	166.88
647.447	147.88
647.652	153.88
647.857	179.88
648.062	154.88
648.266	172.88
648.471	171.88
648.676	167.88
648.88	180.88
649.085	174.88
649.289	163.88
649.494	160.88
649.698	156.88
649.903	162.88
650.107	150.88
650.312	161.88
650.516	158.88
650.721	163.88
650.925	146.88
651.13	146.88
651.334	135.88
651.539	149.88
651.743	149.88
651.947	149.88
652.152	133.88
652.356	141.88
652.56	133.88
652.764	144.88
652.969	139.88
653.173	141.88
653.377	138.88
653.581	136.88
653.785	137.88
653.99	127.88
654.194	144.88
654.398	127.88
654.602	126.88
654.806	142.88
655.01	131.88
655.214	130.88
655.418	120.88
655.622	136.88
655.826	115.88
656.03	120.88
656.234	120.88
656.438	118.88
656.642	134.88
656.846	139.88
657.049	130.88
657.253	124.88
657.457	118.88
657.661	113.88
657.865	115.88
658.068	110.88
658.272	115.88
658.476	122.88
658.68	100.88
658.883	89.88
659.087	97.88
659.291	103.88
659.494	96.88
659.698	105.88
659.901	102.88
660.105	108.88
660.309	101.88
660.512	95.88
660.716	90.88
660.919	94.88
661.123	105.88
661.326	96.88
661.53	81.88
661.733	87.88
661.936	86.88
662.14	80.88
662.343	89.88
662.546	94.88
662.75	88.88
662.953	79.88
663.156	84.88
663.36	80.88
663.563	86.88
663.766	84.88
663.969	78.88
664.173	82.88
664.376	79.88
664.579	71.88
664.782	82.88
664.985	83.88
665.188	75.88
665.391	69.88
665.594	70.88
665.797	66.88
666	68.88
666.203	81.88
666.406	83.88
666.609	90.88
666.812	83.88
667.015	71.88
667.218	77.88
667.421	82.88
667.624	69.88
667.827	78.88
668.03	70.88
668.232	67.88
668.435	86.88
668.638	68.88
668.841	80.88
669.043	95.88
669.246	83.88
669.449	70.88
669.651	72.88
669.854	79.88
670.057	78.88
670.259	86.88
670.462	82.88
670.665	74.88
670.867	88.88
671.07	63.88
671.272	75.88
671.475	85.88
671.677	78.88
671.88	80.88
672.082	85.88
672.284	72.88
672.487	92.88
672.689	75.88
672.892	71.88
