Data from NiCl2@0.125M.TitratingCurve.Agarose3%dH2O.NegLispCup.LampEnergy10.LIBS07252019_HRD10591_18-28-44-575.txt Node
Date: Thu Jul 25 18:28:44 EDT 2019
User: cochatt
Spectrometer: HR+D1059
Trigger mode: 1
Integration Time (sec): 1.000000E-1
Scans to average: 1
Electric dark correction enabled: true
Nonlinearity correction enabled: false
Boxcar width: 0
XAxis mode: Wavelengths
Number of Pixels in Spectrum: 2048
>>>>>Begin Spectral Data<<<<<
223.165	-14.88
223.4	-14.88
223.635	-14.88
223.869	-15.88
224.104	-25.88
224.338	-11.88
224.573	-32.88
224.808	-26.88
225.042	2.12
225.277	-11.88
225.511	0.12
225.746	-4.88
225.98	10.12
226.215	17.12
226.449	19.12
226.683	20.12
226.918	29.12
227.152	47.12
227.387	42.12
227.621	28.12
227.856	45.12
228.09	62.12
228.324	54.12
228.559	54.12
228.793	69.12
229.027	95.12
229.262	108.12
229.496	116.12
229.73	104.12
229.964	131.12
230.199	128.12
230.433	105.12
230.667	119.12
230.901	127.12
231.136	130.12
231.37	132.12
231.604	152.12
231.838	143.12
232.072	139.12
232.306	144.12
232.541	140.12
232.775	138.12
233.009	136.12
233.243	151.12
233.477	137.12
233.711	145.12
233.945	156.12
234.179	140.12
234.413	155.12
234.647	167.12
234.881	148.12
235.115	151.12
235.349	154.12
235.583	151.12
235.817	128.12
236.051	134.12
236.285	149.12
236.519	153.12
236.753	171.12
236.987	150.12
237.221	148.12
237.455	152.12
237.689	155.12
237.922	172.12
238.156	164.12
238.39	156.12
238.624	179.12
238.858	156.12
239.091	161.12
239.325	160.12
239.559	166.12
239.793	165.12
240.027	170.12
240.26	166.12
240.494	173.12
240.728	180.12
240.961	184.12
241.195	182.12
241.429	177.12
241.662	175.12
241.896	170.12
242.13	181.12
242.363	177.12
242.597	180.12
242.83	197.12
243.064	182.12
243.298	198.12
243.531	189.12
243.765	196.12
243.998	198.12
244.232	192.12
244.465	212.12
244.699	194.12
244.932	184.12
245.166	200.12
245.399	195.12
245.633	205.12
245.866	198.12
246.099	204.12
246.333	221.12
246.566	205.12
246.8	208.12
247.033	210.12
247.266	205.12
247.5	218.12
247.733	214.12
247.966	217.12
248.2	203.12
248.433	230.12
248.666	217.12
248.899	218.12
249.133	224.12
249.366	225.12
249.599	240.12
249.832	224.12
250.066	235.12
250.299	231.12
250.532	253.12
250.765	233.12
250.998	259.12
251.231	239.12
251.465	253.12
251.698	248.12
251.931	263.12
252.164	251.12
252.397	251.12
252.63	260.12
252.863	221.12
253.096	247.12
253.329	265.12
253.562	252.12
253.795	255.12
254.028	264.12
254.261	258.12
254.494	261.12
254.727	262.12
254.96	265.12
255.193	264.12
255.426	273.12
255.659	252.12
255.892	281.12
256.124	263.12
256.357	278.12
256.59	289.12
256.823	269.12
257.056	267.12
257.289	289.12
257.521	290.12
257.754	295.12
257.987	304.12
258.22	290.12
258.452	315.12
258.685	301.12
258.918	283.12
259.151	288.12
259.383	294.12
259.616	300.12
259.849	289.12
260.081	288.12
260.314	299.12
260.547	319.12
260.779	295.12
261.012	294.12
261.244	296.12
261.477	322.12
261.71	298.12
261.942	315.12
262.175	311.12
262.407	299.12
262.64	317.12
262.872	313.12
263.105	306.12
263.337	320.12
263.57	326.12
263.802	348.12
264.035	329.12
264.267	324.12
264.499	321.12
264.732	316.12
264.964	333.12
265.197	336.12
265.429	338.12
265.661	319.12
265.894	343.12
266.126	347.12
266.358	319.12
266.591	341.12
266.823	336.12
267.055	334.12
267.287	358.12
267.52	360.12
267.752	353.12
267.984	344.12
268.216	351.12
268.448	357.12
268.681	359.12
268.913	353.12
269.145	359.12
269.377	349.12
269.609	357.12
269.841	348.12
270.073	369.12
270.306	383.12
270.538	356.12
270.77	348.12
271.002	364.12
271.234	346.12
271.466	362.12
271.698	372.12
271.93	354.12
272.162	339.12
272.394	384.12
272.626	384.12
272.858	379.12
273.09	373.12
273.322	374.12
273.553	364.12
273.785	393.12
274.017	372.12
274.249	377.12
274.481	377.12
274.713	378.12
274.945	385.12
275.176	387.12
275.408	389.12
275.64	410.12
275.872	407.12
276.104	406.12
276.335	414.12
276.567	409.12
276.799	403.12
277.031	402.12
277.262	404.12
277.494	419.12
277.726	412.12
277.957	410.12
278.189	418.12
278.421	404.12
278.652	388.12
278.884	420.12
279.115	418.12
279.347	416.12
279.579	416.12
279.81	401.12
280.042	420.12
280.273	423.12
280.505	442.12
280.736	439.12
280.968	442.12
281.199	426.12
281.431	432.12
281.662	433.12
281.894	436.12
282.125	400.12
282.356	455.12
282.588	442.12
282.819	445.12
283.051	428.12
283.282	433.12
283.513	440.12
283.745	453.12
283.976	466.12
284.207	462.12
284.439	469.12
284.67	468.12
284.901	448.12
285.132	437.12
285.364	447.12
285.595	453.12
285.826	485.12
286.057	458.12
286.288	455.12
286.52	478.12
286.751	492.12
286.982	477.12
287.213	476.12
287.444	469.12
287.675	475.12
287.906	488.12
288.138	477.12
288.369	500.12
288.6	471.12
288.831	480.12
289.062	490.12
289.293	467.12
289.524	467.12
289.755	477.12
289.986	467.12
290.217	475.12
290.448	485.12
290.679	486.12
290.91	528.12
291.141	473.12
291.371	505.12
291.602	500.12
291.833	480.12
292.064	505.12
292.295	485.12
292.526	483.12
292.757	491.12
292.987	497.12
293.218	501.12
293.449	508.12
293.68	520.12
293.91	505.12
294.141	496.12
294.372	479.12
294.603	515.12
294.833	510.12
295.064	480.12
295.295	498.12
295.525	491.12
295.756	523.12
295.987	521.12
296.217	515.12
296.448	511.12
296.679	525.12
296.909	516.12
297.14	519.12
297.37	535.12
297.601	549.12
297.831	550.12
298.062	528.12
298.292	533.12
298.523	530.12
298.753	548.12
298.984	529.12
299.214	558.12
299.445	538.12
299.675	570.12
299.905	529.12
300.136	541.12
300.366	541.12
300.597	547.12
300.827	560.12
301.057	568.12
301.288	587.12
301.518	595.12
301.748	571.12
301.979	608.12
302.209	578.12
302.439	586.12
302.669	565.12
302.9	568.12
303.13	564.12
303.36	584.12
303.59	556.12
303.82	550.12
304.051	560.12
304.281	553.12
304.511	555.12
304.741	569.12
304.971	577.12
305.201	556.12
305.431	556.12
305.661	557.12
305.891	555.12
306.121	578.12
306.352	570.12
306.582	563.12
306.812	572.12
307.042	562.12
307.272	590.12
307.502	541.12
307.731	542.12
307.961	552.12
308.191	547.12
308.421	529.12
308.651	541.12
308.881	539.12
309.111	556.12
309.341	531.12
309.571	549.12
309.8	543.12
310.03	543.12
310.26	551.12
310.49	550.12
310.72	548.12
310.949	549.12
311.179	577.12
311.409	580.12
311.639	576.12
311.868	566.12
312.098	568.12
312.328	570.12
312.557	587.12
312.787	577.12
313.017	600.12
313.246	572.12
313.476	570.12
313.706	576.12
313.935	604.12
314.165	609.12
314.394	589.12
314.624	585.12
314.853	593.12
315.083	588.12
315.312	599.12
315.542	600.12
315.771	587.12
316.001	575.12
316.23	585.12
316.46	560.12
316.689	571.12
316.919	581.12
317.148	581.12
317.377	597.12
317.607	580.12
317.836	593.12
318.065	587.12
318.295	577.12
318.524	586.12
318.753	588.12
318.983	568.12
319.212	581.12
319.441	584.12
319.67	564.12
319.9	569.12
320.129	598.12
320.358	577.12
320.587	605.12
320.816	564.12
321.046	581.12
321.275	596.12
321.504	600.12
321.733	568.12
321.962	605.12
322.191	594.12
322.42	583.12
322.649	599.12
322.878	593.12
323.108	608.12
323.337	601.12
323.566	585.12
323.795	602.12
324.024	612.12
324.253	601.12
324.482	601.12
324.71	607.12
324.939	620.12
325.168	630.12
325.397	628.12
325.626	615.12
325.855	625.12
326.084	641.12
326.313	640.12
326.542	627.12
326.77	633.12
326.999	655.12
327.228	644.12
327.457	659.12
327.686	618.12
327.914	616.12
328.143	668.12
328.372	651.12
328.6	631.12
328.829	624.12
329.058	656.12
329.287	634.12
329.515	650.12
329.744	659.12
329.972	659.12
330.201	665.12
330.43	652.12
330.658	647.12
330.887	666.12
331.115	637.12
331.344	679.12
331.572	669.12
331.801	697.12
332.03	714.12
332.258	723.12
332.486	746.12
332.715	736.12
332.943	786.12
333.172	836.12
333.4	863.12
333.629	886.12
333.857	885.12
334.085	850.12
334.314	863.12
334.542	813.12
334.771	822.12
334.999	817.12
335.227	794.12
335.455	805.12
335.684	791.12
335.912	800.12
336.14	765.12
336.369	780.12
336.597	772.12
336.825	765.12
337.053	770.12
337.281	747.12
337.51	739.12
337.738	739.12
337.966	692.12
338.194	696.12
338.422	698.12
338.65	719.12
338.878	679.12
339.106	713.12
339.334	708.12
339.562	680.12
339.79	679.12
340.018	677.12
340.246	667.12
340.474	669.12
340.702	658.12
340.93	652.12
341.158	666.12
341.386	665.12
341.614	675.12
341.842	679.12
342.07	661.12
342.298	692.12
342.526	666.12
342.754	680.12
342.981	659.12
343.209	673.12
343.437	717.12
343.665	754.12
343.893	835.12
344.12	858.12
344.348	810.12
344.576	771.12
344.804	736.12
345.031	703.12
345.259	678.12
345.487	687.12
345.714	670.12
345.942	640.12
346.17	674.12
346.397	671.12
346.625	654.12
346.853	650.12
347.08	661.12
347.308	663.12
347.535	641.12
347.763	646.12
347.99	671.12
348.218	650.12
348.445	625.12
348.673	630.12
348.9	645.12
349.128	611.12
349.355	627.12
349.583	627.12
349.81	604.12
350.037	629.12
350.265	631.12
350.492	619.12
350.72	622.12
350.947	631.12
351.174	602.12
351.402	636.12
351.629	641.12
351.856	617.12
352.083	616.12
352.311	615.12
352.538	633.12
352.765	626.12
352.992	622.12
353.22	621.12
353.447	634.12
353.674	615.12
353.901	619.12
354.128	629.12
354.355	623.12
354.583	606.12
354.81	643.12
355.037	618.12
355.264	626.12
355.491	605.12
355.718	632.12
355.945	642.12
356.172	650.12
356.399	646.12
356.626	624.12
356.853	634.12
357.08	636.12
357.307	622.12
357.534	612.12
357.761	652.12
357.988	620.12
358.215	630.12
358.441	610.12
358.668	624.12
358.895	622.12
359.122	617.12
359.349	623.12
359.576	615.12
359.802	631.12
360.029	613.12
360.256	629.12
360.483	615.12
360.709	643.12
360.936	644.12
361.163	609.12
361.39	615.12
361.616	611.12
361.843	626.12
362.07	629.12
362.296	610.12
362.523	631.12
362.749	639.12
362.976	624.12
363.203	618.12
363.429	611.12
363.656	610.12
363.882	637.12
364.109	643.12
364.335	619.12
364.562	634.12
364.788	629.12
365.015	619.12
365.241	627.12
365.468	605.12
365.694	609.12
365.92	613.12
366.147	615.12
366.373	616.12
366.599	635.12
366.826	632.12
367.052	625.12
367.278	626.12
367.505	648.12
367.731	606.12
367.957	629.12
368.184	637.12
368.41	617.12
368.636	623.12
368.862	625.12
369.089	653.12
369.315	654.12
369.541	633.12
369.767	643.12
369.993	663.12
370.219	648.12
370.445	674.12
370.672	669.12
370.898	653.12
371.124	675.12
371.35	667.12
371.576	678.12
371.802	689.12
372.028	665.12
372.254	659.12
372.48	696.12
372.706	694.12
372.932	720.12
373.158	691.12
373.384	687.12
373.61	677.12
373.835	671.12
374.061	664.12
374.287	714.12
374.513	682.12
374.739	720.12
374.965	742.12
375.191	753.12
375.416	763.12
375.642	724.12
375.868	739.12
376.094	712.12
376.319	699.12
376.545	707.12
376.771	704.12
376.997	681.12
377.222	697.12
377.448	709.12
377.674	697.12
377.899	714.12
378.125	680.12
378.35	663.12
378.576	651.12
378.802	680.12
379.027	688.12
379.253	688.12
379.478	692.12
379.704	700.12
379.929	659.12
380.155	680.12
380.38	685.12
380.606	663.12
380.831	671.12
381.057	689.12
381.282	679.12
381.507	673.12
381.733	681.12
381.958	672.12
382.184	690.12
382.409	711.12
382.634	725.12
382.86	682.12
383.085	725.12
383.31	731.12
383.535	737.12
383.761	740.12
383.986	768.12
384.211	788.12
384.436	783.12
384.662	820.12
384.887	833.12
385.112	803.12
385.337	810.12
385.562	819.12
385.787	834.12
386.013	852.12
386.238	839.12
386.463	828.12
386.688	837.12
386.913	827.12
387.138	828.12
387.363	844.12
387.588	803.12
387.813	803.12
388.038	788.12
388.263	792.12
388.488	837.12
388.713	835.12
388.938	809.12
389.163	812.12
389.387	808.12
389.612	780.12
389.837	810.12
390.062	803.12
390.287	812.12
390.512	817.12
390.736	827.12
390.961	813.12
391.186	849.12
391.411	879.12
391.636	866.12
391.86	927.12
392.085	920.12
392.31	904.12
392.534	889.12
392.759	882.12
392.984	865.12
393.208	876.12
393.433	858.12
393.658	895.12
393.882	872.12
394.107	884.12
394.331	861.12
394.556	887.12
394.78	888.12
395.005	913.12
395.229	910.12
395.454	892.12
395.678	935.12
395.903	947.12
396.127	913.12
396.352	874.12
396.576	869.12
396.801	851.12
397.025	851.12
397.249	876.12
397.474	939.12
397.698	889.12
397.922	938.12
398.147	957.12
398.371	926.12
398.595	948.12
398.82	1027.12
399.044	1095.12
399.268	1200.12
399.492	1412.12
399.717	1595.12
399.941	1583.12
400.165	1385.12
400.389	1246.12
400.613	1169.12
400.837	1077.12
401.062	1032.12
401.286	1077.12
401.51	1037.12
401.734	1000.12
401.958	1050.12
402.182	1076.12
402.406	1064.12
402.63	1095.12
402.854	1088.12
403.078	1127.12
403.302	1163.12
403.526	1177.12
403.75	1175.12
403.974	1201.12
404.198	1211.12
404.422	1246.12
404.645	1220.12
404.869	1151.12
405.093	1175.12
405.317	1151.12
405.541	1154.12
405.765	1144.12
405.988	1132.12
406.212	1132.12
406.436	1144.12
406.66	1179.12
406.883	1180.12
407.107	1250.12
407.331	1289.12
407.555	1351.12
407.778	1338.12
408.002	1299.12
408.226	1312.12
408.449	1258.12
408.673	1207.12
408.896	1187.12
409.12	1151.12
409.344	1182.12
409.567	1147.12
409.791	1210.12
410.014	1187.12
410.238	1151.12
410.461	1154.12
410.685	1143.12
410.908	1110.12
411.132	1115.12
411.355	1057.12
411.578	1067.12
411.802	1049.12
412.025	1060.12
412.249	1103.12
412.472	1084.12
412.695	1071.12
412.919	1025.12
413.142	1002.12
413.365	1015.12
413.589	1045.12
413.812	1022.12
414.035	1037.12
414.258	1050.12
414.482	1017.12
414.705	1049.12
414.928	1077.12
415.151	1053.12
415.374	1047.12
415.597	1025.12
415.821	1014.12
416.044	1021.12
416.267	1023.12
416.49	974.12
416.713	1013.12
416.936	1052.12
417.159	1030.12
417.382	1012.12
417.605	984.12
417.828	1004.12
418.051	1018.12
418.274	1046.12
418.497	1048.12
418.72	1056.12
418.943	1049.12
419.166	1105.12
419.389	1189.12
419.611	1183.12
419.834	1086.12
420.057	1080.12
420.28	1049.12
420.503	1007.12
420.726	1006.12
420.948	1037.12
421.171	1023.12
421.394	1042.12
421.617	997.12
421.839	1011.12
422.062	1052.12
422.285	1027.12
422.507	1069.12
422.73	1044.12
422.953	1064.12
423.175	1059.12
423.398	1090.12
423.621	1083.12
423.843	1123.12
424.066	1103.12
424.288	1082.12
424.511	1063.12
424.733	1049.12
424.956	1027.12
425.178	1058.12
425.401	1016.12
425.623	1052.12
425.846	971.12
426.068	1011.12
426.291	1004.12
426.513	985.12
426.735	954.12
426.958	947.12
427.18	955.12
427.402	944.12
427.625	937.12
427.847	919.12
428.069	911.12
428.292	932.12
428.514	903.12
428.736	899.12
428.958	903.12
429.181	885.12
429.403	891.12
429.625	890.12
429.847	866.12
430.069	850.12
430.292	894.12
430.514	855.12
430.736	870.12
430.958	867.12
431.18	873.12
431.402	890.12
431.624	889.12
431.846	896.12
432.068	916.12
432.29	917.12
432.512	909.12
432.734	915.12
432.956	883.12
433.178	907.12
433.4	925.12
433.622	935.12
433.844	924.12
434.066	935.12
434.287	921.12
434.509	955.12
434.731	1014.12
434.953	1007.12
435.175	1055.12
435.397	1013.12
435.618	985.12
435.84	945.12
436.062	944.12
436.284	920.12
436.505	891.12
436.727	922.12
436.949	951.12
437.17	897.12
437.392	898.12
437.614	871.12
437.835	865.12
438.057	874.12
438.278	856.12
438.5	879.12
438.721	879.12
438.943	875.12
439.165	889.12
439.386	891.12
439.608	897.12
439.829	899.12
440.05	903.12
440.272	907.12
440.493	940.12
440.715	931.12
440.936	937.12
441.158	959.12
441.379	994.12
441.6	1042.12
441.822	1056.12
442.043	1042.12
442.264	1001.12
442.486	1021.12
442.707	1034.12
442.928	999.12
443.149	1024.12
443.371	986.12
443.592	1017.12
443.813	1027.12
444.034	1023.12
444.255	1067.12
444.476	1110.12
444.698	1220.12
444.919	1246.12
445.14	1348.12
445.361	1203.12
445.582	1085.12
445.803	1007.12
446.024	988.12
446.245	972.12
446.466	955.12
446.687	924.12
446.908	910.12
447.129	919.12
447.35	887.12
447.571	874.12
447.792	853.12
448.013	865.12
448.234	872.12
448.455	874.12
448.675	828.12
448.896	823.12
449.117	852.12
449.338	848.12
449.559	832.12
449.779	829.12
450	830.12
450.221	819.12
450.442	835.12
450.662	859.12
450.883	852.12
451.104	860.12
451.324	839.12
451.545	843.12
451.766	865.12
451.986	869.12
452.207	828.12
452.428	835.12
452.648	797.12
452.869	805.12
453.089	850.12
453.31	804.12
453.53	818.12
453.751	814.12
453.971	825.12
454.192	799.12
454.412	785.12
454.633	809.12
454.853	804.12
455.073	792.12
455.294	784.12
455.514	797.12
455.734	784.12
455.955	781.12
456.175	769.12
456.395	771.12
456.616	781.12
456.836	769.12
457.056	745.12
457.276	789.12
457.497	801.12
457.717	791.12
457.937	792.12
458.157	808.12
458.377	798.12
458.598	830.12
458.818	835.12
459.038	866.12
459.258	895.12
459.478	938.12
459.698	931.12
459.918	976.12
460.138	1016.12
460.358	1071.12
460.578	1079.12
460.798	1065.12
461.018	1106.12
461.238	1074.12
461.458	1056.12
461.678	1089.12
461.898	1089.12
462.118	1096.12
462.338	1148.12
462.558	1159.12
462.777	1233.12
462.997	1329.12
463.217	1474.12
463.437	1479.12
463.657	1367.12
463.876	1270.12
464.096	1290.12
464.316	1305.12
464.536	1281.12
464.755	1209.12
464.975	1180.12
465.195	1131.12
465.414	1060.12
465.634	1023.12
465.854	976.12
466.073	933.12
466.293	907.12
466.512	916.12
466.732	906.12
466.951	889.12
467.171	867.12
467.391	887.12
467.61	885.12
467.829	854.12
468.049	871.12
468.268	860.12
468.488	831.12
468.707	864.12
468.927	850.12
469.146	845.12
469.365	840.12
469.585	864.12
469.804	880.12
470.023	873.12
470.243	901.12
470.462	925.12
470.681	927.12
470.901	904.12
471.12	923.12
471.339	901.12
471.558	855.12
471.777	863.12
471.997	855.12
472.216	832.12
472.435	796.12
472.654	835.12
472.873	802.12
473.092	839.12
473.311	823.12
473.53	825.12
473.749	802.12
473.968	807.12
474.187	841.12
474.406	811.12
474.625	815.12
474.844	826.12
475.063	818.12
475.282	813.12
475.501	825.12
475.72	813.12
475.939	845.12
476.158	845.12
476.377	861.12
476.596	842.12
476.814	876.12
477.033	858.12
477.252	879.12
477.471	883.12
477.69	904.12
477.908	927.12
478.127	963.12
478.346	997.12
478.564	1009.12
478.783	1035.12
479.002	1033.12
479.22	1012.12
479.439	1026.12
479.658	999.12
479.876	991.12
480.095	1020.12
480.313	1083.12
480.532	1110.12
480.751	1102.12
480.969	1048.12
481.188	996.12
481.406	961.12
481.624	927.12
481.843	934.12
482.061	943.12
482.28	906.12
482.498	907.12
482.717	925.12
482.935	892.12
483.153	924.12
483.372	940.12
483.59	940.12
483.808	940.12
484.027	944.12
484.245	945.12
484.463	935.12
484.681	945.12
484.9	950.12
485.118	987.12
485.336	974.12
485.554	964.12
485.772	972.12
485.99	978.12
486.209	1010.12
486.427	983.12
486.645	997.12
486.863	978.12
487.081	973.12
487.299	1008.12
487.517	952.12
487.735	986.12
487.953	983.12
488.171	992.12
488.389	977.12
488.607	935.12
488.825	939.12
489.043	922.12
489.261	953.12
489.479	974.12
489.696	970.12
489.914	970.12
490.132	964.12
490.35	994.12
490.568	971.12
490.786	968.12
491.003	977.12
491.221	960.12
491.439	972.12
491.657	965.12
491.874	989.12
492.092	987.12
492.31	983.12
492.527	980.12
492.745	987.12
492.963	985.12
493.18	1048.12
493.398	1007.12
493.615	1023.12
493.833	1013.12
494.05	979.12
494.268	1047.12
494.485	1023.12
494.703	1013.12
494.92	1032.12
495.138	1060.12
495.355	1035.12
495.573	1034.12
495.79	1020.12
496.008	1066.12
496.225	1050.12
496.442	1050.12
496.66	1053.12
496.877	1093.12
497.094	1112.12
497.312	1106.12
497.529	1128.12
497.746	1145.12
497.963	1210.12
498.181	1257.12
498.398	1273.12
498.615	1365.12
498.832	1472.12
499.049	1576.12
499.267	1742.12
499.484	1916.12
499.701	2116.12
499.918	2343.12
500.135	2732.12
500.352	3094.12
500.569	3288.12
500.786	3203.12
501.003	2973.12
501.22	2661.12
501.437	2342.12
501.654	2036.12
501.871	1883.12
502.088	1693.12
502.305	1573.12
502.522	1484.12
502.739	1457.12
502.956	1355.12
503.172	1303.12
503.389	1235.12
503.606	1190.12
503.823	1204.12
504.04	1153.12
504.256	1193.12
504.473	1215.12
504.69	1260.12
504.907	1224.12
505.123	1138.12
505.34	1062.12
505.557	1014.12
505.773	1009.12
505.99	955.12
506.207	958.12
506.423	929.12
506.64	947.12
506.856	945.12
507.073	936.12
507.289	923.12
507.506	931.12
507.722	903.12
507.939	895.12
508.155	892.12
508.372	860.12
508.588	857.12
508.805	869.12
509.021	852.12
509.238	870.12
509.454	848.12
509.67	828.12
509.887	832.12
510.103	834.12
510.319	838.12
510.536	822.12
510.752	817.12
510.968	842.12
511.184	824.12
511.401	828.12
511.617	850.12
511.833	805.12
512.049	818.12
512.265	835.12
512.481	831.12
512.698	825.12
512.914	826.12
513.13	837.12
513.346	829.12
513.562	822.12
513.778	829.12
513.994	819.12
514.21	827.12
514.426	835.12
514.642	837.12
514.858	852.12
515.074	847.12
515.29	867.12
515.506	872.12
515.721	887.12
515.937	876.12
516.153	865.12
516.369	904.12
516.585	959.12
516.801	988.12
517.016	1028.12
517.232	1073.12
517.448	1120.12
517.664	1151.12
517.879	1185.12
518.095	1177.12
518.311	1171.12
518.527	1101.12
518.742	1027.12
518.958	1004.12
519.173	965.12
519.389	935.12
519.605	901.12
519.82	883.12
520.036	889.12
520.251	839.12
520.467	839.12
520.682	837.12
520.898	834.12
521.113	829.12
521.329	806.12
521.544	802.12
521.76	811.12
521.975	827.12
522.19	788.12
522.406	761.12
522.621	796.12
522.836	774.12
523.052	808.12
523.267	780.12
523.482	744.12
523.698	751.12
523.913	760.12
524.128	769.12
524.343	752.12
524.559	779.12
524.774	754.12
524.989	736.12
525.204	744.12
525.419	744.12
525.634	756.12
525.849	769.12
526.064	763.12
526.28	755.12
526.495	725.12
526.71	745.12
526.925	743.12
527.14	741.12
527.355	737.12
527.57	747.12
527.785	740.12
527.999	730.12
528.214	748.12
528.429	743.12
528.644	761.12
528.859	759.12
529.074	733.12
529.289	753.12
529.503	764.12
529.718	765.12
529.933	756.12
530.148	721.12
530.363	737.12
530.577	734.12
530.792	756.12
531.007	752.12
531.221	730.12
531.436	760.12
531.651	732.12
531.865	741.12
532.08	742.12
532.295	716.12
532.509	752.12
532.724	741.12
532.938	721.12
533.153	758.12
533.367	739.12
533.582	732.12
533.796	730.12
534.011	744.12
534.225	728.12
534.44	726.12
534.654	740.12
534.868	731.12
535.083	737.12
535.297	727.12
535.511	746.12
535.726	723.12
535.94	707.12
536.154	698.12
536.369	714.12
536.583	691.12
536.797	725.12
537.011	719.12
537.225	698.12
537.44	677.12
537.654	682.12
537.868	714.12
538.082	665.12
538.296	691.12
538.51	673.12
538.724	681.12
538.938	684.12
539.153	690.12
539.367	665.12
539.581	663.12
539.795	674.12
540.009	659.12
540.222	663.12
540.436	669.12
540.65	665.12
540.864	665.12
541.078	671.12
541.292	671.12
541.506	673.12
541.72	662.12
541.934	647.12
542.147	673.12
542.361	654.12
542.575	660.12
542.789	653.12
543.002	664.12
543.216	643.12
543.43	657.12
543.644	648.12
543.857	658.12
544.071	656.12
544.285	659.12
544.498	643.12
544.712	675.12
544.925	683.12
545.139	671.12
545.352	667.12
545.566	671.12
545.779	687.12
545.993	691.12
546.206	699.12
546.42	688.12
546.633	676.12
546.847	679.12
547.06	654.12
547.274	676.12
547.487	682.12
547.7	671.12
547.914	686.12
548.127	701.12
548.34	682.12
548.554	690.12
548.767	689.12
548.98	700.12
549.193	695.12
549.407	703.12
549.62	718.12
549.833	705.12
550.046	716.12
550.259	713.12
550.473	671.12
550.686	673.12
550.899	678.12
551.112	649.12
551.325	659.12
551.538	654.12
551.751	684.12
551.964	681.12
552.177	681.12
552.39	682.12
552.603	680.12
552.816	733.12
553.029	717.12
553.242	764.12
553.455	743.12
553.667	784.12
553.88	758.12
554.093	745.12
554.306	720.12
554.519	681.12
554.732	682.12
554.944	662.12
555.157	635.12
555.37	662.12
555.583	665.12
555.795	630.12
556.008	632.12
556.221	585.12
556.433	599.12
556.646	621.12
556.859	607.12
557.071	608.12
557.284	588.12
557.496	569.12
557.709	603.12
557.921	589.12
558.134	567.12
558.346	567.12
558.559	573.12
558.771	583.12
558.984	581.12
559.196	602.12
559.409	569.12
559.621	569.12
559.833	569.12
560.046	563.12
560.258	573.12
560.47	557.12
560.683	559.12
560.895	562.12
561.107	561.12
561.32	568.12
561.532	585.12
561.744	575.12
561.956	561.12
562.168	564.12
562.381	568.12
562.593	564.12
562.805	553.12
563.017	559.12
563.229	573.12
563.441	579.12
563.653	564.12
563.865	575.12
564.077	578.12
564.289	584.12
564.501	592.12
564.713	579.12
564.925	595.12
565.137	624.12
565.349	651.12
565.561	655.12
565.773	686.12
565.985	701.12
566.197	741.12
566.408	796.12
566.62	874.12
566.832	925.12
567.044	947.12
567.255	962.12
567.467	972.12
567.679	1005.12
567.891	1125.12
568.102	1116.12
568.314	1062.12
568.526	991.12
568.737	871.12
568.949	793.12
569.161	746.12
569.372	691.12
569.584	648.12
569.795	628.12
570.007	631.12
570.218	584.12
570.43	595.12
570.641	571.12
570.853	582.12
571.064	601.12
571.276	616.12
571.487	577.12
571.698	561.12
571.91	541.12
572.121	549.12
572.333	521.12
572.544	511.12
572.755	498.12
572.966	480.12
573.178	490.12
573.389	477.12
573.6	493.12
573.811	479.12
574.023	467.12
574.234	480.12
574.445	471.12
574.656	469.12
574.867	469.12
575.078	454.12
575.289	450.12
575.501	494.12
575.712	459.12
575.923	453.12
576.134	446.12
576.345	446.12
576.556	450.12
576.767	445.12
576.978	426.12
577.188	454.12
577.399	448.12
577.61	451.12
577.821	431.12
578.032	409.12
578.243	450.12
578.454	444.12
578.665	400.12
578.875	404.12
579.086	417.12
579.297	401.12
579.508	406.12
579.718	422.12
579.929	414.12
580.14	425.12
580.35	418.12
580.561	408.12
580.772	405.12
580.982	412.12
581.193	408.12
581.403	417.12
581.614	397.12
581.825	392.12
582.035	396.12
582.246	379.12
582.456	395.12
582.667	403.12
582.877	412.12
583.087	397.12
583.298	379.12
583.508	384.12
583.719	382.12
583.929	409.12
584.139	407.12
584.35	390.12
584.56	389.12
584.77	384.12
584.981	369.12
585.191	386.12
585.401	389.12
585.611	370.12
585.821	377.12
586.032	394.12
586.242	370.12
586.452	383.12
586.662	370.12
586.872	374.12
587.082	371.12
587.292	377.12
587.502	397.12
587.713	374.12
587.923	383.12
588.133	398.12
588.343	396.12
588.553	393.12
588.762	372.12
588.972	387.12
589.182	387.12
589.392	388.12
589.602	362.12
589.812	358.12
590.022	395.12
590.232	385.12
590.441	399.12
590.651	380.12
590.861	379.12
591.071	389.12
591.281	401.12
591.49	403.12
591.7	398.12
591.91	415.12
592.119	409.12
592.329	435.12
592.539	424.12
592.748	455.12
592.958	468.12
593.167	451.12
593.377	467.12
593.587	506.12
593.796	500.12
594.006	497.12
594.215	500.12
594.424	487.12
594.634	475.12
594.843	462.12
595.053	440.12
595.262	429.12
595.472	410.12
595.681	384.12
595.89	385.12
596.1	369.12
596.309	392.12
596.518	372.12
596.727	367.12
596.937	349.12
597.146	352.12
597.355	342.12
597.564	345.12
597.774	358.12
597.983	346.12
598.192	337.12
598.401	337.12
598.61	349.12
598.819	334.12
599.028	320.12
599.237	319.12
599.446	335.12
599.655	331.12
599.864	315.12
600.073	328.12
600.282	333.12
600.491	331.12
600.7	314.12
600.909	333.12
601.118	318.12
601.327	330.12
601.536	308.12
601.745	300.12
601.953	321.12
602.162	315.12
602.371	315.12
602.58	319.12
602.789	309.12
602.997	296.12
603.206	303.12
603.415	305.12
603.623	306.12
603.832	284.12
604.041	293.12
604.249	307.12
604.458	307.12
604.666	314.12
604.875	296.12
605.084	274.12
605.292	308.12
605.501	306.12
605.709	298.12
605.918	286.12
606.126	293.12
606.334	313.12
606.543	298.12
606.751	297.12
606.96	285.12
607.168	294.12
607.376	299.12
607.585	297.12
607.793	304.12
608.001	279.12
608.21	293.12
608.418	289.12
608.626	289.12
608.834	279.12
609.043	292.12
609.251	300.12
609.459	283.12
609.667	308.12
609.875	305.12
610.083	305.12
610.291	278.12
610.499	283.12
610.707	286.12
610.916	285.12
611.124	276.12
611.332	267.12
611.54	278.12
611.748	297.12
611.955	298.12
612.163	285.12
612.371	272.12
612.579	259.12
612.787	285.12
612.995	270.12
613.203	271.12
613.411	295.12
613.618	286.12
613.826	282.12
614.034	276.12
614.242	263.12
614.449	267.12
614.657	270.12
614.865	258.12
615.072	273.12
615.28	289.12
615.488	291.12
615.695	280.12
615.903	279.12
616.111	273.12
616.318	279.12
616.526	285.12
616.733	288.12
616.941	277.12
617.148	288.12
617.356	287.12
617.563	293.12
617.771	284.12
617.978	273.12
618.185	271.12
618.393	274.12
618.6	259.12
618.807	289.12
619.015	291.12
619.222	278.12
619.429	260.12
619.637	270.12
619.844	255.12
620.051	268.12
620.258	269.12
620.466	258.12
620.673	258.12
620.88	247.12
621.087	263.12
621.294	264.12
621.501	275.12
621.708	265.12
621.915	249.12
622.122	252.12
622.329	259.12
622.536	261.12
622.743	256.12
622.95	248.12
623.157	235.12
623.364	259.12
623.571	239.12
623.778	236.12
623.985	255.12
624.192	264.12
624.399	239.12
624.606	241.12
624.812	232.12
625.019	237.12
625.226	232.12
625.433	240.12
625.639	228.12
625.846	241.12
626.053	234.12
626.259	232.12
626.466	244.12
626.673	241.12
626.879	244.12
627.086	227.12
627.293	214.12
627.499	253.12
627.706	237.12
627.912	234.12
628.119	253.12
628.325	239.12
628.532	233.12
628.738	241.12
628.945	227.12
629.151	217.12
629.357	233.12
629.564	229.12
629.77	240.12
629.976	226.12
630.183	227.12
630.389	227.12
630.595	221.12
630.802	212.12
631.008	209.12
631.214	217.12
631.42	218.12
631.627	218.12
631.833	217.12
632.039	207.12
632.245	206.12
632.451	212.12
632.657	202.12
632.863	213.12
633.069	218.12
633.275	191.12
633.481	206.12
633.688	228.12
633.893	212.12
634.099	212.12
634.305	196.12
634.511	210.12
634.717	207.12
634.923	192.12
635.129	197.12
635.335	203.12
635.541	209.12
635.747	211.12
635.952	216.12
636.158	211.12
636.364	195.12
636.57	218.12
636.775	202.12
636.981	211.12
637.187	201.12
637.392	209.12
637.598	217.12
637.804	209.12
638.009	189.12
638.215	210.12
638.421	194.12
638.626	209.12
638.832	212.12
639.037	207.12
639.243	194.12
639.448	207.12
639.654	200.12
639.859	201.12
640.065	192.12
640.27	199.12
640.475	208.12
640.681	161.12
640.886	209.12
641.091	216.12
641.297	190.12
641.502	206.12
641.707	184.12
641.913	183.12
642.118	172.12
642.323	179.12
642.528	171.12
642.733	179.12
642.939	183.12
643.144	186.12
643.349	176.12
643.554	167.12
643.759	186.12
643.964	183.12
644.169	197.12
644.374	197.12
644.579	186.12
644.784	175.12
644.989	188.12
645.194	179.12
645.399	169.12
645.604	178.12
645.809	207.12
646.014	178.12
646.219	189.12
646.423	171.12
646.628	201.12
646.833	175.12
647.038	195.12
647.243	183.12
647.447	199.12
647.652	211.12
647.857	203.12
648.062	215.12
648.266	200.12
648.471	187.12
648.676	193.12
648.88	188.12
649.085	206.12
649.289	179.12
649.494	186.12
649.698	181.12
649.903	169.12
650.107	185.12
650.312	184.12
650.516	156.12
650.721	176.12
650.925	168.12
651.13	166.12
651.334	176.12
651.539	167.12
651.743	182.12
651.947	148.12
652.152	163.12
652.356	164.12
652.56	158.12
652.764	172.12
652.969	150.12
653.173	160.12
653.377	155.12
653.581	166.12
653.785	128.12
653.99	146.12
654.194	152.12
654.398	147.12
654.602	139.12
654.806	144.12
655.01	140.12
655.214	133.12
655.418	138.12
655.622	131.12
655.826	138.12
656.03	151.12
656.234	142.12
656.438	149.12
656.642	135.12
656.846	138.12
657.049	135.12
657.253	140.12
657.457	138.12
657.661	122.12
657.865	121.12
658.068	105.12
658.272	107.12
658.476	121.12
658.68	117.12
658.883	97.12
659.087	99.12
659.291	121.12
659.494	102.12
659.698	98.12
659.901	97.12
660.105	79.12
660.309	99.12
660.512	98.12
660.716	106.12
660.919	90.12
661.123	94.12
661.326	97.12
661.53	100.12
661.733	92.12
661.936	88.12
662.14	86.12
662.343	90.12
662.546	73.12
662.75	93.12
662.953	78.12
663.156	82.12
663.36	73.12
663.563	94.12
663.766	93.12
663.969	83.12
664.173	81.12
664.376	71.12
664.579	75.12
664.782	76.12
664.985	74.12
665.188	75.12
665.391	80.12
665.594	79.12
665.797	77.12
666	75.12
666.203	80.12
666.406	69.12
666.609	67.12
666.812	85.12
667.015	81.12
667.218	76.12
667.421	92.12
667.624	79.12
667.827	84.12
668.03	92.12
668.232	97.12
668.435	73.12
668.638	76.12
668.841	85.12
669.043	63.12
669.246	68.12
669.449	66.12
669.651	72.12
669.854	78.12
670.057	76.12
670.259	84.12
670.462	77.12
670.665	60.12
670.867	105.12
671.07	92.12
671.272	81.12
671.475	80.12
671.677	69.12
671.88	93.12
672.082	88.12
672.284	93.12
672.487	88.12
672.689	76.12
672.892	85.12
