Data from NiCl2@0.0625M.TitratingCurve.Agarose3%dH2O.NegLispCup.LampEnergy10.LIBS07252019_HRD10591_18-32-49-576.txt Node
Date: Thu Jul 25 18:32:49 EDT 2019
User: cochatt
Spectrometer: HR+D1059
Trigger mode: 1
Integration Time (sec): 1.000000E-1
Scans to average: 1
Electric dark correction enabled: true
Nonlinearity correction enabled: false
Boxcar width: 0
XAxis mode: Wavelengths
Number of Pixels in Spectrum: 2048
>>>>>Begin Spectral Data<<<<<
223.165	-15.56
223.4	-15.56
223.635	-15.56
223.869	-8.56
224.104	-15.56
224.338	-20.56
224.573	-16.56
224.808	-4.56
225.042	-26.56
225.277	-9.56
225.511	-2.56
225.746	14.44
225.98	-0.56
226.215	11.44
226.449	18.44
226.683	30.44
226.918	16.44
227.152	29.44
227.387	32.44
227.621	47.44
227.856	41.44
228.09	62.44
228.324	61.44
228.559	60.44
228.793	80.44
229.027	144.44
229.262	157.44
229.496	154.44
229.73	183.44
229.964	195.44
230.199	190.44
230.433	187.44
230.667	190.44
230.901	201.44
231.136	191.44
231.37	200.44
231.604	205.44
231.838	209.44
232.072	210.44
232.306	229.44
232.541	216.44
232.775	220.44
233.009	214.44
233.243	215.44
233.477	233.44
233.711	227.44
233.945	231.44
234.179	225.44
234.413	217.44
234.647	224.44
234.881	228.44
235.115	233.44
235.349	249.44
235.583	239.44
235.817	237.44
236.051	243.44
236.285	243.44
236.519	240.44
236.753	257.44
236.987	239.44
237.221	259.44
237.455	243.44
237.689	249.44
237.922	260.44
238.156	277.44
238.39	251.44
238.624	270.44
238.858	284.44
239.091	275.44
239.325	269.44
239.559	291.44
239.793	281.44
240.027	304.44
240.26	296.44
240.494	292.44
240.728	301.44
240.961	310.44
241.195	314.44
241.429	305.44
241.662	336.44
241.896	317.44
242.13	318.44
242.363	310.44
242.597	315.44
242.83	332.44
243.064	329.44
243.298	345.44
243.531	318.44
243.765	345.44
243.998	352.44
244.232	346.44
244.465	354.44
244.699	341.44
244.932	381.44
245.166	367.44
245.399	381.44
245.633	365.44
245.866	372.44
246.099	387.44
246.333	381.44
246.566	376.44
246.8	368.44
247.033	381.44
247.266	386.44
247.5	363.44
247.733	391.44
247.966	413.44
248.2	425.44
248.433	423.44
248.666	417.44
248.899	411.44
249.133	409.44
249.366	440.44
249.599	444.44
249.832	421.44
250.066	430.44
250.299	421.44
250.532	447.44
250.765	455.44
250.998	470.44
251.231	463.44
251.465	469.44
251.698	473.44
251.931	431.44
252.164	465.44
252.397	463.44
252.63	494.44
252.863	472.44
253.096	476.44
253.329	475.44
253.562	482.44
253.795	506.44
254.028	485.44
254.261	518.44
254.494	485.44
254.727	484.44
254.96	501.44
255.193	495.44
255.426	519.44
255.659	507.44
255.892	525.44
256.124	521.44
256.357	507.44
256.59	512.44
256.823	517.44
257.056	505.44
257.289	519.44
257.521	528.44
257.754	552.44
257.987	539.44
258.22	538.44
258.452	549.44
258.685	569.44
258.918	547.44
259.151	568.44
259.383	554.44
259.616	542.44
259.849	554.44
260.081	556.44
260.314	575.44
260.547	575.44
260.779	582.44
261.012	583.44
261.244	584.44
261.477	581.44
261.71	591.44
261.942	579.44
262.175	589.44
262.407	612.44
262.64	591.44
262.872	583.44
263.105	574.44
263.337	589.44
263.57	616.44
263.802	598.44
264.035	620.44
264.267	622.44
264.499	617.44
264.732	620.44
264.964	628.44
265.197	640.44
265.429	640.44
265.661	632.44
265.894	632.44
266.126	645.44
266.358	608.44
266.591	651.44
266.823	660.44
267.055	649.44
267.287	659.44
267.52	655.44
267.752	643.44
267.984	665.44
268.216	661.44
268.448	655.44
268.681	671.44
268.913	680.44
269.145	676.44
269.377	668.44
269.609	696.44
269.841	682.44
270.073	673.44
270.306	681.44
270.538	685.44
270.77	704.44
271.002	688.44
271.234	697.44
271.466	698.44
271.698	700.44
271.93	743.44
272.162	723.44
272.394	736.44
272.626	731.44
272.858	755.44
273.09	746.44
273.322	757.44
273.553	713.44
273.785	731.44
274.017	745.44
274.249	755.44
274.481	752.44
274.713	764.44
274.945	771.44
275.176	779.44
275.408	783.44
275.64	795.44
275.872	772.44
276.104	803.44
276.335	771.44
276.567	786.44
276.799	779.44
277.031	790.44
277.262	792.44
277.494	819.44
277.726	809.44
277.957	805.44
278.189	781.44
278.421	778.44
278.652	809.44
278.884	831.44
279.115	823.44
279.347	830.44
279.579	862.44
279.81	840.44
280.042	848.44
280.273	816.44
280.505	862.44
280.736	838.44
280.968	871.44
281.199	877.44
281.431	869.44
281.662	863.44
281.894	848.44
282.125	868.44
282.356	875.44
282.588	885.44
282.819	867.44
283.051	887.44
283.282	885.44
283.513	913.44
283.745	884.44
283.976	907.44
284.207	841.44
284.439	872.44
284.67	932.44
284.901	911.44
285.132	923.44
285.364	907.44
285.595	925.44
285.826	916.44
286.057	927.44
286.288	927.44
286.52	929.44
286.751	923.44
286.982	949.44
287.213	935.44
287.444	955.44
287.675	942.44
287.906	970.44
288.138	960.44
288.369	933.44
288.6	949.44
288.831	951.44
289.062	937.44
289.293	923.44
289.524	977.44
289.755	977.44
289.986	948.44
290.217	961.44
290.448	968.44
290.679	972.44
290.91	985.44
291.141	969.44
291.371	997.44
291.602	999.44
291.833	955.44
292.064	971.44
292.295	981.44
292.526	988.44
292.757	991.44
292.987	966.44
293.218	949.44
293.449	989.44
293.68	1005.44
293.91	1007.44
294.141	960.44
294.372	979.44
294.603	971.44
294.833	976.44
295.064	972.44
295.295	1018.44
295.525	969.44
295.756	1013.44
295.987	982.44
296.217	997.44
296.448	1004.44
296.679	1005.44
296.909	1007.44
297.14	1026.44
297.37	1041.44
297.601	1041.44
297.831	1031.44
298.062	1034.44
298.292	1063.44
298.523	1092.44
298.753	1064.44
298.984	1065.44
299.214	1068.44
299.445	1057.44
299.675	1065.44
299.905	1076.44
300.136	1059.44
300.366	1050.44
300.597	1082.44
300.827	1075.44
301.057	1071.44
301.288	1151.44
301.518	1136.44
301.748	1113.44
301.979	1105.44
302.209	1156.44
302.439	1124.44
302.669	1126.44
302.9	1135.44
303.13	1127.44
303.36	1092.44
303.59	1108.44
303.82	1111.44
304.051	1140.44
304.281	1101.44
304.511	1102.44
304.741	1129.44
304.971	1119.44
305.201	1106.44
305.431	1100.44
305.661	1123.44
305.891	1099.44
306.121	1116.44
306.352	1113.44
306.582	1101.44
306.812	1103.44
307.042	1115.44
307.272	1099.44
307.502	1128.44
307.731	1113.44
307.961	1139.44
308.191	1119.44
308.421	1125.44
308.651	1140.44
308.881	1071.44
309.111	1096.44
309.341	1095.44
309.571	1142.44
309.8	1103.44
310.03	1120.44
310.26	1137.44
310.49	1115.44
310.72	1141.44
310.949	1116.44
311.179	1141.44
311.409	1137.44
311.639	1145.44
311.868	1155.44
312.098	1168.44
312.328	1139.44
312.557	1157.44
312.787	1148.44
313.017	1167.44
313.246	1191.44
313.476	1162.44
313.706	1169.44
313.935	1213.44
314.165	1232.44
314.394	1228.44
314.624	1213.44
314.853	1190.44
315.083	1166.44
315.312	1199.44
315.542	1205.44
315.771	1179.44
316.001	1206.44
316.23	1196.44
316.46	1191.44
316.689	1200.44
316.919	1195.44
317.148	1203.44
317.377	1214.44
317.607	1195.44
317.836	1199.44
318.065	1184.44
318.295	1187.44
318.524	1209.44
318.753	1181.44
318.983	1191.44
319.212	1154.44
319.441	1188.44
319.67	1155.44
319.9	1167.44
320.129	1150.44
320.358	1171.44
320.587	1174.44
320.816	1210.44
321.046	1192.44
321.275	1213.44
321.504	1166.44
321.733	1220.44
321.962	1196.44
322.191	1214.44
322.42	1185.44
322.649	1226.44
322.878	1208.44
323.108	1210.44
323.337	1218.44
323.566	1233.44
323.795	1267.44
324.024	1249.44
324.253	1225.44
324.482	1259.44
324.71	1231.44
324.939	1269.44
325.168	1263.44
325.397	1235.44
325.626	1234.44
325.855	1267.44
326.084	1313.44
326.313	1298.44
326.542	1281.44
326.77	1322.44
326.999	1301.44
327.228	1301.44
327.457	1268.44
327.686	1259.44
327.914	1299.44
328.143	1280.44
328.372	1293.44
328.6	1288.44
328.829	1307.44
329.058	1305.44
329.287	1304.44
329.515	1328.44
329.744	1310.44
329.972	1318.44
330.201	1279.44
330.43	1314.44
330.658	1315.44
330.887	1360.44
331.115	1349.44
331.344	1384.44
331.572	1365.44
331.801	1393.44
332.03	1404.44
332.258	1425.44
332.486	1447.44
332.715	1483.44
332.943	1527.44
333.172	1559.44
333.4	1615.44
333.629	1622.44
333.857	1638.44
334.085	1657.44
334.314	1667.44
334.542	1610.44
334.771	1661.44
334.999	1619.44
335.227	1637.44
335.455	1579.44
335.684	1595.44
335.912	1584.44
336.14	1557.44
336.369	1558.44
336.597	1593.44
336.825	1529.44
337.053	1579.44
337.281	1520.44
337.51	1499.44
337.738	1491.44
337.966	1448.44
338.194	1450.44
338.422	1422.44
338.65	1416.44
338.878	1406.44
339.106	1404.44
339.334	1425.44
339.562	1433.44
339.79	1389.44
340.018	1381.44
340.246	1351.44
340.474	1402.44
340.702	1372.44
340.93	1409.44
341.158	1345.44
341.386	1373.44
341.614	1380.44
341.842	1371.44
342.07	1352.44
342.298	1344.44
342.526	1358.44
342.754	1358.44
342.981	1350.44
343.209	1416.44
343.437	1432.44
343.665	1509.44
343.893	1565.44
344.12	1592.44
344.348	1572.44
344.576	1493.44
344.804	1459.44
345.031	1424.44
345.259	1386.44
345.487	1410.44
345.714	1366.44
345.942	1339.44
346.17	1339.44
346.397	1335.44
346.625	1329.44
346.853	1305.44
347.08	1295.44
347.308	1315.44
347.535	1304.44
347.763	1323.44
347.99	1347.44
348.218	1313.44
348.445	1301.44
348.673	1312.44
348.9	1300.44
349.128	1308.44
349.355	1321.44
349.583	1302.44
349.81	1307.44
350.037	1305.44
350.265	1283.44
350.492	1269.44
350.72	1249.44
350.947	1270.44
351.174	1250.44
351.402	1265.44
351.629	1217.44
351.856	1247.44
352.083	1270.44
352.311	1244.44
352.538	1249.44
352.765	1289.44
352.992	1260.44
353.22	1218.44
353.447	1234.44
353.674	1225.44
353.901	1243.44
354.128	1255.44
354.355	1228.44
354.583	1256.44
354.81	1249.44
355.037	1241.44
355.264	1257.44
355.491	1258.44
355.718	1254.44
355.945	1272.44
356.172	1246.44
356.399	1223.44
356.626	1261.44
356.853	1291.44
357.08	1263.44
357.307	1279.44
357.534	1261.44
357.761	1255.44
357.988	1248.44
358.215	1267.44
358.441	1247.44
358.668	1255.44
358.895	1285.44
359.122	1267.44
359.349	1258.44
359.576	1256.44
359.802	1279.44
360.029	1305.44
360.256	1318.44
360.483	1270.44
360.709	1275.44
360.936	1291.44
361.163	1287.44
361.39	1254.44
361.616	1284.44
361.843	1261.44
362.07	1288.44
362.296	1287.44
362.523	1241.44
362.749	1276.44
362.976	1256.44
363.203	1247.44
363.429	1265.44
363.656	1247.44
363.882	1293.44
364.109	1267.44
364.335	1246.44
364.562	1256.44
364.788	1256.44
365.015	1267.44
365.241	1253.44
365.468	1240.44
365.694	1280.44
365.92	1262.44
366.147	1256.44
366.373	1266.44
366.599	1302.44
366.826	1288.44
367.052	1271.44
367.278	1277.44
367.505	1288.44
367.731	1293.44
367.957	1273.44
368.184	1301.44
368.41	1296.44
368.636	1300.44
368.862	1311.44
369.089	1312.44
369.315	1324.44
369.541	1289.44
369.767	1331.44
369.993	1315.44
370.219	1328.44
370.445	1356.44
370.672	1366.44
370.898	1365.44
371.124	1359.44
371.35	1365.44
371.576	1374.44
371.802	1361.44
372.028	1383.44
372.254	1355.44
372.48	1364.44
372.706	1370.44
372.932	1447.44
373.158	1440.44
373.384	1415.44
373.61	1375.44
373.835	1377.44
374.061	1386.44
374.287	1395.44
374.513	1403.44
374.739	1478.44
374.965	1487.44
375.191	1501.44
375.416	1470.44
375.642	1438.44
375.868	1456.44
376.094	1436.44
376.319	1369.44
376.545	1398.44
376.771	1372.44
376.997	1354.44
377.222	1373.44
377.448	1386.44
377.674	1388.44
377.899	1355.44
378.125	1358.44
378.35	1386.44
378.576	1361.44
378.802	1346.44
379.027	1365.44
379.253	1384.44
379.478	1373.44
379.704	1356.44
379.929	1375.44
380.155	1357.44
380.38	1333.44
380.606	1371.44
380.831	1370.44
381.057	1365.44
381.282	1362.44
381.507	1369.44
381.733	1367.44
381.958	1376.44
382.184	1408.44
382.409	1415.44
382.634	1439.44
382.86	1387.44
383.085	1441.44
383.31	1451.44
383.535	1465.44
383.761	1500.44
383.986	1478.44
384.211	1545.44
384.436	1556.44
384.662	1572.44
384.887	1594.44
385.112	1618.44
385.337	1657.44
385.562	1612.44
385.787	1648.44
386.013	1663.44
386.238	1655.44
386.463	1686.44
386.688	1630.44
386.913	1647.44
387.138	1622.44
387.363	1596.44
387.588	1610.44
387.813	1631.44
388.038	1592.44
388.263	1637.44
388.488	1644.44
388.713	1603.44
388.938	1608.44
389.163	1629.44
389.387	1604.44
389.612	1596.44
389.837	1639.44
390.062	1639.44
390.287	1616.44
390.512	1595.44
390.736	1653.44
390.961	1671.44
391.186	1659.44
391.411	1708.44
391.636	1797.44
391.86	1777.44
392.085	1807.44
392.31	1815.44
392.534	1777.44
392.759	1782.44
392.984	1773.44
393.208	1775.44
393.433	1868.44
393.658	1926.44
393.882	1739.44
394.107	1702.44
394.331	1698.44
394.556	1708.44
394.78	1748.44
395.005	1765.44
395.229	1770.44
395.454	1782.44
395.678	1795.44
395.903	1808.44
396.127	1831.44
396.352	1787.44
396.576	1757.44
396.801	1790.44
397.025	1883.44
397.249	1910.44
397.474	1853.44
397.698	1805.44
397.922	1839.44
398.147	1838.44
398.371	1879.44
398.595	1923.44
398.82	1996.44
399.044	2114.44
399.268	2263.44
399.492	2541.44
399.717	2775.44
399.941	2784.44
400.165	2599.44
400.389	2387.44
400.613	2244.44
400.837	2163.44
401.062	2103.44
401.286	2083.44
401.51	2106.44
401.734	2012.44
401.958	2053.44
402.182	2070.44
402.406	2032.44
402.63	2062.44
402.854	2108.44
403.078	2099.44
403.302	2174.44
403.526	2167.44
403.75	2156.44
403.974	2207.44
404.198	2170.44
404.422	2236.44
404.645	2193.44
404.869	2158.44
405.093	2205.44
405.317	2171.44
405.541	2171.44
405.765	2189.44
405.988	2172.44
406.212	2208.44
406.436	2223.44
406.66	2274.44
406.883	2270.44
407.107	2370.44
407.331	2478.44
407.555	2519.44
407.778	2504.44
408.002	2538.44
408.226	2444.44
408.449	2435.44
408.673	2320.44
408.896	2287.44
409.12	2274.44
409.344	2255.44
409.567	2207.44
409.791	2259.44
410.014	2242.44
410.238	2166.44
410.461	2197.44
410.685	2168.44
410.908	2183.44
411.132	2137.44
411.355	2069.44
411.578	2132.44
411.802	2143.44
412.025	2105.44
412.249	2132.44
412.472	2130.44
412.695	2048.44
412.919	2023.44
413.142	2015.44
413.365	2074.44
413.589	2037.44
413.812	2007.44
414.035	1981.44
414.258	2040.44
414.482	2019.44
414.705	2046.44
414.928	2037.44
415.151	2029.44
415.374	2044.44
415.597	1985.44
415.821	1963.44
416.044	1931.44
416.267	1931.44
416.49	1909.44
416.713	1911.44
416.936	1923.44
417.159	1977.44
417.382	1943.44
417.605	1911.44
417.828	1925.44
418.051	1998.44
418.274	1915.44
418.497	1937.44
418.72	1960.44
418.943	1981.44
419.166	2064.44
419.389	2188.44
419.611	2179.44
419.834	2103.44
420.057	2027.44
420.28	1971.44
420.503	1886.44
420.726	1937.44
420.948	1900.44
421.171	1904.44
421.394	1937.44
421.617	1926.44
421.839	1929.44
422.062	1973.44
422.285	1886.44
422.507	1949.44
422.73	1991.44
422.953	2008.44
423.175	2007.44
423.398	1995.44
423.621	1950.44
423.843	2004.44
424.066	1962.44
424.288	1982.44
424.511	1963.44
424.733	1964.44
424.956	1935.44
425.178	1910.44
425.401	1978.44
425.623	1944.44
425.846	1887.44
426.068	1895.44
426.291	1884.44
426.513	1865.44
426.735	1882.44
426.958	1869.44
427.18	1836.44
427.402	1868.44
427.625	1811.44
427.847	1749.44
428.069	1768.44
428.292	1800.44
428.514	1804.44
428.736	1768.44
428.958	1785.44
429.181	1724.44
429.403	1719.44
429.625	1711.44
429.847	1741.44
430.069	1695.44
430.292	1728.44
430.514	1739.44
430.736	1743.44
430.958	1739.44
431.18	1747.44
431.402	1769.44
431.624	1738.44
431.846	1765.44
432.068	1782.44
432.29	1860.44
432.512	1776.44
432.734	1806.44
432.956	1748.44
433.178	1796.44
433.4	1799.44
433.622	1803.44
433.844	1813.44
434.066	1877.44
434.287	1855.44
434.509	1895.44
434.731	1926.44
434.953	1945.44
435.175	1987.44
435.397	1973.44
435.618	1862.44
435.84	1811.44
436.062	1792.44
436.284	1746.44
436.505	1740.44
436.727	1780.44
436.949	1819.44
437.17	1758.44
437.392	1757.44
437.614	1713.44
437.835	1684.44
438.057	1667.44
438.278	1679.44
438.5	1673.44
438.721	1646.44
438.943	1707.44
439.165	1691.44
439.386	1670.44
439.608	1733.44
439.829	1768.44
440.05	1716.44
440.272	1713.44
440.493	1731.44
440.715	1784.44
440.936	1807.44
441.158	1798.44
441.379	1843.44
441.6	1928.44
441.822	1917.44
442.043	1962.44
442.264	1878.44
442.486	1822.44
442.707	1894.44
442.928	1867.44
443.149	1883.44
443.371	1892.44
443.592	1888.44
443.813	1920.44
444.034	1942.44
444.255	1953.44
444.476	2023.44
444.698	2127.44
444.919	2151.44
445.14	2220.44
445.361	2103.44
445.582	1980.44
445.803	1887.44
446.024	1802.44
446.245	1832.44
446.466	1811.44
446.687	1741.44
446.908	1769.44
447.129	1690.44
447.35	1694.44
447.571	1693.44
447.792	1639.44
448.013	1636.44
448.234	1608.44
448.455	1614.44
448.675	1562.44
448.896	1613.44
449.117	1561.44
449.338	1579.44
449.559	1583.44
449.779	1562.44
450	1580.44
450.221	1584.44
450.442	1572.44
450.662	1585.44
450.883	1564.44
451.104	1618.44
451.324	1574.44
451.545	1588.44
451.766	1612.44
451.986	1554.44
452.207	1564.44
452.428	1533.44
452.648	1561.44
452.869	1530.44
453.089	1528.44
453.31	1564.44
453.53	1512.44
453.751	1525.44
453.971	1523.44
454.192	1537.44
454.412	1516.44
454.633	1500.44
454.853	1486.44
455.073	1502.44
455.294	1492.44
455.514	1479.44
455.734	1480.44
455.955	1445.44
456.175	1436.44
456.395	1470.44
456.616	1472.44
456.836	1532.44
457.056	1463.44
457.276	1475.44
457.497	1500.44
457.717	1512.44
457.937	1542.44
458.157	1491.44
458.377	1522.44
458.598	1584.44
458.818	1630.44
459.038	1634.44
459.258	1681.44
459.478	1753.44
459.698	1808.44
459.918	1832.44
460.138	1858.44
460.358	1922.44
460.578	1988.44
460.798	1968.44
461.018	1998.44
461.238	1968.44
461.458	1979.44
461.678	1967.44
461.898	2037.44
462.118	2027.44
462.338	2088.44
462.558	2181.44
462.777	2235.44
462.997	2352.44
463.217	2476.44
463.437	2472.44
463.657	2351.44
463.876	2306.44
464.096	2298.44
464.316	2259.44
464.536	2299.44
464.755	2173.44
464.975	2191.44
465.195	2048.44
465.414	1970.44
465.634	1821.44
465.854	1804.44
466.073	1791.44
466.293	1807.44
466.512	1745.44
466.732	1688.44
466.951	1691.44
467.171	1678.44
467.391	1655.44
467.61	1663.44
467.829	1626.44
468.049	1647.44
468.268	1617.44
468.488	1612.44
468.707	1600.44
468.927	1627.44
469.146	1576.44
469.365	1605.44
469.585	1612.44
469.804	1683.44
470.023	1689.44
470.243	1668.44
470.462	1702.44
470.681	1695.44
470.901	1656.44
471.12	1705.44
471.339	1687.44
471.558	1639.44
471.777	1647.44
471.997	1663.44
472.216	1589.44
472.435	1635.44
472.654	1594.44
472.873	1592.44
473.092	1619.44
473.311	1576.44
473.53	1579.44
473.749	1564.44
473.968	1590.44
474.187	1573.44
474.406	1573.44
474.625	1621.44
474.844	1560.44
475.063	1619.44
475.282	1619.44
475.501	1622.44
475.72	1638.44
475.939	1665.44
476.158	1654.44
476.377	1685.44
476.596	1706.44
476.814	1711.44
477.033	1708.44
477.252	1736.44
477.471	1755.44
477.69	1751.44
477.908	1828.44
478.127	1856.44
478.346	1882.44
478.564	1908.44
478.783	1952.44
479.002	1977.44
479.22	2004.44
479.439	1982.44
479.658	1991.44
479.876	2009.44
480.095	2030.44
480.313	2078.44
480.532	2093.44
480.751	2129.44
480.969	2067.44
481.188	2010.44
481.406	1961.44
481.624	1935.44
481.843	1929.44
482.061	1937.44
482.28	1981.44
482.498	1935.44
482.717	1935.44
482.935	1935.44
483.153	1924.44
483.372	1925.44
483.59	1956.44
483.808	1940.44
484.027	1927.44
484.245	1999.44
484.463	1973.44
484.681	2024.44
484.9	2002.44
485.118	1973.44
485.336	2044.44
485.554	2047.44
485.772	2077.44
485.99	2047.44
486.209	2072.44
486.427	2102.44
486.645	2019.44
486.863	2024.44
487.081	1976.44
487.299	2019.44
487.517	2038.44
487.735	1993.44
487.953	2035.44
488.171	2005.44
488.389	1998.44
488.607	1979.44
488.825	1991.44
489.043	1976.44
489.261	1992.44
489.479	2004.44
489.696	1984.44
489.914	2017.44
490.132	1995.44
490.35	1998.44
490.568	1986.44
490.786	1984.44
491.003	2007.44
491.221	1990.44
491.439	2018.44
491.657	2046.44
491.874	2003.44
492.092	2005.44
492.31	2001.44
492.527	1997.44
492.745	1990.44
492.963	1998.44
493.18	1972.44
493.398	2046.44
493.615	2039.44
493.833	2006.44
494.05	2007.44
494.268	2053.44
494.485	2047.44
494.703	2061.44
494.92	2077.44
495.138	2025.44
495.355	2055.44
495.573	2032.44
495.79	2059.44
496.008	2128.44
496.225	2124.44
496.442	2128.44
496.66	2147.44
496.877	2146.44
497.094	2185.44
497.312	2244.44
497.529	2257.44
497.746	2329.44
497.963	2376.44
498.181	2526.44
498.398	2564.44
498.615	2693.44
498.832	2854.44
499.049	3017.44
499.267	3178.44
499.484	3462.44
499.701	3746.44
499.918	4030.44
500.135	4518.44
500.352	4880.44
500.569	4999.44
500.786	4960.44
501.003	4746.44
501.22	4442.44
501.437	3980.44
501.654	3673.44
501.871	3387.44
502.088	3139.44
502.305	2939.44
502.522	2831.44
502.739	2755.44
502.956	2627.44
503.172	2534.44
503.389	2430.44
503.606	2360.44
503.823	2313.44
504.04	2332.44
504.256	2284.44
504.473	2321.44
504.69	2263.44
504.907	2284.44
505.123	2180.44
505.34	2076.44
505.557	2003.44
505.773	1950.44
505.99	1910.44
506.207	1872.44
506.423	1844.44
506.64	1851.44
506.856	1798.44
507.073	1815.44
507.289	1815.44
507.506	1734.44
507.722	1747.44
507.939	1761.44
508.155	1730.44
508.372	1657.44
508.588	1667.44
508.805	1649.44
509.021	1673.44
509.238	1675.44
509.454	1623.44
509.67	1647.44
509.887	1612.44
510.103	1613.44
510.319	1584.44
510.536	1591.44
510.752	1587.44
510.968	1631.44
511.184	1583.44
511.401	1567.44
511.617	1579.44
511.833	1614.44
512.049	1539.44
512.265	1586.44
512.481	1603.44
512.698	1571.44
512.914	1597.44
513.13	1583.44
513.346	1551.44
513.562	1597.44
513.778	1578.44
513.994	1621.44
514.21	1582.44
514.426	1605.44
514.642	1599.44
514.858	1605.44
515.074	1659.44
515.29	1673.44
515.506	1652.44
515.721	1676.44
515.937	1664.44
516.153	1741.44
516.369	1743.44
516.585	1820.44
516.801	1851.44
517.016	1892.44
517.232	1952.44
517.448	2046.44
517.664	2070.44
517.879	2042.44
518.095	2100.44
518.311	2027.44
518.527	1945.44
518.742	1907.44
518.958	1851.44
519.173	1797.44
519.389	1729.44
519.605	1728.44
519.82	1687.44
520.036	1690.44
520.251	1629.44
520.467	1633.44
520.682	1604.44
520.898	1561.44
521.113	1566.44
521.329	1511.44
521.544	1515.44
521.76	1532.44
521.975	1518.44
522.19	1493.44
522.406	1509.44
522.621	1504.44
522.836	1483.44
523.052	1475.44
523.267	1481.44
523.482	1474.44
523.698	1461.44
523.913	1443.44
524.128	1459.44
524.343	1425.44
524.559	1441.44
524.774	1456.44
524.989	1433.44
525.204	1417.44
525.419	1430.44
525.634	1393.44
525.849	1410.44
526.064	1426.44
526.28	1414.44
526.495	1427.44
526.71	1367.44
526.925	1403.44
527.14	1390.44
527.355	1409.44
527.57	1419.44
527.785	1449.44
527.999	1398.44
528.214	1407.44
528.429	1415.44
528.644	1415.44
528.859	1422.44
529.074	1401.44
529.289	1382.44
529.503	1402.44
529.718	1359.44
529.933	1404.44
530.148	1377.44
530.363	1390.44
530.577	1372.44
530.792	1377.44
531.007	1354.44
531.221	1379.44
531.436	1385.44
531.651	1399.44
531.865	1368.44
532.08	1429.44
532.295	1401.44
532.509	1404.44
532.724	1387.44
532.938	1402.44
533.153	1369.44
533.367	1395.44
533.582	1375.44
533.796	1383.44
534.011	1380.44
534.225	1371.44
534.44	1359.44
534.654	1334.44
534.868	1345.44
535.083	1320.44
535.297	1333.44
535.511	1338.44
535.726	1311.44
535.94	1327.44
536.154	1299.44
536.369	1310.44
536.583	1292.44
536.797	1275.44
537.011	1306.44
537.225	1284.44
537.44	1258.44
537.654	1283.44
537.868	1246.44
538.082	1221.44
538.296	1273.44
538.51	1261.44
538.724	1290.44
538.938	1253.44
539.153	1257.44
539.367	1245.44
539.581	1258.44
539.795	1247.44
540.009	1225.44
540.222	1251.44
540.436	1247.44
540.65	1219.44
540.864	1224.44
541.078	1218.44
541.292	1222.44
541.506	1187.44
541.72	1219.44
541.934	1198.44
542.147	1218.44
542.361	1230.44
542.575	1208.44
542.789	1194.44
543.002	1229.44
543.216	1195.44
543.43	1213.44
543.644	1224.44
543.857	1212.44
544.071	1203.44
544.285	1206.44
544.498	1227.44
544.712	1199.44
544.925	1221.44
545.139	1213.44
545.352	1230.44
545.566	1241.44
545.779	1258.44
545.993	1232.44
546.206	1251.44
546.42	1230.44
546.633	1213.44
546.847	1248.44
547.06	1240.44
547.274	1204.44
547.487	1211.44
547.7	1228.44
547.914	1237.44
548.127	1232.44
548.34	1236.44
548.554	1221.44
548.767	1211.44
548.98	1255.44
549.193	1235.44
549.407	1243.44
549.62	1269.44
549.833	1272.44
550.046	1247.44
550.259	1248.44
550.473	1245.44
550.686	1237.44
550.899	1215.44
551.112	1203.44
551.325	1220.44
551.538	1207.44
551.751	1220.44
551.964	1209.44
552.177	1257.44
552.39	1245.44
552.603	1271.44
552.816	1287.44
553.029	1304.44
553.242	1307.44
553.455	1322.44
553.667	1317.44
553.88	1312.44
554.093	1288.44
554.306	1254.44
554.519	1228.44
554.732	1224.44
554.944	1190.44
555.157	1165.44
555.37	1159.44
555.583	1129.44
555.795	1155.44
556.008	1119.44
556.221	1115.44
556.433	1092.44
556.646	1073.44
556.859	1090.44
557.071	1055.44
557.284	1081.44
557.496	1050.44
557.709	1053.44
557.921	1087.44
558.134	1033.44
558.346	1044.44
558.559	1062.44
558.771	1035.44
558.984	1021.44
559.196	1029.44
559.409	1027.44
559.621	1031.44
559.833	1033.44
560.046	997.44
560.258	991.44
560.47	1052.44
560.683	1036.44
560.895	1026.44
561.107	1038.44
561.32	1032.44
561.532	1008.44
561.744	1025.44
561.956	1010.44
562.168	1029.44
562.381	991.44
562.593	1016.44
562.805	1029.44
563.017	1019.44
563.229	1042.44
563.441	1012.44
563.653	1056.44
563.865	1065.44
564.077	1059.44
564.289	1032.44
564.501	1092.44
564.713	1104.44
564.925	1114.44
565.137	1096.44
565.349	1149.44
565.561	1190.44
565.773	1227.44
565.985	1301.44
566.197	1327.44
566.408	1365.44
566.62	1436.44
566.832	1545.44
567.044	1557.44
567.255	1596.44
567.467	1603.44
567.679	1679.44
567.891	1725.44
568.102	1767.44
568.314	1711.44
568.526	1572.44
568.737	1462.44
568.949	1334.44
569.161	1237.44
569.372	1179.44
569.584	1155.44
569.795	1110.44
570.007	1064.44
570.218	1054.44
570.43	1014.44
570.641	1040.44
570.853	1004.44
571.064	1036.44
571.276	1014.44
571.487	1007.44
571.698	970.44
571.91	937.44
572.121	921.44
572.333	903.44
572.544	894.44
572.755	889.44
572.966	873.44
573.178	883.44
573.389	843.44
573.6	842.44
573.811	877.44
574.023	843.44
574.234	863.44
574.445	812.44
574.656	848.44
574.867	822.44
575.078	845.44
575.289	825.44
575.501	821.44
575.712	776.44
575.923	767.44
576.134	783.44
576.345	796.44
576.556	780.44
576.767	807.44
576.978	760.44
577.188	780.44
577.399	766.44
577.61	775.44
577.821	756.44
578.032	763.44
578.243	739.44
578.454	756.44
578.665	773.44
578.875	731.44
579.086	732.44
579.297	744.44
579.508	721.44
579.718	714.44
579.929	719.44
580.14	719.44
580.35	725.44
580.561	703.44
580.772	725.44
580.982	715.44
581.193	732.44
581.403	702.44
581.614	711.44
581.825	710.44
582.035	717.44
582.246	721.44
582.456	676.44
582.667	686.44
582.877	701.44
583.087	680.44
583.298	698.44
583.508	689.44
583.719	684.44
583.929	689.44
584.139	686.44
584.35	679.44
584.56	681.44
584.77	668.44
584.981	654.44
585.191	663.44
585.401	643.44
585.611	671.44
585.821	671.44
586.032	667.44
586.242	637.44
586.452	658.44
586.662	646.44
586.872	652.44
587.082	639.44
587.292	661.44
587.502	673.44
587.713	671.44
587.923	643.44
588.133	654.44
588.343	636.44
588.553	675.44
588.762	670.44
588.972	654.44
589.182	711.44
589.392	676.44
589.602	677.44
589.812	699.44
590.022	692.44
590.232	654.44
590.441	671.44
590.651	662.44
590.861	649.44
591.071	683.44
591.281	679.44
591.49	686.44
591.7	691.44
591.91	710.44
592.119	701.44
592.329	700.44
592.539	720.44
592.748	752.44
592.958	752.44
593.167	765.44
593.377	775.44
593.587	808.44
593.796	804.44
594.006	791.44
594.215	804.44
594.424	811.44
594.634	804.44
594.843	753.44
595.053	755.44
595.262	742.44
595.472	697.44
595.681	662.44
595.89	653.44
596.1	648.44
596.309	638.44
596.518	627.44
596.727	618.44
596.937	619.44
597.146	612.44
597.355	595.44
597.564	586.44
597.774	584.44
597.983	585.44
598.192	568.44
598.401	570.44
598.61	570.44
598.819	574.44
599.028	547.44
599.237	544.44
599.446	581.44
599.655	552.44
599.864	565.44
600.073	543.44
600.282	552.44
600.491	530.44
600.7	541.44
600.909	547.44
601.118	544.44
601.327	505.44
601.536	518.44
601.745	503.44
601.953	518.44
602.162	537.44
602.371	515.44
602.58	519.44
602.789	524.44
602.997	531.44
603.206	515.44
603.415	524.44
603.623	525.44
603.832	519.44
604.041	512.44
604.249	494.44
604.458	510.44
604.666	504.44
604.875	503.44
605.084	502.44
605.292	520.44
605.501	484.44
605.709	490.44
605.918	478.44
606.126	476.44
606.334	496.44
606.543	503.44
606.751	476.44
606.96	472.44
607.168	484.44
607.376	474.44
607.585	492.44
607.793	466.44
608.001	476.44
608.21	475.44
608.418	479.44
608.626	489.44
608.834	478.44
609.043	480.44
609.251	477.44
609.459	461.44
609.667	483.44
609.875	487.44
610.083	490.44
610.291	475.44
610.499	469.44
610.707	449.44
610.916	460.44
611.124	475.44
611.332	459.44
611.54	475.44
611.748	472.44
611.955	474.44
612.163	463.44
612.371	466.44
612.579	465.44
612.787	479.44
612.995	457.44
613.203	437.44
613.411	469.44
613.618	457.44
613.826	437.44
614.034	465.44
614.242	468.44
614.449	453.44
614.657	438.44
614.865	451.44
615.072	446.44
615.28	453.44
615.488	439.44
615.695	453.44
615.903	461.44
616.111	459.44
616.318	453.44
616.526	436.44
616.733	441.44
616.941	465.44
617.148	449.44
617.356	461.44
617.563	449.44
617.771	461.44
617.978	446.44
618.185	446.44
618.393	436.44
618.6	468.44
618.807	447.44
619.015	430.44
619.222	420.44
619.429	426.44
619.637	432.44
619.844	457.44
620.051	447.44
620.258	433.44
620.466	429.44
620.673	413.44
620.88	436.44
621.087	403.44
621.294	423.44
621.501	447.44
621.708	425.44
621.915	411.44
622.122	429.44
622.329	432.44
622.536	403.44
622.743	421.44
622.95	419.44
623.157	409.44
623.364	408.44
623.571	420.44
623.778	397.44
623.985	404.44
624.192	392.44
624.399	393.44
624.606	397.44
624.812	409.44
625.019	384.44
625.226	387.44
625.433	389.44
625.639	382.44
625.846	391.44
626.053	396.44
626.259	373.44
626.466	379.44
626.673	377.44
626.879	372.44
627.086	366.44
627.293	381.44
627.499	375.44
627.706	377.44
627.912	380.44
628.119	376.44
628.325	385.44
628.532	351.44
628.738	377.44
628.945	360.44
629.151	375.44
629.357	369.44
629.564	362.44
629.77	359.44
629.976	355.44
630.183	357.44
630.389	336.44
630.595	364.44
630.802	363.44
631.008	341.44
631.214	339.44
631.42	369.44
631.627	350.44
631.833	332.44
632.039	346.44
632.245	354.44
632.451	348.44
632.657	326.44
632.863	330.44
633.069	345.44
633.275	331.44
633.481	346.44
633.688	340.44
633.893	352.44
634.099	346.44
634.305	332.44
634.511	344.44
634.717	341.44
634.923	328.44
635.129	319.44
635.335	333.44
635.541	349.44
635.747	323.44
635.952	336.44
636.158	323.44
636.364	331.44
636.57	321.44
636.775	320.44
636.981	331.44
637.187	329.44
637.392	335.44
637.598	316.44
637.804	333.44
638.009	332.44
638.215	330.44
638.421	325.44
638.626	297.44
638.832	310.44
639.037	305.44
639.243	319.44
639.448	304.44
639.654	309.44
639.859	301.44
640.065	306.44
640.27	311.44
640.475	294.44
640.681	294.44
640.886	300.44
641.091	307.44
641.297	299.44
641.502	297.44
641.707	283.44
641.913	301.44
642.118	296.44
642.323	316.44
642.528	315.44
642.733	303.44
642.939	299.44
643.144	312.44
643.349	317.44
643.554	321.44
643.759	309.44
643.964	303.44
644.169	299.44
644.374	305.44
644.579	308.44
644.784	292.44
644.989	309.44
645.194	302.44
645.399	307.44
645.604	291.44
645.809	313.44
646.014	305.44
646.219	313.44
646.423	303.44
646.628	295.44
646.833	304.44
647.038	298.44
647.243	304.44
647.447	326.44
647.652	319.44
647.857	313.44
648.062	337.44
648.266	329.44
648.471	321.44
648.676	337.44
648.88	333.44
649.085	332.44
649.289	318.44
649.494	315.44
649.698	323.44
649.903	314.44
650.107	324.44
650.312	331.44
650.516	307.44
650.721	307.44
650.925	307.44
651.13	296.44
651.334	292.44
651.539	297.44
651.743	302.44
651.947	320.44
652.152	284.44
652.356	284.44
652.56	286.44
652.764	289.44
652.969	297.44
653.173	285.44
653.377	288.44
653.581	307.44
653.785	284.44
653.99	289.44
654.194	299.44
654.398	293.44
654.602	297.44
654.806	292.44
655.01	296.44
655.214	303.44
655.418	311.44
655.622	310.44
655.826	330.44
656.03	340.44
656.234	327.44
656.438	352.44
656.642	348.44
656.846	314.44
657.049	313.44
657.253	287.44
657.457	287.44
657.661	244.44
657.865	239.44
658.068	221.44
658.272	217.44
658.476	186.44
658.68	200.44
658.883	181.44
659.087	160.44
659.291	150.44
659.494	161.44
659.698	151.44
659.901	131.44
660.105	132.44
660.309	138.44
660.512	129.44
660.716	120.44
660.919	116.44
661.123	111.44
661.326	110.44
661.53	129.44
661.733	116.44
661.936	93.44
662.14	88.44
662.343	83.44
662.546	102.44
662.75	88.44
662.953	94.44
663.156	95.44
663.36	86.44
663.563	85.44
663.766	93.44
663.969	103.44
664.173	104.44
664.376	86.44
664.579	83.44
664.782	105.44
664.985	80.44
665.188	85.44
665.391	97.44
665.594	85.44
665.797	91.44
666	80.44
666.203	76.44
666.406	79.44
666.609	69.44
666.812	87.44
667.015	91.44
667.218	89.44
667.421	98.44
667.624	95.44
667.827	79.44
668.03	87.44
668.232	96.44
668.435	87.44
668.638	84.44
668.841	99.44
669.043	82.44
669.246	95.44
669.449	84.44
669.651	85.44
669.854	77.44
670.057	89.44
670.259	95.44
670.462	96.44
670.665	90.44
670.867	89.44
671.07	85.44
671.272	88.44
671.475	85.44
671.677	74.44
671.88	78.44
672.082	81.44
672.284	85.44
672.487	93.44
672.689	103.44
672.892	76.44
