Data from NiCl2@0.125M.TitratingCurve.Agarose3%dH2O.NegLispCup.LampEnergy10.LIBS07252019_HRD10591_18-27-39-587.txt Node
Date: Thu Jul 25 18:27:39 EDT 2019
User: cochatt
Spectrometer: HR+D1059
Trigger mode: 1
Integration Time (sec): 1.000000E-1
Scans to average: 1
Electric dark correction enabled: true
Nonlinearity correction enabled: false
Boxcar width: 0
XAxis mode: Wavelengths
Number of Pixels in Spectrum: 2048
>>>>>Begin Spectral Data<<<<<
223.165	-8.62
223.4	-8.62
223.635	-8.62
223.869	-17.62
224.104	-22.62
224.338	-6.62
224.573	-11.62
224.808	-17.62
225.042	-12.62
225.277	-11.62
225.511	-22.62
225.746	8.38
225.98	7.38
226.215	9.38
226.449	22.38
226.683	30.38
226.918	14.38
227.152	39.38
227.387	28.38
227.621	35.38
227.856	50.38
228.09	44.38
228.324	48.38
228.559	63.38
228.793	75.38
229.027	78.38
229.262	87.38
229.496	112.38
229.73	110.38
229.964	110.38
230.199	117.38
230.433	113.38
230.667	109.38
230.901	125.38
231.136	114.38
231.37	113.38
231.604	117.38
231.838	122.38
232.072	122.38
232.306	130.38
232.541	127.38
232.775	134.38
233.009	126.38
233.243	139.38
233.477	125.38
233.711	133.38
233.945	127.38
234.179	133.38
234.413	136.38
234.647	121.38
234.881	118.38
235.115	122.38
235.349	123.38
235.583	137.38
235.817	135.38
236.051	147.38
236.285	127.38
236.519	135.38
236.753	132.38
236.987	136.38
237.221	139.38
237.455	130.38
237.689	132.38
237.922	150.38
238.156	142.38
238.39	150.38
238.624	158.38
238.858	143.38
239.091	145.38
239.325	145.38
239.559	150.38
239.793	141.38
240.027	167.38
240.26	164.38
240.494	156.38
240.728	153.38
240.961	149.38
241.195	162.38
241.429	158.38
241.662	158.38
241.896	153.38
242.13	181.38
242.363	179.38
242.597	181.38
242.83	185.38
243.064	198.38
243.298	173.38
243.531	169.38
243.765	191.38
243.998	177.38
244.232	166.38
244.465	199.38
244.699	192.38
244.932	201.38
245.166	201.38
245.399	175.38
245.633	166.38
245.866	191.38
246.099	173.38
246.333	209.38
246.566	209.38
246.8	182.38
247.033	191.38
247.266	202.38
247.5	194.38
247.733	192.38
247.966	211.38
248.2	196.38
248.433	188.38
248.666	204.38
248.899	199.38
249.133	202.38
249.366	204.38
249.599	219.38
249.832	215.38
250.066	218.38
250.299	225.38
250.532	199.38
250.765	226.38
250.998	217.38
251.231	214.38
251.465	207.38
251.698	210.38
251.931	225.38
252.164	207.38
252.397	232.38
252.63	239.38
252.863	229.38
253.096	232.38
253.329	234.38
253.562	228.38
253.795	225.38
254.028	223.38
254.261	224.38
254.494	247.38
254.727	251.38
254.96	261.38
255.193	267.38
255.426	246.38
255.659	250.38
255.892	272.38
256.124	246.38
256.357	262.38
256.59	251.38
256.823	253.38
257.056	261.38
257.289	265.38
257.521	266.38
257.754	263.38
257.987	254.38
258.22	259.38
258.452	235.38
258.685	268.38
258.918	264.38
259.151	270.38
259.383	253.38
259.616	248.38
259.849	270.38
260.081	266.38
260.314	273.38
260.547	274.38
260.779	271.38
261.012	269.38
261.244	284.38
261.477	273.38
261.71	260.38
261.942	274.38
262.175	290.38
262.407	290.38
262.64	267.38
262.872	272.38
263.105	274.38
263.337	295.38
263.57	281.38
263.802	292.38
264.035	290.38
264.267	298.38
264.499	297.38
264.732	296.38
264.964	296.38
265.197	319.38
265.429	296.38
265.661	297.38
265.894	312.38
266.126	326.38
266.358	302.38
266.591	297.38
266.823	317.38
267.055	308.38
267.287	297.38
267.52	301.38
267.752	306.38
267.984	293.38
268.216	305.38
268.448	315.38
268.681	304.38
268.913	309.38
269.145	312.38
269.377	327.38
269.609	322.38
269.841	322.38
270.073	307.38
270.306	311.38
270.538	328.38
270.77	328.38
271.002	336.38
271.234	333.38
271.466	322.38
271.698	331.38
271.93	317.38
272.162	344.38
272.394	327.38
272.626	331.38
272.858	325.38
273.09	336.38
273.322	323.38
273.553	325.38
273.785	349.38
274.017	340.38
274.249	350.38
274.481	342.38
274.713	353.38
274.945	351.38
275.176	352.38
275.408	358.38
275.64	347.38
275.872	352.38
276.104	349.38
276.335	355.38
276.567	378.38
276.799	361.38
277.031	348.38
277.262	362.38
277.494	354.38
277.726	346.38
277.957	356.38
278.189	375.38
278.421	350.38
278.652	373.38
278.884	385.38
279.115	371.38
279.347	380.38
279.579	372.38
279.81	375.38
280.042	377.38
280.273	377.38
280.505	373.38
280.736	375.38
280.968	390.38
281.199	398.38
281.431	378.38
281.662	402.38
281.894	393.38
282.125	409.38
282.356	405.38
282.588	392.38
282.819	400.38
283.051	388.38
283.282	401.38
283.513	405.38
283.745	403.38
283.976	404.38
284.207	398.38
284.439	408.38
284.67	383.38
284.901	413.38
285.132	408.38
285.364	430.38
285.595	402.38
285.826	396.38
286.057	424.38
286.288	417.38
286.52	410.38
286.751	426.38
286.982	417.38
287.213	402.38
287.444	426.38
287.675	454.38
287.906	432.38
288.138	429.38
288.369	393.38
288.6	442.38
288.831	450.38
289.062	440.38
289.293	427.38
289.524	440.38
289.755	449.38
289.986	467.38
290.217	442.38
290.448	448.38
290.679	451.38
290.91	427.38
291.141	433.38
291.371	423.38
291.602	447.38
291.833	451.38
292.064	450.38
292.295	439.38
292.526	449.38
292.757	458.38
292.987	443.38
293.218	434.38
293.449	468.38
293.68	450.38
293.91	454.38
294.141	448.38
294.372	455.38
294.603	463.38
294.833	449.38
295.064	457.38
295.295	446.38
295.525	448.38
295.756	470.38
295.987	466.38
296.217	473.38
296.448	470.38
296.679	468.38
296.909	474.38
297.14	473.38
297.37	501.38
297.601	502.38
297.831	462.38
298.062	477.38
298.292	477.38
298.523	511.38
298.753	480.38
298.984	473.38
299.214	496.38
299.445	470.38
299.675	483.38
299.905	501.38
300.136	498.38
300.366	482.38
300.597	503.38
300.827	501.38
301.057	500.38
301.288	513.38
301.518	527.38
301.748	535.38
301.979	513.38
302.209	506.38
302.439	537.38
302.669	487.38
302.9	518.38
303.13	491.38
303.36	495.38
303.59	503.38
303.82	511.38
304.051	505.38
304.281	495.38
304.511	499.38
304.741	495.38
304.971	502.38
305.201	511.38
305.431	522.38
305.661	492.38
305.891	500.38
306.121	496.38
306.352	519.38
306.582	491.38
306.812	481.38
307.042	491.38
307.272	502.38
307.502	486.38
307.731	498.38
307.961	483.38
308.191	486.38
308.421	486.38
308.651	506.38
308.881	471.38
309.111	474.38
309.341	502.38
309.571	486.38
309.8	497.38
310.03	486.38
310.26	484.38
310.49	485.38
310.72	488.38
310.949	500.38
311.179	490.38
311.409	504.38
311.639	489.38
311.868	509.38
312.098	522.38
312.328	513.38
312.557	533.38
312.787	519.38
313.017	515.38
313.246	539.38
313.476	517.38
313.706	521.38
313.935	543.38
314.165	548.38
314.394	545.38
314.624	536.38
314.853	546.38
315.083	533.38
315.312	542.38
315.542	541.38
315.771	513.38
316.001	527.38
316.23	527.38
316.46	533.38
316.689	515.38
316.919	512.38
317.148	501.38
317.377	530.38
317.607	514.38
317.836	497.38
318.065	517.38
318.295	515.38
318.524	521.38
318.753	523.38
318.983	538.38
319.212	515.38
319.441	526.38
319.67	494.38
319.9	524.38
320.129	530.38
320.358	519.38
320.587	514.38
320.816	526.38
321.046	514.38
321.275	521.38
321.504	507.38
321.733	538.38
321.962	530.38
322.191	524.38
322.42	548.38
322.649	520.38
322.878	538.38
323.108	527.38
323.337	544.38
323.566	542.38
323.795	550.38
324.024	521.38
324.253	531.38
324.482	533.38
324.71	533.38
324.939	539.38
325.168	549.38
325.397	555.38
325.626	569.38
325.855	552.38
326.084	561.38
326.313	584.38
326.542	570.38
326.77	582.38
326.999	570.38
327.228	566.38
327.457	576.38
327.686	581.38
327.914	566.38
328.143	569.38
328.372	569.38
328.6	592.38
328.829	564.38
329.058	586.38
329.287	585.38
329.515	587.38
329.744	583.38
329.972	570.38
330.201	569.38
330.43	571.38
330.658	597.38
330.887	586.38
331.115	603.38
331.344	592.38
331.572	623.38
331.801	613.38
332.03	624.38
332.258	630.38
332.486	647.38
332.715	663.38
332.943	692.38
333.172	702.38
333.4	729.38
333.629	772.38
333.857	777.38
334.085	778.38
334.314	748.38
334.542	754.38
334.771	720.38
334.999	718.38
335.227	711.38
335.455	729.38
335.684	688.38
335.912	685.38
336.14	691.38
336.369	683.38
336.597	692.38
336.825	702.38
337.053	707.38
337.281	706.38
337.51	654.38
337.738	674.38
337.966	650.38
338.194	647.38
338.422	599.38
338.65	617.38
338.878	646.38
339.106	637.38
339.334	607.38
339.562	624.38
339.79	602.38
340.018	596.38
340.246	589.38
340.474	591.38
340.702	600.38
340.93	605.38
341.158	592.38
341.386	589.38
341.614	602.38
341.842	573.38
342.07	579.38
342.298	606.38
342.526	583.38
342.754	591.38
342.981	613.38
343.209	586.38
343.437	618.38
343.665	660.38
343.893	725.38
344.12	744.38
344.348	718.38
344.576	666.38
344.804	646.38
345.031	625.38
345.259	595.38
345.487	586.38
345.714	604.38
345.942	584.38
346.17	570.38
346.397	576.38
346.625	568.38
346.853	586.38
347.08	595.38
347.308	553.38
347.535	591.38
347.763	588.38
347.99	573.38
348.218	574.38
348.445	573.38
348.673	561.38
348.9	598.38
349.128	590.38
349.355	569.38
349.583	565.38
349.81	578.38
350.037	559.38
350.265	564.38
350.492	558.38
350.72	565.38
350.947	559.38
351.174	574.38
351.402	546.38
351.629	563.38
351.856	554.38
352.083	570.38
352.311	543.38
352.538	555.38
352.765	563.38
352.992	570.38
353.22	575.38
353.447	565.38
353.674	549.38
353.901	558.38
354.128	565.38
354.355	555.38
354.583	539.38
354.81	550.38
355.037	565.38
355.264	554.38
355.491	538.38
355.718	559.38
355.945	561.38
356.172	543.38
356.399	594.38
356.626	566.38
356.853	569.38
357.08	542.38
357.307	552.38
357.534	565.38
357.761	529.38
357.988	557.38
358.215	552.38
358.441	565.38
358.668	561.38
358.895	546.38
359.122	547.38
359.349	544.38
359.576	569.38
359.802	551.38
360.029	563.38
360.256	568.38
360.483	559.38
360.709	560.38
360.936	552.38
361.163	549.38
361.39	570.38
361.616	563.38
361.843	557.38
362.07	551.38
362.296	539.38
362.523	553.38
362.749	541.38
362.976	562.38
363.203	557.38
363.429	563.38
363.656	534.38
363.882	557.38
364.109	534.38
364.335	545.38
364.562	569.38
364.788	553.38
365.015	542.38
365.241	584.38
365.468	560.38
365.694	558.38
365.92	562.38
366.147	543.38
366.373	548.38
366.599	537.38
366.826	552.38
367.052	552.38
367.278	564.38
367.505	588.38
367.731	556.38
367.957	562.38
368.184	563.38
368.41	562.38
368.636	538.38
368.862	570.38
369.089	578.38
369.315	539.38
369.541	579.38
369.767	566.38
369.993	560.38
370.219	582.38
370.445	605.38
370.672	596.38
370.898	574.38
371.124	588.38
371.35	579.38
371.576	611.38
371.802	619.38
372.028	619.38
372.254	582.38
372.48	604.38
372.706	635.38
372.932	617.38
373.158	620.38
373.384	630.38
373.61	623.38
373.835	613.38
374.061	579.38
374.287	599.38
374.513	603.38
374.739	626.38
374.965	656.38
375.191	692.38
375.416	675.38
375.642	653.38
375.868	638.38
376.094	639.38
376.319	609.38
376.545	611.38
376.771	648.38
376.997	587.38
377.222	629.38
377.448	624.38
377.674	607.38
377.899	577.38
378.125	595.38
378.35	592.38
378.576	594.38
378.802	606.38
379.027	575.38
379.253	590.38
379.478	608.38
379.704	609.38
379.929	591.38
380.155	568.38
380.38	576.38
380.606	621.38
380.831	599.38
381.057	593.38
381.282	602.38
381.507	599.38
381.733	591.38
381.958	603.38
382.184	617.38
382.409	635.38
382.634	625.38
382.86	608.38
383.085	647.38
383.31	629.38
383.535	667.38
383.761	659.38
383.986	664.38
384.211	677.38
384.436	682.38
384.662	719.38
384.887	715.38
385.112	716.38
385.337	742.38
385.562	731.38
385.787	734.38
386.013	753.38
386.238	731.38
386.463	721.38
386.688	720.38
386.913	727.38
387.138	725.38
387.363	714.38
387.588	708.38
387.813	728.38
388.038	715.38
388.263	738.38
388.488	756.38
388.713	700.38
388.938	727.38
389.163	721.38
389.387	720.38
389.612	673.38
389.837	696.38
390.062	712.38
390.287	711.38
390.512	720.38
390.736	739.38
390.961	732.38
391.186	741.38
391.411	761.38
391.636	789.38
391.86	814.38
392.085	829.38
392.31	808.38
392.534	806.38
392.759	806.38
392.984	776.38
393.208	746.38
393.433	767.38
393.658	800.38
393.882	804.38
394.107	753.38
394.331	791.38
394.556	772.38
394.78	756.38
395.005	779.38
395.229	787.38
395.454	809.38
395.678	824.38
395.903	823.38
396.127	784.38
396.352	792.38
396.576	741.38
396.801	750.38
397.025	753.38
397.249	794.38
397.474	799.38
397.698	799.38
397.922	848.38
398.147	799.38
398.371	825.38
398.595	895.38
398.82	911.38
399.044	957.38
399.268	1052.38
399.492	1198.38
399.717	1376.38
399.941	1394.38
400.165	1281.38
400.389	1100.38
400.613	1039.38
400.837	958.38
401.062	934.38
401.286	937.38
401.51	925.38
401.734	893.38
401.958	922.38
402.182	963.38
402.406	941.38
402.63	945.38
402.854	979.38
403.078	985.38
403.302	1001.38
403.526	1015.38
403.75	1036.38
403.974	1095.38
404.198	1086.38
404.422	1028.38
404.645	1056.38
404.869	1019.38
405.093	1025.38
405.317	1001.38
405.541	1034.38
405.765	1017.38
405.988	1015.38
406.212	997.38
406.436	1009.38
406.66	1039.38
406.883	1033.38
407.107	1104.38
407.331	1165.38
407.555	1194.38
407.778	1159.38
408.002	1177.38
408.226	1117.38
408.449	1115.38
408.673	1066.38
408.896	1039.38
409.12	1027.38
409.344	1042.38
409.567	1039.38
409.791	1058.38
410.014	1026.38
410.238	1033.38
410.461	1015.38
410.685	1001.38
410.908	1000.38
411.132	1006.38
411.355	945.38
411.578	951.38
411.802	934.38
412.025	965.38
412.249	990.38
412.472	967.38
412.695	930.38
412.919	928.38
413.142	933.38
413.365	914.38
413.589	910.38
413.812	953.38
414.035	935.38
414.258	934.38
414.482	949.38
414.705	943.38
414.928	948.38
415.151	931.38
415.374	929.38
415.597	898.38
415.821	901.38
416.044	896.38
416.267	877.38
416.49	900.38
416.713	884.38
416.936	892.38
417.159	904.38
417.382	880.38
417.605	868.38
417.828	891.38
418.051	901.38
418.274	913.38
418.497	895.38
418.72	943.38
418.943	930.38
419.166	1015.38
419.389	1051.38
419.611	1030.38
419.834	994.38
420.057	948.38
420.28	926.38
420.503	919.38
420.726	901.38
420.948	901.38
421.171	906.38
421.394	917.38
421.617	871.38
421.839	927.38
422.062	920.38
422.285	910.38
422.507	932.38
422.73	925.38
422.953	928.38
423.175	954.38
423.398	968.38
423.621	949.38
423.843	968.38
424.066	987.38
424.288	1000.38
424.511	982.38
424.733	928.38
424.956	930.38
425.178	906.38
425.401	913.38
425.623	931.38
425.846	898.38
426.068	889.38
426.291	861.38
426.513	891.38
426.735	864.38
426.958	847.38
427.18	835.38
427.402	863.38
427.625	850.38
427.847	836.38
428.069	818.38
428.292	830.38
428.514	820.38
428.736	816.38
428.958	823.38
429.181	818.38
429.403	814.38
429.625	795.38
429.847	802.38
430.069	817.38
430.292	819.38
430.514	802.38
430.736	803.38
430.958	822.38
431.18	795.38
431.402	815.38
431.624	829.38
431.846	828.38
432.068	811.38
432.29	837.38
432.512	787.38
432.734	821.38
432.956	801.38
433.178	809.38
433.4	826.38
433.622	817.38
433.844	830.38
434.066	826.38
434.287	807.38
434.509	843.38
434.731	863.38
434.953	933.38
435.175	922.38
435.397	903.38
435.618	891.38
435.84	868.38
436.062	821.38
436.284	831.38
436.505	823.38
436.727	841.38
436.949	825.38
437.17	809.38
437.392	810.38
437.614	804.38
437.835	817.38
438.057	786.38
438.278	774.38
438.5	775.38
438.721	788.38
438.943	815.38
439.165	806.38
439.386	834.38
439.608	800.38
439.829	818.38
440.05	826.38
440.272	823.38
440.493	832.38
440.715	859.38
440.936	869.38
441.158	849.38
441.379	894.38
441.6	921.38
441.822	951.38
442.043	939.38
442.264	907.38
442.486	898.38
442.707	888.38
442.928	914.38
443.149	915.38
443.371	891.38
443.592	929.38
443.813	908.38
444.034	938.38
444.255	967.38
444.476	975.38
444.698	1082.38
444.919	1113.38
445.14	1215.38
445.361	1067.38
445.582	983.38
445.803	895.38
446.024	887.38
446.245	880.38
446.466	877.38
446.687	842.38
446.908	819.38
447.129	840.38
447.35	802.38
447.571	807.38
447.792	791.38
448.013	777.38
448.234	791.38
448.455	763.38
448.675	774.38
448.896	767.38
449.117	757.38
449.338	742.38
449.559	734.38
449.779	751.38
450	752.38
450.221	753.38
450.442	792.38
450.662	761.38
450.883	775.38
451.104	773.38
451.324	781.38
451.545	787.38
451.766	762.38
451.986	778.38
452.207	759.38
452.428	741.38
452.648	755.38
452.869	735.38
453.089	729.38
453.31	749.38
453.53	749.38
453.751	712.38
453.971	722.38
454.192	736.38
454.412	711.38
454.633	709.38
454.853	719.38
455.073	744.38
455.294	718.38
455.514	721.38
455.734	706.38
455.955	713.38
456.175	717.38
456.395	698.38
456.616	703.38
456.836	692.38
457.056	715.38
457.276	679.38
457.497	693.38
457.717	695.38
457.937	682.38
458.157	727.38
458.377	718.38
458.598	734.38
458.818	760.38
459.038	783.38
459.258	793.38
459.478	822.38
459.698	839.38
459.918	877.38
460.138	913.38
460.358	935.38
460.578	947.38
460.798	979.38
461.018	968.38
461.238	949.38
461.458	933.38
461.678	973.38
461.898	983.38
462.118	986.38
462.338	1030.38
462.558	1053.38
462.777	1114.38
462.997	1220.38
463.217	1280.38
463.437	1289.38
463.657	1199.38
463.876	1135.38
464.096	1145.38
464.316	1148.38
464.536	1112.38
464.755	1079.38
464.975	1030.38
465.195	1013.38
465.414	951.38
465.634	895.38
465.854	882.38
466.073	874.38
466.293	830.38
466.512	821.38
466.732	780.38
466.951	793.38
467.171	777.38
467.391	793.38
467.61	776.38
467.829	789.38
468.049	772.38
468.268	765.38
468.488	753.38
468.707	783.38
468.927	765.38
469.146	762.38
469.365	767.38
469.585	758.38
469.804	784.38
470.023	825.38
470.243	820.38
470.462	829.38
470.681	818.38
470.901	824.38
471.12	817.38
471.339	800.38
471.558	789.38
471.777	772.38
471.997	762.38
472.216	766.38
472.435	742.38
472.654	726.38
472.873	725.38
473.092	743.38
473.311	725.38
473.53	728.38
473.749	752.38
473.968	723.38
474.187	722.38
474.406	707.38
474.625	725.38
474.844	744.38
475.063	737.38
475.282	767.38
475.501	739.38
475.72	734.38
475.939	759.38
476.158	776.38
476.377	768.38
476.596	743.38
476.814	790.38
477.033	776.38
477.252	789.38
477.471	799.38
477.69	811.38
477.908	853.38
478.127	861.38
478.346	870.38
478.564	879.38
478.783	877.38
479.002	899.38
479.22	897.38
479.439	942.38
479.658	925.38
479.876	913.38
480.095	888.38
480.313	946.38
480.532	965.38
480.751	984.38
480.969	953.38
481.188	912.38
481.406	893.38
481.624	872.38
481.843	866.38
482.061	834.38
482.28	838.38
482.498	827.38
482.717	793.38
482.935	819.38
483.153	856.38
483.372	842.38
483.59	846.38
483.808	841.38
484.027	831.38
484.245	861.38
484.463	862.38
484.681	855.38
484.9	867.38
485.118	834.38
485.336	851.38
485.554	863.38
485.772	889.38
485.99	893.38
486.209	889.38
486.427	882.38
486.645	874.38
486.863	893.38
487.081	901.38
487.299	888.38
487.517	869.38
487.735	885.38
487.953	903.38
488.171	877.38
488.389	885.38
488.607	872.38
488.825	854.38
489.043	864.38
489.261	871.38
489.479	871.38
489.696	857.38
489.914	879.38
490.132	882.38
490.35	884.38
490.568	838.38
490.786	879.38
491.003	856.38
491.221	886.38
491.439	897.38
491.657	853.38
491.874	876.38
492.092	893.38
492.31	887.38
492.527	909.38
492.745	904.38
492.963	911.38
493.18	885.38
493.398	923.38
493.615	930.38
493.833	930.38
494.05	903.38
494.268	923.38
494.485	928.38
494.703	946.38
494.92	933.38
495.138	910.38
495.355	930.38
495.573	901.38
495.79	918.38
496.008	939.38
496.225	950.38
496.442	938.38
496.66	970.38
496.877	985.38
497.094	975.38
497.312	1001.38
497.529	1044.38
497.746	1055.38
497.963	1104.38
498.181	1120.38
498.398	1171.38
498.615	1206.38
498.832	1321.38
499.049	1441.38
499.267	1579.38
499.484	1710.38
499.701	1867.38
499.918	2118.38
500.135	2358.38
500.352	2651.38
500.569	2757.38
500.786	2760.38
501.003	2604.38
501.22	2315.38
501.437	2128.38
501.654	1843.38
501.871	1664.38
502.088	1531.38
502.305	1382.38
502.522	1342.38
502.739	1254.38
502.956	1203.38
503.172	1161.38
503.389	1120.38
503.606	1107.38
503.823	1078.38
504.04	1057.38
504.256	1053.38
504.473	1106.38
504.69	1135.38
504.907	1085.38
505.123	1042.38
505.34	989.38
505.557	930.38
505.773	901.38
505.99	868.38
506.207	851.38
506.423	864.38
506.64	852.38
506.856	841.38
507.073	827.38
507.289	826.38
507.506	802.38
507.722	792.38
507.939	815.38
508.155	795.38
508.372	786.38
508.588	779.38
508.805	769.38
509.021	766.38
509.238	791.38
509.454	753.38
509.67	737.38
509.887	749.38
510.103	734.38
510.319	727.38
510.536	752.38
510.752	773.38
510.968	773.38
511.184	743.38
511.401	746.38
511.617	725.38
511.833	726.38
512.049	749.38
512.265	725.38
512.481	766.38
512.698	725.38
512.914	738.38
513.13	748.38
513.346	713.38
513.562	707.38
513.778	740.38
513.994	739.38
514.21	713.38
514.426	742.38
514.642	753.38
514.858	751.38
515.074	788.38
515.29	741.38
515.506	760.38
515.721	770.38
515.937	770.38
516.153	778.38
516.369	820.38
516.585	855.38
516.801	859.38
517.016	902.38
517.232	969.38
517.448	969.38
517.664	1055.38
517.879	1044.38
518.095	1050.38
518.311	1049.38
518.527	954.38
518.742	930.38
518.958	925.38
519.173	856.38
519.389	853.38
519.605	823.38
519.82	805.38
520.036	787.38
520.251	759.38
520.467	757.38
520.682	762.38
520.898	751.38
521.113	753.38
521.329	730.38
521.544	713.38
521.76	726.38
521.975	703.38
522.19	728.38
522.406	725.38
522.621	708.38
522.836	691.38
523.052	692.38
523.267	701.38
523.482	677.38
523.698	677.38
523.913	691.38
524.128	702.38
524.343	693.38
524.559	696.38
524.774	663.38
524.989	690.38
525.204	674.38
525.419	674.38
525.634	674.38
525.849	658.38
526.064	663.38
526.28	678.38
526.495	670.38
526.71	660.38
526.925	678.38
527.14	678.38
527.355	688.38
527.57	678.38
527.785	652.38
527.999	657.38
528.214	662.38
528.429	652.38
528.644	649.38
528.859	682.38
529.074	669.38
529.289	678.38
529.503	671.38
529.718	671.38
529.933	685.38
530.148	655.38
530.363	665.38
530.577	664.38
530.792	663.38
531.007	666.38
531.221	672.38
531.436	672.38
531.651	676.38
531.865	664.38
532.08	686.38
532.295	678.38
532.509	669.38
532.724	665.38
532.938	664.38
533.153	676.38
533.367	675.38
533.582	674.38
533.796	682.38
534.011	665.38
534.225	641.38
534.44	646.38
534.654	651.38
534.868	639.38
535.083	656.38
535.297	640.38
535.511	647.38
535.726	633.38
535.94	660.38
536.154	646.38
536.369	638.38
536.583	607.38
536.797	655.38
537.011	635.38
537.225	591.38
537.44	618.38
537.654	627.38
537.868	606.38
538.082	598.38
538.296	632.38
538.51	615.38
538.724	630.38
538.938	601.38
539.153	613.38
539.367	609.38
539.581	605.38
539.795	617.38
540.009	626.38
540.222	597.38
540.436	610.38
540.65	613.38
540.864	589.38
541.078	599.38
541.292	606.38
541.506	636.38
541.72	602.38
541.934	577.38
542.147	605.38
542.361	615.38
542.575	625.38
542.789	608.38
543.002	614.38
543.216	585.38
543.43	594.38
543.644	588.38
543.857	565.38
544.071	583.38
544.285	613.38
544.498	599.38
544.712	612.38
544.925	607.38
545.139	614.38
545.352	630.38
545.566	634.38
545.779	622.38
545.993	617.38
546.206	629.38
546.42	633.38
546.633	635.38
546.847	641.38
547.06	627.38
547.274	628.38
547.487	621.38
547.7	610.38
547.914	633.38
548.127	611.38
548.34	639.38
548.554	627.38
548.767	633.38
548.98	622.38
549.193	619.38
549.407	643.38
549.62	672.38
549.833	672.38
550.046	660.38
550.259	615.38
550.473	620.38
550.686	631.38
550.899	619.38
551.112	616.38
551.325	592.38
551.538	586.38
551.751	605.38
551.964	606.38
552.177	605.38
552.39	632.38
552.603	663.38
552.816	674.38
553.029	675.38
553.242	668.38
553.455	690.38
553.667	710.38
553.88	669.38
554.093	657.38
554.306	650.38
554.519	634.38
554.732	613.38
554.944	625.38
555.157	585.38
555.37	575.38
555.583	596.38
555.795	581.38
556.008	575.38
556.221	565.38
556.433	575.38
556.646	541.38
556.859	555.38
557.071	542.38
557.284	541.38
557.496	553.38
557.709	547.38
557.921	539.38
558.134	515.38
558.346	531.38
558.559	514.38
558.771	513.38
558.984	519.38
559.196	521.38
559.409	516.38
559.621	515.38
559.833	509.38
560.046	504.38
560.258	531.38
560.47	535.38
560.683	509.38
560.895	507.38
561.107	522.38
561.32	499.38
561.532	481.38
561.744	518.38
561.956	505.38
562.168	521.38
562.381	519.38
562.593	528.38
562.805	528.38
563.017	530.38
563.229	504.38
563.441	512.38
563.653	526.38
563.865	506.38
564.077	526.38
564.289	533.38
564.501	551.38
564.713	557.38
564.925	542.38
565.137	557.38
565.349	580.38
565.561	592.38
565.773	611.38
565.985	639.38
566.197	659.38
566.408	715.38
566.62	783.38
566.832	837.38
567.044	866.38
567.255	840.38
567.467	883.38
567.679	913.38
567.891	962.38
568.102	934.38
568.314	972.38
568.526	840.38
568.737	778.38
568.949	696.38
569.161	661.38
569.372	617.38
569.584	577.38
569.795	572.38
570.007	553.38
570.218	543.38
570.43	532.38
570.641	503.38
570.853	538.38
571.064	538.38
571.276	545.38
571.487	524.38
571.698	517.38
571.91	470.38
572.121	457.38
572.333	451.38
572.544	463.38
572.755	449.38
572.966	463.38
573.178	445.38
573.389	437.38
573.6	410.38
573.811	434.38
574.023	424.38
574.234	411.38
574.445	435.38
574.656	421.38
574.867	437.38
575.078	425.38
575.289	426.38
575.501	424.38
575.712	416.38
575.923	423.38
576.134	422.38
576.345	410.38
576.556	410.38
576.767	422.38
576.978	399.38
577.188	402.38
577.399	409.38
577.61	394.38
577.821	384.38
578.032	383.38
578.243	402.38
578.454	385.38
578.665	384.38
578.875	380.38
579.086	382.38
579.297	382.38
579.508	378.38
579.718	390.38
579.929	397.38
580.14	361.38
580.35	387.38
580.561	363.38
580.772	379.38
580.982	344.38
581.193	352.38
581.403	358.38
581.614	362.38
581.825	365.38
582.035	375.38
582.246	375.38
582.456	335.38
582.667	368.38
582.877	373.38
583.087	371.38
583.298	354.38
583.508	351.38
583.719	370.38
583.929	381.38
584.139	360.38
584.35	338.38
584.56	344.38
584.77	356.38
584.981	350.38
585.191	343.38
585.401	372.38
585.611	373.38
585.821	351.38
586.032	358.38
586.242	336.38
586.452	351.38
586.662	347.38
586.872	343.38
587.082	346.38
587.292	340.38
587.502	359.38
587.713	343.38
587.923	363.38
588.133	358.38
588.343	344.38
588.553	355.38
588.762	331.38
588.972	352.38
589.182	361.38
589.392	330.38
589.602	350.38
589.812	357.38
590.022	351.38
590.232	347.38
590.441	358.38
590.651	340.38
590.861	345.38
591.071	361.38
591.281	344.38
591.49	349.38
591.7	382.38
591.91	346.38
592.119	373.38
592.329	377.38
592.539	380.38
592.748	399.38
592.958	419.38
593.167	404.38
593.377	437.38
593.587	428.38
593.796	438.38
594.006	460.38
594.215	457.38
594.424	450.38
594.634	446.38
594.843	413.38
595.053	415.38
595.262	423.38
595.472	389.38
595.681	358.38
595.89	353.38
596.1	349.38
596.309	337.38
596.518	317.38
596.727	338.38
596.937	347.38
597.146	340.38
597.355	338.38
597.564	322.38
597.774	321.38
597.983	327.38
598.192	308.38
598.401	312.38
598.61	310.38
598.819	297.38
599.028	296.38
599.237	304.38
599.446	306.38
599.655	311.38
599.864	281.38
600.073	294.38
600.282	291.38
600.491	321.38
600.7	307.38
600.909	294.38
601.118	293.38
601.327	288.38
601.536	281.38
601.745	296.38
601.953	297.38
602.162	290.38
602.371	275.38
602.58	283.38
602.789	292.38
602.997	289.38
603.206	286.38
603.415	295.38
603.623	288.38
603.832	268.38
604.041	292.38
604.249	274.38
604.458	279.38
604.666	265.38
604.875	287.38
605.084	282.38
605.292	295.38
605.501	283.38
605.709	268.38
605.918	261.38
606.126	272.38
606.334	289.38
606.543	297.38
606.751	285.38
606.96	276.38
607.168	271.38
607.376	262.38
607.585	290.38
607.793	282.38
608.001	261.38
608.21	288.38
608.418	279.38
608.626	265.38
608.834	278.38
609.043	273.38
609.251	257.38
609.459	282.38
609.667	269.38
609.875	285.38
610.083	272.38
610.291	273.38
610.499	273.38
610.707	264.38
610.916	260.38
611.124	256.38
611.332	258.38
611.54	256.38
611.748	245.38
611.955	277.38
612.163	266.38
612.371	275.38
612.579	257.38
612.787	281.38
612.995	253.38
613.203	249.38
613.411	254.38
613.618	246.38
613.826	250.38
614.034	261.38
614.242	259.38
614.449	255.38
614.657	252.38
614.865	240.38
615.072	263.38
615.28	269.38
615.488	256.38
615.695	259.38
615.903	267.38
616.111	259.38
616.318	266.38
616.526	258.38
616.733	241.38
616.941	241.38
617.148	259.38
617.356	263.38
617.563	245.38
617.771	251.38
617.978	241.38
618.185	255.38
618.393	261.38
618.6	252.38
618.807	258.38
619.015	258.38
619.222	260.38
619.429	246.38
619.637	256.38
619.844	252.38
620.051	270.38
620.258	238.38
620.466	222.38
620.673	248.38
620.88	233.38
621.087	256.38
621.294	245.38
621.501	237.38
621.708	246.38
621.915	245.38
622.122	248.38
622.329	245.38
622.536	230.38
622.743	226.38
622.95	235.38
623.157	241.38
623.364	228.38
623.571	234.38
623.778	241.38
623.985	226.38
624.192	227.38
624.399	230.38
624.606	232.38
624.812	231.38
625.019	232.38
625.226	235.38
625.433	225.38
625.639	216.38
625.846	220.38
626.053	209.38
626.259	229.38
626.466	231.38
626.673	214.38
626.879	210.38
627.086	201.38
627.293	224.38
627.499	225.38
627.706	219.38
627.912	222.38
628.119	223.38
628.325	230.38
628.532	226.38
628.738	216.38
628.945	227.38
629.151	212.38
629.357	216.38
629.564	197.38
629.77	200.38
629.976	214.38
630.183	202.38
630.389	206.38
630.595	203.38
630.802	200.38
631.008	197.38
631.214	208.38
631.42	182.38
631.627	209.38
631.833	207.38
632.039	194.38
632.245	198.38
632.451	206.38
632.657	195.38
632.863	208.38
633.069	175.38
633.275	224.38
633.481	203.38
633.688	195.38
633.893	193.38
634.099	187.38
634.305	178.38
634.511	200.38
634.717	197.38
634.923	182.38
635.129	193.38
635.335	202.38
635.541	207.38
635.747	184.38
635.952	193.38
636.158	196.38
636.364	199.38
636.57	189.38
636.775	175.38
636.981	192.38
637.187	183.38
637.392	202.38
637.598	206.38
637.804	207.38
638.009	196.38
638.215	190.38
638.421	182.38
638.626	177.38
638.832	181.38
639.037	176.38
639.243	200.38
639.448	188.38
639.654	175.38
639.859	185.38
640.065	182.38
640.27	176.38
640.475	164.38
640.681	176.38
640.886	190.38
641.091	188.38
641.297	184.38
641.502	175.38
641.707	169.38
641.913	187.38
642.118	173.38
642.323	156.38
642.528	182.38
642.733	164.38
642.939	166.38
643.144	175.38
643.349	178.38
643.554	168.38
643.759	175.38
643.964	185.38
644.169	175.38
644.374	160.38
644.579	167.38
644.784	165.38
644.989	173.38
645.194	156.38
645.399	164.38
645.604	169.38
645.809	167.38
646.014	170.38
646.219	179.38
646.423	167.38
646.628	174.38
646.833	168.38
647.038	155.38
647.243	174.38
647.447	166.38
647.652	187.38
647.857	172.38
648.062	171.38
648.266	170.38
648.471	180.38
648.676	198.38
648.88	196.38
649.085	170.38
649.289	160.38
649.494	171.38
649.698	166.38
649.903	177.38
650.107	165.38
650.312	162.38
650.516	172.38
650.721	154.38
650.925	155.38
651.13	151.38
651.334	154.38
651.539	156.38
651.743	147.38
651.947	139.38
652.152	150.38
652.356	152.38
652.56	149.38
652.764	148.38
652.969	152.38
653.173	140.38
653.377	139.38
653.581	145.38
653.785	134.38
653.99	131.38
654.194	128.38
654.398	147.38
654.602	137.38
654.806	136.38
655.01	140.38
655.214	129.38
655.418	136.38
655.622	130.38
655.826	120.38
656.03	134.38
656.234	138.38
656.438	126.38
656.642	115.38
656.846	119.38
657.049	129.38
657.253	111.38
657.457	118.38
657.661	109.38
657.865	97.38
658.068	121.38
658.272	99.38
658.476	106.38
658.68	108.38
658.883	99.38
659.087	96.38
659.291	104.38
659.494	97.38
659.698	111.38
659.901	90.38
660.105	94.38
660.309	95.38
660.512	89.38
660.716	73.38
660.919	82.38
661.123	93.38
661.326	88.38
661.53	97.38
661.733	92.38
661.936	80.38
662.14	94.38
662.343	82.38
662.546	87.38
662.75	87.38
662.953	104.38
663.156	74.38
663.36	86.38
663.563	90.38
663.766	84.38
663.969	72.38
664.173	80.38
664.376	70.38
664.579	77.38
664.782	74.38
664.985	89.38
665.188	82.38
665.391	74.38
665.594	72.38
665.797	87.38
666	83.38
666.203	83.38
666.406	86.38
666.609	81.38
666.812	89.38
667.015	73.38
667.218	83.38
667.421	79.38
667.624	62.38
667.827	93.38
668.03	74.38
668.232	75.38
668.435	89.38
668.638	80.38
668.841	73.38
669.043	75.38
669.246	66.38
669.449	85.38
669.651	71.38
669.854	83.38
670.057	80.38
670.259	65.38
670.462	76.38
670.665	77.38
670.867	87.38
671.07	71.38
671.272	87.38
671.475	74.38
671.677	87.38
671.88	93.38
672.082	79.38
672.284	84.38
672.487	76.38
672.689	75.38
672.892	79.38
