Data from NiCl2@0.0625M.TitratingCurve.Agarose3%dH2O.NegLispCup.LampEnergy10.LIBS07252019_HRD10591_18-35-25-577.txt Node
Date: Thu Jul 25 18:35:25 EDT 2019
User: cochatt
Spectrometer: HR+D1059
Trigger mode: 1
Integration Time (sec): 1.000000E-1
Scans to average: 1
Electric dark correction enabled: true
Nonlinearity correction enabled: false
Boxcar width: 0
XAxis mode: Wavelengths
Number of Pixels in Spectrum: 2048
>>>>>Begin Spectral Data<<<<<
223.165	-25.38
223.4	-25.38
223.635	-25.38
223.869	-10.38
224.104	-30.38
224.338	-19.38
224.573	-12.38
224.808	-11.38
225.042	-5.38
225.277	10.62
225.511	-1.38
225.746	6.62
225.98	12.62
226.215	11.62
226.449	19.62
226.683	13.62
226.918	17.62
227.152	23.62
227.387	32.62
227.621	23.62
227.856	38.62
228.09	39.62
228.324	53.62
228.559	55.62
228.793	62.62
229.027	148.62
229.262	138.62
229.496	144.62
229.73	153.62
229.964	158.62
230.199	179.62
230.433	153.62
230.667	180.62
230.901	180.62
231.136	176.62
231.37	177.62
231.604	173.62
231.838	177.62
232.072	185.62
232.306	185.62
232.541	195.62
232.775	203.62
233.009	187.62
233.243	202.62
233.477	194.62
233.711	209.62
233.945	197.62
234.179	200.62
234.413	191.62
234.647	210.62
234.881	216.62
235.115	205.62
235.349	193.62
235.583	209.62
235.817	199.62
236.051	213.62
236.285	207.62
236.519	213.62
236.753	212.62
236.987	214.62
237.221	237.62
237.455	237.62
237.689	230.62
237.922	228.62
238.156	236.62
238.39	232.62
238.624	239.62
238.858	221.62
239.091	232.62
239.325	243.62
239.559	247.62
239.793	241.62
240.027	256.62
240.26	252.62
240.494	246.62
240.728	243.62
240.961	266.62
241.195	282.62
241.429	279.62
241.662	274.62
241.896	280.62
242.13	277.62
242.363	278.62
242.597	279.62
242.83	299.62
243.064	278.62
243.298	283.62
243.531	294.62
243.765	303.62
243.998	319.62
244.232	308.62
244.465	313.62
244.699	312.62
244.932	324.62
245.166	319.62
245.399	308.62
245.633	327.62
245.866	340.62
246.099	322.62
246.333	315.62
246.566	300.62
246.8	319.62
247.033	311.62
247.266	342.62
247.5	340.62
247.733	355.62
247.966	348.62
248.2	335.62
248.433	354.62
248.666	342.62
248.899	342.62
249.133	355.62
249.366	364.62
249.599	381.62
249.832	363.62
250.066	377.62
250.299	397.62
250.532	364.62
250.765	387.62
250.998	373.62
251.231	399.62
251.465	381.62
251.698	391.62
251.931	396.62
252.164	418.62
252.397	395.62
252.63	406.62
252.863	411.62
253.096	419.62
253.329	412.62
253.562	406.62
253.795	435.62
254.028	439.62
254.261	431.62
254.494	437.62
254.727	411.62
254.96	409.62
255.193	426.62
255.426	431.62
255.659	438.62
255.892	435.62
256.124	445.62
256.357	433.62
256.59	454.62
256.823	439.62
257.056	443.62
257.289	460.62
257.521	484.62
257.754	462.62
257.987	470.62
258.22	464.62
258.452	451.62
258.685	479.62
258.918	474.62
259.151	469.62
259.383	488.62
259.616	477.62
259.849	476.62
260.081	475.62
260.314	487.62
260.547	493.62
260.779	513.62
261.012	486.62
261.244	523.62
261.477	520.62
261.71	504.62
261.942	518.62
262.175	513.62
262.407	509.62
262.64	495.62
262.872	529.62
263.105	522.62
263.337	535.62
263.57	529.62
263.802	544.62
264.035	548.62
264.267	545.62
264.499	534.62
264.732	546.62
264.964	533.62
265.197	524.62
265.429	532.62
265.661	561.62
265.894	561.62
266.126	564.62
266.358	567.62
266.591	577.62
266.823	560.62
267.055	548.62
267.287	569.62
267.52	581.62
267.752	577.62
267.984	591.62
268.216	599.62
268.448	591.62
268.681	563.62
268.913	578.62
269.145	590.62
269.377	582.62
269.609	626.62
269.841	593.62
270.073	600.62
270.306	585.62
270.538	593.62
270.77	617.62
271.002	605.62
271.234	593.62
271.466	636.62
271.698	611.62
271.93	595.62
272.162	608.62
272.394	620.62
272.626	634.62
272.858	610.62
273.09	629.62
273.322	648.62
273.553	633.62
273.785	664.62
274.017	623.62
274.249	659.62
274.481	656.62
274.713	629.62
274.945	653.62
275.176	658.62
275.408	677.62
275.64	672.62
275.872	672.62
276.104	653.62
276.335	668.62
276.567	683.62
276.799	683.62
277.031	696.62
277.262	674.62
277.494	677.62
277.726	669.62
277.957	699.62
278.189	669.62
278.421	685.62
278.652	695.62
278.884	697.62
279.115	704.62
279.347	710.62
279.579	753.62
279.81	740.62
280.042	711.62
280.273	721.62
280.505	705.62
280.736	719.62
280.968	717.62
281.199	723.62
281.431	732.62
281.662	732.62
281.894	740.62
282.125	744.62
282.356	753.62
282.588	746.62
282.819	719.62
283.051	741.62
283.282	743.62
283.513	765.62
283.745	775.62
283.976	775.62
284.207	765.62
284.439	769.62
284.67	782.62
284.901	820.62
285.132	809.62
285.364	783.62
285.595	787.62
285.826	799.62
286.057	806.62
286.288	794.62
286.52	808.62
286.751	811.62
286.982	823.62
287.213	827.62
287.444	806.62
287.675	779.62
287.906	815.62
288.138	851.62
288.369	809.62
288.6	806.62
288.831	827.62
289.062	837.62
289.293	855.62
289.524	823.62
289.755	844.62
289.986	851.62
290.217	825.62
290.448	826.62
290.679	868.62
290.91	841.62
291.141	845.62
291.371	858.62
291.602	845.62
291.833	800.62
292.064	853.62
292.295	819.62
292.526	855.62
292.757	846.62
292.987	856.62
293.218	863.62
293.449	852.62
293.68	863.62
293.91	852.62
294.141	844.62
294.372	844.62
294.603	846.62
294.833	855.62
295.064	880.62
295.295	863.62
295.525	871.62
295.756	884.62
295.987	877.62
296.217	893.62
296.448	864.62
296.679	881.62
296.909	868.62
297.14	895.62
297.37	900.62
297.601	921.62
297.831	902.62
298.062	921.62
298.292	924.62
298.523	920.62
298.753	931.62
298.984	916.62
299.214	899.62
299.445	888.62
299.675	911.62
299.905	935.62
300.136	915.62
300.366	921.62
300.597	933.62
300.827	985.62
301.057	953.62
301.288	958.62
301.518	983.62
301.748	972.62
301.979	985.62
302.209	972.62
302.439	971.62
302.669	979.62
302.9	966.62
303.13	963.62
303.36	957.62
303.59	954.62
303.82	948.62
304.051	1003.62
304.281	969.62
304.511	927.62
304.741	980.62
304.971	967.62
305.201	977.62
305.431	966.62
305.661	990.62
305.891	943.62
306.121	972.62
306.352	999.62
306.582	959.62
306.812	963.62
307.042	952.62
307.272	931.62
307.502	937.62
307.731	955.62
307.961	927.62
308.191	951.62
308.421	945.62
308.651	976.62
308.881	944.62
309.111	961.62
309.341	961.62
309.571	948.62
309.8	951.62
310.03	947.62
310.26	968.62
310.49	963.62
310.72	965.62
310.949	955.62
311.179	983.62
311.409	973.62
311.639	953.62
311.868	974.62
312.098	1003.62
312.328	998.62
312.557	1021.62
312.787	1015.62
313.017	988.62
313.246	1028.62
313.476	1009.62
313.706	1031.62
313.935	1050.62
314.165	1035.62
314.394	1011.62
314.624	1034.62
314.853	1030.62
315.083	1037.62
315.312	1014.62
315.542	1034.62
315.771	1030.62
316.001	1019.62
316.23	1025.62
316.46	1034.62
316.689	1047.62
316.919	1046.62
317.148	1021.62
317.377	1016.62
317.607	1028.62
317.836	1028.62
318.065	1011.62
318.295	1040.62
318.524	1029.62
318.753	1014.62
318.983	1009.62
319.212	1003.62
319.441	1021.62
319.67	986.62
319.9	993.62
320.129	1027.62
320.358	1021.62
320.587	1005.62
320.816	1029.62
321.046	1049.62
321.275	1015.62
321.504	1023.62
321.733	1050.62
321.962	1040.62
322.191	1029.62
322.42	1027.62
322.649	1036.62
322.878	1059.62
323.108	1045.62
323.337	1051.62
323.566	1032.62
323.795	1061.62
324.024	1050.62
324.253	1060.62
324.482	1067.62
324.71	1058.62
324.939	1068.62
325.168	1080.62
325.397	1095.62
325.626	1058.62
325.855	1085.62
326.084	1110.62
326.313	1081.62
326.542	1099.62
326.77	1152.62
326.999	1115.62
327.228	1098.62
327.457	1097.62
327.686	1089.62
327.914	1110.62
328.143	1099.62
328.372	1118.62
328.6	1118.62
328.829	1101.62
329.058	1099.62
329.287	1113.62
329.515	1151.62
329.744	1151.62
329.972	1114.62
330.201	1135.62
330.43	1143.62
330.658	1143.62
330.887	1150.62
331.115	1188.62
331.344	1165.62
331.572	1169.62
331.801	1191.62
332.03	1232.62
332.258	1234.62
332.486	1269.62
332.715	1280.62
332.943	1298.62
333.172	1341.62
333.4	1381.62
333.629	1408.62
333.857	1422.62
334.085	1438.62
334.314	1452.62
334.542	1403.62
334.771	1375.62
334.999	1411.62
335.227	1398.62
335.455	1391.62
335.684	1383.62
335.912	1363.62
336.14	1376.62
336.369	1321.62
336.597	1355.62
336.825	1330.62
337.053	1351.62
337.281	1329.62
337.51	1293.62
337.738	1255.62
337.966	1248.62
338.194	1247.62
338.422	1236.62
338.65	1257.62
338.878	1215.62
339.106	1218.62
339.334	1206.62
339.562	1188.62
339.79	1192.62
340.018	1179.62
340.246	1174.62
340.474	1183.62
340.702	1184.62
340.93	1200.62
341.158	1219.62
341.386	1217.62
341.614	1176.62
341.842	1163.62
342.07	1151.62
342.298	1191.62
342.526	1175.62
342.754	1152.62
342.981	1181.62
343.209	1207.62
343.437	1215.62
343.665	1267.62
343.893	1361.62
344.12	1409.62
344.348	1359.62
344.576	1331.62
344.804	1284.62
345.031	1215.62
345.259	1197.62
345.487	1179.62
345.714	1215.62
345.942	1143.62
346.17	1179.62
346.397	1130.62
346.625	1159.62
346.853	1140.62
347.08	1127.62
347.308	1145.62
347.535	1129.62
347.763	1137.62
347.99	1115.62
348.218	1099.62
348.445	1132.62
348.673	1119.62
348.9	1091.62
349.128	1126.62
349.355	1110.62
349.583	1124.62
349.81	1090.62
350.037	1099.62
350.265	1094.62
350.492	1119.62
350.72	1097.62
350.947	1087.62
351.174	1069.62
351.402	1112.62
351.629	1096.62
351.856	1068.62
352.083	1075.62
352.311	1085.62
352.538	1105.62
352.765	1087.62
352.992	1079.62
353.22	1072.62
353.447	1063.62
353.674	1068.62
353.901	1074.62
354.128	1069.62
354.355	1068.62
354.583	1055.62
354.81	1062.62
355.037	1074.62
355.264	1071.62
355.491	1082.62
355.718	1064.62
355.945	1061.62
356.172	1078.62
356.399	1088.62
356.626	1102.62
356.853	1127.62
357.08	1113.62
357.307	1097.62
357.534	1096.62
357.761	1081.62
357.988	1094.62
358.215	1061.62
358.441	1046.62
358.668	1092.62
358.895	1088.62
359.122	1092.62
359.349	1059.62
359.576	1104.62
359.802	1087.62
360.029	1075.62
360.256	1069.62
360.483	1105.62
360.709	1080.62
360.936	1094.62
361.163	1092.62
361.39	1081.62
361.616	1077.62
361.843	1077.62
362.07	1101.62
362.296	1101.62
362.523	1091.62
362.749	1097.62
362.976	1087.62
363.203	1119.62
363.429	1071.62
363.656	1080.62
363.882	1075.62
364.109	1098.62
364.335	1066.62
364.562	1074.62
364.788	1090.62
365.015	1114.62
365.241	1095.62
365.468	1088.62
365.694	1064.62
365.92	1077.62
366.147	1071.62
366.373	1076.62
366.599	1112.62
366.826	1109.62
367.052	1093.62
367.278	1086.62
367.505	1102.62
367.731	1096.62
367.957	1084.62
368.184	1084.62
368.41	1115.62
368.636	1106.62
368.862	1117.62
369.089	1122.62
369.315	1106.62
369.541	1121.62
369.767	1135.62
369.993	1108.62
370.219	1148.62
370.445	1171.62
370.672	1164.62
370.898	1180.62
371.124	1195.62
371.35	1200.62
371.576	1194.62
371.802	1165.62
372.028	1169.62
372.254	1190.62
372.48	1193.62
372.706	1210.62
372.932	1215.62
373.158	1206.62
373.384	1221.62
373.61	1197.62
373.835	1212.62
374.061	1190.62
374.287	1224.62
374.513	1205.62
374.739	1248.62
374.965	1255.62
375.191	1292.62
375.416	1299.62
375.642	1222.62
375.868	1261.62
376.094	1215.62
376.319	1213.62
376.545	1171.62
376.771	1191.62
376.997	1155.62
377.222	1194.62
377.448	1176.62
377.674	1167.62
377.899	1183.62
378.125	1167.62
378.35	1154.62
378.576	1181.62
378.802	1146.62
379.027	1168.62
379.253	1179.62
379.478	1157.62
379.704	1180.62
379.929	1178.62
380.155	1148.62
380.38	1141.62
380.606	1192.62
380.831	1166.62
381.057	1182.62
381.282	1145.62
381.507	1111.62
381.733	1159.62
381.958	1160.62
382.184	1216.62
382.409	1202.62
382.634	1203.62
382.86	1214.62
383.085	1241.62
383.31	1214.62
383.535	1266.62
383.761	1252.62
383.986	1307.62
384.211	1337.62
384.436	1333.62
384.662	1349.62
384.887	1365.62
385.112	1364.62
385.337	1351.62
385.562	1385.62
385.787	1414.62
386.013	1389.62
386.238	1387.62
386.463	1396.62
386.688	1409.62
386.913	1360.62
387.138	1365.62
387.363	1399.62
387.588	1399.62
387.813	1393.62
388.038	1376.62
388.263	1391.62
388.488	1433.62
388.713	1388.62
388.938	1391.62
389.163	1401.62
389.387	1391.62
389.612	1370.62
389.837	1410.62
390.062	1377.62
390.287	1405.62
390.512	1388.62
390.736	1388.62
390.961	1421.62
391.186	1435.62
391.411	1457.62
391.636	1514.62
391.86	1557.62
392.085	1575.62
392.31	1527.62
392.534	1556.62
392.759	1499.62
392.984	1497.62
393.208	1435.62
393.433	1495.62
393.658	1489.62
393.882	1448.62
394.107	1438.62
394.331	1463.62
394.556	1456.62
394.78	1499.62
395.005	1493.62
395.229	1511.62
395.454	1535.62
395.678	1565.62
395.903	1538.62
396.127	1573.62
396.352	1519.62
396.576	1461.62
396.801	1498.62
397.025	1508.62
397.249	1540.62
397.474	1583.62
397.698	1565.62
397.922	1596.62
398.147	1589.62
398.371	1634.62
398.595	1683.62
398.82	1715.62
399.044	1835.62
399.268	2002.62
399.492	2182.62
399.717	2393.62
399.941	2426.62
400.165	2228.62
400.389	2101.62
400.613	1935.62
400.837	1861.62
401.062	1808.62
401.286	1764.62
401.51	1783.62
401.734	1759.62
401.958	1794.62
402.182	1744.62
402.406	1800.62
402.63	1776.62
402.854	1819.62
403.078	1795.62
403.302	1813.62
403.526	1874.62
403.75	1883.62
403.974	1916.62
404.198	1893.62
404.422	1895.62
404.645	1916.62
404.869	1906.62
405.093	1890.62
405.317	1888.62
405.541	1920.62
405.765	1923.62
405.988	1875.62
406.212	1911.62
406.436	1943.62
406.66	1933.62
406.883	1923.62
407.107	2022.62
407.331	2105.62
407.555	2179.62
407.778	2177.62
408.002	2142.62
408.226	2135.62
408.449	2056.62
408.673	2007.62
408.896	1978.62
409.12	1921.62
409.344	1980.62
409.567	1962.62
409.791	1969.62
410.014	1907.62
410.238	1908.62
410.461	1893.62
410.685	1909.62
410.908	1857.62
411.132	1857.62
411.355	1801.62
411.578	1817.62
411.802	1816.62
412.025	1803.62
412.249	1807.62
412.472	1840.62
412.695	1804.62
412.919	1769.62
413.142	1775.62
413.365	1744.62
413.589	1777.62
413.812	1769.62
414.035	1697.62
414.258	1739.62
414.482	1750.62
414.705	1701.62
414.928	1766.62
415.151	1749.62
415.374	1739.62
415.597	1719.62
415.821	1702.62
416.044	1681.62
416.267	1677.62
416.49	1673.62
416.713	1673.62
416.936	1721.62
417.159	1694.62
417.382	1659.62
417.605	1661.62
417.828	1656.62
418.051	1696.62
418.274	1667.62
418.497	1665.62
418.72	1695.62
418.943	1703.62
419.166	1827.62
419.389	1959.62
419.611	1895.62
419.834	1804.62
420.057	1762.62
420.28	1695.62
420.503	1685.62
420.726	1669.62
420.948	1684.62
421.171	1651.62
421.394	1687.62
421.617	1663.62
421.839	1681.62
422.062	1667.62
422.285	1668.62
422.507	1686.62
422.73	1711.62
422.953	1696.62
423.175	1729.62
423.398	1744.62
423.621	1682.62
423.843	1733.62
424.066	1740.62
424.288	1713.62
424.511	1729.62
424.733	1708.62
424.956	1701.62
425.178	1709.62
425.401	1712.62
425.623	1672.62
425.846	1640.62
426.068	1693.62
426.291	1603.62
426.513	1580.62
426.735	1622.62
426.958	1598.62
427.18	1571.62
427.402	1583.62
427.625	1579.62
427.847	1519.62
428.069	1529.62
428.292	1529.62
428.514	1526.62
428.736	1539.62
428.958	1539.62
429.181	1505.62
429.403	1481.62
429.625	1485.62
429.847	1450.62
430.069	1444.62
430.292	1527.62
430.514	1460.62
430.736	1535.62
430.958	1508.62
431.18	1476.62
431.402	1474.62
431.624	1500.62
431.846	1546.62
432.068	1560.62
432.29	1587.62
432.512	1521.62
432.734	1549.62
432.956	1545.62
433.178	1512.62
433.4	1565.62
433.622	1557.62
433.844	1572.62
434.066	1583.62
434.287	1600.62
434.509	1616.62
434.731	1678.62
434.953	1676.62
435.175	1734.62
435.397	1691.62
435.618	1619.62
435.84	1625.62
436.062	1515.62
436.284	1518.62
436.505	1523.62
436.727	1548.62
436.949	1577.62
437.17	1519.62
437.392	1510.62
437.614	1476.62
437.835	1451.62
438.057	1443.62
438.278	1440.62
438.5	1468.62
438.721	1476.62
438.943	1472.62
439.165	1451.62
439.386	1468.62
439.608	1523.62
439.829	1480.62
440.05	1515.62
440.272	1493.62
440.493	1489.62
440.715	1521.62
440.936	1575.62
441.158	1580.62
441.379	1615.62
441.6	1661.62
441.822	1671.62
442.043	1613.62
442.264	1627.62
442.486	1603.62
442.707	1642.62
442.928	1598.62
443.149	1654.62
443.371	1618.62
443.592	1645.62
443.813	1654.62
444.034	1645.62
444.255	1691.62
444.476	1801.62
444.698	1860.62
444.919	1855.62
445.14	1942.62
445.361	1816.62
445.582	1724.62
445.803	1648.62
446.024	1618.62
446.245	1572.62
446.466	1563.62
446.687	1507.62
446.908	1575.62
447.129	1473.62
447.35	1427.62
447.571	1471.62
447.792	1407.62
448.013	1416.62
448.234	1427.62
448.455	1401.62
448.675	1413.62
448.896	1375.62
449.117	1352.62
449.338	1371.62
449.559	1369.62
449.779	1331.62
450	1347.62
450.221	1363.62
450.442	1365.62
450.662	1347.62
450.883	1380.62
451.104	1382.62
451.324	1362.62
451.545	1384.62
451.766	1375.62
451.986	1348.62
452.207	1376.62
452.428	1372.62
452.648	1326.62
452.869	1300.62
453.089	1295.62
453.31	1304.62
453.53	1324.62
453.751	1299.62
453.971	1293.62
454.192	1329.62
454.412	1290.62
454.633	1297.62
454.853	1290.62
455.073	1271.62
455.294	1287.62
455.514	1289.62
455.734	1288.62
455.955	1261.62
456.175	1291.62
456.395	1276.62
456.616	1291.62
456.836	1293.62
457.056	1298.62
457.276	1244.62
457.497	1303.62
457.717	1283.62
457.937	1294.62
458.157	1315.62
458.377	1294.62
458.598	1340.62
458.818	1393.62
459.038	1422.62
459.258	1465.62
459.478	1491.62
459.698	1543.62
459.918	1578.62
460.138	1625.62
460.358	1691.62
460.578	1719.62
460.798	1746.62
461.018	1718.62
461.238	1699.62
461.458	1691.62
461.678	1725.62
461.898	1760.62
462.118	1772.62
462.338	1851.62
462.558	1867.62
462.777	1912.62
462.997	2047.62
463.217	2215.62
463.437	2184.62
463.657	2083.62
463.876	2015.62
464.096	1979.62
464.316	1977.62
464.536	1935.62
464.755	1884.62
464.975	1856.62
465.195	1793.62
465.414	1720.62
465.634	1577.62
465.854	1585.62
466.073	1542.62
466.293	1493.62
466.512	1463.62
466.732	1402.62
466.951	1442.62
467.171	1439.62
467.391	1425.62
467.61	1411.62
467.829	1401.62
468.049	1420.62
468.268	1359.62
468.488	1363.62
468.707	1351.62
468.927	1373.62
469.146	1365.62
469.365	1396.62
469.585	1409.62
469.804	1408.62
470.023	1435.62
470.243	1466.62
470.462	1436.62
470.681	1511.62
470.901	1461.62
471.12	1430.62
471.339	1439.62
471.558	1410.62
471.777	1406.62
471.997	1380.62
472.216	1373.62
472.435	1398.62
472.654	1400.62
472.873	1368.62
473.092	1372.62
473.311	1363.62
473.53	1374.62
473.749	1366.62
473.968	1361.62
474.187	1338.62
474.406	1354.62
474.625	1361.62
474.844	1338.62
475.063	1366.62
475.282	1392.62
475.501	1403.62
475.72	1397.62
475.939	1425.62
476.158	1388.62
476.377	1439.62
476.596	1415.62
476.814	1446.62
477.033	1479.62
477.252	1480.62
477.471	1504.62
477.69	1532.62
477.908	1592.62
478.127	1573.62
478.346	1625.62
478.564	1692.62
478.783	1683.62
479.002	1716.62
479.22	1695.62
479.439	1697.62
479.658	1692.62
479.876	1697.62
480.095	1742.62
480.313	1796.62
480.532	1776.62
480.751	1790.62
480.969	1795.62
481.188	1719.62
481.406	1711.62
481.624	1681.62
481.843	1671.62
482.061	1661.62
482.28	1669.62
482.498	1618.62
482.717	1659.62
482.935	1699.62
483.153	1667.62
483.372	1675.62
483.59	1706.62
483.808	1692.62
484.027	1689.62
484.245	1733.62
484.463	1711.62
484.681	1745.62
484.9	1785.62
485.118	1808.62
485.336	1793.62
485.554	1805.62
485.772	1855.62
485.99	1786.62
486.209	1808.62
486.427	1833.62
486.645	1799.62
486.863	1801.62
487.081	1778.62
487.299	1787.62
487.517	1789.62
487.735	1754.62
487.953	1736.62
488.171	1756.62
488.389	1744.62
488.607	1726.62
488.825	1737.62
489.043	1713.62
489.261	1720.62
489.479	1724.62
489.696	1703.62
489.914	1755.62
490.132	1718.62
490.35	1705.62
490.568	1693.62
490.786	1664.62
491.003	1695.62
491.221	1704.62
491.439	1715.62
491.657	1689.62
491.874	1703.62
492.092	1681.62
492.31	1709.62
492.527	1712.62
492.745	1732.62
492.963	1696.62
493.18	1747.62
493.398	1724.62
493.615	1722.62
493.833	1739.62
494.05	1755.62
494.268	1779.62
494.485	1736.62
494.703	1777.62
494.92	1781.62
495.138	1762.62
495.355	1763.62
495.573	1752.62
495.79	1764.62
496.008	1767.62
496.225	1772.62
496.442	1807.62
496.66	1804.62
496.877	1870.62
497.094	1856.62
497.312	1891.62
497.529	1921.62
497.746	2021.62
497.963	2064.62
498.181	2144.62
498.398	2213.62
498.615	2335.62
498.832	2404.62
499.049	2579.62
499.267	2796.62
499.484	3027.62
499.701	3252.62
499.918	3489.62
500.135	3925.62
500.352	4320.62
500.569	4429.62
500.786	4375.62
501.003	4194.62
501.22	3883.62
501.437	3443.62
501.654	3163.62
501.871	2957.62
502.088	2733.62
502.305	2547.62
502.522	2415.62
502.739	2386.62
502.956	2284.62
503.172	2171.62
503.389	2081.62
503.606	2047.62
503.823	1980.62
504.04	1985.62
504.256	1955.62
504.473	1971.62
504.69	1992.62
504.907	1951.62
505.123	1817.62
505.34	1778.62
505.557	1694.62
505.773	1694.62
505.99	1642.62
506.207	1586.62
506.423	1593.62
506.64	1561.62
506.856	1538.62
507.073	1547.62
507.289	1499.62
507.506	1485.62
507.722	1559.62
507.939	1501.62
508.155	1473.62
508.372	1467.62
508.588	1458.62
508.805	1459.62
509.021	1434.62
509.238	1455.62
509.454	1405.62
509.67	1399.62
509.887	1397.62
510.103	1382.62
510.319	1394.62
510.536	1383.62
510.752	1361.62
510.968	1394.62
511.184	1373.62
511.401	1391.62
511.617	1338.62
511.833	1381.62
512.049	1368.62
512.265	1368.62
512.481	1382.62
512.698	1348.62
512.914	1356.62
513.13	1377.62
513.346	1371.62
513.562	1356.62
513.778	1357.62
513.994	1381.62
514.21	1416.62
514.426	1371.62
514.642	1375.62
514.858	1386.62
515.074	1381.62
515.29	1423.62
515.506	1421.62
515.721	1422.62
515.937	1432.62
516.153	1467.62
516.369	1509.62
516.585	1581.62
516.801	1560.62
517.016	1628.62
517.232	1683.62
517.448	1727.62
517.664	1787.62
517.879	1801.62
518.095	1785.62
518.311	1756.62
518.527	1665.62
518.742	1702.62
518.958	1607.62
519.173	1519.62
519.389	1499.62
519.605	1532.62
519.82	1435.62
520.036	1457.62
520.251	1382.62
520.467	1369.62
520.682	1366.62
520.898	1354.62
521.113	1364.62
521.329	1368.62
521.544	1324.62
521.76	1299.62
521.975	1315.62
522.19	1319.62
522.406	1304.62
522.621	1273.62
522.836	1281.62
523.052	1312.62
523.267	1235.62
523.482	1244.62
523.698	1247.62
523.913	1261.62
524.128	1250.62
524.343	1215.62
524.559	1251.62
524.774	1228.62
524.989	1242.62
525.204	1261.62
525.419	1201.62
525.634	1227.62
525.849	1224.62
526.064	1236.62
526.28	1202.62
526.495	1164.62
526.71	1200.62
526.925	1206.62
527.14	1215.62
527.355	1196.62
527.57	1164.62
527.785	1213.62
527.999	1195.62
528.214	1213.62
528.429	1214.62
528.644	1209.62
528.859	1204.62
529.074	1202.62
529.289	1190.62
529.503	1210.62
529.718	1191.62
529.933	1186.62
530.148	1196.62
530.363	1216.62
530.577	1194.62
530.792	1191.62
531.007	1181.62
531.221	1195.62
531.436	1194.62
531.651	1201.62
531.865	1211.62
532.08	1196.62
532.295	1184.62
532.509	1176.62
532.724	1165.62
532.938	1195.62
533.153	1220.62
533.367	1209.62
533.582	1171.62
533.796	1179.62
534.011	1155.62
534.225	1186.62
534.44	1180.62
534.654	1161.62
534.868	1146.62
535.083	1151.62
535.297	1157.62
535.511	1141.62
535.726	1119.62
535.94	1151.62
536.154	1144.62
536.369	1125.62
536.583	1111.62
536.797	1096.62
537.011	1129.62
537.225	1114.62
537.44	1132.62
537.654	1144.62
537.868	1089.62
538.082	1084.62
538.296	1098.62
538.51	1086.62
538.724	1076.62
538.938	1062.62
539.153	1087.62
539.367	1080.62
539.581	1099.62
539.795	1094.62
540.009	1069.62
540.222	1060.62
540.436	1045.62
540.65	1057.62
540.864	1059.62
541.078	1036.62
541.292	1081.62
541.506	1069.62
541.72	1067.62
541.934	1050.62
542.147	1081.62
542.361	1057.62
542.575	1055.62
542.789	1004.62
543.002	1052.62
543.216	1048.62
543.43	1067.62
543.644	1046.62
543.857	1043.62
544.071	1041.62
544.285	1035.62
544.498	1044.62
544.712	1026.62
544.925	1052.62
545.139	1038.62
545.352	1058.62
545.566	1043.62
545.779	1047.62
545.993	1078.62
546.206	1057.62
546.42	1087.62
546.633	1063.62
546.847	1073.62
547.06	1050.62
547.274	1037.62
547.487	1042.62
547.7	1083.62
547.914	1110.62
548.127	1071.62
548.34	1058.62
548.554	1100.62
548.767	1090.62
548.98	1064.62
549.193	1108.62
549.407	1083.62
549.62	1081.62
549.833	1086.62
550.046	1088.62
550.259	1098.62
550.473	1066.62
550.686	1057.62
550.899	1085.62
551.112	1025.62
551.325	1075.62
551.538	1069.62
551.751	1048.62
551.964	1053.62
552.177	1072.62
552.39	1085.62
552.603	1108.62
552.816	1106.62
553.029	1156.62
553.242	1129.62
553.455	1141.62
553.667	1148.62
553.88	1113.62
554.093	1127.62
554.306	1086.62
554.519	1053.62
554.732	1044.62
554.944	1056.62
555.157	1018.62
555.37	991.62
555.583	989.62
555.795	988.62
556.008	944.62
556.221	937.62
556.433	957.62
556.646	933.62
556.859	967.62
557.071	949.62
557.284	927.62
557.496	925.62
557.709	917.62
557.921	926.62
558.134	896.62
558.346	938.62
558.559	941.62
558.771	913.62
558.984	896.62
559.196	906.62
559.409	905.62
559.621	899.62
559.833	898.62
560.046	843.62
560.258	910.62
560.47	889.62
560.683	884.62
560.895	884.62
561.107	881.62
561.32	897.62
561.532	862.62
561.744	867.62
561.956	874.62
562.168	861.62
562.381	855.62
562.593	876.62
562.805	890.62
563.017	893.62
563.229	880.62
563.441	885.62
563.653	889.62
563.865	923.62
564.077	912.62
564.289	945.62
564.501	936.62
564.713	964.62
564.925	963.62
565.137	1003.62
565.349	1012.62
565.561	1021.62
565.773	1104.62
565.985	1130.62
566.197	1154.62
566.408	1191.62
566.62	1265.62
566.832	1359.62
567.044	1347.62
567.255	1393.62
567.467	1420.62
567.679	1446.62
567.891	1506.62
568.102	1524.62
568.314	1463.62
568.526	1363.62
568.737	1269.62
568.949	1157.62
569.161	1121.62
569.372	1020.62
569.584	1004.62
569.795	969.62
570.007	928.62
570.218	914.62
570.43	909.62
570.641	891.62
570.853	887.62
571.064	903.62
571.276	898.62
571.487	892.62
571.698	842.62
571.91	835.62
572.121	836.62
572.333	805.62
572.544	784.62
572.755	781.62
572.966	771.62
573.178	729.62
573.389	764.62
573.6	744.62
573.811	742.62
574.023	714.62
574.234	730.62
574.445	716.62
574.656	725.62
574.867	716.62
575.078	713.62
575.289	715.62
575.501	732.62
575.712	678.62
575.923	697.62
576.134	711.62
576.345	691.62
576.556	674.62
576.767	683.62
576.978	700.62
577.188	666.62
577.399	678.62
577.61	638.62
577.821	662.62
578.032	636.62
578.243	647.62
578.454	665.62
578.665	650.62
578.875	647.62
579.086	633.62
579.297	627.62
579.508	633.62
579.718	641.62
579.929	635.62
580.14	641.62
580.35	632.62
580.561	632.62
580.772	615.62
580.982	619.62
581.193	627.62
581.403	633.62
581.614	615.62
581.825	609.62
582.035	643.62
582.246	596.62
582.456	593.62
582.667	610.62
582.877	596.62
583.087	594.62
583.298	593.62
583.508	596.62
583.719	589.62
583.929	604.62
584.139	597.62
584.35	591.62
584.56	590.62
584.77	586.62
584.981	583.62
585.191	573.62
585.401	582.62
585.611	579.62
585.821	564.62
586.032	579.62
586.242	577.62
586.452	588.62
586.662	591.62
586.872	559.62
587.082	573.62
587.292	569.62
587.502	601.62
587.713	581.62
587.923	569.62
588.133	553.62
588.343	563.62
588.553	563.62
588.762	587.62
588.972	588.62
589.182	573.62
589.392	576.62
589.602	585.62
589.812	572.62
590.022	600.62
590.232	576.62
590.441	571.62
590.651	591.62
590.861	597.62
591.071	591.62
591.281	604.62
591.49	614.62
591.7	607.62
591.91	620.62
592.119	616.62
592.329	617.62
592.539	644.62
592.748	671.62
592.958	663.62
593.167	675.62
593.377	691.62
593.587	676.62
593.796	709.62
594.006	705.62
594.215	705.62
594.424	688.62
594.634	679.62
594.843	651.62
595.053	645.62
595.262	643.62
595.472	618.62
595.681	576.62
595.89	584.62
596.1	535.62
596.309	588.62
596.518	544.62
596.727	541.62
596.937	518.62
597.146	524.62
597.355	532.62
597.564	520.62
597.774	509.62
597.983	517.62
598.192	491.62
598.401	486.62
598.61	482.62
598.819	508.62
599.028	493.62
599.237	492.62
599.446	492.62
599.655	495.62
599.864	484.62
600.073	493.62
600.282	481.62
600.491	461.62
600.7	458.62
600.909	480.62
601.118	481.62
601.327	491.62
601.536	480.62
601.745	459.62
601.953	453.62
602.162	466.62
602.371	443.62
602.58	431.62
602.789	453.62
602.997	440.62
603.206	445.62
603.415	446.62
603.623	440.62
603.832	456.62
604.041	437.62
604.249	427.62
604.458	454.62
604.666	444.62
604.875	447.62
605.084	435.62
605.292	428.62
605.501	429.62
605.709	429.62
605.918	439.62
606.126	431.62
606.334	422.62
606.543	431.62
606.751	420.62
606.96	431.62
607.168	429.62
607.376	434.62
607.585	423.62
607.793	436.62
608.001	445.62
608.21	427.62
608.418	413.62
608.626	417.62
608.834	431.62
609.043	423.62
609.251	419.62
609.459	409.62
609.667	406.62
609.875	424.62
610.083	421.62
610.291	410.62
610.499	395.62
610.707	425.62
610.916	409.62
611.124	414.62
611.332	411.62
611.54	415.62
611.748	397.62
611.955	426.62
612.163	389.62
612.371	415.62
612.579	381.62
612.787	393.62
612.995	406.62
613.203	387.62
613.411	400.62
613.618	395.62
613.826	401.62
614.034	391.62
614.242	398.62
614.449	382.62
614.657	398.62
614.865	412.62
615.072	390.62
615.28	411.62
615.488	406.62
615.695	397.62
615.903	399.62
616.111	409.62
616.318	396.62
616.526	406.62
616.733	375.62
616.941	387.62
617.148	405.62
617.356	393.62
617.563	392.62
617.771	386.62
617.978	391.62
618.185	399.62
618.393	381.62
618.6	423.62
618.807	399.62
619.015	395.62
619.222	387.62
619.429	382.62
619.637	402.62
619.844	392.62
620.051	361.62
620.258	364.62
620.466	361.62
620.673	357.62
620.88	350.62
621.087	368.62
621.294	393.62
621.501	354.62
621.708	362.62
621.915	349.62
622.122	378.62
622.329	369.62
622.536	378.62
622.743	352.62
622.95	367.62
623.157	369.62
623.364	352.62
623.571	355.62
623.778	336.62
623.985	347.62
624.192	356.62
624.399	354.62
624.606	343.62
624.812	341.62
625.019	336.62
625.226	347.62
625.433	364.62
625.639	330.62
625.846	332.62
626.053	331.62
626.259	342.62
626.466	343.62
626.673	323.62
626.879	325.62
627.086	345.62
627.293	344.62
627.499	335.62
627.706	332.62
627.912	359.62
628.119	331.62
628.325	330.62
628.532	332.62
628.738	339.62
628.945	311.62
629.151	312.62
629.357	317.62
629.564	315.62
629.77	334.62
629.976	327.62
630.183	320.62
630.389	300.62
630.595	322.62
630.802	295.62
631.008	301.62
631.214	300.62
631.42	308.62
631.627	299.62
631.833	323.62
632.039	305.62
632.245	303.62
632.451	308.62
632.657	296.62
632.863	306.62
633.069	307.62
633.275	306.62
633.481	281.62
633.688	291.62
633.893	313.62
634.099	296.62
634.305	296.62
634.511	301.62
634.717	304.62
634.923	303.62
635.129	291.62
635.335	280.62
635.541	279.62
635.747	295.62
635.952	285.62
636.158	300.62
636.364	309.62
636.57	260.62
636.775	280.62
636.981	272.62
637.187	288.62
637.392	291.62
637.598	276.62
637.804	290.62
638.009	261.62
638.215	287.62
638.421	268.62
638.626	279.62
638.832	279.62
639.037	281.62
639.243	272.62
639.448	293.62
639.654	281.62
639.859	284.62
640.065	260.62
640.27	259.62
640.475	255.62
640.681	274.62
640.886	271.62
641.091	278.62
641.297	273.62
641.502	255.62
641.707	258.62
641.913	271.62
642.118	252.62
642.323	268.62
642.528	268.62
642.733	279.62
642.939	267.62
643.144	261.62
643.349	276.62
643.554	261.62
643.759	254.62
643.964	268.62
644.169	263.62
644.374	285.62
644.579	252.62
644.784	254.62
644.989	262.62
645.194	260.62
645.399	257.62
645.604	275.62
645.809	255.62
646.014	261.62
646.219	271.62
646.423	272.62
646.628	247.62
646.833	267.62
647.038	272.62
647.243	276.62
647.447	282.62
647.652	289.62
647.857	279.62
648.062	291.62
648.266	287.62
648.471	277.62
648.676	301.62
648.88	284.62
649.085	264.62
649.289	277.62
649.494	283.62
649.698	266.62
649.903	290.62
650.107	281.62
650.312	261.62
650.516	266.62
650.721	284.62
650.925	263.62
651.13	252.62
651.334	261.62
651.539	275.62
651.743	259.62
651.947	268.62
652.152	262.62
652.356	251.62
652.56	232.62
652.764	231.62
652.969	255.62
653.173	248.62
653.377	239.62
653.581	253.62
653.785	243.62
653.99	258.62
654.194	244.62
654.398	271.62
654.602	241.62
654.806	267.62
655.01	268.62
655.214	269.62
655.418	280.62
655.622	296.62
655.826	317.62
656.03	309.62
656.234	329.62
656.438	351.62
656.642	385.62
656.846	349.62
657.049	309.62
657.253	273.62
657.457	244.62
657.661	233.62
657.865	210.62
658.068	204.62
658.272	187.62
658.476	174.62
658.68	145.62
658.883	153.62
659.087	152.62
659.291	155.62
659.494	142.62
659.698	139.62
659.901	132.62
660.105	125.62
660.309	121.62
660.512	113.62
660.716	112.62
660.919	113.62
661.123	111.62
661.326	94.62
661.53	102.62
661.733	98.62
661.936	101.62
662.14	96.62
662.343	82.62
662.546	99.62
662.75	87.62
662.953	87.62
663.156	93.62
663.36	91.62
663.563	96.62
663.766	75.62
663.969	74.62
664.173	79.62
664.376	88.62
664.579	88.62
664.782	82.62
664.985	88.62
665.188	76.62
665.391	75.62
665.594	78.62
665.797	79.62
666	85.62
666.203	71.62
666.406	77.62
666.609	70.62
666.812	76.62
667.015	76.62
667.218	85.62
667.421	91.62
667.624	81.62
667.827	81.62
668.03	65.62
668.232	71.62
668.435	86.62
668.638	78.62
668.841	78.62
669.043	68.62
669.246	91.62
669.449	77.62
669.651	79.62
669.854	90.62
670.057	99.62
670.259	87.62
670.462	84.62
670.665	85.62
670.867	81.62
671.07	85.62
671.272	82.62
671.475	76.62
671.677	85.62
671.88	75.62
672.082	64.62
672.284	81.62
672.487	89.62
672.689	80.62
672.892	79.62
