Data from NiCl2@0.125M.TitratingCurve.Agarose3%dH2O.NegLispCup.LampEnergy10.LIBS07252019_HRD10591_18-30-01-574.txt Node
Date: Thu Jul 25 18:30:01 EDT 2019
User: cochatt
Spectrometer: HR+D1059
Trigger mode: 1
Integration Time (sec): 1.000000E-1
Scans to average: 1
Electric dark correction enabled: true
Nonlinearity correction enabled: false
Boxcar width: 0
XAxis mode: Wavelengths
Number of Pixels in Spectrum: 2048
>>>>>Begin Spectral Data<<<<<
223.165	-9.88
223.4	-9.88
223.635	-9.88
223.869	-34.88
224.104	-28.88
224.338	-11.88
224.573	-8.88
224.808	-11.88
225.042	-7.88
225.277	2.12
225.511	-0.88
225.746	8.12
225.98	18.12
226.215	9.12
226.449	16.12
226.683	15.12
226.918	21.12
227.152	25.12
227.387	38.12
227.621	22.12
227.856	46.12
228.09	37.12
228.324	42.12
228.559	49.12
228.793	73.12
229.027	105.12
229.262	117.12
229.496	121.12
229.73	124.12
229.964	119.12
230.199	137.12
230.433	127.12
230.667	143.12
230.901	147.12
231.136	126.12
231.37	147.12
231.604	141.12
231.838	147.12
232.072	148.12
232.306	146.12
232.541	142.12
232.775	140.12
233.009	148.12
233.243	157.12
233.477	141.12
233.711	140.12
233.945	156.12
234.179	149.12
234.413	160.12
234.647	157.12
234.881	147.12
235.115	153.12
235.349	146.12
235.583	161.12
235.817	162.12
236.051	161.12
236.285	143.12
236.519	153.12
236.753	173.12
236.987	156.12
237.221	157.12
237.455	168.12
237.689	168.12
237.922	154.12
238.156	163.12
238.39	167.12
238.624	164.12
238.858	192.12
239.091	172.12
239.325	171.12
239.559	161.12
239.793	179.12
240.027	188.12
240.26	185.12
240.494	191.12
240.728	173.12
240.961	177.12
241.195	185.12
241.429	185.12
241.662	188.12
241.896	183.12
242.13	185.12
242.363	197.12
242.597	182.12
242.83	188.12
243.064	193.12
243.298	205.12
243.531	202.12
243.765	212.12
243.998	219.12
244.232	213.12
244.465	209.12
244.699	205.12
244.932	216.12
245.166	206.12
245.399	236.12
245.633	228.12
245.866	228.12
246.099	202.12
246.333	210.12
246.566	227.12
246.8	221.12
247.033	215.12
247.266	216.12
247.5	218.12
247.733	241.12
247.966	238.12
248.2	251.12
248.433	243.12
248.666	242.12
248.899	246.12
249.133	233.12
249.366	248.12
249.599	240.12
249.832	257.12
250.066	277.12
250.299	259.12
250.532	265.12
250.765	267.12
250.998	262.12
251.231	250.12
251.465	258.12
251.698	259.12
251.931	262.12
252.164	271.12
252.397	271.12
252.63	271.12
252.863	272.12
253.096	270.12
253.329	277.12
253.562	277.12
253.795	285.12
254.028	281.12
254.261	283.12
254.494	284.12
254.727	251.12
254.96	289.12
255.193	285.12
255.426	274.12
255.659	281.12
255.892	281.12
256.124	291.12
256.357	291.12
256.59	295.12
256.823	289.12
257.056	290.12
257.289	293.12
257.521	300.12
257.754	300.12
257.987	312.12
258.22	317.12
258.452	317.12
258.685	303.12
258.918	306.12
259.151	286.12
259.383	319.12
259.616	299.12
259.849	307.12
260.081	321.12
260.314	309.12
260.547	298.12
260.779	302.12
261.012	312.12
261.244	327.12
261.477	330.12
261.71	325.12
261.942	317.12
262.175	329.12
262.407	326.12
262.64	324.12
262.872	330.12
263.105	326.12
263.337	346.12
263.57	318.12
263.802	339.12
264.035	330.12
264.267	334.12
264.499	356.12
264.732	342.12
264.964	349.12
265.197	349.12
265.429	360.12
265.661	353.12
265.894	355.12
266.126	349.12
266.358	353.12
266.591	367.12
266.823	353.12
267.055	339.12
267.287	372.12
267.52	348.12
267.752	360.12
267.984	358.12
268.216	360.12
268.448	358.12
268.681	364.12
268.913	378.12
269.145	389.12
269.377	369.12
269.609	382.12
269.841	383.12
270.073	365.12
270.306	381.12
270.538	362.12
270.77	358.12
271.002	375.12
271.234	373.12
271.466	390.12
271.698	392.12
271.93	364.12
272.162	398.12
272.394	381.12
272.626	380.12
272.858	394.12
273.09	397.12
273.322	399.12
273.553	387.12
273.785	400.12
274.017	407.12
274.249	386.12
274.481	403.12
274.713	405.12
274.945	429.12
275.176	423.12
275.408	407.12
275.64	421.12
275.872	432.12
276.104	396.12
276.335	406.12
276.567	409.12
276.799	439.12
277.031	425.12
277.262	421.12
277.494	415.12
277.726	442.12
277.957	421.12
278.189	418.12
278.421	441.12
278.652	442.12
278.884	422.12
279.115	443.12
279.347	445.12
279.579	447.12
279.81	444.12
280.042	442.12
280.273	457.12
280.505	441.12
280.736	461.12
280.968	442.12
281.199	445.12
281.431	466.12
281.662	457.12
281.894	457.12
282.125	442.12
282.356	487.12
282.588	478.12
282.819	456.12
283.051	465.12
283.282	474.12
283.513	476.12
283.745	477.12
283.976	469.12
284.207	482.12
284.439	483.12
284.67	482.12
284.901	504.12
285.132	491.12
285.364	477.12
285.595	468.12
285.826	484.12
286.057	490.12
286.288	488.12
286.52	502.12
286.751	504.12
286.982	509.12
287.213	485.12
287.444	523.12
287.675	499.12
287.906	510.12
288.138	509.12
288.369	497.12
288.6	517.12
288.831	525.12
289.062	542.12
289.293	509.12
289.524	519.12
289.755	502.12
289.986	500.12
290.217	512.12
290.448	525.12
290.679	544.12
290.91	530.12
291.141	514.12
291.371	526.12
291.602	540.12
291.833	502.12
292.064	533.12
292.295	530.12
292.526	534.12
292.757	526.12
292.987	526.12
293.218	522.12
293.449	542.12
293.68	531.12
293.91	541.12
294.141	520.12
294.372	533.12
294.603	541.12
294.833	553.12
295.064	523.12
295.295	572.12
295.525	533.12
295.756	537.12
295.987	525.12
296.217	551.12
296.448	553.12
296.679	579.12
296.909	540.12
297.14	532.12
297.37	569.12
297.601	571.12
297.831	574.12
298.062	567.12
298.292	581.12
298.523	588.12
298.753	594.12
298.984	591.12
299.214	579.12
299.445	589.12
299.675	588.12
299.905	587.12
300.136	562.12
300.366	604.12
300.597	583.12
300.827	602.12
301.057	590.12
301.288	614.12
301.518	618.12
301.748	606.12
301.979	608.12
302.209	606.12
302.439	626.12
302.669	588.12
302.9	577.12
303.13	591.12
303.36	571.12
303.59	585.12
303.82	592.12
304.051	583.12
304.281	586.12
304.511	588.12
304.741	595.12
304.971	577.12
305.201	595.12
305.431	570.12
305.661	590.12
305.891	584.12
306.121	599.12
306.352	589.12
306.582	581.12
306.812	573.12
307.042	581.12
307.272	584.12
307.502	577.12
307.731	601.12
307.961	572.12
308.191	565.12
308.421	562.12
308.651	557.12
308.881	574.12
309.111	592.12
309.341	573.12
309.571	583.12
309.8	579.12
310.03	566.12
310.26	562.12
310.49	597.12
310.72	575.12
310.949	577.12
311.179	603.12
311.409	575.12
311.639	597.12
311.868	602.12
312.098	582.12
312.328	612.12
312.557	585.12
312.787	602.12
313.017	592.12
313.246	588.12
313.476	616.12
313.706	625.12
313.935	621.12
314.165	628.12
314.394	602.12
314.624	643.12
314.853	619.12
315.083	607.12
315.312	607.12
315.542	617.12
315.771	612.12
316.001	606.12
316.23	627.12
316.46	626.12
316.689	611.12
316.919	608.12
317.148	609.12
317.377	627.12
317.607	612.12
317.836	623.12
318.065	591.12
318.295	599.12
318.524	599.12
318.753	614.12
318.983	606.12
319.212	577.12
319.441	579.12
319.67	609.12
319.9	606.12
320.129	583.12
320.358	597.12
320.587	610.12
320.816	618.12
321.046	597.12
321.275	631.12
321.504	597.12
321.733	585.12
321.962	625.12
322.191	583.12
322.42	617.12
322.649	602.12
322.878	594.12
323.108	606.12
323.337	599.12
323.566	622.12
323.795	618.12
324.024	627.12
324.253	633.12
324.482	638.12
324.71	633.12
324.939	617.12
325.168	641.12
325.397	629.12
325.626	628.12
325.855	663.12
326.084	642.12
326.313	670.12
326.542	659.12
326.77	678.12
326.999	668.12
327.228	659.12
327.457	649.12
327.686	637.12
327.914	647.12
328.143	651.12
328.372	640.12
328.6	630.12
328.829	670.12
329.058	665.12
329.287	663.12
329.515	682.12
329.744	655.12
329.972	656.12
330.201	661.12
330.43	674.12
330.658	677.12
330.887	662.12
331.115	671.12
331.344	679.12
331.572	681.12
331.801	699.12
332.03	711.12
332.258	738.12
332.486	762.12
332.715	761.12
332.943	802.12
333.172	876.12
333.4	895.12
333.629	891.12
333.857	927.12
334.085	920.12
334.314	878.12
334.542	875.12
334.771	833.12
334.999	823.12
335.227	821.12
335.455	844.12
335.684	825.12
335.912	805.12
336.14	799.12
336.369	800.12
336.597	817.12
336.825	786.12
337.053	797.12
337.281	802.12
337.51	775.12
337.738	779.12
337.966	755.12
338.194	753.12
338.422	726.12
338.65	704.12
338.878	726.12
339.106	701.12
339.334	702.12
339.562	720.12
339.79	711.12
340.018	693.12
340.246	700.12
340.474	686.12
340.702	692.12
340.93	691.12
341.158	702.12
341.386	713.12
341.614	708.12
341.842	707.12
342.07	682.12
342.298	689.12
342.526	680.12
342.754	655.12
342.981	703.12
343.209	693.12
343.437	755.12
343.665	768.12
343.893	830.12
344.12	870.12
344.348	845.12
344.576	784.12
344.804	747.12
345.031	714.12
345.259	711.12
345.487	687.12
345.714	686.12
345.942	688.12
346.17	697.12
346.397	697.12
346.625	665.12
346.853	675.12
347.08	653.12
347.308	685.12
347.535	698.12
347.763	687.12
347.99	703.12
348.218	719.12
348.445	699.12
348.673	665.12
348.9	674.12
349.128	693.12
349.355	658.12
349.583	679.12
349.81	687.12
350.037	662.12
350.265	664.12
350.492	663.12
350.72	657.12
350.947	627.12
351.174	638.12
351.402	652.12
351.629	656.12
351.856	618.12
352.083	625.12
352.311	651.12
352.538	635.12
352.765	637.12
352.992	623.12
353.22	634.12
353.447	638.12
353.674	650.12
353.901	622.12
354.128	633.12
354.355	643.12
354.583	627.12
354.81	643.12
355.037	632.12
355.264	653.12
355.491	667.12
355.718	654.12
355.945	643.12
356.172	645.12
356.399	652.12
356.626	652.12
356.853	668.12
357.08	653.12
357.307	636.12
357.534	659.12
357.761	649.12
357.988	655.12
358.215	624.12
358.441	629.12
358.668	635.12
358.895	652.12
359.122	641.12
359.349	654.12
359.576	665.12
359.802	649.12
360.029	643.12
360.256	644.12
360.483	658.12
360.709	634.12
360.936	653.12
361.163	613.12
361.39	663.12
361.616	651.12
361.843	647.12
362.07	665.12
362.296	654.12
362.523	621.12
362.749	650.12
362.976	645.12
363.203	639.12
363.429	636.12
363.656	647.12
363.882	639.12
364.109	637.12
364.335	618.12
364.562	657.12
364.788	629.12
365.015	630.12
365.241	652.12
365.468	645.12
365.694	639.12
365.92	642.12
366.147	621.12
366.373	629.12
366.599	637.12
366.826	615.12
367.052	606.12
367.278	636.12
367.505	670.12
367.731	655.12
367.957	655.12
368.184	656.12
368.41	649.12
368.636	674.12
368.862	683.12
369.089	646.12
369.315	666.12
369.541	682.12
369.767	689.12
369.993	679.12
370.219	701.12
370.445	693.12
370.672	695.12
370.898	710.12
371.124	701.12
371.35	707.12
371.576	697.12
371.802	694.12
372.028	702.12
372.254	706.12
372.48	702.12
372.706	712.12
372.932	758.12
373.158	741.12
373.384	706.12
373.61	734.12
373.835	711.12
374.061	694.12
374.287	706.12
374.513	724.12
374.739	742.12
374.965	758.12
375.191	789.12
375.416	786.12
375.642	782.12
375.868	773.12
376.094	742.12
376.319	741.12
376.545	748.12
376.771	732.12
376.997	697.12
377.222	716.12
377.448	694.12
377.674	725.12
377.899	693.12
378.125	690.12
378.35	695.12
378.576	714.12
378.802	715.12
379.027	709.12
379.253	696.12
379.478	694.12
379.704	701.12
379.929	708.12
380.155	703.12
380.38	711.12
380.606	681.12
380.831	711.12
381.057	702.12
381.282	699.12
381.507	718.12
381.733	721.12
381.958	726.12
382.184	718.12
382.409	731.12
382.634	747.12
382.86	719.12
383.085	745.12
383.31	751.12
383.535	778.12
383.761	789.12
383.986	811.12
384.211	816.12
384.436	823.12
384.662	843.12
384.887	852.12
385.112	838.12
385.337	842.12
385.562	866.12
385.787	864.12
386.013	852.12
386.238	859.12
386.463	839.12
386.688	853.12
386.913	829.12
387.138	841.12
387.363	820.12
387.588	841.12
387.813	844.12
388.038	833.12
388.263	829.12
388.488	846.12
388.713	847.12
388.938	815.12
389.163	808.12
389.387	822.12
389.612	808.12
389.837	827.12
390.062	813.12
390.287	841.12
390.512	823.12
390.736	865.12
390.961	839.12
391.186	819.12
391.411	876.12
391.636	906.12
391.86	921.12
392.085	988.12
392.31	949.12
392.534	939.12
392.759	905.12
392.984	891.12
393.208	912.12
393.433	888.12
393.658	873.12
393.882	901.12
394.107	911.12
394.331	898.12
394.556	910.12
394.78	932.12
395.005	921.12
395.229	937.12
395.454	917.12
395.678	977.12
395.903	941.12
396.127	933.12
396.352	917.12
396.576	881.12
396.801	869.12
397.025	885.12
397.249	923.12
397.474	940.12
397.698	924.12
397.922	954.12
398.147	940.12
398.371	967.12
398.595	983.12
398.82	1043.12
399.044	1130.12
399.268	1181.12
399.492	1410.12
399.717	1652.12
399.941	1631.12
400.165	1481.12
400.389	1314.12
400.613	1149.12
400.837	1093.12
401.062	1097.12
401.286	1065.12
401.51	1039.12
401.734	1078.12
401.958	1089.12
402.182	1070.12
402.406	1090.12
402.63	1118.12
402.854	1144.12
403.078	1165.12
403.302	1159.12
403.526	1204.12
403.75	1234.12
403.974	1238.12
404.198	1229.12
404.422	1258.12
404.645	1239.12
404.869	1175.12
405.093	1210.12
405.317	1181.12
405.541	1182.12
405.765	1219.12
405.988	1132.12
406.212	1180.12
406.436	1150.12
406.66	1186.12
406.883	1223.12
407.107	1303.12
407.331	1390.12
407.555	1396.12
407.778	1385.12
408.002	1373.12
408.226	1330.12
408.449	1297.12
408.673	1243.12
408.896	1243.12
409.12	1221.12
409.344	1245.12
409.567	1245.12
409.791	1247.12
410.014	1256.12
410.238	1215.12
410.461	1191.12
410.685	1192.12
410.908	1153.12
411.132	1135.12
411.355	1120.12
411.578	1116.12
411.802	1129.12
412.025	1106.12
412.249	1130.12
412.472	1120.12
412.695	1089.12
412.919	1060.12
413.142	1081.12
413.365	1081.12
413.589	1047.12
413.812	1052.12
414.035	1069.12
414.258	1068.12
414.482	1066.12
414.705	1056.12
414.928	1062.12
415.151	1066.12
415.374	1096.12
415.597	1059.12
415.821	1026.12
416.044	1040.12
416.267	1046.12
416.49	1004.12
416.713	999.12
416.936	1053.12
417.159	1027.12
417.382	1052.12
417.605	1050.12
417.828	1063.12
418.051	1080.12
418.274	1086.12
418.497	1061.12
418.72	1083.12
418.943	1059.12
419.166	1165.12
419.389	1215.12
419.611	1223.12
419.834	1162.12
420.057	1115.12
420.28	1098.12
420.503	1053.12
420.726	1021.12
420.948	1061.12
421.171	1041.12
421.394	1061.12
421.617	1064.12
421.839	1054.12
422.062	1079.12
422.285	1053.12
422.507	1108.12
422.73	1118.12
422.953	1109.12
423.175	1084.12
423.398	1127.12
423.621	1136.12
423.843	1153.12
424.066	1137.12
424.288	1108.12
424.511	1141.12
424.733	1102.12
424.956	1092.12
425.178	1113.12
425.401	1054.12
425.623	1075.12
425.846	1051.12
426.068	1009.12
426.291	1037.12
426.513	999.12
426.735	977.12
426.958	958.12
427.18	980.12
427.402	951.12
427.625	987.12
427.847	954.12
428.069	957.12
428.292	956.12
428.514	934.12
428.736	962.12
428.958	938.12
429.181	928.12
429.403	923.12
429.625	910.12
429.847	934.12
430.069	913.12
430.292	932.12
430.514	932.12
430.736	924.12
430.958	947.12
431.18	951.12
431.402	944.12
431.624	929.12
431.846	948.12
432.068	968.12
432.29	967.12
432.512	911.12
432.734	924.12
432.956	951.12
433.178	941.12
433.4	939.12
433.622	972.12
433.844	968.12
434.066	964.12
434.287	966.12
434.509	1015.12
434.731	1053.12
434.953	1068.12
435.175	1091.12
435.397	1088.12
435.618	1016.12
435.84	998.12
436.062	974.12
436.284	962.12
436.505	950.12
436.727	954.12
436.949	950.12
437.17	962.12
437.392	953.12
437.614	935.12
437.835	947.12
438.057	913.12
438.278	911.12
438.5	934.12
438.721	895.12
438.943	911.12
439.165	925.12
439.386	925.12
439.608	969.12
439.829	942.12
440.05	927.12
440.272	975.12
440.493	960.12
440.715	975.12
440.936	997.12
441.158	1034.12
441.379	1053.12
441.6	1082.12
441.822	1099.12
442.043	1111.12
442.264	1084.12
442.486	1026.12
442.707	1030.12
442.928	1064.12
443.149	1054.12
443.371	1072.12
443.592	1071.12
443.813	1057.12
444.034	1091.12
444.255	1122.12
444.476	1178.12
444.698	1235.12
444.919	1284.12
445.14	1379.12
445.361	1242.12
445.582	1139.12
445.803	1054.12
446.024	1004.12
446.245	1039.12
446.466	1009.12
446.687	975.12
446.908	985.12
447.129	938.12
447.35	920.12
447.571	909.12
447.792	918.12
448.013	957.12
448.234	915.12
448.455	881.12
448.675	886.12
448.896	891.12
449.117	880.12
449.338	862.12
449.559	887.12
449.779	898.12
450	868.12
450.221	883.12
450.442	873.12
450.662	909.12
450.883	911.12
451.104	927.12
451.324	915.12
451.545	905.12
451.766	927.12
451.986	901.12
452.207	895.12
452.428	872.12
452.648	886.12
452.869	869.12
453.089	896.12
453.31	901.12
453.53	877.12
453.751	861.12
453.971	838.12
454.192	867.12
454.412	827.12
454.633	852.12
454.853	849.12
455.073	838.12
455.294	864.12
455.514	830.12
455.734	830.12
455.955	817.12
456.175	831.12
456.395	808.12
456.616	821.12
456.836	835.12
457.056	833.12
457.276	802.12
457.497	802.12
457.717	809.12
457.937	860.12
458.157	880.12
458.377	840.12
458.598	861.12
458.818	889.12
459.038	910.12
459.258	957.12
459.478	993.12
459.698	1001.12
459.918	1010.12
460.138	1054.12
460.358	1127.12
460.578	1140.12
460.798	1134.12
461.018	1191.12
461.238	1114.12
461.458	1093.12
461.678	1107.12
461.898	1132.12
462.118	1160.12
462.338	1230.12
462.558	1250.12
462.777	1293.12
462.997	1404.12
463.217	1551.12
463.437	1555.12
463.657	1490.12
463.876	1349.12
464.096	1380.12
464.316	1361.12
464.536	1366.12
464.755	1287.12
464.975	1208.12
465.195	1187.12
465.414	1141.12
465.634	1050.12
465.854	1018.12
466.073	973.12
466.293	978.12
466.512	963.12
466.732	932.12
466.951	947.12
467.171	930.12
467.391	943.12
467.61	915.12
467.829	929.12
468.049	928.12
468.268	883.12
468.488	887.12
468.707	901.12
468.927	892.12
469.146	879.12
469.365	917.12
469.585	911.12
469.804	928.12
470.023	950.12
470.243	923.12
470.462	973.12
470.681	958.12
470.901	953.12
471.12	919.12
471.339	923.12
471.558	910.12
471.777	905.12
471.997	894.12
472.216	897.12
472.435	873.12
472.654	874.12
472.873	877.12
473.092	863.12
473.311	868.12
473.53	854.12
473.749	847.12
473.968	854.12
474.187	865.12
474.406	869.12
474.625	871.12
474.844	852.12
475.063	885.12
475.282	873.12
475.501	889.12
475.72	858.12
475.939	886.12
476.158	883.12
476.377	906.12
476.596	882.12
476.814	904.12
477.033	917.12
477.252	923.12
477.471	981.12
477.69	959.12
477.908	1007.12
478.127	1040.12
478.346	1023.12
478.564	1057.12
478.783	1093.12
479.002	1103.12
479.22	1095.12
479.439	1087.12
479.658	1046.12
479.876	1061.12
480.095	1129.12
480.313	1183.12
480.532	1167.12
480.751	1190.12
480.969	1118.12
481.188	1117.12
481.406	1077.12
481.624	1022.12
481.843	1029.12
482.061	1003.12
482.28	1010.12
482.498	983.12
482.717	994.12
482.935	986.12
483.153	998.12
483.372	1001.12
483.59	1010.12
483.808	990.12
484.027	1001.12
484.245	1014.12
484.463	1022.12
484.681	1007.12
484.9	1041.12
485.118	1023.12
485.336	1032.12
485.554	1046.12
485.772	1058.12
485.99	1093.12
486.209	1074.12
486.427	1085.12
486.645	1086.12
486.863	1075.12
487.081	1067.12
487.299	1079.12
487.517	1059.12
487.735	1035.12
487.953	1056.12
488.171	1077.12
488.389	1054.12
488.607	985.12
488.825	1043.12
489.043	1011.12
489.261	1017.12
489.479	1042.12
489.696	1039.12
489.914	1061.12
490.132	1037.12
490.35	1049.12
490.568	1042.12
490.786	1031.12
491.003	1054.12
491.221	1067.12
491.439	1071.12
491.657	1062.12
491.874	1051.12
492.092	1031.12
492.31	1072.12
492.527	1055.12
492.745	1034.12
492.963	1078.12
493.18	1068.12
493.398	1079.12
493.615	1095.12
493.833	1074.12
494.05	1094.12
494.268	1085.12
494.485	1044.12
494.703	1077.12
494.92	1120.12
495.138	1065.12
495.355	1082.12
495.573	1087.12
495.79	1098.12
496.008	1094.12
496.225	1106.12
496.442	1089.12
496.66	1154.12
496.877	1155.12
497.094	1146.12
497.312	1201.12
497.529	1197.12
497.746	1225.12
497.963	1259.12
498.181	1347.12
498.398	1374.12
498.615	1414.12
498.832	1505.12
499.049	1630.12
499.267	1817.12
499.484	1973.12
499.701	2199.12
499.918	2438.12
500.135	2745.12
500.352	3119.12
500.569	3414.12
500.786	3337.12
501.003	3028.12
501.22	2777.12
501.437	2432.12
501.654	2140.12
501.871	1941.12
502.088	1775.12
502.305	1661.12
502.522	1572.12
502.739	1498.12
502.956	1424.12
503.172	1365.12
503.389	1298.12
503.606	1263.12
503.823	1288.12
504.04	1266.12
504.256	1258.12
504.473	1273.12
504.69	1329.12
504.907	1320.12
505.123	1210.12
505.34	1146.12
505.557	1091.12
505.773	1077.12
505.99	1040.12
506.207	1042.12
506.423	1018.12
506.64	984.12
506.856	999.12
507.073	967.12
507.289	962.12
507.506	943.12
507.722	986.12
507.939	969.12
508.155	936.12
508.372	906.12
508.588	906.12
508.805	910.12
509.021	935.12
509.238	927.12
509.454	901.12
509.67	908.12
509.887	894.12
510.103	905.12
510.319	881.12
510.536	907.12
510.752	871.12
510.968	875.12
511.184	892.12
511.401	929.12
511.617	905.12
511.833	873.12
512.049	893.12
512.265	909.12
512.481	887.12
512.698	853.12
512.914	886.12
513.13	899.12
513.346	905.12
513.562	872.12
513.778	885.12
513.994	897.12
514.21	885.12
514.426	941.12
514.642	904.12
514.858	884.12
515.074	903.12
515.29	922.12
515.506	936.12
515.721	935.12
515.937	929.12
516.153	941.12
516.369	975.12
516.585	992.12
516.801	1046.12
517.016	1069.12
517.232	1142.12
517.448	1195.12
517.664	1246.12
517.879	1250.12
518.095	1262.12
518.311	1249.12
518.527	1172.12
518.742	1133.12
518.958	1077.12
519.173	1023.12
519.389	1017.12
519.605	948.12
519.82	930.12
520.036	933.12
520.251	912.12
520.467	905.12
520.682	887.12
520.898	870.12
521.113	871.12
521.329	883.12
521.544	867.12
521.76	879.12
521.975	855.12
522.19	850.12
522.406	858.12
522.621	841.12
522.836	838.12
523.052	832.12
523.267	838.12
523.482	822.12
523.698	822.12
523.913	824.12
524.128	836.12
524.343	815.12
524.559	811.12
524.774	809.12
524.989	807.12
525.204	827.12
525.419	807.12
525.634	789.12
525.849	810.12
526.064	793.12
526.28	795.12
526.495	796.12
526.71	788.12
526.925	796.12
527.14	773.12
527.355	809.12
527.57	806.12
527.785	818.12
527.999	797.12
528.214	789.12
528.429	797.12
528.644	808.12
528.859	830.12
529.074	817.12
529.289	812.12
529.503	802.12
529.718	807.12
529.933	772.12
530.148	812.12
530.363	827.12
530.577	778.12
530.792	775.12
531.007	803.12
531.221	811.12
531.436	793.12
531.651	819.12
531.865	803.12
532.08	780.12
532.295	811.12
532.509	802.12
532.724	804.12
532.938	790.12
533.153	795.12
533.367	811.12
533.582	801.12
533.796	786.12
534.011	791.12
534.225	779.12
534.44	786.12
534.654	778.12
534.868	783.12
535.083	755.12
535.297	767.12
535.511	771.12
535.726	783.12
535.94	773.12
536.154	757.12
536.369	793.12
536.583	757.12
536.797	755.12
537.011	771.12
537.225	745.12
537.44	747.12
537.654	772.12
537.868	713.12
538.082	757.12
538.296	743.12
538.51	696.12
538.724	746.12
538.938	715.12
539.153	721.12
539.367	726.12
539.581	730.12
539.795	730.12
540.009	725.12
540.222	737.12
540.436	750.12
540.65	710.12
540.864	714.12
541.078	721.12
541.292	701.12
541.506	727.12
541.72	731.12
541.934	726.12
542.147	708.12
542.361	727.12
542.575	733.12
542.789	699.12
543.002	704.12
543.216	705.12
543.43	686.12
543.644	682.12
543.857	695.12
544.071	724.12
544.285	705.12
544.498	720.12
544.712	738.12
544.925	733.12
545.139	732.12
545.352	717.12
545.566	710.12
545.779	755.12
545.993	770.12
546.206	736.12
546.42	727.12
546.633	759.12
546.847	713.12
547.06	729.12
547.274	712.12
547.487	733.12
547.7	743.12
547.914	739.12
548.127	766.12
548.34	736.12
548.554	719.12
548.767	726.12
548.98	732.12
549.193	699.12
549.407	735.12
549.62	775.12
549.833	755.12
550.046	757.12
550.259	739.12
550.473	746.12
550.686	723.12
550.899	714.12
551.112	755.12
551.325	714.12
551.538	728.12
551.751	718.12
551.964	722.12
552.177	728.12
552.39	739.12
552.603	774.12
552.816	771.12
553.029	779.12
553.242	789.12
553.455	819.12
553.667	837.12
553.88	804.12
554.093	782.12
554.306	761.12
554.519	767.12
554.732	717.12
554.944	727.12
555.157	700.12
555.37	709.12
555.583	691.12
555.795	680.12
556.008	678.12
556.221	653.12
556.433	652.12
556.646	672.12
556.859	673.12
557.071	621.12
557.284	630.12
557.496	644.12
557.709	641.12
557.921	631.12
558.134	617.12
558.346	613.12
558.559	605.12
558.771	632.12
558.984	617.12
559.196	610.12
559.409	619.12
559.621	601.12
559.833	619.12
560.046	598.12
560.258	618.12
560.47	607.12
560.683	613.12
560.895	612.12
561.107	603.12
561.32	577.12
561.532	619.12
561.744	603.12
561.956	620.12
562.168	600.12
562.381	616.12
562.593	608.12
562.805	612.12
563.017	623.12
563.229	607.12
563.441	605.12
563.653	650.12
563.865	630.12
564.077	633.12
564.289	633.12
564.501	653.12
564.713	654.12
564.925	663.12
565.137	683.12
565.349	692.12
565.561	716.12
565.773	716.12
565.985	749.12
566.197	787.12
566.408	842.12
566.62	933.12
566.832	999.12
567.044	1027.12
567.255	1005.12
567.467	1041.12
567.679	1098.12
567.891	1181.12
568.102	1230.12
568.314	1161.12
568.526	1026.12
568.737	923.12
568.949	855.12
569.161	778.12
569.372	723.12
569.584	712.12
569.795	682.12
570.007	650.12
570.218	658.12
570.43	630.12
570.641	636.12
570.853	618.12
571.064	650.12
571.276	606.12
571.487	597.12
571.698	584.12
571.91	601.12
572.121	561.12
572.333	565.12
572.544	539.12
572.755	545.12
572.966	541.12
573.178	541.12
573.389	547.12
573.6	519.12
573.811	515.12
574.023	514.12
574.234	507.12
574.445	527.12
574.656	490.12
574.867	519.12
575.078	519.12
575.289	520.12
575.501	505.12
575.712	489.12
575.923	483.12
576.134	503.12
576.345	493.12
576.556	492.12
576.767	490.12
576.978	484.12
577.188	473.12
577.399	476.12
577.61	492.12
577.821	479.12
578.032	475.12
578.243	450.12
578.454	464.12
578.665	429.12
578.875	454.12
579.086	459.12
579.297	460.12
579.508	445.12
579.718	468.12
579.929	439.12
580.14	463.12
580.35	463.12
580.561	452.12
580.772	456.12
580.982	439.12
581.193	434.12
581.403	459.12
581.614	435.12
581.825	433.12
582.035	436.12
582.246	430.12
582.456	431.12
582.667	419.12
582.877	430.12
583.087	437.12
583.298	437.12
583.508	429.12
583.719	429.12
583.929	424.12
584.139	423.12
584.35	412.12
584.56	434.12
584.77	432.12
584.981	412.12
585.191	421.12
585.401	425.12
585.611	415.12
585.821	407.12
586.032	447.12
586.242	419.12
586.452	422.12
586.662	405.12
586.872	413.12
587.082	433.12
587.292	420.12
587.502	422.12
587.713	411.12
587.923	435.12
588.133	412.12
588.343	419.12
588.553	413.12
588.762	419.12
588.972	434.12
589.182	434.12
589.392	431.12
589.602	409.12
589.812	398.12
590.022	399.12
590.232	404.12
590.441	425.12
590.651	433.12
590.861	411.12
591.071	428.12
591.281	434.12
591.49	426.12
591.7	422.12
591.91	431.12
592.119	463.12
592.329	455.12
592.539	471.12
592.748	486.12
592.958	497.12
593.167	519.12
593.377	522.12
593.587	529.12
593.796	517.12
594.006	554.12
594.215	551.12
594.424	536.12
594.634	529.12
594.843	521.12
595.053	480.12
595.262	475.12
595.472	448.12
595.681	426.12
595.89	425.12
596.1	441.12
596.309	434.12
596.518	393.12
596.727	401.12
596.937	398.12
597.146	391.12
597.355	386.12
597.564	393.12
597.774	398.12
597.983	369.12
598.192	380.12
598.401	362.12
598.61	372.12
598.819	374.12
599.028	357.12
599.237	366.12
599.446	369.12
599.655	346.12
599.864	353.12
600.073	351.12
600.282	349.12
600.491	349.12
600.7	347.12
600.909	350.12
601.118	341.12
601.327	349.12
601.536	332.12
601.745	357.12
601.953	355.12
602.162	352.12
602.371	355.12
602.58	338.12
602.789	342.12
602.997	315.12
603.206	330.12
603.415	334.12
603.623	341.12
603.832	321.12
604.041	334.12
604.249	348.12
604.458	330.12
604.666	325.12
604.875	342.12
605.084	351.12
605.292	338.12
605.501	336.12
605.709	326.12
605.918	331.12
606.126	348.12
606.334	307.12
606.543	315.12
606.751	331.12
606.96	332.12
607.168	315.12
607.376	311.12
607.585	309.12
607.793	337.12
608.001	314.12
608.21	317.12
608.418	343.12
608.626	313.12
608.834	322.12
609.043	312.12
609.251	315.12
609.459	323.12
609.667	318.12
609.875	309.12
610.083	329.12
610.291	319.12
610.499	315.12
610.707	323.12
610.916	313.12
611.124	308.12
611.332	324.12
611.54	330.12
611.748	327.12
611.955	330.12
612.163	318.12
612.371	319.12
612.579	309.12
612.787	306.12
612.995	308.12
613.203	319.12
613.411	324.12
613.618	311.12
613.826	294.12
614.034	317.12
614.242	295.12
614.449	287.12
614.657	301.12
614.865	310.12
615.072	308.12
615.28	311.12
615.488	300.12
615.695	310.12
615.903	312.12
616.111	301.12
616.318	293.12
616.526	299.12
616.733	313.12
616.941	318.12
617.148	317.12
617.356	315.12
617.563	301.12
617.771	305.12
617.978	290.12
618.185	315.12
618.393	293.12
618.6	291.12
618.807	301.12
619.015	306.12
619.222	289.12
619.429	319.12
619.637	296.12
619.844	325.12
620.051	285.12
620.258	302.12
620.466	278.12
620.673	279.12
620.88	278.12
621.087	266.12
621.294	288.12
621.501	277.12
621.708	294.12
621.915	284.12
622.122	279.12
622.329	285.12
622.536	285.12
622.743	283.12
622.95	276.12
623.157	282.12
623.364	270.12
623.571	282.12
623.778	267.12
623.985	289.12
624.192	279.12
624.399	276.12
624.606	265.12
624.812	266.12
625.019	260.12
625.226	276.12
625.433	267.12
625.639	273.12
625.846	256.12
626.053	262.12
626.259	260.12
626.466	261.12
626.673	267.12
626.879	245.12
627.086	257.12
627.293	253.12
627.499	269.12
627.706	263.12
627.912	253.12
628.119	259.12
628.325	253.12
628.532	270.12
628.738	254.12
628.945	241.12
629.151	261.12
629.357	257.12
629.564	246.12
629.77	262.12
629.976	266.12
630.183	250.12
630.389	262.12
630.595	241.12
630.802	241.12
631.008	246.12
631.214	236.12
631.42	245.12
631.627	239.12
631.833	246.12
632.039	237.12
632.245	247.12
632.451	233.12
632.657	221.12
632.863	221.12
633.069	226.12
633.275	231.12
633.481	237.12
633.688	234.12
633.893	225.12
634.099	221.12
634.305	221.12
634.511	231.12
634.717	223.12
634.923	204.12
635.129	225.12
635.335	219.12
635.541	215.12
635.747	230.12
635.952	223.12
636.158	227.12
636.364	219.12
636.57	219.12
636.775	230.12
636.981	230.12
637.187	224.12
637.392	215.12
637.598	222.12
637.804	218.12
638.009	213.12
638.215	215.12
638.421	205.12
638.626	225.12
638.832	218.12
639.037	211.12
639.243	217.12
639.448	228.12
639.654	205.12
639.859	225.12
640.065	194.12
640.27	215.12
640.475	225.12
640.681	225.12
640.886	219.12
641.091	205.12
641.297	218.12
641.502	201.12
641.707	210.12
641.913	202.12
642.118	205.12
642.323	201.12
642.528	205.12
642.733	210.12
642.939	223.12
643.144	205.12
643.349	206.12
643.554	209.12
643.759	207.12
643.964	195.12
644.169	198.12
644.374	213.12
644.579	198.12
644.784	210.12
644.989	210.12
645.194	187.12
645.399	203.12
645.604	210.12
645.809	216.12
646.014	214.12
646.219	207.12
646.423	198.12
646.628	214.12
646.833	218.12
647.038	210.12
647.243	206.12
647.447	221.12
647.652	210.12
647.857	221.12
648.062	224.12
648.266	224.12
648.471	224.12
648.676	223.12
648.88	211.12
649.085	223.12
649.289	191.12
649.494	206.12
649.698	194.12
649.903	218.12
650.107	221.12
650.312	204.12
650.516	189.12
650.721	181.12
650.925	182.12
651.13	195.12
651.334	194.12
651.539	173.12
651.743	206.12
651.947	192.12
652.152	191.12
652.356	179.12
652.56	173.12
652.764	151.12
652.969	183.12
653.173	182.12
653.377	173.12
653.581	157.12
653.785	173.12
653.99	163.12
654.194	168.12
654.398	171.12
654.602	175.12
654.806	171.12
655.01	159.12
655.214	157.12
655.418	169.12
655.622	170.12
655.826	175.12
656.03	168.12
656.234	163.12
656.438	147.12
656.642	159.12
656.846	166.12
657.049	147.12
657.253	149.12
657.457	139.12
657.661	129.12
657.865	147.12
658.068	122.12
658.272	122.12
658.476	123.12
658.68	122.12
658.883	110.12
659.087	113.12
659.291	111.12
659.494	119.12
659.698	106.12
659.901	108.12
660.105	91.12
660.309	107.12
660.512	111.12
660.716	98.12
660.919	109.12
661.123	96.12
661.326	104.12
661.53	97.12
661.733	103.12
661.936	91.12
662.14	80.12
662.343	79.12
662.546	83.12
662.75	75.12
662.953	105.12
663.156	96.12
663.36	83.12
663.563	84.12
663.766	88.12
663.969	82.12
664.173	92.12
664.376	83.12
664.579	87.12
664.782	77.12
664.985	79.12
665.188	83.12
665.391	79.12
665.594	72.12
665.797	85.12
666	98.12
666.203	94.12
666.406	74.12
666.609	82.12
666.812	77.12
667.015	87.12
667.218	101.12
667.421	75.12
667.624	92.12
667.827	94.12
668.03	80.12
668.232	97.12
668.435	81.12
668.638	82.12
668.841	96.12
669.043	76.12
669.246	83.12
669.449	82.12
669.651	90.12
669.854	78.12
670.057	80.12
670.259	83.12
670.462	87.12
670.665	96.12
670.867	75.12
671.07	68.12
671.272	78.12
671.475	79.12
671.677	89.12
671.88	91.12
672.082	77.12
672.284	87.12
672.487	89.12
672.689	96.12
672.892	80.12
