Data from NiCl2@0.25M.TitratingCurve.Agarose3%dH2O.NegLispCup.LampEnergy10.LIBS07252019_HRD10591_18-22-36-572.txt Node
Date: Thu Jul 25 18:22:36 EDT 2019
User: cochatt
Spectrometer: HR+D1059
Trigger mode: 1
Integration Time (sec): 1.000000E-1
Scans to average: 1
Electric dark correction enabled: true
Nonlinearity correction enabled: false
Boxcar width: 0
XAxis mode: Wavelengths
Number of Pixels in Spectrum: 2048
>>>>>Begin Spectral Data<<<<<
223.165	-19.75
223.4	-19.75
223.635	-19.75
223.869	-18.75
224.104	-10.75
224.338	-20.75
224.573	-16.75
224.808	-2.75
225.042	-3.75
225.277	-5.75
225.511	-12.75
225.746	4.25
225.98	7.25
226.215	3.25
226.449	3.25
226.683	35.25
226.918	28.25
227.152	30.25
227.387	33.25
227.621	30.25
227.856	39.25
228.09	45.25
228.324	39.25
228.559	55.25
228.793	61.25
229.027	99.25
229.262	117.25
229.496	113.25
229.73	114.25
229.964	162.25
230.199	140.25
230.433	141.25
230.667	147.25
230.901	133.25
231.136	139.25
231.37	134.25
231.604	142.25
231.838	144.25
232.072	158.25
232.306	165.25
232.541	147.25
232.775	143.25
233.009	139.25
233.243	156.25
233.477	142.25
233.711	157.25
233.945	156.25
234.179	151.25
234.413	137.25
234.647	143.25
234.881	149.25
235.115	149.25
235.349	151.25
235.583	152.25
235.817	133.25
236.051	142.25
236.285	154.25
236.519	145.25
236.753	156.25
236.987	158.25
237.221	152.25
237.455	160.25
237.689	146.25
237.922	158.25
238.156	149.25
238.39	141.25
238.624	153.25
238.858	163.25
239.091	145.25
239.325	165.25
239.559	155.25
239.793	178.25
240.027	173.25
240.26	159.25
240.494	165.25
240.728	181.25
240.961	168.25
241.195	185.25
241.429	166.25
241.662	170.25
241.896	178.25
242.13	187.25
242.363	194.25
242.597	175.25
242.83	179.25
243.064	191.25
243.298	191.25
243.531	188.25
243.765	158.25
243.998	185.25
244.232	191.25
244.465	197.25
244.699	196.25
244.932	199.25
245.166	199.25
245.399	201.25
245.633	207.25
245.866	190.25
246.099	209.25
246.333	189.25
246.566	207.25
246.8	197.25
247.033	191.25
247.266	204.25
247.5	223.25
247.733	215.25
247.966	211.25
248.2	219.25
248.433	218.25
248.666	222.25
248.899	214.25
249.133	222.25
249.366	226.25
249.599	217.25
249.832	218.25
250.066	223.25
250.299	224.25
250.532	219.25
250.765	238.25
250.998	229.25
251.231	234.25
251.465	242.25
251.698	243.25
251.931	236.25
252.164	241.25
252.397	221.25
252.63	229.25
252.863	235.25
253.096	266.25
253.329	267.25
253.562	235.25
253.795	262.25
254.028	248.25
254.261	257.25
254.494	244.25
254.727	241.25
254.96	253.25
255.193	256.25
255.426	278.25
255.659	261.25
255.892	264.25
256.124	256.25
256.357	266.25
256.59	270.25
256.823	248.25
257.056	251.25
257.289	278.25
257.521	271.25
257.754	275.25
257.987	263.25
258.22	294.25
258.452	277.25
258.685	282.25
258.918	265.25
259.151	246.25
259.383	277.25
259.616	283.25
259.849	306.25
260.081	299.25
260.314	297.25
260.547	291.25
260.779	298.25
261.012	299.25
261.244	302.25
261.477	297.25
261.71	282.25
261.942	294.25
262.175	300.25
262.407	294.25
262.64	290.25
262.872	282.25
263.105	293.25
263.337	325.25
263.57	320.25
263.802	300.25
264.035	299.25
264.267	314.25
264.499	309.25
264.732	297.25
264.964	316.25
265.197	317.25
265.429	318.25
265.661	322.25
265.894	325.25
266.126	308.25
266.358	311.25
266.591	312.25
266.823	306.25
267.055	321.25
267.287	307.25
267.52	302.25
267.752	337.25
267.984	355.25
268.216	302.25
268.448	318.25
268.681	319.25
268.913	334.25
269.145	337.25
269.377	328.25
269.609	342.25
269.841	346.25
270.073	332.25
270.306	347.25
270.538	339.25
270.77	327.25
271.002	339.25
271.234	352.25
271.466	327.25
271.698	341.25
271.93	340.25
272.162	336.25
272.394	365.25
272.626	338.25
272.858	372.25
273.09	358.25
273.322	353.25
273.553	336.25
273.785	381.25
274.017	363.25
274.249	364.25
274.481	365.25
274.713	355.25
274.945	351.25
275.176	376.25
275.408	369.25
275.64	348.25
275.872	375.25
276.104	351.25
276.335	396.25
276.567	377.25
276.799	370.25
277.031	373.25
277.262	386.25
277.494	372.25
277.726	381.25
277.957	378.25
278.189	395.25
278.421	376.25
278.652	385.25
278.884	377.25
279.115	413.25
279.347	393.25
279.579	387.25
279.81	396.25
280.042	425.25
280.273	391.25
280.505	393.25
280.736	403.25
280.968	412.25
281.199	417.25
281.431	401.25
281.662	399.25
281.894	399.25
282.125	418.25
282.356	422.25
282.588	415.25
282.819	409.25
283.051	412.25
283.282	428.25
283.513	437.25
283.745	433.25
283.976	426.25
284.207	424.25
284.439	426.25
284.67	425.25
284.901	430.25
285.132	418.25
285.364	429.25
285.595	434.25
285.826	425.25
286.057	425.25
286.288	444.25
286.52	450.25
286.751	427.25
286.982	432.25
287.213	441.25
287.444	448.25
287.675	453.25
287.906	441.25
288.138	445.25
288.369	466.25
288.6	446.25
288.831	467.25
289.062	475.25
289.293	446.25
289.524	443.25
289.755	457.25
289.986	468.25
290.217	457.25
290.448	460.25
290.679	475.25
290.91	471.25
291.141	459.25
291.371	468.25
291.602	479.25
291.833	470.25
292.064	454.25
292.295	455.25
292.526	473.25
292.757	460.25
292.987	465.25
293.218	446.25
293.449	474.25
293.68	477.25
293.91	468.25
294.141	474.25
294.372	443.25
294.603	461.25
294.833	485.25
295.064	485.25
295.295	480.25
295.525	459.25
295.756	479.25
295.987	483.25
296.217	485.25
296.448	494.25
296.679	469.25
296.909	509.25
297.14	493.25
297.37	509.25
297.601	502.25
297.831	501.25
298.062	498.25
298.292	504.25
298.523	528.25
298.753	519.25
298.984	504.25
299.214	487.25
299.445	499.25
299.675	487.25
299.905	520.25
300.136	529.25
300.366	523.25
300.597	542.25
300.827	566.25
301.057	535.25
301.288	548.25
301.518	540.25
301.748	526.25
301.979	541.25
302.209	520.25
302.439	522.25
302.669	513.25
302.9	547.25
303.13	529.25
303.36	526.25
303.59	516.25
303.82	521.25
304.051	540.25
304.281	533.25
304.511	535.25
304.741	536.25
304.971	540.25
305.201	532.25
305.431	526.25
305.661	519.25
305.891	545.25
306.121	533.25
306.352	529.25
306.582	518.25
306.812	520.25
307.042	535.25
307.272	527.25
307.502	526.25
307.731	507.25
307.961	531.25
308.191	526.25
308.421	532.25
308.651	534.25
308.881	522.25
309.111	532.25
309.341	543.25
309.571	538.25
309.8	525.25
310.03	537.25
310.26	552.25
310.49	562.25
310.72	521.25
310.949	533.25
311.179	535.25
311.409	523.25
311.639	545.25
311.868	535.25
312.098	545.25
312.328	551.25
312.557	551.25
312.787	564.25
313.017	563.25
313.246	558.25
313.476	582.25
313.706	584.25
313.935	557.25
314.165	572.25
314.394	580.25
314.624	566.25
314.853	550.25
315.083	562.25
315.312	547.25
315.542	574.25
315.771	575.25
316.001	571.25
316.23	560.25
316.46	577.25
316.689	557.25
316.919	549.25
317.148	540.25
317.377	561.25
317.607	547.25
317.836	547.25
318.065	554.25
318.295	548.25
318.524	543.25
318.753	556.25
318.983	575.25
319.212	543.25
319.441	564.25
319.67	560.25
319.9	550.25
320.129	572.25
320.358	553.25
320.587	536.25
320.816	561.25
321.046	573.25
321.275	566.25
321.504	573.25
321.733	538.25
321.962	576.25
322.191	545.25
322.42	558.25
322.649	587.25
322.878	567.25
323.108	581.25
323.337	586.25
323.566	567.25
323.795	589.25
324.024	582.25
324.253	582.25
324.482	585.25
324.71	604.25
324.939	583.25
325.168	587.25
325.397	590.25
325.626	591.25
325.855	587.25
326.084	594.25
326.313	596.25
326.542	644.25
326.77	619.25
326.999	611.25
327.228	597.25
327.457	611.25
327.686	649.25
327.914	605.25
328.143	606.25
328.372	618.25
328.6	596.25
328.829	612.25
329.058	615.25
329.287	627.25
329.515	627.25
329.744	622.25
329.972	623.25
330.201	626.25
330.43	631.25
330.658	627.25
330.887	611.25
331.115	641.25
331.344	615.25
331.572	645.25
331.801	661.25
332.03	691.25
332.258	690.25
332.486	722.25
332.715	706.25
332.943	755.25
333.172	777.25
333.4	766.25
333.629	817.25
333.857	811.25
334.085	780.25
334.314	810.25
334.542	788.25
334.771	774.25
334.999	759.25
335.227	746.25
335.455	757.25
335.684	731.25
335.912	757.25
336.14	732.25
336.369	758.25
336.597	745.25
336.825	734.25
337.053	763.25
337.281	743.25
337.51	703.25
337.738	700.25
337.966	703.25
338.194	699.25
338.422	682.25
338.65	685.25
338.878	679.25
339.106	668.25
339.334	682.25
339.562	679.25
339.79	643.25
340.018	664.25
340.246	648.25
340.474	651.25
340.702	649.25
340.93	646.25
341.158	655.25
341.386	661.25
341.614	672.25
341.842	673.25
342.07	630.25
342.298	641.25
342.526	650.25
342.754	637.25
342.981	675.25
343.209	653.25
343.437	694.25
343.665	723.25
343.893	770.25
344.12	787.25
344.348	746.25
344.576	732.25
344.804	725.25
345.031	684.25
345.259	655.25
345.487	676.25
345.714	641.25
345.942	669.25
346.17	665.25
346.397	653.25
346.625	633.25
346.853	655.25
347.08	622.25
347.308	621.25
347.535	656.25
347.763	611.25
347.99	633.25
348.218	618.25
348.445	623.25
348.673	608.25
348.9	606.25
349.128	640.25
349.355	649.25
349.583	643.25
349.81	620.25
350.037	636.25
350.265	622.25
350.492	595.25
350.72	610.25
350.947	579.25
351.174	606.25
351.402	626.25
351.629	621.25
351.856	639.25
352.083	612.25
352.311	614.25
352.538	619.25
352.765	647.25
352.992	612.25
353.22	606.25
353.447	604.25
353.674	590.25
353.901	598.25
354.128	580.25
354.355	602.25
354.583	591.25
354.81	603.25
355.037	606.25
355.264	605.25
355.491	634.25
355.718	599.25
355.945	590.25
356.172	595.25
356.399	621.25
356.626	625.25
356.853	621.25
357.08	599.25
357.307	599.25
357.534	611.25
357.761	615.25
357.988	613.25
358.215	591.25
358.441	603.25
358.668	589.25
358.895	601.25
359.122	583.25
359.349	602.25
359.576	581.25
359.802	593.25
360.029	585.25
360.256	620.25
360.483	616.25
360.709	613.25
360.936	625.25
361.163	595.25
361.39	628.25
361.616	616.25
361.843	597.25
362.07	618.25
362.296	629.25
362.523	593.25
362.749	593.25
362.976	599.25
363.203	597.25
363.429	593.25
363.656	613.25
363.882	611.25
364.109	613.25
364.335	604.25
364.562	597.25
364.788	615.25
365.015	605.25
365.241	599.25
365.468	618.25
365.694	614.25
365.92	622.25
366.147	591.25
366.373	584.25
366.599	592.25
366.826	598.25
367.052	612.25
367.278	594.25
367.505	585.25
367.731	620.25
367.957	593.25
368.184	605.25
368.41	618.25
368.636	614.25
368.862	618.25
369.089	600.25
369.315	642.25
369.541	639.25
369.767	635.25
369.993	622.25
370.219	623.25
370.445	627.25
370.672	633.25
370.898	633.25
371.124	648.25
371.35	644.25
371.576	669.25
371.802	667.25
372.028	669.25
372.254	655.25
372.48	645.25
372.706	698.25
372.932	687.25
373.158	678.25
373.384	678.25
373.61	661.25
373.835	677.25
374.061	653.25
374.287	645.25
374.513	668.25
374.739	686.25
374.965	735.25
375.191	739.25
375.416	719.25
375.642	698.25
375.868	678.25
376.094	673.25
376.319	653.25
376.545	670.25
376.771	651.25
376.997	682.25
377.222	669.25
377.448	641.25
377.674	641.25
377.899	646.25
378.125	647.25
378.35	653.25
378.576	667.25
378.802	657.25
379.027	647.25
379.253	644.25
379.478	610.25
379.704	652.25
379.929	642.25
380.155	647.25
380.38	637.25
380.606	655.25
380.831	649.25
381.057	666.25
381.282	667.25
381.507	678.25
381.733	660.25
381.958	669.25
382.184	668.25
382.409	661.25
382.634	662.25
382.86	706.25
383.085	690.25
383.31	682.25
383.535	718.25
383.761	727.25
383.986	722.25
384.211	744.25
384.436	740.25
384.662	758.25
384.887	752.25
385.112	769.25
385.337	773.25
385.562	802.25
385.787	793.25
386.013	789.25
386.238	787.25
386.463	786.25
386.688	771.25
386.913	754.25
387.138	759.25
387.363	785.25
387.588	781.25
387.813	750.25
388.038	769.25
388.263	780.25
388.488	763.25
388.713	779.25
388.938	783.25
389.163	745.25
389.387	759.25
389.612	755.25
389.837	767.25
390.062	743.25
390.287	743.25
390.512	755.25
390.736	763.25
390.961	791.25
391.186	802.25
391.411	814.25
391.636	834.25
391.86	842.25
392.085	892.25
392.31	867.25
392.534	843.25
392.759	824.25
392.984	861.25
393.208	838.25
393.433	813.25
393.658	823.25
393.882	829.25
394.107	823.25
394.331	835.25
394.556	800.25
394.78	810.25
395.005	812.25
395.229	826.25
395.454	881.25
395.678	869.25
395.903	856.25
396.127	865.25
396.352	827.25
396.576	790.25
396.801	821.25
397.025	821.25
397.249	853.25
397.474	859.25
397.698	871.25
397.922	870.25
398.147	859.25
398.371	897.25
398.595	916.25
398.82	968.25
399.044	1043.25
399.268	1116.25
399.492	1240.25
399.717	1409.25
399.941	1367.25
400.165	1253.25
400.389	1109.25
400.613	1055.25
400.837	989.25
401.062	985.25
401.286	966.25
401.51	928.25
401.734	963.25
401.958	978.25
402.182	1010.25
402.406	1009.25
402.63	987.25
402.854	998.25
403.078	1030.25
403.302	1067.25
403.526	1073.25
403.75	1116.25
403.974	1118.25
404.198	1099.25
404.422	1117.25
404.645	1082.25
404.869	1083.25
405.093	1075.25
405.317	1054.25
405.541	1061.25
405.765	1064.25
405.988	1070.25
406.212	1049.25
406.436	1036.25
406.66	1120.25
406.883	1100.25
407.107	1134.25
407.331	1179.25
407.555	1224.25
407.778	1235.25
408.002	1197.25
408.226	1153.25
408.449	1117.25
408.673	1100.25
408.896	1062.25
409.12	1096.25
409.344	1095.25
409.567	1052.25
409.791	1102.25
410.014	1054.25
410.238	1116.25
410.461	1061.25
410.685	1031.25
410.908	1036.25
411.132	1007.25
411.355	1000.25
411.578	1005.25
411.802	1011.25
412.025	1013.25
412.249	1032.25
412.472	1017.25
412.695	991.25
412.919	967.25
413.142	981.25
413.365	972.25
413.589	956.25
413.812	970.25
414.035	970.25
414.258	966.25
414.482	1010.25
414.705	983.25
414.928	979.25
415.151	984.25
415.374	955.25
415.597	947.25
415.821	940.25
416.044	943.25
416.267	932.25
416.49	895.25
416.713	938.25
416.936	966.25
417.159	956.25
417.382	929.25
417.605	948.25
417.828	940.25
418.051	957.25
418.274	957.25
418.497	972.25
418.72	973.25
418.943	941.25
419.166	1013.25
419.389	1078.25
419.611	1065.25
419.834	1032.25
420.057	995.25
420.28	983.25
420.503	934.25
420.726	934.25
420.948	948.25
421.171	929.25
421.394	949.25
421.617	947.25
421.839	925.25
422.062	978.25
422.285	943.25
422.507	949.25
422.73	1000.25
422.953	981.25
423.175	972.25
423.398	987.25
423.621	1007.25
423.843	993.25
424.066	994.25
424.288	970.25
424.511	978.25
424.733	975.25
424.956	980.25
425.178	963.25
425.401	927.25
425.623	951.25
425.846	947.25
426.068	908.25
426.291	908.25
426.513	887.25
426.735	919.25
426.958	892.25
427.18	890.25
427.402	894.25
427.625	863.25
427.847	875.25
428.069	867.25
428.292	867.25
428.514	845.25
428.736	852.25
428.958	868.25
429.181	851.25
429.403	829.25
429.625	838.25
429.847	837.25
430.069	829.25
430.292	854.25
430.514	841.25
430.736	865.25
430.958	843.25
431.18	819.25
431.402	861.25
431.624	830.25
431.846	837.25
432.068	854.25
432.29	855.25
432.512	857.25
432.734	866.25
432.956	860.25
433.178	869.25
433.4	872.25
433.622	869.25
433.844	889.25
434.066	849.25
434.287	878.25
434.509	896.25
434.731	925.25
434.953	925.25
435.175	958.25
435.397	933.25
435.618	889.25
435.84	883.25
436.062	872.25
436.284	844.25
436.505	873.25
436.727	824.25
436.949	854.25
437.17	878.25
437.392	871.25
437.614	845.25
437.835	815.25
438.057	857.25
438.278	819.25
438.5	829.25
438.721	820.25
438.943	831.25
439.165	806.25
439.386	817.25
439.608	841.25
439.829	843.25
440.05	847.25
440.272	854.25
440.493	863.25
440.715	896.25
440.936	903.25
441.158	897.25
441.379	928.25
441.6	955.25
441.822	962.25
442.043	941.25
442.264	949.25
442.486	930.25
442.707	925.25
442.928	943.25
443.149	916.25
443.371	903.25
443.592	937.25
443.813	975.25
444.034	970.25
444.255	984.25
444.476	1025.25
444.698	1111.25
444.919	1113.25
445.14	1220.25
445.361	1102.25
445.582	974.25
445.803	918.25
446.024	916.25
446.245	899.25
446.466	913.25
446.687	857.25
446.908	844.25
447.129	862.25
447.35	827.25
447.571	842.25
447.792	814.25
448.013	811.25
448.234	797.25
448.455	794.25
448.675	810.25
448.896	813.25
449.117	784.25
449.338	774.25
449.559	779.25
449.779	786.25
450	758.25
450.221	778.25
450.442	803.25
450.662	781.25
450.883	823.25
451.104	826.25
451.324	770.25
451.545	780.25
451.766	790.25
451.986	777.25
452.207	793.25
452.428	772.25
452.648	787.25
452.869	772.25
453.089	779.25
453.31	788.25
453.53	737.25
453.751	746.25
453.971	730.25
454.192	768.25
454.412	763.25
454.633	763.25
454.853	748.25
455.073	744.25
455.294	740.25
455.514	770.25
455.734	771.25
455.955	738.25
456.175	732.25
456.395	766.25
456.616	719.25
456.836	747.25
457.056	730.25
457.276	700.25
457.497	735.25
457.717	736.25
457.937	742.25
458.157	758.25
458.377	751.25
458.598	782.25
458.818	794.25
459.038	812.25
459.258	817.25
459.478	881.25
459.698	917.25
459.918	946.25
460.138	941.25
460.358	979.25
460.578	969.25
460.798	1001.25
461.018	1031.25
461.238	993.25
461.458	1003.25
461.678	1002.25
461.898	1017.25
462.118	999.25
462.338	1073.25
462.558	1101.25
462.777	1159.25
462.997	1211.25
463.217	1293.25
463.437	1290.25
463.657	1198.25
463.876	1152.25
464.096	1167.25
464.316	1149.25
464.536	1157.25
464.755	1101.25
464.975	1068.25
465.195	1038.25
465.414	986.25
465.634	923.25
465.854	901.25
466.073	885.25
466.293	882.25
466.512	844.25
466.732	827.25
466.951	845.25
467.171	825.25
467.391	828.25
467.61	802.25
467.829	833.25
468.049	808.25
468.268	799.25
468.488	797.25
468.707	813.25
468.927	781.25
469.146	796.25
469.365	799.25
469.585	826.25
469.804	829.25
470.023	841.25
470.243	836.25
470.462	837.25
470.681	839.25
470.901	845.25
471.12	852.25
471.339	812.25
471.558	807.25
471.777	823.25
471.997	808.25
472.216	794.25
472.435	789.25
472.654	773.25
472.873	787.25
473.092	787.25
473.311	780.25
473.53	775.25
473.749	763.25
473.968	781.25
474.187	772.25
474.406	809.25
474.625	775.25
474.844	781.25
475.063	786.25
475.282	788.25
475.501	780.25
475.72	798.25
475.939	830.25
476.158	808.25
476.377	784.25
476.596	820.25
476.814	797.25
477.033	825.25
477.252	830.25
477.471	842.25
477.69	882.25
477.908	881.25
478.127	917.25
478.346	906.25
478.564	954.25
478.783	962.25
479.002	994.25
479.22	1009.25
479.439	963.25
479.658	950.25
479.876	972.25
480.095	954.25
480.313	1012.25
480.532	1040.25
480.751	1019.25
480.969	991.25
481.188	975.25
481.406	972.25
481.624	884.25
481.843	898.25
482.061	913.25
482.28	901.25
482.498	880.25
482.717	877.25
482.935	869.25
483.153	893.25
483.372	876.25
483.59	910.25
483.808	891.25
484.027	893.25
484.245	913.25
484.463	886.25
484.681	918.25
484.9	936.25
485.118	925.25
485.336	935.25
485.554	934.25
485.772	928.25
485.99	941.25
486.209	958.25
486.427	929.25
486.645	929.25
486.863	958.25
487.081	922.25
487.299	952.25
487.517	952.25
487.735	913.25
487.953	957.25
488.171	953.25
488.389	902.25
488.607	933.25
488.825	916.25
489.043	919.25
489.261	884.25
489.479	926.25
489.696	976.25
489.914	938.25
490.132	925.25
490.35	927.25
490.568	951.25
490.786	942.25
491.003	917.25
491.221	968.25
491.439	964.25
491.657	925.25
491.874	965.25
492.092	961.25
492.31	972.25
492.527	979.25
492.745	987.25
492.963	978.25
493.18	970.25
493.398	962.25
493.615	972.25
493.833	1013.25
494.05	952.25
494.268	978.25
494.485	978.25
494.703	1010.25
494.92	1012.25
495.138	956.25
495.355	993.25
495.573	1003.25
495.79	1052.25
496.008	1048.25
496.225	1052.25
496.442	1036.25
496.66	1066.25
496.877	1051.25
497.094	1075.25
497.312	1074.25
497.529	1087.25
497.746	1131.25
497.963	1141.25
498.181	1198.25
498.398	1247.25
498.615	1319.25
498.832	1425.25
499.049	1489.25
499.267	1601.25
499.484	1762.25
499.701	1885.25
499.918	2107.25
500.135	2411.25
500.352	2645.25
500.569	2729.25
500.786	2671.25
501.003	2565.25
501.22	2286.25
501.437	2103.25
501.654	1896.25
501.871	1736.25
502.088	1562.25
502.305	1499.25
502.522	1416.25
502.739	1362.25
502.956	1299.25
503.172	1243.25
503.389	1202.25
503.606	1157.25
503.823	1142.25
504.04	1134.25
504.256	1141.25
504.473	1153.25
504.69	1158.25
504.907	1137.25
505.123	1105.25
505.34	1049.25
505.557	987.25
505.773	975.25
505.99	933.25
506.207	912.25
506.423	917.25
506.64	897.25
506.856	909.25
507.073	887.25
507.289	906.25
507.506	897.25
507.722	857.25
507.939	871.25
508.155	846.25
508.372	830.25
508.588	827.25
508.805	829.25
509.021	838.25
509.238	841.25
509.454	821.25
509.67	837.25
509.887	803.25
510.103	811.25
510.319	794.25
510.536	806.25
510.752	812.25
510.968	800.25
511.184	790.25
511.401	813.25
511.617	812.25
511.833	781.25
512.049	785.25
512.265	788.25
512.481	792.25
512.698	810.25
512.914	805.25
513.13	787.25
513.346	800.25
513.562	787.25
513.778	789.25
513.994	804.25
514.21	813.25
514.426	827.25
514.642	799.25
514.858	826.25
515.074	816.25
515.29	830.25
515.506	866.25
515.721	863.25
515.937	865.25
516.153	886.25
516.369	907.25
516.585	893.25
516.801	945.25
517.016	946.25
517.232	1029.25
517.448	1027.25
517.664	1073.25
517.879	1102.25
518.095	1055.25
518.311	1069.25
518.527	1020.25
518.742	975.25
518.958	961.25
519.173	933.25
519.389	909.25
519.605	874.25
519.82	877.25
520.036	837.25
520.251	828.25
520.467	823.25
520.682	814.25
520.898	788.25
521.113	802.25
521.329	787.25
521.544	774.25
521.76	784.25
521.975	758.25
522.19	746.25
522.406	756.25
522.621	772.25
522.836	757.25
523.052	739.25
523.267	744.25
523.482	735.25
523.698	734.25
523.913	737.25
524.128	754.25
524.343	716.25
524.559	734.25
524.774	745.25
524.989	725.25
525.204	742.25
525.419	727.25
525.634	700.25
525.849	731.25
526.064	715.25
526.28	725.25
526.495	713.25
526.71	737.25
526.925	727.25
527.14	709.25
527.355	691.25
527.57	700.25
527.785	707.25
527.999	703.25
528.214	723.25
528.429	740.25
528.644	716.25
528.859	720.25
529.074	734.25
529.289	748.25
529.503	717.25
529.718	718.25
529.933	719.25
530.148	698.25
530.363	722.25
530.577	713.25
530.792	698.25
531.007	714.25
531.221	722.25
531.436	723.25
531.651	722.25
531.865	702.25
532.08	714.25
532.295	695.25
532.509	718.25
532.724	720.25
532.938	717.25
533.153	694.25
533.367	701.25
533.582	703.25
533.796	694.25
534.011	730.25
534.225	723.25
534.44	694.25
534.654	736.25
534.868	699.25
535.083	702.25
535.297	702.25
535.511	670.25
535.726	678.25
535.94	684.25
536.154	664.25
536.369	661.25
536.583	668.25
536.797	668.25
537.011	638.25
537.225	647.25
537.44	651.25
537.654	649.25
537.868	654.25
538.082	663.25
538.296	647.25
538.51	641.25
538.724	645.25
538.938	638.25
539.153	648.25
539.367	665.25
539.581	638.25
539.795	637.25
540.009	639.25
540.222	641.25
540.436	624.25
540.65	631.25
540.864	642.25
541.078	643.25
541.292	653.25
541.506	642.25
541.72	643.25
541.934	647.25
542.147	665.25
542.361	628.25
542.575	637.25
542.789	653.25
543.002	637.25
543.216	641.25
543.43	635.25
543.644	658.25
543.857	637.25
544.071	639.25
544.285	635.25
544.498	631.25
544.712	662.25
544.925	652.25
545.139	644.25
545.352	655.25
545.566	647.25
545.779	645.25
545.993	668.25
546.206	669.25
546.42	668.25
546.633	650.25
546.847	661.25
547.06	643.25
547.274	667.25
547.487	641.25
547.7	635.25
547.914	665.25
548.127	639.25
548.34	662.25
548.554	647.25
548.767	649.25
548.98	646.25
549.193	665.25
549.407	683.25
549.62	654.25
549.833	661.25
550.046	657.25
550.259	666.25
550.473	653.25
550.686	649.25
550.899	650.25
551.112	639.25
551.325	639.25
551.538	618.25
551.751	656.25
551.964	610.25
552.177	670.25
552.39	667.25
552.603	689.25
552.816	719.25
553.029	724.25
553.242	670.25
553.455	678.25
553.667	725.25
553.88	704.25
554.093	663.25
554.306	655.25
554.519	650.25
554.732	636.25
554.944	627.25
555.157	611.25
555.37	595.25
555.583	621.25
555.795	603.25
556.008	592.25
556.221	595.25
556.433	603.25
556.646	574.25
556.859	584.25
557.071	578.25
557.284	548.25
557.496	569.25
557.709	551.25
557.921	546.25
558.134	540.25
558.346	554.25
558.559	552.25
558.771	561.25
558.984	540.25
559.196	541.25
559.409	537.25
559.621	530.25
559.833	534.25
560.046	537.25
560.258	545.25
560.47	519.25
560.683	534.25
560.895	529.25
561.107	537.25
561.32	529.25
561.532	532.25
561.744	545.25
561.956	547.25
562.168	539.25
562.381	550.25
562.593	545.25
562.805	531.25
563.017	548.25
563.229	556.25
563.441	542.25
563.653	534.25
563.865	530.25
564.077	553.25
564.289	552.25
564.501	581.25
564.713	598.25
564.925	588.25
565.137	573.25
565.349	604.25
565.561	613.25
565.773	639.25
565.985	668.25
566.197	690.25
566.408	723.25
566.62	780.25
566.832	814.25
567.044	886.25
567.255	865.25
567.467	873.25
567.679	922.25
567.891	985.25
568.102	985.25
568.314	928.25
568.526	844.25
568.737	767.25
568.949	749.25
569.161	677.25
569.372	610.25
569.584	611.25
569.795	591.25
570.007	569.25
570.218	570.25
570.43	558.25
570.641	543.25
570.853	550.25
571.064	584.25
571.276	541.25
571.487	567.25
571.698	494.25
571.91	521.25
572.121	493.25
572.333	489.25
572.544	463.25
572.755	469.25
572.966	460.25
573.178	474.25
573.389	435.25
573.6	453.25
573.811	460.25
574.023	450.25
574.234	443.25
574.445	439.25
574.656	444.25
574.867	450.25
575.078	423.25
575.289	441.25
575.501	421.25
575.712	429.25
575.923	407.25
576.134	401.25
576.345	400.25
576.556	434.25
576.767	427.25
576.978	443.25
577.188	420.25
577.399	421.25
577.61	406.25
577.821	429.25
578.032	408.25
578.243	393.25
578.454	412.25
578.665	421.25
578.875	397.25
579.086	392.25
579.297	390.25
579.508	381.25
579.718	409.25
579.929	402.25
580.14	378.25
580.35	402.25
580.561	403.25
580.772	397.25
580.982	383.25
581.193	397.25
581.403	391.25
581.614	389.25
581.825	379.25
582.035	359.25
582.246	373.25
582.456	387.25
582.667	362.25
582.877	381.25
583.087	399.25
583.298	364.25
583.508	375.25
583.719	379.25
583.929	383.25
584.139	378.25
584.35	366.25
584.56	353.25
584.77	375.25
584.981	351.25
585.191	371.25
585.401	349.25
585.611	356.25
585.821	354.25
586.032	380.25
586.242	357.25
586.452	356.25
586.662	351.25
586.872	387.25
587.082	359.25
587.292	350.25
587.502	366.25
587.713	381.25
587.923	378.25
588.133	364.25
588.343	374.25
588.553	354.25
588.762	354.25
588.972	365.25
589.182	383.25
589.392	388.25
589.602	360.25
589.812	379.25
590.022	362.25
590.232	371.25
590.441	368.25
590.651	355.25
590.861	380.25
591.071	352.25
591.281	369.25
591.49	341.25
591.7	362.25
591.91	369.25
592.119	397.25
592.329	403.25
592.539	394.25
592.748	414.25
592.958	403.25
593.167	424.25
593.377	437.25
593.587	455.25
593.796	454.25
594.006	428.25
594.215	431.25
594.424	458.25
594.634	435.25
594.843	414.25
595.053	393.25
595.262	391.25
595.472	382.25
595.681	398.25
595.89	359.25
596.1	366.25
596.309	365.25
596.518	373.25
596.727	341.25
596.937	350.25
597.146	315.25
597.355	321.25
597.564	335.25
597.774	331.25
597.983	313.25
598.192	316.25
598.401	313.25
598.61	291.25
598.819	323.25
599.028	317.25
599.237	315.25
599.446	321.25
599.655	313.25
599.864	294.25
600.073	287.25
600.282	306.25
600.491	285.25
600.7	301.25
600.909	304.25
601.118	319.25
601.327	289.25
601.536	309.25
601.745	290.25
601.953	295.25
602.162	291.25
602.371	267.25
602.58	279.25
602.789	315.25
602.997	315.25
603.206	300.25
603.415	289.25
603.623	284.25
603.832	269.25
604.041	278.25
604.249	293.25
604.458	303.25
604.666	278.25
604.875	294.25
605.084	286.25
605.292	289.25
605.501	281.25
605.709	292.25
605.918	279.25
606.126	269.25
606.334	285.25
606.543	284.25
606.751	277.25
606.96	289.25
607.168	288.25
607.376	286.25
607.585	264.25
607.793	264.25
608.001	264.25
608.21	278.25
608.418	271.25
608.626	267.25
608.834	265.25
609.043	276.25
609.251	268.25
609.459	248.25
609.667	270.25
609.875	286.25
610.083	280.25
610.291	296.25
610.499	266.25
610.707	265.25
610.916	278.25
611.124	271.25
611.332	260.25
611.54	265.25
611.748	276.25
611.955	268.25
612.163	260.25
612.371	264.25
612.579	263.25
612.787	249.25
612.995	252.25
613.203	263.25
613.411	255.25
613.618	265.25
613.826	247.25
614.034	260.25
614.242	270.25
614.449	266.25
614.657	258.25
614.865	243.25
615.072	271.25
615.28	269.25
615.488	271.25
615.695	265.25
615.903	244.25
616.111	255.25
616.318	267.25
616.526	265.25
616.733	243.25
616.941	252.25
617.148	280.25
617.356	264.25
617.563	268.25
617.771	263.25
617.978	265.25
618.185	269.25
618.393	271.25
618.6	248.25
618.807	261.25
619.015	237.25
619.222	247.25
619.429	237.25
619.637	226.25
619.844	237.25
620.051	264.25
620.258	247.25
620.466	262.25
620.673	223.25
620.88	230.25
621.087	241.25
621.294	244.25
621.501	241.25
621.708	243.25
621.915	233.25
622.122	244.25
622.329	254.25
622.536	258.25
622.743	245.25
622.95	241.25
623.157	237.25
623.364	230.25
623.571	238.25
623.778	245.25
623.985	232.25
624.192	211.25
624.399	226.25
624.606	227.25
624.812	233.25
625.019	240.25
625.226	224.25
625.433	248.25
625.639	217.25
625.846	250.25
626.053	235.25
626.259	222.25
626.466	208.25
626.673	220.25
626.879	224.25
627.086	228.25
627.293	238.25
627.499	227.25
627.706	261.25
627.912	214.25
628.119	211.25
628.325	217.25
628.532	207.25
628.738	241.25
628.945	215.25
629.151	205.25
629.357	218.25
629.564	222.25
629.77	204.25
629.976	212.25
630.183	216.25
630.389	216.25
630.595	209.25
630.802	202.25
631.008	204.25
631.214	197.25
631.42	209.25
631.627	212.25
631.833	195.25
632.039	183.25
632.245	195.25
632.451	226.25
632.657	205.25
632.863	221.25
633.069	211.25
633.275	200.25
633.481	186.25
633.688	197.25
633.893	205.25
634.099	195.25
634.305	187.25
634.511	203.25
634.717	209.25
634.923	193.25
635.129	200.25
635.335	199.25
635.541	209.25
635.747	205.25
635.952	197.25
636.158	197.25
636.364	200.25
636.57	203.25
636.775	198.25
636.981	207.25
637.187	203.25
637.392	192.25
637.598	204.25
637.804	214.25
638.009	213.25
638.215	201.25
638.421	194.25
638.626	187.25
638.832	182.25
639.037	206.25
639.243	178.25
639.448	185.25
639.654	189.25
639.859	189.25
640.065	197.25
640.27	184.25
640.475	177.25
640.681	191.25
640.886	187.25
641.091	190.25
641.297	185.25
641.502	187.25
641.707	193.25
641.913	190.25
642.118	189.25
642.323	199.25
642.528	187.25
642.733	178.25
642.939	174.25
643.144	189.25
643.349	167.25
643.554	189.25
643.759	195.25
643.964	173.25
644.169	170.25
644.374	178.25
644.579	185.25
644.784	172.25
644.989	181.25
645.194	173.25
645.399	192.25
645.604	193.25
645.809	178.25
646.014	182.25
646.219	185.25
646.423	187.25
646.628	172.25
646.833	183.25
647.038	195.25
647.243	195.25
647.447	188.25
647.652	191.25
647.857	188.25
648.062	195.25
648.266	189.25
648.471	187.25
648.676	191.25
648.88	185.25
649.085	180.25
649.289	175.25
649.494	175.25
649.698	172.25
649.903	188.25
650.107	175.25
650.312	155.25
650.516	169.25
650.721	167.25
650.925	174.25
651.13	180.25
651.334	165.25
651.539	160.25
651.743	165.25
651.947	150.25
652.152	157.25
652.356	154.25
652.56	165.25
652.764	164.25
652.969	153.25
653.173	161.25
653.377	169.25
653.581	157.25
653.785	150.25
653.99	154.25
654.194	146.25
654.398	151.25
654.602	141.25
654.806	140.25
655.01	140.25
655.214	132.25
655.418	127.25
655.622	135.25
655.826	147.25
656.03	129.25
656.234	161.25
656.438	136.25
656.642	148.25
656.846	148.25
657.049	127.25
657.253	131.25
657.457	127.25
657.661	119.25
657.865	123.25
658.068	123.25
658.272	118.25
658.476	125.25
658.68	115.25
658.883	128.25
659.087	102.25
659.291	102.25
659.494	109.25
659.698	94.25
659.901	108.25
660.105	91.25
660.309	116.25
660.512	85.25
660.716	105.25
660.919	101.25
661.123	102.25
661.326	96.25
661.53	88.25
661.733	94.25
661.936	93.25
662.14	94.25
662.343	83.25
662.546	76.25
662.75	86.25
662.953	91.25
663.156	82.25
663.36	86.25
663.563	86.25
663.766	90.25
663.969	90.25
664.173	92.25
664.376	100.25
664.579	82.25
664.782	96.25
664.985	92.25
665.188	94.25
665.391	72.25
665.594	86.25
665.797	85.25
666	77.25
666.203	81.25
666.406	73.25
666.609	97.25
666.812	72.25
667.015	87.25
667.218	91.25
667.421	85.25
667.624	81.25
667.827	86.25
668.03	79.25
668.232	65.25
668.435	82.25
668.638	81.25
668.841	81.25
669.043	74.25
669.246	91.25
669.449	83.25
669.651	85.25
669.854	75.25
670.057	89.25
670.259	70.25
670.462	74.25
670.665	75.25
670.867	80.25
671.07	84.25
671.272	79.25
671.475	70.25
671.677	75.25
671.88	91.25
672.082	83.25
672.284	83.25
672.487	86.25
672.689	91.25
672.892	83.25
