Data from NiCl2@0.25M.TitratingCurve.Agarose3%dH2O.NegLispCup.LampEnergy10.LIBS07252019_HRD10591_18-23-38-573.txt Node
Date: Thu Jul 25 18:23:38 EDT 2019
User: cochatt
Spectrometer: HR+D1059
Trigger mode: 1
Integration Time (sec): 1.000000E-1
Scans to average: 1
Electric dark correction enabled: true
Nonlinearity correction enabled: false
Boxcar width: 0
XAxis mode: Wavelengths
Number of Pixels in Spectrum: 2048
>>>>>Begin Spectral Data<<<<<
223.165	-19.94
223.4	-19.94
223.635	-19.94
223.869	-24.94
224.104	2.06
224.338	-24.94
224.573	-3.94
224.808	-26.94
225.042	-6.94
225.277	-10.94
225.511	1.06
225.746	4.06
225.98	7.06
226.215	9.06
226.449	12.06
226.683	36.06
226.918	19.06
227.152	28.06
227.387	32.06
227.621	41.06
227.856	38.06
228.09	42.06
228.324	48.06
228.559	51.06
228.793	76.06
229.027	103.06
229.262	109.06
229.496	109.06
229.73	110.06
229.964	136.06
230.199	116.06
230.433	119.06
230.667	140.06
230.901	124.06
231.136	128.06
231.37	118.06
231.604	139.06
231.838	122.06
232.072	138.06
232.306	132.06
232.541	145.06
232.775	126.06
233.009	127.06
233.243	140.06
233.477	128.06
233.711	133.06
233.945	132.06
234.179	141.06
234.413	142.06
234.647	141.06
234.881	146.06
235.115	136.06
235.349	129.06
235.583	132.06
235.817	135.06
236.051	134.06
236.285	138.06
236.519	139.06
236.753	140.06
236.987	141.06
237.221	136.06
237.455	142.06
237.689	154.06
237.922	150.06
238.156	141.06
238.39	155.06
238.624	152.06
238.858	163.06
239.091	152.06
239.325	166.06
239.559	155.06
239.793	162.06
240.027	168.06
240.26	168.06
240.494	150.06
240.728	188.06
240.961	156.06
241.195	161.06
241.429	183.06
241.662	169.06
241.896	166.06
242.13	180.06
242.363	174.06
242.597	169.06
242.83	183.06
243.064	173.06
243.298	159.06
243.531	186.06
243.765	189.06
243.998	192.06
244.232	196.06
244.465	200.06
244.699	185.06
244.932	188.06
245.166	196.06
245.399	194.06
245.633	206.06
245.866	190.06
246.099	193.06
246.333	182.06
246.566	201.06
246.8	203.06
247.033	201.06
247.266	207.06
247.5	208.06
247.733	185.06
247.966	202.06
248.2	193.06
248.433	213.06
248.666	201.06
248.899	205.06
249.133	226.06
249.366	200.06
249.599	204.06
249.832	217.06
250.066	229.06
250.299	213.06
250.532	208.06
250.765	220.06
250.998	228.06
251.231	221.06
251.465	219.06
251.698	215.06
251.931	227.06
252.164	227.06
252.397	237.06
252.63	227.06
252.863	234.06
253.096	252.06
253.329	250.06
253.562	251.06
253.795	246.06
254.028	248.06
254.261	239.06
254.494	236.06
254.727	245.06
254.96	240.06
255.193	242.06
255.426	223.06
255.659	233.06
255.892	253.06
256.124	248.06
256.357	259.06
256.59	254.06
256.823	264.06
257.056	252.06
257.289	261.06
257.521	260.06
257.754	266.06
257.987	267.06
258.22	277.06
258.452	269.06
258.685	262.06
258.918	269.06
259.151	271.06
259.383	272.06
259.616	256.06
259.849	269.06
260.081	270.06
260.314	264.06
260.547	288.06
260.779	280.06
261.012	264.06
261.244	277.06
261.477	274.06
261.71	280.06
261.942	277.06
262.175	274.06
262.407	285.06
262.64	294.06
262.872	286.06
263.105	282.06
263.337	289.06
263.57	292.06
263.802	315.06
264.035	301.06
264.267	300.06
264.499	314.06
264.732	293.06
264.964	290.06
265.197	295.06
265.429	284.06
265.661	293.06
265.894	304.06
266.126	316.06
266.358	324.06
266.591	306.06
266.823	294.06
267.055	312.06
267.287	326.06
267.52	313.06
267.752	333.06
267.984	312.06
268.216	331.06
268.448	324.06
268.681	307.06
268.913	320.06
269.145	327.06
269.377	337.06
269.609	320.06
269.841	326.06
270.073	326.06
270.306	311.06
270.538	332.06
270.77	340.06
271.002	354.06
271.234	331.06
271.466	326.06
271.698	325.06
271.93	324.06
272.162	356.06
272.394	355.06
272.626	342.06
272.858	322.06
273.09	362.06
273.322	348.06
273.553	351.06
273.785	342.06
274.017	354.06
274.249	352.06
274.481	345.06
274.713	352.06
274.945	354.06
275.176	364.06
275.408	338.06
275.64	349.06
275.872	361.06
276.104	371.06
276.335	362.06
276.567	376.06
276.799	372.06
277.031	368.06
277.262	367.06
277.494	378.06
277.726	343.06
277.957	378.06
278.189	371.06
278.421	368.06
278.652	370.06
278.884	380.06
279.115	370.06
279.347	393.06
279.579	382.06
279.81	375.06
280.042	373.06
280.273	385.06
280.505	387.06
280.736	379.06
280.968	398.06
281.199	413.06
281.431	391.06
281.662	392.06
281.894	398.06
282.125	404.06
282.356	404.06
282.588	386.06
282.819	390.06
283.051	403.06
283.282	426.06
283.513	398.06
283.745	408.06
283.976	392.06
284.207	409.06
284.439	404.06
284.67	396.06
284.901	416.06
285.132	417.06
285.364	416.06
285.595	420.06
285.826	427.06
286.057	410.06
286.288	428.06
286.52	453.06
286.751	432.06
286.982	437.06
287.213	428.06
287.444	426.06
287.675	436.06
287.906	427.06
288.138	425.06
288.369	438.06
288.6	447.06
288.831	436.06
289.062	443.06
289.293	464.06
289.524	439.06
289.755	445.06
289.986	441.06
290.217	459.06
290.448	440.06
290.679	447.06
290.91	445.06
291.141	449.06
291.371	438.06
291.602	466.06
291.833	448.06
292.064	439.06
292.295	446.06
292.526	453.06
292.757	426.06
292.987	440.06
293.218	461.06
293.449	453.06
293.68	446.06
293.91	446.06
294.141	460.06
294.372	456.06
294.603	464.06
294.833	439.06
295.064	426.06
295.295	450.06
295.525	446.06
295.756	462.06
295.987	459.06
296.217	482.06
296.448	482.06
296.679	486.06
296.909	483.06
297.14	479.06
297.37	483.06
297.601	481.06
297.831	498.06
298.062	475.06
298.292	506.06
298.523	477.06
298.753	504.06
298.984	501.06
299.214	481.06
299.445	506.06
299.675	492.06
299.905	490.06
300.136	500.06
300.366	489.06
300.597	496.06
300.827	525.06
301.057	501.06
301.288	531.06
301.518	498.06
301.748	520.06
301.979	528.06
302.209	554.06
302.439	515.06
302.669	526.06
302.9	516.06
303.13	506.06
303.36	526.06
303.59	519.06
303.82	514.06
304.051	506.06
304.281	503.06
304.511	518.06
304.741	496.06
304.971	516.06
305.201	526.06
305.431	509.06
305.661	505.06
305.891	510.06
306.121	529.06
306.352	520.06
306.582	520.06
306.812	493.06
307.042	506.06
307.272	500.06
307.502	507.06
307.731	486.06
307.961	542.06
308.191	516.06
308.421	522.06
308.651	516.06
308.881	487.06
309.111	500.06
309.341	498.06
309.571	499.06
309.8	511.06
310.03	497.06
310.26	516.06
310.49	514.06
310.72	504.06
310.949	510.06
311.179	506.06
311.409	518.06
311.639	514.06
311.868	506.06
312.098	506.06
312.328	543.06
312.557	550.06
312.787	546.06
313.017	531.06
313.246	540.06
313.476	521.06
313.706	538.06
313.935	544.06
314.165	580.06
314.394	545.06
314.624	542.06
314.853	545.06
315.083	552.06
315.312	544.06
315.542	547.06
315.771	552.06
316.001	561.06
316.23	528.06
316.46	535.06
316.689	537.06
316.919	561.06
317.148	552.06
317.377	546.06
317.607	530.06
317.836	526.06
318.065	534.06
318.295	530.06
318.524	532.06
318.753	530.06
318.983	531.06
319.212	536.06
319.441	532.06
319.67	535.06
319.9	539.06
320.129	539.06
320.358	545.06
320.587	546.06
320.816	525.06
321.046	538.06
321.275	543.06
321.504	538.06
321.733	525.06
321.962	548.06
322.191	528.06
322.42	561.06
322.649	571.06
322.878	541.06
323.108	538.06
323.337	564.06
323.566	553.06
323.795	552.06
324.024	548.06
324.253	557.06
324.482	586.06
324.71	563.06
324.939	556.06
325.168	569.06
325.397	562.06
325.626	584.06
325.855	597.06
326.084	590.06
326.313	595.06
326.542	601.06
326.77	597.06
326.999	594.06
327.228	593.06
327.457	595.06
327.686	598.06
327.914	579.06
328.143	585.06
328.372	606.06
328.6	587.06
328.829	581.06
329.058	600.06
329.287	585.06
329.515	579.06
329.744	588.06
329.972	598.06
330.201	605.06
330.43	597.06
330.658	605.06
330.887	615.06
331.115	616.06
331.344	627.06
331.572	630.06
331.801	637.06
332.03	648.06
332.258	668.06
332.486	682.06
332.715	707.06
332.943	736.06
333.172	744.06
333.4	781.06
333.629	810.06
333.857	806.06
334.085	791.06
334.314	776.06
334.542	765.06
334.771	731.06
334.999	734.06
335.227	737.06
335.455	752.06
335.684	710.06
335.912	711.06
336.14	721.06
336.369	694.06
336.597	712.06
336.825	713.06
337.053	699.06
337.281	681.06
337.51	689.06
337.738	666.06
337.966	671.06
338.194	653.06
338.422	675.06
338.65	651.06
338.878	655.06
339.106	649.06
339.334	654.06
339.562	650.06
339.79	641.06
340.018	622.06
340.246	622.06
340.474	618.06
340.702	601.06
340.93	643.06
341.158	629.06
341.386	603.06
341.614	610.06
341.842	632.06
342.07	616.06
342.298	607.06
342.526	617.06
342.754	612.06
342.981	609.06
343.209	630.06
343.437	662.06
343.665	699.06
343.893	752.06
344.12	772.06
344.348	746.06
344.576	706.06
344.804	683.06
345.031	652.06
345.259	652.06
345.487	612.06
345.714	633.06
345.942	603.06
346.17	621.06
346.397	624.06
346.625	598.06
346.853	585.06
347.08	601.06
347.308	608.06
347.535	604.06
347.763	577.06
347.99	597.06
348.218	598.06
348.445	596.06
348.673	587.06
348.9	576.06
349.128	597.06
349.355	564.06
349.583	605.06
349.81	595.06
350.037	593.06
350.265	579.06
350.492	587.06
350.72	583.06
350.947	568.06
351.174	590.06
351.402	563.06
351.629	600.06
351.856	557.06
352.083	565.06
352.311	564.06
352.538	599.06
352.765	574.06
352.992	577.06
353.22	556.06
353.447	582.06
353.674	560.06
353.901	587.06
354.128	587.06
354.355	553.06
354.583	594.06
354.81	579.06
355.037	564.06
355.264	589.06
355.491	568.06
355.718	564.06
355.945	593.06
356.172	597.06
356.399	575.06
356.626	590.06
356.853	578.06
357.08	593.06
357.307	599.06
357.534	606.06
357.761	592.06
357.988	586.06
358.215	558.06
358.441	574.06
358.668	564.06
358.895	584.06
359.122	587.06
359.349	601.06
359.576	569.06
359.802	555.06
360.029	567.06
360.256	559.06
360.483	589.06
360.709	590.06
360.936	567.06
361.163	579.06
361.39	569.06
361.616	583.06
361.843	588.06
362.07	583.06
362.296	594.06
362.523	594.06
362.749	581.06
362.976	596.06
363.203	582.06
363.429	563.06
363.656	589.06
363.882	589.06
364.109	587.06
364.335	600.06
364.562	560.06
364.788	569.06
365.015	582.06
365.241	584.06
365.468	565.06
365.694	578.06
365.92	553.06
366.147	569.06
366.373	563.06
366.599	583.06
366.826	600.06
367.052	573.06
367.278	560.06
367.505	596.06
367.731	593.06
367.957	570.06
368.184	586.06
368.41	578.06
368.636	588.06
368.862	597.06
369.089	607.06
369.315	597.06
369.541	602.06
369.767	600.06
369.993	592.06
370.219	580.06
370.445	628.06
370.672	624.06
370.898	640.06
371.124	603.06
371.35	670.06
371.576	639.06
371.802	640.06
372.028	642.06
372.254	627.06
372.48	624.06
372.706	639.06
372.932	646.06
373.158	640.06
373.384	633.06
373.61	641.06
373.835	626.06
374.061	646.06
374.287	655.06
374.513	665.06
374.739	681.06
374.965	680.06
375.191	695.06
375.416	692.06
375.642	664.06
375.868	680.06
376.094	665.06
376.319	652.06
376.545	644.06
376.771	621.06
376.997	616.06
377.222	634.06
377.448	638.06
377.674	630.06
377.899	633.06
378.125	633.06
378.35	609.06
378.576	625.06
378.802	607.06
379.027	642.06
379.253	636.06
379.478	606.06
379.704	622.06
379.929	628.06
380.155	602.06
380.38	630.06
380.606	615.06
380.831	608.06
381.057	621.06
381.282	615.06
381.507	639.06
381.733	618.06
381.958	640.06
382.184	660.06
382.409	649.06
382.634	649.06
382.86	649.06
383.085	668.06
383.31	666.06
383.535	679.06
383.761	724.06
383.986	690.06
384.211	718.06
384.436	749.06
384.662	732.06
384.887	729.06
385.112	760.06
385.337	776.06
385.562	742.06
385.787	743.06
386.013	753.06
386.238	753.06
386.463	745.06
386.688	747.06
386.913	768.06
387.138	727.06
387.363	757.06
387.588	706.06
387.813	746.06
388.038	750.06
388.263	746.06
388.488	747.06
388.713	714.06
388.938	734.06
389.163	744.06
389.387	728.06
389.612	727.06
389.837	721.06
390.062	725.06
390.287	726.06
390.512	711.06
390.736	729.06
390.961	770.06
391.186	793.06
391.411	781.06
391.636	824.06
391.86	861.06
392.085	855.06
392.31	854.06
392.534	852.06
392.759	805.06
392.984	813.06
393.208	795.06
393.433	779.06
393.658	786.06
393.882	766.06
394.107	810.06
394.331	793.06
394.556	781.06
394.78	804.06
395.005	796.06
395.229	796.06
395.454	833.06
395.678	849.06
395.903	857.06
396.127	846.06
396.352	810.06
396.576	784.06
396.801	787.06
397.025	808.06
397.249	834.06
397.474	832.06
397.698	835.06
397.922	850.06
398.147	854.06
398.371	888.06
398.595	893.06
398.82	921.06
399.044	975.06
399.268	1108.06
399.492	1264.06
399.717	1437.06
399.941	1401.06
400.165	1249.06
400.389	1114.06
400.613	1049.06
400.837	1012.06
401.062	984.06
401.286	983.06
401.51	961.06
401.734	961.06
401.958	953.06
402.182	944.06
402.406	949.06
402.63	989.06
402.854	1019.06
403.078	1010.06
403.302	1050.06
403.526	1088.06
403.75	1066.06
403.974	1077.06
404.198	1078.06
404.422	1103.06
404.645	1084.06
404.869	1082.06
405.093	1084.06
405.317	1048.06
405.541	1046.06
405.765	1032.06
405.988	1029.06
406.212	998.06
406.436	1061.06
406.66	1029.06
406.883	1067.06
407.107	1132.06
407.331	1202.06
407.555	1221.06
407.778	1169.06
408.002	1189.06
408.226	1167.06
408.449	1132.06
408.673	1066.06
408.896	1074.06
409.12	1048.06
409.344	1069.06
409.567	1062.06
409.791	1084.06
410.014	1082.06
410.238	1012.06
410.461	1042.06
410.685	1047.06
410.908	1009.06
411.132	1003.06
411.355	989.06
411.578	967.06
411.802	977.06
412.025	970.06
412.249	982.06
412.472	977.06
412.695	953.06
412.919	945.06
413.142	955.06
413.365	971.06
413.589	945.06
413.812	931.06
414.035	921.06
414.258	937.06
414.482	944.06
414.705	964.06
414.928	946.06
415.151	938.06
415.374	921.06
415.597	908.06
415.821	922.06
416.044	920.06
416.267	898.06
416.49	919.06
416.713	944.06
416.936	924.06
417.159	907.06
417.382	928.06
417.605	914.06
417.828	922.06
418.051	982.06
418.274	949.06
418.497	941.06
418.72	983.06
418.943	957.06
419.166	1017.06
419.389	1081.06
419.611	1024.06
419.834	991.06
420.057	976.06
420.28	925.06
420.503	934.06
420.726	925.06
420.948	931.06
421.171	918.06
421.394	950.06
421.617	896.06
421.839	916.06
422.062	929.06
422.285	934.06
422.507	958.06
422.73	950.06
422.953	969.06
423.175	980.06
423.398	990.06
423.621	970.06
423.843	981.06
424.066	1011.06
424.288	952.06
424.511	983.06
424.733	968.06
424.956	947.06
425.178	951.06
425.401	902.06
425.623	883.06
425.846	885.06
426.068	898.06
426.291	897.06
426.513	876.06
426.735	869.06
426.958	868.06
427.18	886.06
427.402	836.06
427.625	846.06
427.847	830.06
428.069	805.06
428.292	842.06
428.514	829.06
428.736	820.06
428.958	826.06
429.181	819.06
429.403	807.06
429.625	808.06
429.847	811.06
430.069	785.06
430.292	817.06
430.514	789.06
430.736	804.06
430.958	840.06
431.18	804.06
431.402	818.06
431.624	816.06
431.846	813.06
432.068	805.06
432.29	839.06
432.512	793.06
432.734	829.06
432.956	807.06
433.178	841.06
433.4	829.06
433.622	859.06
433.844	861.06
434.066	839.06
434.287	865.06
434.509	877.06
434.731	889.06
434.953	929.06
435.175	938.06
435.397	887.06
435.618	852.06
435.84	850.06
436.062	853.06
436.284	805.06
436.505	827.06
436.727	836.06
436.949	832.06
437.17	805.06
437.392	822.06
437.614	809.06
437.835	812.06
438.057	796.06
438.278	760.06
438.5	775.06
438.721	781.06
438.943	791.06
439.165	786.06
439.386	809.06
439.608	820.06
439.829	790.06
440.05	802.06
440.272	801.06
440.493	815.06
440.715	843.06
440.936	844.06
441.158	869.06
441.379	922.06
441.6	940.06
441.822	930.06
442.043	938.06
442.264	907.06
442.486	904.06
442.707	881.06
442.928	910.06
443.149	895.06
443.371	904.06
443.592	895.06
443.813	889.06
444.034	929.06
444.255	972.06
444.476	998.06
444.698	1069.06
444.919	1112.06
445.14	1164.06
445.361	1036.06
445.582	959.06
445.803	871.06
446.024	871.06
446.245	864.06
446.466	850.06
446.687	812.06
446.908	828.06
447.129	782.06
447.35	790.06
447.571	806.06
447.792	755.06
448.013	788.06
448.234	761.06
448.455	765.06
448.675	744.06
448.896	742.06
449.117	727.06
449.338	740.06
449.559	741.06
449.779	741.06
450	738.06
450.221	758.06
450.442	760.06
450.662	756.06
450.883	776.06
451.104	773.06
451.324	784.06
451.545	778.06
451.766	777.06
451.986	760.06
452.207	741.06
452.428	754.06
452.648	749.06
452.869	737.06
453.089	746.06
453.31	725.06
453.53	709.06
453.751	732.06
453.971	749.06
454.192	745.06
454.412	691.06
454.633	731.06
454.853	725.06
455.073	718.06
455.294	702.06
455.514	701.06
455.734	726.06
455.955	701.06
456.175	724.06
456.395	727.06
456.616	692.06
456.836	716.06
457.056	713.06
457.276	707.06
457.497	685.06
457.717	700.06
457.937	719.06
458.157	708.06
458.377	713.06
458.598	742.06
458.818	768.06
459.038	784.06
459.258	801.06
459.478	827.06
459.698	851.06
459.918	865.06
460.138	887.06
460.358	987.06
460.578	968.06
460.798	968.06
461.018	980.06
461.238	958.06
461.458	941.06
461.678	947.06
461.898	978.06
462.118	987.06
462.338	1022.06
462.558	1058.06
462.777	1095.06
462.997	1174.06
463.217	1274.06
463.437	1289.06
463.657	1216.06
463.876	1131.06
464.096	1103.06
464.316	1138.06
464.536	1152.06
464.755	1090.06
464.975	1064.06
465.195	992.06
465.414	953.06
465.634	888.06
465.854	874.06
466.073	838.06
466.293	832.06
466.512	824.06
466.732	788.06
466.951	775.06
467.171	777.06
467.391	806.06
467.61	786.06
467.829	786.06
468.049	796.06
468.268	758.06
468.488	753.06
468.707	743.06
468.927	770.06
469.146	759.06
469.365	769.06
469.585	753.06
469.804	779.06
470.023	826.06
470.243	813.06
470.462	822.06
470.681	813.06
470.901	789.06
471.12	796.06
471.339	803.06
471.558	771.06
471.777	797.06
471.997	759.06
472.216	731.06
472.435	770.06
472.654	750.06
472.873	742.06
473.092	726.06
473.311	731.06
473.53	725.06
473.749	745.06
473.968	736.06
474.187	712.06
474.406	723.06
474.625	747.06
474.844	736.06
475.063	749.06
475.282	731.06
475.501	732.06
475.72	727.06
475.939	753.06
476.158	739.06
476.377	790.06
476.596	749.06
476.814	761.06
477.033	779.06
477.252	797.06
477.471	810.06
477.69	823.06
477.908	834.06
478.127	869.06
478.346	888.06
478.564	880.06
478.783	905.06
479.002	947.06
479.22	952.06
479.439	913.06
479.658	904.06
479.876	897.06
480.095	927.06
480.313	961.06
480.532	984.06
480.751	1006.06
480.969	935.06
481.188	930.06
481.406	901.06
481.624	883.06
481.843	856.06
482.061	838.06
482.28	820.06
482.498	827.06
482.717	841.06
482.935	852.06
483.153	835.06
483.372	847.06
483.59	841.06
483.808	831.06
484.027	853.06
484.245	850.06
484.463	862.06
484.681	886.06
484.9	852.06
485.118	887.06
485.336	880.06
485.554	857.06
485.772	876.06
485.99	897.06
486.209	880.06
486.427	888.06
486.645	870.06
486.863	903.06
487.081	866.06
487.299	877.06
487.517	876.06
487.735	896.06
487.953	904.06
488.171	917.06
488.389	858.06
488.607	863.06
488.825	856.06
489.043	855.06
489.261	867.06
489.479	877.06
489.696	872.06
489.914	898.06
490.132	886.06
490.35	899.06
490.568	883.06
490.786	870.06
491.003	899.06
491.221	931.06
491.439	903.06
491.657	915.06
491.874	876.06
492.092	875.06
492.31	921.06
492.527	912.06
492.745	918.06
492.963	914.06
493.18	913.06
493.398	909.06
493.615	900.06
493.833	922.06
494.05	934.06
494.268	940.06
494.485	924.06
494.703	981.06
494.92	924.06
495.138	958.06
495.355	933.06
495.573	976.06
495.79	957.06
496.008	960.06
496.225	964.06
496.442	964.06
496.66	991.06
496.877	1024.06
497.094	1017.06
497.312	1054.06
497.529	1062.06
497.746	1067.06
497.963	1090.06
498.181	1146.06
498.398	1185.06
498.615	1290.06
498.832	1342.06
499.049	1496.06
499.267	1564.06
499.484	1696.06
499.701	1875.06
499.918	2075.06
500.135	2414.06
500.352	2742.06
500.569	2843.06
500.786	2816.06
501.003	2560.06
501.22	2343.06
501.437	2051.06
501.654	1806.06
501.871	1654.06
502.088	1531.06
502.305	1414.06
502.522	1346.06
502.739	1298.06
502.956	1251.06
503.172	1204.06
503.389	1136.06
503.606	1094.06
503.823	1058.06
504.04	1082.06
504.256	1108.06
504.473	1141.06
504.69	1122.06
504.907	1101.06
505.123	1035.06
505.34	986.06
505.557	965.06
505.773	940.06
505.99	886.06
506.207	904.06
506.423	873.06
506.64	857.06
506.856	846.06
507.073	845.06
507.289	862.06
507.506	839.06
507.722	832.06
507.939	807.06
508.155	806.06
508.372	791.06
508.588	825.06
508.805	794.06
509.021	770.06
509.238	782.06
509.454	788.06
509.67	778.06
509.887	768.06
510.103	755.06
510.319	761.06
510.536	810.06
510.752	772.06
510.968	748.06
511.184	738.06
511.401	758.06
511.617	755.06
511.833	769.06
512.049	768.06
512.265	765.06
512.481	755.06
512.698	755.06
512.914	778.06
513.13	766.06
513.346	760.06
513.562	753.06
513.778	754.06
513.994	781.06
514.21	772.06
514.426	787.06
514.642	732.06
514.858	755.06
515.074	804.06
515.29	800.06
515.506	776.06
515.721	806.06
515.937	820.06
516.153	826.06
516.369	832.06
516.585	880.06
516.801	884.06
517.016	950.06
517.232	976.06
517.448	1012.06
517.664	1064.06
517.879	1055.06
518.095	1059.06
518.311	1049.06
518.527	1016.06
518.742	959.06
518.958	902.06
519.173	875.06
519.389	873.06
519.605	833.06
519.82	808.06
520.036	801.06
520.251	769.06
520.467	771.06
520.682	781.06
520.898	756.06
521.113	747.06
521.329	749.06
521.544	753.06
521.76	738.06
521.975	731.06
522.19	732.06
522.406	717.06
522.621	700.06
522.836	711.06
523.052	732.06
523.267	715.06
523.482	701.06
523.698	713.06
523.913	698.06
524.128	700.06
524.343	709.06
524.559	708.06
524.774	719.06
524.989	709.06
525.204	728.06
525.419	712.06
525.634	710.06
525.849	710.06
526.064	701.06
526.28	692.06
526.495	699.06
526.71	718.06
526.925	690.06
527.14	661.06
527.355	668.06
527.57	668.06
527.785	680.06
527.999	683.06
528.214	681.06
528.429	665.06
528.644	683.06
528.859	716.06
529.074	680.06
529.289	679.06
529.503	683.06
529.718	709.06
529.933	694.06
530.148	682.06
530.363	666.06
530.577	670.06
530.792	664.06
531.007	668.06
531.221	675.06
531.436	667.06
531.651	661.06
531.865	705.06
532.08	685.06
532.295	677.06
532.509	677.06
532.724	680.06
532.938	685.06
533.153	671.06
533.367	678.06
533.582	692.06
533.796	686.06
534.011	688.06
534.225	675.06
534.44	650.06
534.654	638.06
534.868	667.06
535.083	666.06
535.297	657.06
535.511	650.06
535.726	680.06
535.94	630.06
536.154	660.06
536.369	651.06
536.583	656.06
536.797	641.06
537.011	637.06
537.225	628.06
537.44	634.06
537.654	635.06
537.868	623.06
538.082	620.06
538.296	597.06
538.51	618.06
538.724	637.06
538.938	628.06
539.153	637.06
539.367	630.06
539.581	620.06
539.795	640.06
540.009	609.06
540.222	619.06
540.436	596.06
540.65	606.06
540.864	613.06
541.078	605.06
541.292	632.06
541.506	614.06
541.72	591.06
541.934	614.06
542.147	635.06
542.361	589.06
542.575	633.06
542.789	604.06
543.002	602.06
543.216	597.06
543.43	607.06
543.644	611.06
543.857	616.06
544.071	626.06
544.285	603.06
544.498	586.06
544.712	611.06
544.925	607.06
545.139	626.06
545.352	601.06
545.566	626.06
545.779	629.06
545.993	644.06
546.206	625.06
546.42	622.06
546.633	622.06
546.847	627.06
547.06	608.06
547.274	624.06
547.487	644.06
547.7	635.06
547.914	624.06
548.127	624.06
548.34	626.06
548.554	653.06
548.767	624.06
548.98	630.06
549.193	622.06
549.407	632.06
549.62	638.06
549.833	665.06
550.046	654.06
550.259	665.06
550.473	638.06
550.686	630.06
550.899	591.06
551.112	614.06
551.325	605.06
551.538	594.06
551.751	608.06
551.964	613.06
552.177	618.06
552.39	635.06
552.603	660.06
552.816	675.06
553.029	692.06
553.242	681.06
553.455	682.06
553.667	706.06
553.88	675.06
554.093	654.06
554.306	654.06
554.519	625.06
554.732	644.06
554.944	632.06
555.157	597.06
555.37	581.06
555.583	589.06
555.795	584.06
556.008	571.06
556.221	564.06
556.433	552.06
556.646	559.06
556.859	539.06
557.071	539.06
557.284	534.06
557.496	542.06
557.709	562.06
557.921	537.06
558.134	560.06
558.346	541.06
558.559	525.06
558.771	530.06
558.984	521.06
559.196	536.06
559.409	531.06
559.621	529.06
559.833	530.06
560.046	532.06
560.258	512.06
560.47	518.06
560.683	542.06
560.895	503.06
561.107	498.06
561.32	520.06
561.532	520.06
561.744	516.06
561.956	515.06
562.168	507.06
562.381	536.06
562.593	522.06
562.805	518.06
563.017	494.06
563.229	516.06
563.441	528.06
563.653	534.06
563.865	541.06
564.077	524.06
564.289	542.06
564.501	540.06
564.713	560.06
564.925	556.06
565.137	574.06
565.349	586.06
565.561	596.06
565.773	580.06
565.985	646.06
566.197	664.06
566.408	733.06
566.62	771.06
566.832	825.06
567.044	861.06
567.255	803.06
567.467	865.06
567.679	893.06
567.891	997.06
568.102	999.06
568.314	974.06
568.526	858.06
568.737	757.06
568.949	702.06
569.161	670.06
569.372	617.06
569.584	604.06
569.795	574.06
570.007	548.06
570.218	530.06
570.43	543.06
570.641	534.06
570.853	540.06
571.064	539.06
571.276	525.06
571.487	538.06
571.698	492.06
571.91	475.06
572.121	500.06
572.333	476.06
572.544	453.06
572.755	440.06
572.966	446.06
573.178	451.06
573.389	436.06
573.6	434.06
573.811	448.06
574.023	428.06
574.234	436.06
574.445	436.06
574.656	446.06
574.867	448.06
575.078	420.06
575.289	430.06
575.501	415.06
575.712	398.06
575.923	407.06
576.134	402.06
576.345	394.06
576.556	402.06
576.767	389.06
576.978	395.06
577.188	393.06
577.399	412.06
577.61	386.06
577.821	378.06
578.032	396.06
578.243	381.06
578.454	388.06
578.665	404.06
578.875	374.06
579.086	366.06
579.297	370.06
579.508	373.06
579.718	360.06
579.929	404.06
580.14	359.06
580.35	381.06
580.561	361.06
580.772	392.06
580.982	363.06
581.193	372.06
581.403	375.06
581.614	375.06
581.825	364.06
582.035	372.06
582.246	361.06
582.456	364.06
582.667	352.06
582.877	359.06
583.087	353.06
583.298	368.06
583.508	348.06
583.719	365.06
583.929	331.06
584.139	361.06
584.35	355.06
584.56	353.06
584.77	326.06
584.981	351.06
585.191	345.06
585.401	331.06
585.611	366.06
585.821	336.06
586.032	344.06
586.242	365.06
586.452	333.06
586.662	339.06
586.872	354.06
587.082	349.06
587.292	341.06
587.502	358.06
587.713	333.06
587.923	348.06
588.133	365.06
588.343	325.06
588.553	352.06
588.762	345.06
588.972	333.06
589.182	327.06
589.392	353.06
589.602	348.06
589.812	329.06
590.022	330.06
590.232	350.06
590.441	344.06
590.651	340.06
590.861	357.06
591.071	347.06
591.281	346.06
591.49	368.06
591.7	368.06
591.91	367.06
592.119	396.06
592.329	384.06
592.539	375.06
592.748	395.06
592.958	404.06
593.167	411.06
593.377	434.06
593.587	428.06
593.796	443.06
594.006	440.06
594.215	443.06
594.424	457.06
594.634	426.06
594.843	418.06
595.053	400.06
595.262	409.06
595.472	384.06
595.681	374.06
595.89	373.06
596.1	351.06
596.309	328.06
596.518	329.06
596.727	321.06
596.937	329.06
597.146	321.06
597.355	328.06
597.564	314.06
597.774	323.06
597.983	312.06
598.192	307.06
598.401	314.06
598.61	318.06
598.819	289.06
599.028	293.06
599.237	282.06
599.446	293.06
599.655	298.06
599.864	295.06
600.073	283.06
600.282	298.06
600.491	306.06
600.7	277.06
600.909	298.06
601.118	296.06
601.327	289.06
601.536	289.06
601.745	305.06
601.953	290.06
602.162	282.06
602.371	287.06
602.58	284.06
602.789	279.06
602.997	275.06
603.206	261.06
603.415	286.06
603.623	286.06
603.832	270.06
604.041	284.06
604.249	265.06
604.458	271.06
604.666	275.06
604.875	284.06
605.084	269.06
605.292	272.06
605.501	276.06
605.709	286.06
605.918	285.06
606.126	280.06
606.334	258.06
606.543	268.06
606.751	291.06
606.96	269.06
607.168	260.06
607.376	291.06
607.585	245.06
607.793	241.06
608.001	270.06
608.21	286.06
608.418	265.06
608.626	275.06
608.834	261.06
609.043	281.06
609.251	265.06
609.459	254.06
609.667	273.06
609.875	237.06
610.083	245.06
610.291	247.06
610.499	251.06
610.707	255.06
610.916	271.06
611.124	257.06
611.332	265.06
611.54	272.06
611.748	246.06
611.955	262.06
612.163	253.06
612.371	265.06
612.579	219.06
612.787	251.06
612.995	246.06
613.203	262.06
613.411	261.06
613.618	248.06
613.826	248.06
614.034	258.06
614.242	251.06
614.449	255.06
614.657	244.06
614.865	252.06
615.072	260.06
615.28	249.06
615.488	234.06
615.695	245.06
615.903	255.06
616.111	240.06
616.318	242.06
616.526	263.06
616.733	261.06
616.941	254.06
617.148	258.06
617.356	232.06
617.563	261.06
617.771	259.06
617.978	269.06
618.185	254.06
618.393	256.06
618.6	260.06
618.807	248.06
619.015	242.06
619.222	247.06
619.429	252.06
619.637	244.06
619.844	256.06
620.051	238.06
620.258	233.06
620.466	234.06
620.673	235.06
620.88	220.06
621.087	207.06
621.294	219.06
621.501	237.06
621.708	255.06
621.915	234.06
622.122	230.06
622.329	231.06
622.536	226.06
622.743	235.06
622.95	240.06
623.157	229.06
623.364	236.06
623.571	234.06
623.778	236.06
623.985	234.06
624.192	232.06
624.399	226.06
624.606	237.06
624.812	225.06
625.019	228.06
625.226	217.06
625.433	222.06
625.639	219.06
625.846	213.06
626.053	210.06
626.259	220.06
626.466	194.06
626.673	216.06
626.879	202.06
627.086	213.06
627.293	224.06
627.499	221.06
627.706	217.06
627.912	218.06
628.119	211.06
628.325	216.06
628.532	218.06
628.738	219.06
628.945	221.06
629.151	225.06
629.357	214.06
629.564	208.06
629.77	216.06
629.976	216.06
630.183	207.06
630.389	204.06
630.595	212.06
630.802	198.06
631.008	214.06
631.214	200.06
631.42	207.06
631.627	207.06
631.833	205.06
632.039	207.06
632.245	196.06
632.451	196.06
632.657	208.06
632.863	188.06
633.069	181.06
633.275	204.06
633.481	192.06
633.688	178.06
633.893	194.06
634.099	203.06
634.305	195.06
634.511	191.06
634.717	212.06
634.923	197.06
635.129	182.06
635.335	198.06
635.541	188.06
635.747	195.06
635.952	195.06
636.158	187.06
636.364	183.06
636.57	193.06
636.775	203.06
636.981	201.06
637.187	202.06
637.392	182.06
637.598	180.06
637.804	190.06
638.009	183.06
638.215	182.06
638.421	179.06
638.626	180.06
638.832	173.06
639.037	181.06
639.243	184.06
639.448	166.06
639.654	189.06
639.859	184.06
640.065	202.06
640.27	192.06
640.475	180.06
640.681	186.06
640.886	190.06
641.091	186.06
641.297	184.06
641.502	172.06
641.707	181.06
641.913	170.06
642.118	177.06
642.323	172.06
642.528	172.06
642.733	176.06
642.939	167.06
643.144	178.06
643.349	184.06
643.554	166.06
643.759	155.06
643.964	176.06
644.169	169.06
644.374	169.06
644.579	186.06
644.784	163.06
644.989	179.06
645.194	177.06
645.399	170.06
645.604	159.06
645.809	184.06
646.014	158.06
646.219	172.06
646.423	163.06
646.628	158.06
646.833	160.06
647.038	160.06
647.243	171.06
647.447	163.06
647.652	171.06
647.857	183.06
648.062	178.06
648.266	168.06
648.471	166.06
648.676	169.06
648.88	178.06
649.085	184.06
649.289	188.06
649.494	190.06
649.698	162.06
649.903	163.06
650.107	168.06
650.312	157.06
650.516	168.06
650.721	184.06
650.925	160.06
651.13	144.06
651.334	158.06
651.539	166.06
651.743	148.06
651.947	143.06
652.152	156.06
652.356	160.06
652.56	157.06
652.764	139.06
652.969	152.06
653.173	149.06
653.377	126.06
653.581	138.06
653.785	135.06
653.99	130.06
654.194	145.06
654.398	134.06
654.602	135.06
654.806	130.06
655.01	126.06
655.214	137.06
655.418	122.06
655.622	129.06
655.826	145.06
656.03	137.06
656.234	129.06
656.438	123.06
656.642	115.06
656.846	135.06
657.049	128.06
657.253	131.06
657.457	126.06
657.661	128.06
657.865	113.06
658.068	121.06
658.272	112.06
658.476	104.06
658.68	112.06
658.883	105.06
659.087	103.06
659.291	99.06
659.494	97.06
659.698	91.06
659.901	98.06
660.105	93.06
660.309	101.06
660.512	92.06
660.716	93.06
660.919	86.06
661.123	104.06
661.326	88.06
661.53	82.06
661.733	92.06
661.936	91.06
662.14	88.06
662.343	100.06
662.546	96.06
662.75	89.06
662.953	85.06
663.156	82.06
663.36	84.06
663.563	94.06
663.766	77.06
663.969	86.06
664.173	76.06
664.376	68.06
664.579	68.06
664.782	84.06
664.985	81.06
665.188	80.06
665.391	75.06
665.594	80.06
665.797	91.06
666	89.06
666.203	72.06
666.406	88.06
666.609	82.06
666.812	75.06
667.015	82.06
667.218	79.06
667.421	84.06
667.624	85.06
667.827	86.06
668.03	82.06
668.232	75.06
668.435	74.06
668.638	74.06
668.841	83.06
669.043	84.06
669.246	71.06
669.449	88.06
669.651	85.06
669.854	78.06
670.057	79.06
670.259	84.06
670.462	77.06
670.665	82.06
670.867	91.06
671.07	94.06
671.272	77.06
671.475	94.06
671.677	80.06
671.88	81.06
672.082	78.06
672.284	82.06
672.487	84.06
672.689	77.06
672.892	85.06
