Data from NiCl2@0.0625M.TitratingCurve.Agarose3%dH2O.NegLispCup.LampEnergy10.LIBS07252019_HRD10591_18-33-59-576.txt Node
Date: Thu Jul 25 18:33:59 EDT 2019
User: cochatt
Spectrometer: HR+D1059
Trigger mode: 1
Integration Time (sec): 1.000000E-1
Scans to average: 1
Electric dark correction enabled: true
Nonlinearity correction enabled: false
Boxcar width: 0
XAxis mode: Wavelengths
Number of Pixels in Spectrum: 2048
>>>>>Begin Spectral Data<<<<<
223.165	-11.88
223.4	-11.88
223.635	-11.88
223.869	-19.88
224.104	-13.88
224.338	-22.88
224.573	-4.88
224.808	0.12
225.042	1.12
225.277	-7.88
225.511	-5.88
225.746	3.12
225.98	-6.88
226.215	4.12
226.449	22.12
226.683	27.12
226.918	9.12
227.152	27.12
227.387	38.12
227.621	21.12
227.856	47.12
228.09	40.12
228.324	46.12
228.559	58.12
228.793	86.12
229.027	136.12
229.262	149.12
229.496	162.12
229.73	143.12
229.964	168.12
230.199	175.12
230.433	188.12
230.667	178.12
230.901	194.12
231.136	183.12
231.37	198.12
231.604	181.12
231.838	188.12
232.072	195.12
232.306	189.12
232.541	200.12
232.775	190.12
233.009	206.12
233.243	197.12
233.477	212.12
233.711	209.12
233.945	202.12
234.179	210.12
234.413	208.12
234.647	206.12
234.881	214.12
235.115	200.12
235.349	205.12
235.583	218.12
235.817	216.12
236.051	224.12
236.285	205.12
236.519	215.12
236.753	226.12
236.987	219.12
237.221	227.12
237.455	213.12
237.689	218.12
237.922	223.12
238.156	246.12
238.39	223.12
238.624	249.12
238.858	235.12
239.091	258.12
239.325	258.12
239.559	255.12
239.793	258.12
240.027	246.12
240.26	262.12
240.494	269.12
240.728	269.12
240.961	262.12
241.195	276.12
241.429	271.12
241.662	252.12
241.896	275.12
242.13	288.12
242.363	289.12
242.597	289.12
242.83	296.12
243.064	296.12
243.298	311.12
243.531	319.12
243.765	300.12
243.998	311.12
244.232	304.12
244.465	310.12
244.699	330.12
244.932	324.12
245.166	308.12
245.399	328.12
245.633	336.12
245.866	328.12
246.099	342.12
246.333	342.12
246.566	343.12
246.8	325.12
247.033	334.12
247.266	341.12
247.5	345.12
247.733	339.12
247.966	341.12
248.2	355.12
248.433	360.12
248.666	361.12
248.899	373.12
249.133	370.12
249.366	375.12
249.599	378.12
249.832	378.12
250.066	380.12
250.299	389.12
250.532	379.12
250.765	394.12
250.998	401.12
251.231	418.12
251.465	428.12
251.698	428.12
251.931	413.12
252.164	390.12
252.397	414.12
252.63	429.12
252.863	422.12
253.096	424.12
253.329	434.12
253.562	431.12
253.795	439.12
254.028	438.12
254.261	426.12
254.494	450.12
254.727	414.12
254.96	420.12
255.193	446.12
255.426	411.12
255.659	431.12
255.892	463.12
256.124	459.12
256.357	469.12
256.59	450.12
256.823	470.12
257.056	471.12
257.289	464.12
257.521	457.12
257.754	488.12
257.987	480.12
258.22	453.12
258.452	464.12
258.685	490.12
258.918	463.12
259.151	482.12
259.383	511.12
259.616	478.12
259.849	507.12
260.081	506.12
260.314	502.12
260.547	489.12
260.779	510.12
261.012	500.12
261.244	512.12
261.477	506.12
261.71	529.12
261.942	504.12
262.175	512.12
262.407	516.12
262.64	504.12
262.872	534.12
263.105	521.12
263.337	521.12
263.57	529.12
263.802	546.12
264.035	536.12
264.267	546.12
264.499	542.12
264.732	574.12
264.964	583.12
265.197	549.12
265.429	568.12
265.661	553.12
265.894	571.12
266.126	588.12
266.358	545.12
266.591	577.12
266.823	547.12
267.055	588.12
267.287	570.12
267.52	581.12
267.752	584.12
267.984	559.12
268.216	599.12
268.448	598.12
268.681	591.12
268.913	585.12
269.145	589.12
269.377	607.12
269.609	606.12
269.841	583.12
270.073	601.12
270.306	615.12
270.538	594.12
270.77	588.12
271.002	607.12
271.234	610.12
271.466	633.12
271.698	600.12
271.93	623.12
272.162	644.12
272.394	620.12
272.626	639.12
272.858	648.12
273.09	638.12
273.322	656.12
273.553	649.12
273.785	644.12
274.017	646.12
274.249	671.12
274.481	654.12
274.713	676.12
274.945	657.12
275.176	691.12
275.408	684.12
275.64	660.12
275.872	689.12
276.104	696.12
276.335	682.12
276.567	690.12
276.799	681.12
277.031	696.12
277.262	692.12
277.494	669.12
277.726	696.12
277.957	703.12
278.189	663.12
278.421	693.12
278.652	730.12
278.884	726.12
279.115	723.12
279.347	741.12
279.579	703.12
279.81	707.12
280.042	735.12
280.273	746.12
280.505	723.12
280.736	771.12
280.968	751.12
281.199	734.12
281.431	756.12
281.662	758.12
281.894	758.12
282.125	764.12
282.356	770.12
282.588	757.12
282.819	757.12
283.051	749.12
283.282	773.12
283.513	790.12
283.745	763.12
283.976	751.12
284.207	775.12
284.439	790.12
284.67	774.12
284.901	805.12
285.132	800.12
285.364	788.12
285.595	805.12
285.826	798.12
286.057	808.12
286.288	809.12
286.52	822.12
286.751	814.12
286.982	803.12
287.213	833.12
287.444	839.12
287.675	841.12
287.906	814.12
288.138	836.12
288.369	831.12
288.6	860.12
288.831	844.12
289.062	842.12
289.293	874.12
289.524	842.12
289.755	850.12
289.986	808.12
290.217	844.12
290.448	856.12
290.679	851.12
290.91	867.12
291.141	855.12
291.371	844.12
291.602	892.12
291.833	854.12
292.064	862.12
292.295	849.12
292.526	861.12
292.757	871.12
292.987	885.12
293.218	874.12
293.449	866.12
293.68	892.12
293.91	842.12
294.141	880.12
294.372	878.12
294.603	872.12
294.833	870.12
295.064	878.12
295.295	887.12
295.525	876.12
295.756	882.12
295.987	856.12
296.217	878.12
296.448	905.12
296.679	850.12
296.909	890.12
297.14	898.12
297.37	897.12
297.601	932.12
297.831	924.12
298.062	909.12
298.292	914.12
298.523	950.12
298.753	948.12
298.984	965.12
299.214	947.12
299.445	943.12
299.675	925.12
299.905	921.12
300.136	933.12
300.366	924.12
300.597	932.12
300.827	962.12
301.057	958.12
301.288	997.12
301.518	971.12
301.748	984.12
301.979	994.12
302.209	1013.12
302.439	972.12
302.669	967.12
302.9	974.12
303.13	971.12
303.36	978.12
303.59	959.12
303.82	978.12
304.051	976.12
304.281	991.12
304.511	980.12
304.741	985.12
304.971	990.12
305.201	976.12
305.431	977.12
305.661	986.12
305.891	984.12
306.121	987.12
306.352	982.12
306.582	959.12
306.812	974.12
307.042	984.12
307.272	964.12
307.502	953.12
307.731	937.12
307.961	943.12
308.191	967.12
308.421	958.12
308.651	961.12
308.881	951.12
309.111	969.12
309.341	989.12
309.571	947.12
309.8	990.12
310.03	975.12
310.26	999.12
310.49	974.12
310.72	965.12
310.949	991.12
311.179	960.12
311.409	995.12
311.639	998.12
311.868	1018.12
312.098	1004.12
312.328	998.12
312.557	1039.12
312.787	1040.12
313.017	1002.12
313.246	1047.12
313.476	1030.12
313.706	1031.12
313.935	1023.12
314.165	1034.12
314.394	1034.12
314.624	1057.12
314.853	1063.12
315.083	1052.12
315.312	1066.12
315.542	1044.12
315.771	1053.12
316.001	1070.12
316.23	1064.12
316.46	1031.12
316.689	1058.12
316.919	1027.12
317.148	1026.12
317.377	1045.12
317.607	1045.12
317.836	1017.12
318.065	1027.12
318.295	1049.12
318.524	1043.12
318.753	1005.12
318.983	1036.12
319.212	984.12
319.441	1016.12
319.67	1052.12
319.9	1039.12
320.129	1016.12
320.358	1051.12
320.587	1044.12
320.816	1036.12
321.046	1076.12
321.275	1050.12
321.504	1058.12
321.733	1033.12
321.962	1062.12
322.191	1052.12
322.42	1046.12
322.649	1070.12
322.878	1058.12
323.108	1058.12
323.337	1067.12
323.566	1072.12
323.795	1079.12
324.024	1087.12
324.253	1056.12
324.482	1093.12
324.71	1066.12
324.939	1082.12
325.168	1067.12
325.397	1095.12
325.626	1107.12
325.855	1120.12
326.084	1134.12
326.313	1111.12
326.542	1140.12
326.77	1125.12
326.999	1130.12
327.228	1140.12
327.457	1118.12
327.686	1096.12
327.914	1140.12
328.143	1113.12
328.372	1109.12
328.6	1142.12
328.829	1151.12
329.058	1116.12
329.287	1144.12
329.515	1134.12
329.744	1142.12
329.972	1148.12
330.201	1158.12
330.43	1140.12
330.658	1146.12
330.887	1180.12
331.115	1183.12
331.344	1195.12
331.572	1212.12
331.801	1224.12
332.03	1213.12
332.258	1269.12
332.486	1288.12
332.715	1317.12
332.943	1352.12
333.172	1383.12
333.4	1459.12
333.629	1442.12
333.857	1453.12
334.085	1471.12
334.314	1455.12
334.542	1454.12
334.771	1442.12
334.999	1419.12
335.227	1386.12
335.455	1420.12
335.684	1398.12
335.912	1408.12
336.14	1383.12
336.369	1368.12
336.597	1365.12
336.825	1349.12
337.053	1351.12
337.281	1354.12
337.51	1332.12
337.738	1288.12
337.966	1275.12
338.194	1242.12
338.422	1282.12
338.65	1224.12
338.878	1243.12
339.106	1244.12
339.334	1259.12
339.562	1240.12
339.79	1217.12
340.018	1197.12
340.246	1189.12
340.474	1215.12
340.702	1226.12
340.93	1190.12
341.158	1231.12
341.386	1226.12
341.614	1157.12
341.842	1208.12
342.07	1171.12
342.298	1182.12
342.526	1158.12
342.754	1177.12
342.981	1208.12
343.209	1214.12
343.437	1257.12
343.665	1309.12
343.893	1394.12
344.12	1431.12
344.348	1424.12
344.576	1322.12
344.804	1280.12
345.031	1231.12
345.259	1222.12
345.487	1232.12
345.714	1168.12
345.942	1194.12
346.17	1208.12
346.397	1159.12
346.625	1166.12
346.853	1150.12
347.08	1149.12
347.308	1163.12
347.535	1133.12
347.763	1160.12
347.99	1154.12
348.218	1141.12
348.445	1133.12
348.673	1118.12
348.9	1110.12
349.128	1112.12
349.355	1138.12
349.583	1115.12
349.81	1129.12
350.037	1134.12
350.265	1111.12
350.492	1125.12
350.72	1121.12
350.947	1091.12
351.174	1123.12
351.402	1107.12
351.629	1084.12
351.856	1086.12
352.083	1066.12
352.311	1066.12
352.538	1125.12
352.765	1100.12
352.992	1084.12
353.22	1085.12
353.447	1088.12
353.674	1094.12
353.901	1082.12
354.128	1104.12
354.355	1117.12
354.583	1090.12
354.81	1096.12
355.037	1100.12
355.264	1119.12
355.491	1096.12
355.718	1098.12
355.945	1117.12
356.172	1104.12
356.399	1078.12
356.626	1127.12
356.853	1144.12
357.08	1108.12
357.307	1090.12
357.534	1073.12
357.761	1110.12
357.988	1100.12
358.215	1098.12
358.441	1081.12
358.668	1098.12
358.895	1101.12
359.122	1090.12
359.349	1075.12
359.576	1084.12
359.802	1111.12
360.029	1085.12
360.256	1117.12
360.483	1121.12
360.709	1107.12
360.936	1116.12
361.163	1089.12
361.39	1091.12
361.616	1089.12
361.843	1093.12
362.07	1092.12
362.296	1115.12
362.523	1074.12
362.749	1113.12
362.976	1115.12
363.203	1082.12
363.429	1083.12
363.656	1111.12
363.882	1110.12
364.109	1104.12
364.335	1092.12
364.562	1102.12
364.788	1096.12
365.015	1121.12
365.241	1095.12
365.468	1116.12
365.694	1090.12
365.92	1111.12
366.147	1097.12
366.373	1101.12
366.599	1121.12
366.826	1108.12
367.052	1097.12
367.278	1126.12
367.505	1151.12
367.731	1119.12
367.957	1110.12
368.184	1129.12
368.41	1138.12
368.636	1129.12
368.862	1157.12
369.089	1110.12
369.315	1127.12
369.541	1138.12
369.767	1118.12
369.993	1164.12
370.219	1162.12
370.445	1187.12
370.672	1186.12
370.898	1173.12
371.124	1183.12
371.35	1235.12
371.576	1168.12
371.802	1178.12
372.028	1183.12
372.254	1176.12
372.48	1223.12
372.706	1231.12
372.932	1266.12
373.158	1251.12
373.384	1240.12
373.61	1226.12
373.835	1218.12
374.061	1214.12
374.287	1230.12
374.513	1214.12
374.739	1258.12
374.965	1277.12
375.191	1283.12
375.416	1325.12
375.642	1271.12
375.868	1261.12
376.094	1243.12
376.319	1246.12
376.545	1229.12
376.771	1206.12
376.997	1210.12
377.222	1237.12
377.448	1190.12
377.674	1204.12
377.899	1152.12
378.125	1190.12
378.35	1169.12
378.576	1179.12
378.802	1199.12
379.027	1195.12
379.253	1212.12
379.478	1173.12
379.704	1166.12
379.929	1172.12
380.155	1155.12
380.38	1195.12
380.606	1217.12
380.831	1143.12
381.057	1206.12
381.282	1192.12
381.507	1196.12
381.733	1192.12
381.958	1185.12
382.184	1225.12
382.409	1242.12
382.634	1230.12
382.86	1251.12
383.085	1239.12
383.31	1274.12
383.535	1274.12
383.761	1278.12
383.986	1304.12
384.211	1378.12
384.436	1355.12
384.662	1398.12
384.887	1425.12
385.112	1408.12
385.337	1421.12
385.562	1422.12
385.787	1433.12
386.013	1460.12
386.238	1437.12
386.463	1445.12
386.688	1408.12
386.913	1414.12
387.138	1433.12
387.363	1424.12
387.588	1389.12
387.813	1417.12
388.038	1398.12
388.263	1417.12
388.488	1454.12
388.713	1447.12
388.938	1438.12
389.163	1384.12
389.387	1432.12
389.612	1438.12
389.837	1406.12
390.062	1392.12
390.287	1448.12
390.512	1401.12
390.736	1451.12
390.961	1427.12
391.186	1468.12
391.411	1505.12
391.636	1556.12
391.86	1582.12
392.085	1579.12
392.31	1569.12
392.534	1596.12
392.759	1529.12
392.984	1530.12
393.208	1532.12
393.433	1522.12
393.658	1528.12
393.882	1494.12
394.107	1506.12
394.331	1494.12
394.556	1489.12
394.78	1515.12
395.005	1529.12
395.229	1578.12
395.454	1538.12
395.678	1579.12
395.903	1615.12
396.127	1560.12
396.352	1538.12
396.576	1545.12
396.801	1510.12
397.025	1582.12
397.249	1578.12
397.474	1571.12
397.698	1654.12
397.922	1641.12
398.147	1615.12
398.371	1626.12
398.595	1698.12
398.82	1766.12
399.044	1865.12
399.268	2006.12
399.492	2256.12
399.717	2492.12
399.941	2473.12
400.165	2331.12
400.389	2142.12
400.613	2000.12
400.837	1924.12
401.062	1833.12
401.286	1834.12
401.51	1802.12
401.734	1807.12
401.958	1788.12
402.182	1799.12
402.406	1862.12
402.63	1857.12
402.854	1832.12
403.078	1874.12
403.302	1890.12
403.526	1971.12
403.75	1963.12
403.974	1995.12
404.198	1946.12
404.422	1946.12
404.645	1951.12
404.869	1926.12
405.093	1963.12
405.317	1930.12
405.541	1923.12
405.765	1935.12
405.988	1935.12
406.212	1911.12
406.436	1980.12
406.66	2004.12
406.883	1960.12
407.107	2108.12
407.331	2218.12
407.555	2275.12
407.778	2218.12
408.002	2201.12
408.226	2175.12
408.449	2132.12
408.673	2068.12
408.896	2013.12
409.12	1975.12
409.344	2015.12
409.567	1956.12
409.791	2009.12
410.014	1931.12
410.238	1952.12
410.461	1942.12
410.685	1970.12
410.908	1896.12
411.132	1907.12
411.355	1824.12
411.578	1862.12
411.802	1895.12
412.025	1865.12
412.249	1859.12
412.472	1879.12
412.695	1843.12
412.919	1789.12
413.142	1826.12
413.365	1776.12
413.589	1799.12
413.812	1771.12
414.035	1786.12
414.258	1767.12
414.482	1791.12
414.705	1770.12
414.928	1816.12
415.151	1824.12
415.374	1794.12
415.597	1755.12
415.821	1716.12
416.044	1683.12
416.267	1698.12
416.49	1721.12
416.713	1717.12
416.936	1717.12
417.159	1725.12
417.382	1711.12
417.605	1673.12
417.828	1726.12
418.051	1730.12
418.274	1733.12
418.497	1708.12
418.72	1757.12
418.943	1736.12
419.166	1839.12
419.389	1986.12
419.611	1946.12
419.834	1875.12
420.057	1825.12
420.28	1738.12
420.503	1718.12
420.726	1678.12
420.948	1718.12
421.171	1697.12
421.394	1729.12
421.617	1706.12
421.839	1729.12
422.062	1735.12
422.285	1676.12
422.507	1737.12
422.73	1707.12
422.953	1754.12
423.175	1753.12
423.398	1812.12
423.621	1734.12
423.843	1762.12
424.066	1796.12
424.288	1764.12
424.511	1719.12
424.733	1771.12
424.956	1755.12
425.178	1687.12
425.401	1715.12
425.623	1735.12
425.846	1678.12
426.068	1656.12
426.291	1662.12
426.513	1654.12
426.735	1621.12
426.958	1647.12
427.18	1563.12
427.402	1614.12
427.625	1592.12
427.847	1553.12
428.069	1580.12
428.292	1601.12
428.514	1532.12
428.736	1542.12
428.958	1560.12
429.181	1463.12
429.403	1496.12
429.625	1519.12
429.847	1527.12
430.069	1519.12
430.292	1525.12
430.514	1532.12
430.736	1507.12
430.958	1527.12
431.18	1485.12
431.402	1536.12
431.624	1541.12
431.846	1552.12
432.068	1529.12
432.29	1594.12
432.512	1622.12
432.734	1603.12
432.956	1568.12
433.178	1591.12
433.4	1543.12
433.622	1615.12
433.844	1605.12
434.066	1551.12
434.287	1628.12
434.509	1667.12
434.731	1709.12
434.953	1746.12
435.175	1746.12
435.397	1754.12
435.618	1667.12
435.84	1623.12
436.062	1596.12
436.284	1568.12
436.505	1570.12
436.727	1550.12
436.949	1573.12
437.17	1551.12
437.392	1553.12
437.614	1516.12
437.835	1478.12
438.057	1474.12
438.278	1491.12
438.5	1476.12
438.721	1446.12
438.943	1503.12
439.165	1485.12
439.386	1480.12
439.608	1482.12
439.829	1518.12
440.05	1559.12
440.272	1546.12
440.493	1525.12
440.715	1555.12
440.936	1589.12
441.158	1604.12
441.379	1634.12
441.6	1722.12
441.822	1708.12
442.043	1685.12
442.264	1690.12
442.486	1637.12
442.707	1655.12
442.928	1636.12
443.149	1671.12
443.371	1671.12
443.592	1679.12
443.813	1697.12
444.034	1702.12
444.255	1738.12
444.476	1802.12
444.698	1877.12
444.919	1954.12
445.14	2017.12
445.361	1901.12
445.582	1766.12
445.803	1660.12
446.024	1652.12
446.245	1624.12
446.466	1607.12
446.687	1535.12
446.908	1550.12
447.129	1514.12
447.35	1492.12
447.571	1459.12
447.792	1422.12
448.013	1445.12
448.234	1394.12
448.455	1428.12
448.675	1382.12
448.896	1387.12
449.117	1374.12
449.338	1402.12
449.559	1391.12
449.779	1355.12
450	1390.12
450.221	1406.12
450.442	1388.12
450.662	1394.12
450.883	1408.12
451.104	1434.12
451.324	1381.12
451.545	1409.12
451.766	1373.12
451.986	1367.12
452.207	1350.12
452.428	1392.12
452.648	1394.12
452.869	1338.12
453.089	1319.12
453.31	1344.12
453.53	1348.12
453.751	1317.12
453.971	1340.12
454.192	1335.12
454.412	1329.12
454.633	1328.12
454.853	1304.12
455.073	1318.12
455.294	1325.12
455.514	1294.12
455.734	1286.12
455.955	1287.12
456.175	1310.12
456.395	1293.12
456.616	1287.12
456.836	1330.12
457.056	1310.12
457.276	1279.12
457.497	1340.12
457.717	1323.12
457.937	1317.12
458.157	1334.12
458.377	1379.12
458.598	1395.12
458.818	1426.12
459.038	1470.12
459.258	1495.12
459.478	1560.12
459.698	1612.12
459.918	1622.12
460.138	1692.12
460.358	1766.12
460.578	1787.12
460.798	1780.12
461.018	1815.12
461.238	1775.12
461.458	1758.12
461.678	1759.12
461.898	1766.12
462.118	1810.12
462.338	1859.12
462.558	1905.12
462.777	1990.12
462.997	2142.12
463.217	2222.12
463.437	2254.12
463.657	2133.12
463.876	2036.12
464.096	2031.12
464.316	2036.12
464.536	2038.12
464.755	1956.12
464.975	1896.12
465.195	1825.12
465.414	1745.12
465.634	1632.12
465.854	1595.12
466.073	1562.12
466.293	1531.12
466.512	1494.12
466.732	1491.12
466.951	1462.12
467.171	1492.12
467.391	1471.12
467.61	1488.12
467.829	1420.12
468.049	1438.12
468.268	1414.12
468.488	1391.12
468.707	1417.12
468.927	1408.12
469.146	1390.12
469.365	1436.12
469.585	1436.12
469.804	1488.12
470.023	1526.12
470.243	1459.12
470.462	1468.12
470.681	1505.12
470.901	1485.12
471.12	1482.12
471.339	1481.12
471.558	1435.12
471.777	1448.12
471.997	1430.12
472.216	1429.12
472.435	1420.12
472.654	1402.12
472.873	1375.12
473.092	1387.12
473.311	1403.12
473.53	1386.12
473.749	1398.12
473.968	1385.12
474.187	1359.12
474.406	1380.12
474.625	1365.12
474.844	1402.12
475.063	1402.12
475.282	1414.12
475.501	1446.12
475.72	1408.12
475.939	1443.12
476.158	1442.12
476.377	1456.12
476.596	1443.12
476.814	1506.12
477.033	1479.12
477.252	1506.12
477.471	1543.12
477.69	1546.12
477.908	1627.12
478.127	1651.12
478.346	1635.12
478.564	1690.12
478.783	1670.12
479.002	1748.12
479.22	1750.12
479.439	1741.12
479.658	1715.12
479.876	1728.12
480.095	1802.12
480.313	1837.12
480.532	1840.12
480.751	1856.12
480.969	1822.12
481.188	1746.12
481.406	1719.12
481.624	1706.12
481.843	1692.12
482.061	1691.12
482.28	1656.12
482.498	1662.12
482.717	1695.12
482.935	1678.12
483.153	1683.12
483.372	1693.12
483.59	1737.12
483.808	1750.12
484.027	1729.12
484.245	1751.12
484.463	1785.12
484.681	1830.12
484.9	1835.12
485.118	1846.12
485.336	1865.12
485.554	1844.12
485.772	1869.12
485.99	1835.12
486.209	1870.12
486.427	1876.12
486.645	1874.12
486.863	1862.12
487.081	1879.12
487.299	1803.12
487.517	1850.12
487.735	1812.12
487.953	1822.12
488.171	1801.12
488.389	1781.12
488.607	1775.12
488.825	1760.12
489.043	1790.12
489.261	1740.12
489.479	1775.12
489.696	1749.12
489.914	1724.12
490.132	1788.12
490.35	1749.12
490.568	1730.12
490.786	1745.12
491.003	1760.12
491.221	1757.12
491.439	1759.12
491.657	1726.12
491.874	1751.12
492.092	1742.12
492.31	1758.12
492.527	1716.12
492.745	1743.12
492.963	1755.12
493.18	1770.12
493.398	1746.12
493.615	1784.12
493.833	1787.12
494.05	1759.12
494.268	1789.12
494.485	1823.12
494.703	1768.12
494.92	1791.12
495.138	1786.12
495.355	1772.12
495.573	1794.12
495.79	1794.12
496.008	1845.12
496.225	1848.12
496.442	1840.12
496.66	1852.12
496.877	1876.12
497.094	1933.12
497.312	1957.12
497.529	1981.12
497.746	2012.12
497.963	2124.12
498.181	2179.12
498.398	2220.12
498.615	2380.12
498.832	2440.12
499.049	2652.12
499.267	2813.12
499.484	3118.12
499.701	3323.12
499.918	3620.12
500.135	3968.12
500.352	4450.12
500.569	4644.12
500.786	4570.12
501.003	4407.12
501.22	4015.12
501.437	3645.12
501.654	3234.12
501.871	3025.12
502.088	2824.12
502.305	2631.12
502.522	2474.12
502.739	2377.12
502.956	2340.12
503.172	2176.12
503.389	2164.12
503.606	2082.12
503.823	2038.12
504.04	2039.12
504.256	2014.12
504.473	1996.12
504.69	2053.12
504.907	1960.12
505.123	1890.12
505.34	1838.12
505.557	1800.12
505.773	1706.12
505.99	1685.12
506.207	1610.12
506.423	1604.12
506.64	1623.12
506.856	1588.12
507.073	1588.12
507.289	1574.12
507.506	1514.12
507.722	1534.12
507.939	1519.12
508.155	1510.12
508.372	1479.12
508.588	1441.12
508.805	1444.12
509.021	1465.12
509.238	1468.12
509.454	1424.12
509.67	1418.12
509.887	1386.12
510.103	1387.12
510.319	1381.12
510.536	1398.12
510.752	1402.12
510.968	1415.12
511.184	1356.12
511.401	1397.12
511.617	1404.12
511.833	1401.12
512.049	1344.12
512.265	1397.12
512.481	1403.12
512.698	1384.12
512.914	1379.12
513.13	1384.12
513.346	1367.12
513.562	1403.12
513.778	1411.12
513.994	1389.12
514.21	1408.12
514.426	1406.12
514.642	1413.12
514.858	1409.12
515.074	1404.12
515.29	1465.12
515.506	1451.12
515.721	1480.12
515.937	1491.12
516.153	1508.12
516.369	1559.12
516.585	1576.12
516.801	1627.12
517.016	1662.12
517.232	1717.12
517.448	1760.12
517.664	1835.12
517.879	1828.12
518.095	1780.12
518.311	1830.12
518.527	1760.12
518.742	1654.12
518.958	1643.12
519.173	1580.12
519.389	1575.12
519.605	1522.12
519.82	1464.12
520.036	1434.12
520.251	1398.12
520.467	1450.12
520.682	1391.12
520.898	1400.12
521.113	1343.12
521.329	1349.12
521.544	1354.12
521.76	1332.12
521.975	1302.12
522.19	1287.12
522.406	1295.12
522.621	1316.12
522.836	1272.12
523.052	1280.12
523.267	1291.12
523.482	1274.12
523.698	1258.12
523.913	1264.12
524.128	1280.12
524.343	1279.12
524.559	1266.12
524.774	1256.12
524.989	1262.12
525.204	1253.12
525.419	1232.12
525.634	1232.12
525.849	1272.12
526.064	1250.12
526.28	1239.12
526.495	1219.12
526.71	1222.12
526.925	1236.12
527.14	1215.12
527.355	1221.12
527.57	1216.12
527.785	1231.12
527.999	1210.12
528.214	1226.12
528.429	1255.12
528.644	1226.12
528.859	1206.12
529.074	1200.12
529.289	1205.12
529.503	1221.12
529.718	1220.12
529.933	1204.12
530.148	1231.12
530.363	1211.12
530.577	1216.12
530.792	1206.12
531.007	1199.12
531.221	1240.12
531.436	1239.12
531.651	1199.12
531.865	1220.12
532.08	1204.12
532.295	1197.12
532.509	1230.12
532.724	1226.12
532.938	1235.12
533.153	1225.12
533.367	1195.12
533.582	1183.12
533.796	1212.12
534.011	1210.12
534.225	1206.12
534.44	1179.12
534.654	1199.12
534.868	1208.12
535.083	1176.12
535.297	1144.12
535.511	1175.12
535.726	1177.12
535.94	1181.12
536.154	1132.12
536.369	1140.12
536.583	1163.12
536.797	1181.12
537.011	1151.12
537.225	1134.12
537.44	1131.12
537.654	1148.12
537.868	1099.12
538.082	1103.12
538.296	1105.12
538.51	1114.12
538.724	1118.12
538.938	1087.12
539.153	1096.12
539.367	1109.12
539.581	1079.12
539.795	1045.12
540.009	1071.12
540.222	1090.12
540.436	1084.12
540.65	1066.12
540.864	1061.12
541.078	1101.12
541.292	1106.12
541.506	1071.12
541.72	1094.12
541.934	1081.12
542.147	1061.12
542.361	1056.12
542.575	1068.12
542.789	1079.12
543.002	1046.12
543.216	1086.12
543.43	1054.12
543.644	1034.12
543.857	1090.12
544.071	1067.12
544.285	1075.12
544.498	1067.12
544.712	1064.12
544.925	1056.12
545.139	1101.12
545.352	1086.12
545.566	1095.12
545.779	1095.12
545.993	1062.12
546.206	1066.12
546.42	1072.12
546.633	1098.12
546.847	1106.12
547.06	1086.12
547.274	1072.12
547.487	1080.12
547.7	1072.12
547.914	1101.12
548.127	1093.12
548.34	1065.12
548.554	1074.12
548.767	1109.12
548.98	1095.12
549.193	1106.12
549.407	1102.12
549.62	1138.12
549.833	1152.12
550.046	1135.12
550.259	1111.12
550.473	1115.12
550.686	1062.12
550.899	1067.12
551.112	1077.12
551.325	1048.12
551.538	1101.12
551.751	1084.12
551.964	1127.12
552.177	1089.12
552.39	1108.12
552.603	1116.12
552.816	1117.12
553.029	1143.12
553.242	1177.12
553.455	1192.12
553.667	1173.12
553.88	1152.12
554.093	1159.12
554.306	1102.12
554.519	1113.12
554.732	1092.12
554.944	1060.12
555.157	1024.12
555.37	1028.12
555.583	1047.12
555.795	1027.12
556.008	992.12
556.221	988.12
556.433	943.12
556.646	954.12
556.859	938.12
557.071	935.12
557.284	936.12
557.496	937.12
557.709	950.12
557.921	926.12
558.134	918.12
558.346	912.12
558.559	933.12
558.771	923.12
558.984	928.12
559.196	906.12
559.409	910.12
559.621	901.12
559.833	919.12
560.046	902.12
560.258	906.12
560.47	876.12
560.683	902.12
560.895	906.12
561.107	897.12
561.32	894.12
561.532	893.12
561.744	901.12
561.956	885.12
562.168	897.12
562.381	876.12
562.593	889.12
562.805	906.12
563.017	887.12
563.229	904.12
563.441	924.12
563.653	930.12
563.865	921.12
564.077	929.12
564.289	923.12
564.501	954.12
564.713	948.12
564.925	985.12
565.137	985.12
565.349	1023.12
565.561	1050.12
565.773	1092.12
565.985	1124.12
566.197	1149.12
566.408	1222.12
566.62	1334.12
566.832	1395.12
567.044	1418.12
567.255	1399.12
567.467	1419.12
567.679	1503.12
567.891	1598.12
568.102	1610.12
568.314	1517.12
568.526	1424.12
568.737	1317.12
568.949	1255.12
569.161	1147.12
569.372	1062.12
569.584	1023.12
569.795	973.12
570.007	946.12
570.218	928.12
570.43	917.12
570.641	898.12
570.853	919.12
571.064	898.12
571.276	916.12
571.487	916.12
571.698	858.12
571.91	853.12
572.121	815.12
572.333	824.12
572.544	782.12
572.755	773.12
572.966	802.12
573.178	799.12
573.389	759.12
573.6	762.12
573.811	765.12
574.023	735.12
574.234	718.12
574.445	724.12
574.656	727.12
574.867	738.12
575.078	721.12
575.289	709.12
575.501	717.12
575.712	715.12
575.923	701.12
576.134	702.12
576.345	680.12
576.556	714.12
576.767	707.12
576.978	687.12
577.188	655.12
577.399	686.12
577.61	679.12
577.821	674.12
578.032	669.12
578.243	658.12
578.454	665.12
578.665	676.12
578.875	681.12
579.086	647.12
579.297	643.12
579.508	645.12
579.718	645.12
579.929	652.12
580.14	648.12
580.35	658.12
580.561	640.12
580.772	619.12
580.982	632.12
581.193	618.12
581.403	615.12
581.614	619.12
581.825	620.12
582.035	635.12
582.246	612.12
582.456	634.12
582.667	614.12
582.877	610.12
583.087	620.12
583.298	611.12
583.508	599.12
583.719	627.12
583.929	599.12
584.139	596.12
584.35	608.12
584.56	615.12
584.77	616.12
584.981	608.12
585.191	599.12
585.401	571.12
585.611	579.12
585.821	588.12
586.032	592.12
586.242	573.12
586.452	590.12
586.662	593.12
586.872	592.12
587.082	596.12
587.292	579.12
587.502	590.12
587.713	594.12
587.923	578.12
588.133	557.12
588.343	569.12
588.553	564.12
588.762	587.12
588.972	568.12
589.182	611.12
589.392	578.12
589.602	569.12
589.812	595.12
590.022	579.12
590.232	582.12
590.441	598.12
590.651	586.12
590.861	586.12
591.071	612.12
591.281	601.12
591.49	602.12
591.7	596.12
591.91	618.12
592.119	622.12
592.329	650.12
592.539	647.12
592.748	662.12
592.958	676.12
593.167	698.12
593.377	706.12
593.587	719.12
593.796	724.12
594.006	715.12
594.215	758.12
594.424	729.12
594.634	687.12
594.843	679.12
595.053	680.12
595.262	643.12
595.472	632.12
595.681	603.12
595.89	612.12
596.1	568.12
596.309	575.12
596.518	570.12
596.727	584.12
596.937	574.12
597.146	532.12
597.355	538.12
597.564	523.12
597.774	530.12
597.983	519.12
598.192	527.12
598.401	498.12
598.61	519.12
598.819	521.12
599.028	501.12
599.237	492.12
599.446	493.12
599.655	516.12
599.864	500.12
600.073	478.12
600.282	501.12
600.491	489.12
600.7	466.12
600.909	475.12
601.118	472.12
601.327	477.12
601.536	468.12
601.745	475.12
601.953	478.12
602.162	482.12
602.371	495.12
602.58	464.12
602.789	479.12
602.997	467.12
603.206	479.12
603.415	455.12
603.623	456.12
603.832	478.12
604.041	447.12
604.249	438.12
604.458	442.12
604.666	446.12
604.875	455.12
605.084	440.12
605.292	443.12
605.501	442.12
605.709	445.12
605.918	459.12
606.126	438.12
606.334	427.12
606.543	450.12
606.751	441.12
606.96	434.12
607.168	447.12
607.376	445.12
607.585	443.12
607.793	420.12
608.001	436.12
608.21	430.12
608.418	437.12
608.626	427.12
608.834	450.12
609.043	440.12
609.251	431.12
609.459	415.12
609.667	425.12
609.875	441.12
610.083	422.12
610.291	410.12
610.499	429.12
610.707	410.12
610.916	420.12
611.124	437.12
611.332	410.12
611.54	418.12
611.748	419.12
611.955	411.12
612.163	411.12
612.371	414.12
612.579	411.12
612.787	416.12
612.995	403.12
613.203	413.12
613.411	398.12
613.618	407.12
613.826	402.12
614.034	414.12
614.242	431.12
614.449	403.12
614.657	399.12
614.865	416.12
615.072	403.12
615.28	405.12
615.488	400.12
615.695	397.12
615.903	394.12
616.111	426.12
616.318	405.12
616.526	406.12
616.733	429.12
616.941	395.12
617.148	411.12
617.356	415.12
617.563	412.12
617.771	418.12
617.978	409.12
618.185	391.12
618.393	394.12
618.6	410.12
618.807	412.12
619.015	407.12
619.222	401.12
619.429	391.12
619.637	421.12
619.844	401.12
620.051	403.12
620.258	364.12
620.466	374.12
620.673	370.12
620.88	387.12
621.087	375.12
621.294	377.12
621.501	370.12
621.708	377.12
621.915	374.12
622.122	359.12
622.329	356.12
622.536	365.12
622.743	374.12
622.95	379.12
623.157	370.12
623.364	390.12
623.571	365.12
623.778	341.12
623.985	365.12
624.192	355.12
624.399	342.12
624.606	344.12
624.812	353.12
625.019	328.12
625.226	358.12
625.433	343.12
625.639	346.12
625.846	343.12
626.053	347.12
626.259	336.12
626.466	346.12
626.673	341.12
626.879	324.12
627.086	342.12
627.293	341.12
627.499	333.12
627.706	336.12
627.912	332.12
628.119	343.12
628.325	332.12
628.532	329.12
628.738	349.12
628.945	342.12
629.151	336.12
629.357	322.12
629.564	318.12
629.77	334.12
629.976	317.12
630.183	340.12
630.389	316.12
630.595	307.12
630.802	309.12
631.008	325.12
631.214	312.12
631.42	331.12
631.627	308.12
631.833	312.12
632.039	312.12
632.245	319.12
632.451	302.12
632.657	317.12
632.863	308.12
633.069	301.12
633.275	297.12
633.481	305.12
633.688	324.12
633.893	304.12
634.099	308.12
634.305	316.12
634.511	304.12
634.717	307.12
634.923	308.12
635.129	283.12
635.335	302.12
635.541	292.12
635.747	314.12
635.952	308.12
636.158	299.12
636.364	292.12
636.57	301.12
636.775	277.12
636.981	292.12
637.187	299.12
637.392	290.12
637.598	298.12
637.804	290.12
638.009	288.12
638.215	303.12
638.421	289.12
638.626	274.12
638.832	280.12
639.037	267.12
639.243	291.12
639.448	286.12
639.654	285.12
639.859	292.12
640.065	278.12
640.27	295.12
640.475	281.12
640.681	292.12
640.886	262.12
641.091	287.12
641.297	291.12
641.502	278.12
641.707	278.12
641.913	277.12
642.118	267.12
642.323	280.12
642.528	277.12
642.733	271.12
642.939	267.12
643.144	281.12
643.349	289.12
643.554	273.12
643.759	279.12
643.964	271.12
644.169	285.12
644.374	264.12
644.579	283.12
644.784	273.12
644.989	265.12
645.194	292.12
645.399	270.12
645.604	267.12
645.809	263.12
646.014	278.12
646.219	295.12
646.423	283.12
646.628	269.12
646.833	272.12
647.038	279.12
647.243	274.12
647.447	283.12
647.652	285.12
647.857	309.12
648.062	297.12
648.266	297.12
648.471	311.12
648.676	292.12
648.88	301.12
649.085	276.12
649.289	274.12
649.494	296.12
649.698	280.12
649.903	278.12
650.107	275.12
650.312	296.12
650.516	270.12
650.721	281.12
650.925	281.12
651.13	279.12
651.334	260.12
651.539	271.12
651.743	279.12
651.947	278.12
652.152	286.12
652.356	255.12
652.56	251.12
652.764	263.12
652.969	270.12
653.173	252.12
653.377	276.12
653.581	275.12
653.785	255.12
653.99	267.12
654.194	263.12
654.398	286.12
654.602	274.12
654.806	272.12
655.01	270.12
655.214	278.12
655.418	309.12
655.622	303.12
655.826	319.12
656.03	335.12
656.234	364.12
656.438	383.12
656.642	384.12
656.846	362.12
657.049	329.12
657.253	298.12
657.457	279.12
657.661	246.12
657.865	235.12
658.068	216.12
658.272	192.12
658.476	205.12
658.68	161.12
658.883	160.12
659.087	145.12
659.291	149.12
659.494	136.12
659.698	126.12
659.901	122.12
660.105	130.12
660.309	116.12
660.512	124.12
660.716	123.12
660.919	99.12
661.123	127.12
661.326	100.12
661.53	112.12
661.733	103.12
661.936	97.12
662.14	104.12
662.343	102.12
662.546	106.12
662.75	98.12
662.953	100.12
663.156	98.12
663.36	86.12
663.563	86.12
663.766	84.12
663.969	78.12
664.173	90.12
664.376	84.12
664.579	72.12
664.782	76.12
664.985	91.12
665.188	89.12
665.391	86.12
665.594	84.12
665.797	78.12
666	95.12
666.203	99.12
666.406	73.12
666.609	80.12
666.812	95.12
667.015	102.12
667.218	81.12
667.421	78.12
667.624	87.12
667.827	80.12
668.03	76.12
668.232	106.12
668.435	85.12
668.638	101.12
668.841	96.12
669.043	72.12
669.246	80.12
669.449	88.12
669.651	82.12
669.854	94.12
670.057	84.12
670.259	96.12
670.462	93.12
670.665	88.12
670.867	93.12
671.07	99.12
671.272	94.12
671.475	87.12
671.677	79.12
671.88	80.12
672.082	86.12
672.284	89.12
672.487	92.12
672.689	84.12
672.892	82.12
