Data from NiCl2@0.0625M.TitratingCurve.Agarose3%dH2O.NegLispCup.LampEnergy10.LIBS07252019_HRD10591_18-32-59-576.txt Node
Date: Thu Jul 25 18:32:59 EDT 2019
User: cochatt
Spectrometer: HR+D1059
Trigger mode: 1
Integration Time (sec): 1.000000E-1
Scans to average: 1
Electric dark correction enabled: true
Nonlinearity correction enabled: false
Boxcar width: 0
XAxis mode: Wavelengths
Number of Pixels in Spectrum: 2048
>>>>>Begin Spectral Data<<<<<
223.165	-19.75
223.4	-19.75
223.635	-19.75
223.869	-16.75
224.104	-29.75
224.338	-7.75
224.573	-18.75
224.808	-1.75
225.042	-6.75
225.277	-4.75
225.511	8.25
225.746	5.25
225.98	11.25
226.215	11.25
226.449	-4.75
226.683	24.25
226.918	32.25
227.152	18.25
227.387	30.25
227.621	24.25
227.856	30.25
228.09	59.25
228.324	49.25
228.559	68.25
228.793	88.25
229.027	146.25
229.262	168.25
229.496	164.25
229.73	188.25
229.964	189.25
230.199	191.25
230.433	206.25
230.667	205.25
230.901	196.25
231.136	199.25
231.37	196.25
231.604	203.25
231.838	217.25
232.072	215.25
232.306	233.25
232.541	223.25
232.775	218.25
233.009	213.25
233.243	221.25
233.477	211.25
233.711	223.25
233.945	224.25
234.179	226.25
234.413	224.25
234.647	211.25
234.881	222.25
235.115	244.25
235.349	232.25
235.583	228.25
235.817	225.25
236.051	236.25
236.285	242.25
236.519	248.25
236.753	268.25
236.987	259.25
237.221	252.25
237.455	235.25
237.689	261.25
237.922	274.25
238.156	263.25
238.39	260.25
238.624	269.25
238.858	280.25
239.091	272.25
239.325	289.25
239.559	267.25
239.793	295.25
240.027	286.25
240.26	297.25
240.494	293.25
240.728	295.25
240.961	309.25
241.195	307.25
241.429	316.25
241.662	318.25
241.896	329.25
242.13	328.25
242.363	332.25
242.597	329.25
242.83	328.25
243.064	330.25
243.298	331.25
243.531	330.25
243.765	355.25
243.998	350.25
244.232	368.25
244.465	363.25
244.699	354.25
244.932	387.25
245.166	382.25
245.399	364.25
245.633	369.25
245.866	376.25
246.099	399.25
246.333	391.25
246.566	368.25
246.8	381.25
247.033	379.25
247.266	375.25
247.5	384.25
247.733	393.25
247.966	407.25
248.2	428.25
248.433	426.25
248.666	412.25
248.899	426.25
249.133	411.25
249.366	411.25
249.599	444.25
249.832	452.25
250.066	420.25
250.299	433.25
250.532	438.25
250.765	437.25
250.998	456.25
251.231	435.25
251.465	450.25
251.698	471.25
251.931	463.25
252.164	467.25
252.397	465.25
252.63	470.25
252.863	489.25
253.096	477.25
253.329	476.25
253.562	461.25
253.795	486.25
254.028	483.25
254.261	494.25
254.494	485.25
254.727	481.25
254.96	465.25
255.193	488.25
255.426	513.25
255.659	507.25
255.892	529.25
256.124	522.25
256.357	505.25
256.59	526.25
256.823	509.25
257.056	499.25
257.289	520.25
257.521	537.25
257.754	544.25
257.987	548.25
258.22	548.25
258.452	550.25
258.685	540.25
258.918	551.25
259.151	577.25
259.383	566.25
259.616	555.25
259.849	561.25
260.081	571.25
260.314	571.25
260.547	569.25
260.779	551.25
261.012	601.25
261.244	589.25
261.477	601.25
261.71	584.25
261.942	593.25
262.175	606.25
262.407	591.25
262.64	610.25
262.872	604.25
263.105	591.25
263.337	592.25
263.57	608.25
263.802	607.25
264.035	630.25
264.267	609.25
264.499	614.25
264.732	615.25
264.964	612.25
265.197	619.25
265.429	617.25
265.661	638.25
265.894	620.25
266.126	641.25
266.358	633.25
266.591	651.25
266.823	667.25
267.055	657.25
267.287	638.25
267.52	655.25
267.752	639.25
267.984	675.25
268.216	684.25
268.448	673.25
268.681	676.25
268.913	662.25
269.145	678.25
269.377	673.25
269.609	706.25
269.841	668.25
270.073	689.25
270.306	697.25
270.538	684.25
270.77	689.25
271.002	704.25
271.234	708.25
271.466	723.25
271.698	698.25
271.93	714.25
272.162	709.25
272.394	705.25
272.626	718.25
272.858	716.25
273.09	740.25
273.322	731.25
273.553	757.25
273.785	728.25
274.017	744.25
274.249	764.25
274.481	769.25
274.713	756.25
274.945	774.25
275.176	789.25
275.408	760.25
275.64	794.25
275.872	780.25
276.104	773.25
276.335	796.25
276.567	807.25
276.799	789.25
277.031	803.25
277.262	774.25
277.494	752.25
277.726	792.25
277.957	796.25
278.189	790.25
278.421	783.25
278.652	783.25
278.884	809.25
279.115	833.25
279.347	820.25
279.579	842.25
279.81	832.25
280.042	832.25
280.273	830.25
280.505	863.25
280.736	852.25
280.968	859.25
281.199	836.25
281.431	868.25
281.662	874.25
281.894	843.25
282.125	877.25
282.356	880.25
282.588	868.25
282.819	892.25
283.051	905.25
283.282	847.25
283.513	872.25
283.745	894.25
283.976	889.25
284.207	899.25
284.439	905.25
284.67	912.25
284.901	898.25
285.132	912.25
285.364	911.25
285.595	894.25
285.826	930.25
286.057	907.25
286.288	920.25
286.52	920.25
286.751	896.25
286.982	948.25
287.213	955.25
287.444	938.25
287.675	949.25
287.906	940.25
288.138	973.25
288.369	971.25
288.6	967.25
288.831	948.25
289.062	922.25
289.293	944.25
289.524	937.25
289.755	966.25
289.986	979.25
290.217	981.25
290.448	967.25
290.679	971.25
290.91	984.25
291.141	999.25
291.371	978.25
291.602	967.25
291.833	973.25
292.064	968.25
292.295	986.25
292.526	970.25
292.757	999.25
292.987	984.25
293.218	968.25
293.449	992.25
293.68	985.25
293.91	977.25
294.141	1005.25
294.372	980.25
294.603	981.25
294.833	997.25
295.064	1016.25
295.295	988.25
295.525	1017.25
295.756	998.25
295.987	982.25
296.217	1012.25
296.448	998.25
296.679	993.25
296.909	1027.25
297.14	1008.25
297.37	1030.25
297.601	1047.25
297.831	1033.25
298.062	1032.25
298.292	1046.25
298.523	1056.25
298.753	1088.25
298.984	1073.25
299.214	1058.25
299.445	1033.25
299.675	1038.25
299.905	1068.25
300.136	1072.25
300.366	1066.25
300.597	1081.25
300.827	1055.25
301.057	1106.25
301.288	1128.25
301.518	1092.25
301.748	1116.25
301.979	1099.25
302.209	1144.25
302.439	1117.25
302.669	1121.25
302.9	1122.25
303.13	1074.25
303.36	1124.25
303.59	1104.25
303.82	1092.25
304.051	1151.25
304.281	1155.25
304.511	1115.25
304.741	1135.25
304.971	1118.25
305.201	1134.25
305.431	1116.25
305.661	1100.25
305.891	1104.25
306.121	1113.25
306.352	1105.25
306.582	1099.25
306.812	1079.25
307.042	1104.25
307.272	1103.25
307.502	1108.25
307.731	1089.25
307.961	1100.25
308.191	1105.25
308.421	1123.25
308.651	1118.25
308.881	1095.25
309.111	1105.25
309.341	1090.25
309.571	1101.25
309.8	1103.25
310.03	1146.25
310.26	1115.25
310.49	1120.25
310.72	1103.25
310.949	1111.25
311.179	1124.25
311.409	1148.25
311.639	1124.25
311.868	1118.25
312.098	1127.25
312.328	1112.25
312.557	1157.25
312.787	1177.25
313.017	1179.25
313.246	1190.25
313.476	1173.25
313.706	1215.25
313.935	1184.25
314.165	1190.25
314.394	1200.25
314.624	1234.25
314.853	1189.25
315.083	1196.25
315.312	1195.25
315.542	1177.25
315.771	1172.25
316.001	1177.25
316.23	1190.25
316.46	1161.25
316.689	1191.25
316.919	1175.25
317.148	1199.25
317.377	1192.25
317.607	1193.25
317.836	1196.25
318.065	1174.25
318.295	1225.25
318.524	1197.25
318.753	1167.25
318.983	1188.25
319.212	1203.25
319.441	1173.25
319.67	1157.25
319.9	1159.25
320.129	1199.25
320.358	1188.25
320.587	1208.25
320.816	1165.25
321.046	1220.25
321.275	1173.25
321.504	1195.25
321.733	1187.25
321.962	1200.25
322.191	1206.25
322.42	1226.25
322.649	1216.25
322.878	1211.25
323.108	1212.25
323.337	1198.25
323.566	1221.25
323.795	1230.25
324.024	1247.25
324.253	1202.25
324.482	1224.25
324.71	1232.25
324.939	1227.25
325.168	1281.25
325.397	1238.25
325.626	1237.25
325.855	1240.25
326.084	1287.25
326.313	1260.25
326.542	1290.25
326.77	1313.25
326.999	1276.25
327.228	1310.25
327.457	1251.25
327.686	1292.25
327.914	1292.25
328.143	1318.25
328.372	1269.25
328.6	1319.25
328.829	1278.25
329.058	1291.25
329.287	1282.25
329.515	1320.25
329.744	1306.25
329.972	1323.25
330.201	1311.25
330.43	1324.25
330.658	1355.25
330.887	1327.25
331.115	1316.25
331.344	1340.25
331.572	1363.25
331.801	1405.25
332.03	1407.25
332.258	1432.25
332.486	1489.25
332.715	1483.25
332.943	1502.25
333.172	1511.25
333.4	1595.25
333.629	1658.25
333.857	1635.25
334.085	1690.25
334.314	1624.25
334.542	1615.25
334.771	1659.25
334.999	1644.25
335.227	1611.25
335.455	1565.25
335.684	1568.25
335.912	1563.25
336.14	1563.25
336.369	1550.25
336.597	1583.25
336.825	1554.25
337.053	1559.25
337.281	1510.25
337.51	1495.25
337.738	1506.25
337.966	1445.25
338.194	1466.25
338.422	1448.25
338.65	1425.25
338.878	1392.25
339.106	1413.25
339.334	1429.25
339.562	1432.25
339.79	1389.25
340.018	1371.25
340.246	1343.25
340.474	1349.25
340.702	1353.25
340.93	1341.25
341.158	1385.25
341.386	1397.25
341.614	1382.25
341.842	1399.25
342.07	1350.25
342.298	1358.25
342.526	1365.25
342.754	1381.25
342.981	1347.25
343.209	1374.25
343.437	1445.25
343.665	1509.25
343.893	1562.25
344.12	1593.25
344.348	1581.25
344.576	1534.25
344.804	1487.25
345.031	1426.25
345.259	1384.25
345.487	1360.25
345.714	1374.25
345.942	1322.25
346.17	1349.25
346.397	1327.25
346.625	1333.25
346.853	1282.25
347.08	1301.25
347.308	1309.25
347.535	1337.25
347.763	1318.25
347.99	1311.25
348.218	1287.25
348.445	1317.25
348.673	1284.25
348.9	1313.25
349.128	1316.25
349.355	1297.25
349.583	1296.25
349.81	1297.25
350.037	1288.25
350.265	1297.25
350.492	1270.25
350.72	1256.25
350.947	1255.25
351.174	1280.25
351.402	1281.25
351.629	1280.25
351.856	1274.25
352.083	1250.25
352.311	1265.25
352.538	1248.25
352.765	1288.25
352.992	1217.25
353.22	1215.25
353.447	1232.25
353.674	1234.25
353.901	1274.25
354.128	1255.25
354.355	1219.25
354.583	1228.25
354.81	1223.25
355.037	1301.25
355.264	1259.25
355.491	1254.25
355.718	1256.25
355.945	1239.25
356.172	1217.25
356.399	1250.25
356.626	1247.25
356.853	1266.25
357.08	1283.25
357.307	1278.25
357.534	1253.25
357.761	1285.25
357.988	1290.25
358.215	1235.25
358.441	1268.25
358.668	1243.25
358.895	1269.25
359.122	1241.25
359.349	1261.25
359.576	1248.25
359.802	1254.25
360.029	1270.25
360.256	1249.25
360.483	1279.25
360.709	1250.25
360.936	1268.25
361.163	1269.25
361.39	1246.25
361.616	1264.25
361.843	1270.25
362.07	1256.25
362.296	1282.25
362.523	1270.25
362.749	1273.25
362.976	1290.25
363.203	1234.25
363.429	1264.25
363.656	1239.25
363.882	1259.25
364.109	1283.25
364.335	1239.25
364.562	1241.25
364.788	1253.25
365.015	1263.25
365.241	1262.25
365.468	1281.25
365.694	1275.25
365.92	1253.25
366.147	1293.25
366.373	1240.25
366.599	1256.25
366.826	1255.25
367.052	1246.25
367.278	1238.25
367.505	1287.25
367.731	1264.25
367.957	1280.25
368.184	1271.25
368.41	1266.25
368.636	1295.25
368.862	1301.25
369.089	1347.25
369.315	1301.25
369.541	1315.25
369.767	1321.25
369.993	1318.25
370.219	1302.25
370.445	1323.25
370.672	1343.25
370.898	1333.25
371.124	1300.25
371.35	1382.25
371.576	1356.25
371.802	1384.25
372.028	1369.25
372.254	1394.25
372.48	1377.25
372.706	1411.25
372.932	1399.25
373.158	1406.25
373.384	1389.25
373.61	1388.25
373.835	1363.25
374.061	1380.25
374.287	1405.25
374.513	1447.25
374.739	1411.25
374.965	1461.25
375.191	1514.25
375.416	1492.25
375.642	1436.25
375.868	1430.25
376.094	1405.25
376.319	1398.25
376.545	1376.25
376.771	1370.25
376.997	1375.25
377.222	1355.25
377.448	1346.25
377.674	1355.25
377.899	1371.25
378.125	1332.25
378.35	1351.25
378.576	1336.25
378.802	1343.25
379.027	1353.25
379.253	1344.25
379.478	1321.25
379.704	1341.25
379.929	1379.25
380.155	1352.25
380.38	1337.25
380.606	1333.25
380.831	1359.25
381.057	1377.25
381.282	1396.25
381.507	1371.25
381.733	1389.25
381.958	1395.25
382.184	1413.25
382.409	1393.25
382.634	1383.25
382.86	1433.25
383.085	1444.25
383.31	1419.25
383.535	1464.25
383.761	1485.25
383.986	1484.25
384.211	1507.25
384.436	1555.25
384.662	1536.25
384.887	1584.25
385.112	1578.25
385.337	1587.25
385.562	1616.25
385.787	1631.25
386.013	1619.25
386.238	1664.25
386.463	1665.25
386.688	1666.25
386.913	1618.25
387.138	1636.25
387.363	1615.25
387.588	1635.25
387.813	1634.25
388.038	1613.25
388.263	1642.25
388.488	1603.25
388.713	1596.25
388.938	1632.25
389.163	1584.25
389.387	1621.25
389.612	1615.25
389.837	1610.25
390.062	1588.25
390.287	1614.25
390.512	1613.25
390.736	1641.25
390.961	1648.25
391.186	1696.25
391.411	1705.25
391.636	1744.25
391.86	1779.25
392.085	1829.25
392.31	1824.25
392.534	1799.25
392.759	1763.25
392.984	1752.25
393.208	1726.25
393.433	1737.25
393.658	1805.25
393.882	1737.25
394.107	1729.25
394.331	1722.25
394.556	1754.25
394.78	1735.25
395.005	1783.25
395.229	1766.25
395.454	1752.25
395.678	1797.25
395.903	1809.25
396.127	1796.25
396.352	1779.25
396.576	1776.25
396.801	1758.25
397.025	1774.25
397.249	1835.25
397.474	1825.25
397.698	1851.25
397.922	1837.25
398.147	1843.25
398.371	1904.25
398.595	1935.25
398.82	1999.25
399.044	2132.25
399.268	2280.25
399.492	2480.25
399.717	2767.25
399.941	2806.25
400.165	2575.25
400.389	2415.25
400.613	2287.25
400.837	2164.25
401.062	2111.25
401.286	2103.25
401.51	2004.25
401.734	1999.25
401.958	2031.25
402.182	2009.25
402.406	2066.25
402.63	2072.25
402.854	2055.25
403.078	2161.25
403.302	2149.25
403.526	2176.25
403.75	2185.25
403.974	2215.25
404.198	2239.25
404.422	2199.25
404.645	2186.25
404.869	2193.25
405.093	2241.25
405.317	2167.25
405.541	2188.25
405.765	2169.25
405.988	2156.25
406.212	2190.25
406.436	2189.25
406.66	2238.25
406.883	2250.25
407.107	2365.25
407.331	2436.25
407.555	2541.25
407.778	2543.25
408.002	2471.25
408.226	2446.25
408.449	2424.25
408.673	2341.25
408.896	2295.25
409.12	2260.25
409.344	2297.25
409.567	2255.25
409.791	2256.25
410.014	2204.25
410.238	2163.25
410.461	2181.25
410.685	2216.25
410.908	2162.25
411.132	2152.25
411.355	2082.25
411.578	2132.25
411.802	2109.25
412.025	2140.25
412.249	2160.25
412.472	2110.25
412.695	2088.25
412.919	2030.25
413.142	2054.25
413.365	2049.25
413.589	2031.25
413.812	2021.25
414.035	1991.25
414.258	2018.25
414.482	1984.25
414.705	2018.25
414.928	2015.25
415.151	2017.25
415.374	2020.25
415.597	1953.25
415.821	1941.25
416.044	2003.25
416.267	1968.25
416.49	1957.25
416.713	1897.25
416.936	1985.25
417.159	1920.25
417.382	1925.25
417.605	1922.25
417.828	1924.25
418.051	1936.25
418.274	1980.25
418.497	1933.25
418.72	2015.25
418.943	1979.25
419.166	2145.25
419.389	2229.25
419.611	2216.25
419.834	2125.25
420.057	2079.25
420.28	1990.25
420.503	1925.25
420.726	1900.25
420.948	1883.25
421.171	1937.25
421.394	1971.25
421.617	1889.25
421.839	1910.25
422.062	1927.25
422.285	1928.25
422.507	1991.25
422.73	1974.25
422.953	1965.25
423.175	2006.25
423.398	1966.25
423.621	1980.25
423.843	2001.25
424.066	1961.25
424.288	1980.25
424.511	1991.25
424.733	1973.25
424.956	1941.25
425.178	1971.25
425.401	1941.25
425.623	1972.25
425.846	1917.25
426.068	1900.25
426.291	1868.25
426.513	1890.25
426.735	1887.25
426.958	1884.25
427.18	1830.25
427.402	1813.25
427.625	1840.25
427.847	1772.25
428.069	1796.25
428.292	1767.25
428.514	1688.25
428.736	1749.25
428.958	1801.25
429.181	1731.25
429.403	1733.25
429.625	1735.25
429.847	1761.25
430.069	1715.25
430.292	1728.25
430.514	1716.25
430.736	1747.25
430.958	1732.25
431.18	1775.25
431.402	1738.25
431.624	1768.25
431.846	1799.25
432.068	1825.25
432.29	1822.25
432.512	1748.25
432.734	1782.25
432.956	1800.25
433.178	1781.25
433.4	1809.25
433.622	1806.25
433.844	1838.25
434.066	1795.25
434.287	1836.25
434.509	1877.25
434.731	1930.25
434.953	1957.25
435.175	1975.25
435.397	1939.25
435.618	1885.25
435.84	1861.25
436.062	1820.25
436.284	1760.25
436.505	1764.25
436.727	1767.25
436.949	1774.25
437.17	1764.25
437.392	1742.25
437.614	1726.25
437.835	1738.25
438.057	1688.25
438.278	1669.25
438.5	1712.25
438.721	1703.25
438.943	1727.25
439.165	1703.25
439.386	1671.25
439.608	1738.25
439.829	1752.25
440.05	1742.25
440.272	1725.25
440.493	1740.25
440.715	1758.25
440.936	1780.25
441.158	1811.25
441.379	1853.25
441.6	1891.25
441.822	1888.25
442.043	1892.25
442.264	1876.25
442.486	1868.25
442.707	1872.25
442.928	1862.25
443.149	1895.25
443.371	1856.25
443.592	1930.25
443.813	1892.25
444.034	1919.25
444.255	1968.25
444.476	2091.25
444.698	2129.25
444.919	2168.25
445.14	2235.25
445.361	2085.25
445.582	2000.25
445.803	1899.25
446.024	1861.25
446.245	1855.25
446.466	1781.25
446.687	1742.25
446.908	1776.25
447.129	1694.25
447.35	1678.25
447.571	1667.25
447.792	1638.25
448.013	1649.25
448.234	1651.25
448.455	1631.25
448.675	1587.25
448.896	1589.25
449.117	1546.25
449.338	1534.25
449.559	1573.25
449.779	1542.25
450	1569.25
450.221	1580.25
450.442	1541.25
450.662	1577.25
450.883	1576.25
451.104	1590.25
451.324	1563.25
451.545	1577.25
451.766	1572.25
451.986	1553.25
452.207	1536.25
452.428	1563.25
452.648	1572.25
452.869	1519.25
453.089	1513.25
453.31	1560.25
453.53	1491.25
453.751	1550.25
453.971	1505.25
454.192	1540.25
454.412	1447.25
454.633	1467.25
454.853	1494.25
455.073	1504.25
455.294	1480.25
455.514	1491.25
455.734	1519.25
455.955	1484.25
456.175	1451.25
456.395	1481.25
456.616	1434.25
456.836	1487.25
457.056	1482.25
457.276	1471.25
457.497	1531.25
457.717	1488.25
457.937	1530.25
458.157	1529.25
458.377	1566.25
458.598	1583.25
458.818	1608.25
459.038	1705.25
459.258	1701.25
459.478	1750.25
459.698	1782.25
459.918	1810.25
460.138	1864.25
460.358	1936.25
460.578	1945.25
460.798	2014.25
461.018	1996.25
461.238	1988.25
461.458	1980.25
461.678	1975.25
461.898	2029.25
462.118	2040.25
462.338	2135.25
462.558	2230.25
462.777	2269.25
462.997	2351.25
463.217	2515.25
463.437	2499.25
463.657	2365.25
463.876	2299.25
464.096	2288.25
464.316	2258.25
464.536	2301.25
464.755	2187.25
464.975	2136.25
465.195	2091.25
465.414	1965.25
465.634	1859.25
465.854	1806.25
466.073	1776.25
466.293	1766.25
466.512	1740.25
466.732	1672.25
466.951	1715.25
467.171	1676.25
467.391	1683.25
467.61	1651.25
467.829	1621.25
468.049	1615.25
468.268	1621.25
468.488	1578.25
468.707	1569.25
468.927	1601.25
469.146	1571.25
469.365	1597.25
469.585	1623.25
469.804	1682.25
470.023	1665.25
470.243	1681.25
470.462	1687.25
470.681	1701.25
470.901	1691.25
471.12	1716.25
471.339	1663.25
471.558	1655.25
471.777	1620.25
471.997	1630.25
472.216	1614.25
472.435	1607.25
472.654	1600.25
472.873	1581.25
473.092	1593.25
473.311	1592.25
473.53	1562.25
473.749	1581.25
473.968	1587.25
474.187	1589.25
474.406	1608.25
474.625	1569.25
474.844	1587.25
475.063	1566.25
475.282	1598.25
475.501	1616.25
475.72	1669.25
475.939	1673.25
476.158	1635.25
476.377	1652.25
476.596	1674.25
476.814	1699.25
477.033	1673.25
477.252	1750.25
477.471	1795.25
477.69	1808.25
477.908	1807.25
478.127	1878.25
478.346	1873.25
478.564	1887.25
478.783	1956.25
479.002	2011.25
479.22	1998.25
479.439	1982.25
479.658	1978.25
479.876	2013.25
480.095	2025.25
480.313	2086.25
480.532	2126.25
480.751	2119.25
480.969	2083.25
481.188	2032.25
481.406	1980.25
481.624	1972.25
481.843	1948.25
482.061	1908.25
482.28	1935.25
482.498	1947.25
482.717	1965.25
482.935	1908.25
483.153	1932.25
483.372	1936.25
483.59	1936.25
483.808	1936.25
484.027	1963.25
484.245	1983.25
484.463	1994.25
484.681	2031.25
484.9	2014.25
485.118	2068.25
485.336	2064.25
485.554	2083.25
485.772	2069.25
485.99	2036.25
486.209	2068.25
486.427	2066.25
486.645	2028.25
486.863	2043.25
487.081	2075.25
487.299	2014.25
487.517	2047.25
487.735	2049.25
487.953	2068.25
488.171	2069.25
488.389	2047.25
488.607	1997.25
488.825	1947.25
489.043	1987.25
489.261	1999.25
489.479	1986.25
489.696	1964.25
489.914	2021.25
490.132	1994.25
490.35	1982.25
490.568	1992.25
490.786	1997.25
491.003	1949.25
491.221	2024.25
491.439	2013.25
491.657	2017.25
491.874	2006.25
492.092	1991.25
492.31	1965.25
492.527	2002.25
492.745	2009.25
492.963	1990.25
493.18	2011.25
493.398	2041.25
493.615	2068.25
493.833	2031.25
494.05	2014.25
494.268	2038.25
494.485	2030.25
494.703	2053.25
494.92	2041.25
495.138	2051.25
495.355	2038.25
495.573	2051.25
495.79	2073.25
496.008	2111.25
496.225	2076.25
496.442	2096.25
496.66	2144.25
496.877	2148.25
497.094	2146.25
497.312	2228.25
497.529	2260.25
497.746	2355.25
497.963	2362.25
498.181	2459.25
498.398	2620.25
498.615	2685.25
498.832	2810.25
499.049	3011.25
499.267	3197.25
499.484	3483.25
499.701	3758.25
499.918	4100.25
500.135	4525.25
500.352	4898.25
500.569	5082.25
500.786	5051.25
501.003	4792.25
501.22	4395.25
501.437	4016.25
501.654	3632.25
501.871	3417.25
502.088	3179.25
502.305	3021.25
502.522	2828.25
502.739	2753.25
502.956	2626.25
503.172	2554.25
503.389	2390.25
503.606	2347.25
503.823	2322.25
504.04	2261.25
504.256	2240.25
504.473	2329.25
504.69	2295.25
504.907	2288.25
505.123	2151.25
505.34	2096.25
505.557	1961.25
505.773	1941.25
505.99	1928.25
506.207	1855.25
506.423	1866.25
506.64	1856.25
506.856	1787.25
507.073	1805.25
507.289	1779.25
507.506	1733.25
507.722	1741.25
507.939	1705.25
508.155	1719.25
508.372	1733.25
508.588	1689.25
508.805	1666.25
509.021	1685.25
509.238	1659.25
509.454	1615.25
509.67	1637.25
509.887	1627.25
510.103	1646.25
510.319	1597.25
510.536	1554.25
510.752	1569.25
510.968	1612.25
511.184	1591.25
511.401	1593.25
511.617	1566.25
511.833	1595.25
512.049	1568.25
512.265	1587.25
512.481	1556.25
512.698	1575.25
512.914	1549.25
513.13	1587.25
513.346	1585.25
513.562	1595.25
513.778	1563.25
513.994	1592.25
514.21	1613.25
514.426	1575.25
514.642	1626.25
514.858	1612.25
515.074	1643.25
515.29	1648.25
515.506	1624.25
515.721	1678.25
515.937	1745.25
516.153	1748.25
516.369	1754.25
516.585	1824.25
516.801	1848.25
517.016	1891.25
517.232	1971.25
517.448	1997.25
517.664	2039.25
517.879	2064.25
518.095	2070.25
518.311	2041.25
518.527	1978.25
518.742	1892.25
518.958	1858.25
519.173	1815.25
519.389	1772.25
519.605	1723.25
519.82	1685.25
520.036	1669.25
520.251	1601.25
520.467	1629.25
520.682	1587.25
520.898	1575.25
521.113	1540.25
521.329	1543.25
521.544	1517.25
521.76	1488.25
521.975	1497.25
522.19	1539.25
522.406	1513.25
522.621	1492.25
522.836	1472.25
523.052	1471.25
523.267	1437.25
523.482	1429.25
523.698	1436.25
523.913	1482.25
524.128	1433.25
524.343	1488.25
524.559	1441.25
524.774	1439.25
524.989	1439.25
525.204	1454.25
525.419	1443.25
525.634	1419.25
525.849	1421.25
526.064	1418.25
526.28	1392.25
526.495	1372.25
526.71	1404.25
526.925	1388.25
527.14	1402.25
527.355	1405.25
527.57	1397.25
527.785	1398.25
527.999	1374.25
528.214	1389.25
528.429	1395.25
528.644	1405.25
528.859	1419.25
529.074	1369.25
529.289	1390.25
529.503	1392.25
529.718	1412.25
529.933	1376.25
530.148	1373.25
530.363	1385.25
530.577	1390.25
530.792	1415.25
531.007	1371.25
531.221	1379.25
531.436	1381.25
531.651	1399.25
531.865	1392.25
532.08	1381.25
532.295	1390.25
532.509	1371.25
532.724	1374.25
532.938	1411.25
533.153	1347.25
533.367	1395.25
533.582	1397.25
533.796	1368.25
534.011	1407.25
534.225	1358.25
534.44	1355.25
534.654	1354.25
534.868	1326.25
535.083	1340.25
535.297	1346.25
535.511	1319.25
535.726	1322.25
535.94	1312.25
536.154	1320.25
536.369	1331.25
536.583	1304.25
536.797	1283.25
537.011	1301.25
537.225	1315.25
537.44	1276.25
537.654	1263.25
537.868	1290.25
538.082	1257.25
538.296	1257.25
538.51	1260.25
538.724	1280.25
538.938	1256.25
539.153	1214.25
539.367	1258.25
539.581	1268.25
539.795	1239.25
540.009	1244.25
540.222	1241.25
540.436	1244.25
540.65	1215.25
540.864	1216.25
541.078	1232.25
541.292	1218.25
541.506	1210.25
541.72	1238.25
541.934	1233.25
542.147	1213.25
542.361	1239.25
542.575	1245.25
542.789	1217.25
543.002	1222.25
543.216	1230.25
543.43	1233.25
543.644	1219.25
543.857	1188.25
544.071	1207.25
544.285	1234.25
544.498	1196.25
544.712	1225.25
544.925	1228.25
545.139	1222.25
545.352	1223.25
545.566	1233.25
545.779	1213.25
545.993	1249.25
546.206	1248.25
546.42	1242.25
546.633	1255.25
546.847	1251.25
547.06	1223.25
547.274	1220.25
547.487	1240.25
547.7	1244.25
547.914	1221.25
548.127	1270.25
548.34	1243.25
548.554	1243.25
548.767	1251.25
548.98	1234.25
549.193	1228.25
549.407	1239.25
549.62	1259.25
549.833	1262.25
550.046	1258.25
550.259	1236.25
550.473	1237.25
550.686	1244.25
550.899	1245.25
551.112	1218.25
551.325	1224.25
551.538	1214.25
551.751	1195.25
551.964	1247.25
552.177	1224.25
552.39	1229.25
552.603	1256.25
552.816	1308.25
553.029	1271.25
553.242	1324.25
553.455	1333.25
553.667	1312.25
553.88	1313.25
554.093	1273.25
554.306	1242.25
554.519	1231.25
554.732	1217.25
554.944	1220.25
555.157	1182.25
555.37	1199.25
555.583	1147.25
555.795	1149.25
556.008	1102.25
556.221	1103.25
556.433	1092.25
556.646	1093.25
556.859	1103.25
557.071	1078.25
557.284	1062.25
557.496	1047.25
557.709	1071.25
557.921	1059.25
558.134	1077.25
558.346	1041.25
558.559	1064.25
558.771	1062.25
558.984	1034.25
559.196	1019.25
559.409	1039.25
559.621	1003.25
559.833	1031.25
560.046	1003.25
560.258	1015.25
560.47	1011.25
560.683	1030.25
560.895	1031.25
561.107	992.25
561.32	995.25
561.532	981.25
561.744	1041.25
561.956	1011.25
562.168	1041.25
562.381	1015.25
562.593	1031.25
562.805	1039.25
563.017	1025.25
563.229	1035.25
563.441	1040.25
563.653	1028.25
563.865	1038.25
564.077	1085.25
564.289	1057.25
564.501	1054.25
564.713	1103.25
564.925	1110.25
565.137	1102.25
565.349	1161.25
565.561	1187.25
565.773	1231.25
565.985	1283.25
566.197	1331.25
566.408	1384.25
566.62	1451.25
566.832	1559.25
567.044	1590.25
567.255	1594.25
567.467	1638.25
567.679	1693.25
567.891	1745.25
568.102	1760.25
568.314	1705.25
568.526	1592.25
568.737	1453.25
568.949	1341.25
569.161	1258.25
569.372	1182.25
569.584	1153.25
569.795	1131.25
570.007	1085.25
570.218	1049.25
570.43	1066.25
570.641	1019.25
570.853	1035.25
571.064	1048.25
571.276	1045.25
571.487	1018.25
571.698	949.25
571.91	928.25
572.121	918.25
572.333	910.25
572.544	897.25
572.755	867.25
572.966	885.25
573.178	863.25
573.389	862.25
573.6	846.25
573.811	849.25
574.023	835.25
574.234	833.25
574.445	820.25
574.656	831.25
574.867	827.25
575.078	813.25
575.289	821.25
575.501	841.25
575.712	799.25
575.923	819.25
576.134	794.25
576.345	799.25
576.556	771.25
576.767	779.25
576.978	780.25
577.188	750.25
577.399	771.25
577.61	780.25
577.821	764.25
578.032	739.25
578.243	709.25
578.454	748.25
578.665	750.25
578.875	736.25
579.086	735.25
579.297	742.25
579.508	744.25
579.718	728.25
579.929	726.25
580.14	703.25
580.35	712.25
580.561	705.25
580.772	689.25
580.982	685.25
581.193	714.25
581.403	696.25
581.614	679.25
581.825	681.25
582.035	690.25
582.246	676.25
582.456	700.25
582.667	687.25
582.877	696.25
583.087	693.25
583.298	694.25
583.508	681.25
583.719	693.25
583.929	699.25
584.139	673.25
584.35	665.25
584.56	695.25
584.77	686.25
584.981	659.25
585.191	672.25
585.401	657.25
585.611	664.25
585.821	672.25
586.032	692.25
586.242	649.25
586.452	655.25
586.662	643.25
586.872	659.25
587.082	641.25
587.292	679.25
587.502	683.25
587.713	665.25
587.923	669.25
588.133	652.25
588.343	653.25
588.553	659.25
588.762	663.25
588.972	667.25
589.182	678.25
589.392	673.25
589.602	639.25
589.812	662.25
590.022	652.25
590.232	649.25
590.441	677.25
590.651	669.25
590.861	681.25
591.071	696.25
591.281	658.25
591.49	686.25
591.7	684.25
591.91	687.25
592.119	676.25
592.329	717.25
592.539	707.25
592.748	752.25
592.958	772.25
593.167	793.25
593.377	787.25
593.587	795.25
593.796	806.25
594.006	801.25
594.215	792.25
594.424	804.25
594.634	766.25
594.843	737.25
595.053	714.25
595.262	734.25
595.472	688.25
595.681	670.25
595.89	669.25
596.1	654.25
596.309	632.25
596.518	639.25
596.727	648.25
596.937	591.25
597.146	597.25
597.355	617.25
597.564	589.25
597.774	612.25
597.983	584.25
598.192	582.25
598.401	560.25
598.61	576.25
598.819	579.25
599.028	575.25
599.237	564.25
599.446	551.25
599.655	568.25
599.864	564.25
600.073	540.25
600.282	555.25
600.491	534.25
600.7	535.25
600.909	541.25
601.118	535.25
601.327	512.25
601.536	551.25
601.745	497.25
601.953	517.25
602.162	532.25
602.371	540.25
602.58	509.25
602.789	526.25
602.997	530.25
603.206	537.25
603.415	505.25
603.623	490.25
603.832	522.25
604.041	516.25
604.249	511.25
604.458	515.25
604.666	487.25
604.875	496.25
605.084	483.25
605.292	513.25
605.501	496.25
605.709	492.25
605.918	474.25
606.126	476.25
606.334	478.25
606.543	483.25
606.751	466.25
606.96	485.25
607.168	489.25
607.376	499.25
607.585	487.25
607.793	485.25
608.001	462.25
608.21	469.25
608.418	483.25
608.626	483.25
608.834	484.25
609.043	480.25
609.251	471.25
609.459	483.25
609.667	502.25
609.875	465.25
610.083	496.25
610.291	475.25
610.499	486.25
610.707	467.25
610.916	471.25
611.124	475.25
611.332	482.25
611.54	471.25
611.748	452.25
611.955	473.25
612.163	453.25
612.371	455.25
612.579	493.25
612.787	458.25
612.995	454.25
613.203	460.25
613.411	456.25
613.618	482.25
613.826	449.25
614.034	463.25
614.242	465.25
614.449	461.25
614.657	423.25
614.865	460.25
615.072	462.25
615.28	435.25
615.488	458.25
615.695	462.25
615.903	440.25
616.111	453.25
616.318	466.25
616.526	447.25
616.733	465.25
616.941	442.25
617.148	438.25
617.356	425.25
617.563	445.25
617.771	456.25
617.978	445.25
618.185	459.25
618.393	443.25
618.6	457.25
618.807	455.25
619.015	453.25
619.222	458.25
619.429	439.25
619.637	448.25
619.844	432.25
620.051	454.25
620.258	421.25
620.466	401.25
620.673	417.25
620.88	408.25
621.087	413.25
621.294	417.25
621.501	419.25
621.708	423.25
621.915	432.25
622.122	436.25
622.329	428.25
622.536	418.25
622.743	426.25
622.95	400.25
623.157	405.25
623.364	398.25
623.571	410.25
623.778	409.25
623.985	417.25
624.192	397.25
624.399	404.25
624.606	389.25
624.812	387.25
625.019	378.25
625.226	401.25
625.433	385.25
625.639	384.25
625.846	383.25
626.053	377.25
626.259	390.25
626.466	384.25
626.673	376.25
626.879	369.25
627.086	380.25
627.293	361.25
627.499	371.25
627.706	377.25
627.912	367.25
628.119	370.25
628.325	365.25
628.532	377.25
628.738	349.25
628.945	352.25
629.151	370.25
629.357	355.25
629.564	351.25
629.77	346.25
629.976	356.25
630.183	357.25
630.389	343.25
630.595	351.25
630.802	337.25
631.008	371.25
631.214	357.25
631.42	353.25
631.627	365.25
631.833	355.25
632.039	360.25
632.245	344.25
632.451	335.25
632.657	340.25
632.863	356.25
633.069	344.25
633.275	324.25
633.481	336.25
633.688	333.25
633.893	340.25
634.099	355.25
634.305	350.25
634.511	341.25
634.717	343.25
634.923	312.25
635.129	324.25
635.335	333.25
635.541	316.25
635.747	318.25
635.952	324.25
636.158	341.25
636.364	337.25
636.57	335.25
636.775	334.25
636.981	325.25
637.187	330.25
637.392	304.25
637.598	307.25
637.804	334.25
638.009	328.25
638.215	325.25
638.421	321.25
638.626	331.25
638.832	320.25
639.037	304.25
639.243	326.25
639.448	316.25
639.654	308.25
639.859	298.25
640.065	302.25
640.27	317.25
640.475	302.25
640.681	311.25
640.886	298.25
641.091	292.25
641.297	293.25
641.502	310.25
641.707	305.25
641.913	301.25
642.118	287.25
642.323	301.25
642.528	308.25
642.733	283.25
642.939	311.25
643.144	303.25
643.349	299.25
643.554	315.25
643.759	308.25
643.964	277.25
644.169	302.25
644.374	294.25
644.579	297.25
644.784	323.25
644.989	312.25
645.194	306.25
645.399	284.25
645.604	282.25
645.809	309.25
646.014	318.25
646.219	318.25
646.423	316.25
646.628	303.25
646.833	298.25
647.038	304.25
647.243	320.25
647.447	307.25
647.652	324.25
647.857	320.25
648.062	337.25
648.266	315.25
648.471	313.25
648.676	322.25
648.88	333.25
649.085	327.25
649.289	326.25
649.494	328.25
649.698	311.25
649.903	300.25
650.107	315.25
650.312	325.25
650.516	298.25
650.721	315.25
650.925	298.25
651.13	290.25
651.334	294.25
651.539	301.25
651.743	292.25
651.947	281.25
652.152	312.25
652.356	301.25
652.56	288.25
652.764	290.25
652.969	291.25
653.173	296.25
653.377	296.25
653.581	281.25
653.785	283.25
653.99	276.25
654.194	286.25
654.398	274.25
654.602	298.25
654.806	310.25
655.01	307.25
655.214	303.25
655.418	311.25
655.622	317.25
655.826	311.25
656.03	346.25
656.234	371.25
656.438	391.25
656.642	379.25
656.846	371.25
657.049	321.25
657.253	312.25
657.457	279.25
657.661	254.25
657.865	227.25
658.068	228.25
658.272	228.25
658.476	180.25
658.68	177.25
658.883	172.25
659.087	174.25
659.291	156.25
659.494	146.25
659.698	133.25
659.901	142.25
660.105	142.25
660.309	137.25
660.512	122.25
660.716	137.25
660.919	127.25
661.123	113.25
661.326	105.25
661.53	106.25
661.733	105.25
661.936	110.25
662.14	91.25
662.343	103.25
662.546	104.25
662.75	116.25
662.953	78.25
663.156	101.25
663.36	80.25
663.563	91.25
663.766	91.25
663.969	87.25
664.173	91.25
664.376	78.25
664.579	80.25
664.782	87.25
664.985	95.25
665.188	87.25
665.391	96.25
665.594	96.25
665.797	78.25
666	83.25
666.203	86.25
666.406	81.25
666.609	73.25
666.812	96.25
667.015	80.25
667.218	85.25
667.421	74.25
667.624	91.25
667.827	88.25
668.03	85.25
668.232	87.25
668.435	91.25
668.638	80.25
668.841	78.25
669.043	89.25
669.246	80.25
669.449	90.25
669.651	96.25
669.854	78.25
670.057	82.25
670.259	75.25
670.462	82.25
670.665	82.25
670.867	87.25
671.07	101.25
671.272	94.25
671.475	97.25
671.677	79.25
671.88	84.25
672.082	70.25
672.284	81.25
672.487	92.25
672.689	77.25
672.892	91.25
