Data from NiCl2@0.0625M.TitratingCurve.Agarose3%dH2O.NegLispCup.LampEnergy10.LIBS07252019_HRD10591_18-33-27-576.txt Node
Date: Thu Jul 25 18:33:27 EDT 2019
User: cochatt
Spectrometer: HR+D1059
Trigger mode: 1
Integration Time (sec): 1.000000E-1
Scans to average: 1
Electric dark correction enabled: true
Nonlinearity correction enabled: false
Boxcar width: 0
XAxis mode: Wavelengths
Number of Pixels in Spectrum: 2048
>>>>>Begin Spectral Data<<<<<
223.165	-11.06
223.4	-11.06
223.635	-11.06
223.869	-13.06
224.104	-25.06
224.338	-4.06
224.573	-15.06
224.808	7.94
225.042	-22.06
225.277	-12.06
225.511	-13.06
225.746	3.94
225.98	6.94
226.215	3.94
226.449	11.94
226.683	17.94
226.918	24.94
227.152	37.94
227.387	44.94
227.621	45.94
227.856	42.94
228.09	43.94
228.324	46.94
228.559	76.94
228.793	88.94
229.027	156.94
229.262	166.94
229.496	167.94
229.73	167.94
229.964	182.94
230.199	201.94
230.433	198.94
230.667	194.94
230.901	194.94
231.136	203.94
231.37	195.94
231.604	184.94
231.838	214.94
232.072	227.94
232.306	203.94
232.541	216.94
232.775	232.94
233.009	214.94
233.243	212.94
233.477	219.94
233.711	225.94
233.945	213.94
234.179	238.94
234.413	229.94
234.647	216.94
234.881	230.94
235.115	225.94
235.349	218.94
235.583	226.94
235.817	253.94
236.051	223.94
236.285	243.94
236.519	241.94
236.753	255.94
236.987	247.94
237.221	243.94
237.455	245.94
237.689	257.94
237.922	268.94
238.156	262.94
238.39	285.94
238.624	258.94
238.858	293.94
239.091	286.94
239.325	257.94
239.559	275.94
239.793	283.94
240.027	295.94
240.26	280.94
240.494	288.94
240.728	298.94
240.961	295.94
241.195	300.94
241.429	310.94
241.662	319.94
241.896	303.94
242.13	329.94
242.363	333.94
242.597	315.94
242.83	332.94
243.064	324.94
243.298	322.94
243.531	327.94
243.765	328.94
243.998	326.94
244.232	342.94
244.465	344.94
244.699	353.94
244.932	374.94
245.166	370.94
245.399	346.94
245.633	362.94
245.866	361.94
246.099	379.94
246.333	381.94
246.566	367.94
246.8	376.94
247.033	400.94
247.266	393.94
247.5	383.94
247.733	396.94
247.966	401.94
248.2	425.94
248.433	420.94
248.666	405.94
248.899	407.94
249.133	426.94
249.366	413.94
249.599	414.94
249.832	415.94
250.066	410.94
250.299	427.94
250.532	420.94
250.765	436.94
250.998	419.94
251.231	453.94
251.465	456.94
251.698	486.94
251.931	456.94
252.164	464.94
252.397	483.94
252.63	455.94
252.863	461.94
253.096	466.94
253.329	476.94
253.562	464.94
253.795	485.94
254.028	481.94
254.261	484.94
254.494	453.94
254.727	500.94
254.96	469.94
255.193	484.94
255.426	498.94
255.659	511.94
255.892	516.94
256.124	528.94
256.357	484.94
256.59	483.94
256.823	495.94
257.056	523.94
257.289	529.94
257.521	525.94
257.754	531.94
257.987	518.94
258.22	547.94
258.452	536.94
258.685	512.94
258.918	550.94
259.151	539.94
259.383	552.94
259.616	538.94
259.849	542.94
260.081	572.94
260.314	550.94
260.547	561.94
260.779	573.94
261.012	586.94
261.244	569.94
261.477	566.94
261.71	579.94
261.942	581.94
262.175	591.94
262.407	569.94
262.64	579.94
262.872	591.94
263.105	592.94
263.337	581.94
263.57	590.94
263.802	603.94
264.035	585.94
264.267	619.94
264.499	627.94
264.732	629.94
264.964	600.94
265.197	605.94
265.429	628.94
265.661	629.94
265.894	621.94
266.126	607.94
266.358	632.94
266.591	627.94
266.823	643.94
267.055	637.94
267.287	659.94
267.52	628.94
267.752	671.94
267.984	671.94
268.216	676.94
268.448	672.94
268.681	666.94
268.913	659.94
269.145	673.94
269.377	673.94
269.609	676.94
269.841	696.94
270.073	662.94
270.306	689.94
270.538	707.94
270.77	673.94
271.002	701.94
271.234	682.94
271.466	701.94
271.698	721.94
271.93	699.94
272.162	719.94
272.394	705.94
272.626	700.94
272.858	736.94
273.09	721.94
273.322	720.94
273.553	732.94
273.785	747.94
274.017	761.94
274.249	756.94
274.481	760.94
274.713	745.94
274.945	785.94
275.176	779.94
275.408	752.94
275.64	746.94
275.872	769.94
276.104	781.94
276.335	775.94
276.567	768.94
276.799	781.94
277.031	799.94
277.262	785.94
277.494	790.94
277.726	778.94
277.957	782.94
278.189	803.94
278.421	774.94
278.652	788.94
278.884	796.94
279.115	813.94
279.347	799.94
279.579	844.94
279.81	852.94
280.042	839.94
280.273	821.94
280.505	819.94
280.736	840.94
280.968	833.94
281.199	842.94
281.431	851.94
281.662	867.94
281.894	848.94
282.125	851.94
282.356	876.94
282.588	876.94
282.819	857.94
283.051	885.94
283.282	863.94
283.513	880.94
283.745	871.94
283.976	869.94
284.207	875.94
284.439	871.94
284.67	913.94
284.901	899.94
285.132	921.94
285.364	938.94
285.595	885.94
285.826	908.94
286.057	926.94
286.288	898.94
286.52	903.94
286.751	933.94
286.982	945.94
287.213	937.94
287.444	932.94
287.675	917.94
287.906	943.94
288.138	933.94
288.369	929.94
288.6	932.94
288.831	935.94
289.062	965.94
289.293	943.94
289.524	992.94
289.755	950.94
289.986	938.94
290.217	935.94
290.448	951.94
290.679	940.94
290.91	966.94
291.141	996.94
291.371	952.94
291.602	1003.94
291.833	983.94
292.064	965.94
292.295	974.94
292.526	979.94
292.757	952.94
292.987	945.94
293.218	950.94
293.449	971.94
293.68	980.94
293.91	983.94
294.141	978.94
294.372	997.94
294.603	986.94
294.833	988.94
295.064	1019.94
295.295	991.94
295.525	977.94
295.756	997.94
295.987	984.94
296.217	1031.94
296.448	1016.94
296.679	977.94
296.909	1013.94
297.14	1003.94
297.37	1053.94
297.601	1049.94
297.831	1037.94
298.062	1040.94
298.292	1043.94
298.523	1023.94
298.753	1070.94
298.984	1073.94
299.214	1084.94
299.445	1043.94
299.675	1042.94
299.905	1045.94
300.136	1071.94
300.366	1064.94
300.597	1096.94
300.827	1096.94
301.057	1099.94
301.288	1084.94
301.518	1081.94
301.748	1101.94
301.979	1124.94
302.209	1126.94
302.439	1119.94
302.669	1098.94
302.9	1088.94
303.13	1079.94
303.36	1073.94
303.59	1108.94
303.82	1080.94
304.051	1117.94
304.281	1092.94
304.511	1084.94
304.741	1128.94
304.971	1122.94
305.201	1104.94
305.431	1135.94
305.661	1107.94
305.891	1105.94
306.121	1103.94
306.352	1076.94
306.582	1067.94
306.812	1097.94
307.042	1078.94
307.272	1085.94
307.502	1082.94
307.731	1095.94
307.961	1095.94
308.191	1092.94
308.421	1096.94
308.651	1107.94
308.881	1085.94
309.111	1096.94
309.341	1091.94
309.571	1099.94
309.8	1099.94
310.03	1121.94
310.26	1092.94
310.49	1107.94
310.72	1105.94
310.949	1124.94
311.179	1105.94
311.409	1137.94
311.639	1141.94
311.868	1123.94
312.098	1165.94
312.328	1144.94
312.557	1192.94
312.787	1163.94
313.017	1180.94
313.246	1176.94
313.476	1172.94
313.706	1172.94
313.935	1180.94
314.165	1140.94
314.394	1174.94
314.624	1200.94
314.853	1169.94
315.083	1168.94
315.312	1192.94
315.542	1164.94
315.771	1191.94
316.001	1166.94
316.23	1185.94
316.46	1130.94
316.689	1146.94
316.919	1173.94
317.148	1163.94
317.377	1171.94
317.607	1177.94
317.836	1151.94
318.065	1144.94
318.295	1161.94
318.524	1172.94
318.753	1154.94
318.983	1179.94
319.212	1165.94
319.441	1170.94
319.67	1164.94
319.9	1185.94
320.129	1169.94
320.358	1184.94
320.587	1175.94
320.816	1164.94
321.046	1211.94
321.275	1162.94
321.504	1165.94
321.733	1147.94
321.962	1167.94
322.191	1180.94
322.42	1193.94
322.649	1188.94
322.878	1193.94
323.108	1181.94
323.337	1179.94
323.566	1226.94
323.795	1203.94
324.024	1183.94
324.253	1220.94
324.482	1220.94
324.71	1199.94
324.939	1250.94
325.168	1248.94
325.397	1248.94
325.626	1250.94
325.855	1269.94
326.084	1260.94
326.313	1285.94
326.542	1290.94
326.77	1281.94
326.999	1267.94
327.228	1273.94
327.457	1234.94
327.686	1266.94
327.914	1281.94
328.143	1267.94
328.372	1268.94
328.6	1280.94
328.829	1271.94
329.058	1270.94
329.287	1293.94
329.515	1289.94
329.744	1295.94
329.972	1306.94
330.201	1316.94
330.43	1331.94
330.658	1304.94
330.887	1318.94
331.115	1335.94
331.344	1343.94
331.572	1362.94
331.801	1420.94
332.03	1393.94
332.258	1401.94
332.486	1442.94
332.715	1451.94
332.943	1488.94
333.172	1520.94
333.4	1610.94
333.629	1641.94
333.857	1671.94
334.085	1654.94
334.314	1649.94
334.542	1590.94
334.771	1626.94
334.999	1605.94
335.227	1607.94
335.455	1563.94
335.684	1599.94
335.912	1529.94
336.14	1570.94
336.369	1566.94
336.597	1560.94
336.825	1527.94
337.053	1520.94
337.281	1477.94
337.51	1482.94
337.738	1466.94
337.966	1457.94
338.194	1463.94
338.422	1413.94
338.65	1423.94
338.878	1444.94
339.106	1442.94
339.334	1398.94
339.562	1439.94
339.79	1396.94
340.018	1367.94
340.246	1325.94
340.474	1345.94
340.702	1350.94
340.93	1367.94
341.158	1351.94
341.386	1380.94
341.614	1352.94
341.842	1351.94
342.07	1320.94
342.298	1322.94
342.526	1352.94
342.754	1338.94
342.981	1308.94
343.209	1377.94
343.437	1423.94
343.665	1509.94
343.893	1537.94
344.12	1591.94
344.348	1604.94
344.576	1471.94
344.804	1461.94
345.031	1417.94
345.259	1381.94
345.487	1345.94
345.714	1323.94
345.942	1323.94
346.17	1294.94
346.397	1298.94
346.625	1296.94
346.853	1297.94
347.08	1269.94
347.308	1314.94
347.535	1291.94
347.763	1287.94
347.99	1299.94
348.218	1275.94
348.445	1283.94
348.673	1229.94
348.9	1252.94
349.128	1263.94
349.355	1290.94
349.583	1273.94
349.81	1238.94
350.037	1281.94
350.265	1249.94
350.492	1270.94
350.72	1288.94
350.947	1256.94
351.174	1274.94
351.402	1290.94
351.629	1264.94
351.856	1254.94
352.083	1252.94
352.311	1277.94
352.538	1220.94
352.765	1253.94
352.992	1258.94
353.22	1249.94
353.447	1215.94
353.674	1225.94
353.901	1252.94
354.128	1227.94
354.355	1272.94
354.583	1246.94
354.81	1233.94
355.037	1255.94
355.264	1247.94
355.491	1250.94
355.718	1286.94
355.945	1242.94
356.172	1227.94
356.399	1232.94
356.626	1244.94
356.853	1260.94
357.08	1264.94
357.307	1264.94
357.534	1279.94
357.761	1247.94
357.988	1282.94
358.215	1252.94
358.441	1248.94
358.668	1239.94
358.895	1243.94
359.122	1243.94
359.349	1268.94
359.576	1267.94
359.802	1260.94
360.029	1255.94
360.256	1221.94
360.483	1238.94
360.709	1253.94
360.936	1236.94
361.163	1219.94
361.39	1229.94
361.616	1284.94
361.843	1232.94
362.07	1244.94
362.296	1251.94
362.523	1241.94
362.749	1256.94
362.976	1248.94
363.203	1264.94
363.429	1236.94
363.656	1248.94
363.882	1255.94
364.109	1225.94
364.335	1215.94
364.562	1280.94
364.788	1267.94
365.015	1239.94
365.241	1229.94
365.468	1219.94
365.694	1271.94
365.92	1228.94
366.147	1244.94
366.373	1267.94
366.599	1233.94
366.826	1270.94
367.052	1248.94
367.278	1229.94
367.505	1246.94
367.731	1269.94
367.957	1259.94
368.184	1271.94
368.41	1260.94
368.636	1271.94
368.862	1274.94
369.089	1253.94
369.315	1304.94
369.541	1318.94
369.767	1311.94
369.993	1290.94
370.219	1247.94
370.445	1333.94
370.672	1322.94
370.898	1351.94
371.124	1341.94
371.35	1340.94
371.576	1363.94
371.802	1331.94
372.028	1321.94
372.254	1323.94
372.48	1379.94
372.706	1393.94
372.932	1384.94
373.158	1381.94
373.384	1359.94
373.61	1380.94
373.835	1365.94
374.061	1348.94
374.287	1377.94
374.513	1392.94
374.739	1441.94
374.965	1490.94
375.191	1463.94
375.416	1483.94
375.642	1494.94
375.868	1448.94
376.094	1384.94
376.319	1401.94
376.545	1356.94
376.771	1371.94
376.997	1333.94
377.222	1355.94
377.448	1373.94
377.674	1386.94
377.899	1362.94
378.125	1341.94
378.35	1335.94
378.576	1338.94
378.802	1331.94
379.027	1327.94
379.253	1346.94
379.478	1338.94
379.704	1321.94
379.929	1341.94
380.155	1340.94
380.38	1376.94
380.606	1372.94
380.831	1358.94
381.057	1341.94
381.282	1356.94
381.507	1349.94
381.733	1363.94
381.958	1367.94
382.184	1382.94
382.409	1403.94
382.634	1425.94
382.86	1428.94
383.085	1437.94
383.31	1432.94
383.535	1492.94
383.761	1478.94
383.986	1507.94
384.211	1540.94
384.436	1574.94
384.662	1546.94
384.887	1585.94
385.112	1583.94
385.337	1574.94
385.562	1624.94
385.787	1612.94
386.013	1633.94
386.238	1617.94
386.463	1630.94
386.688	1624.94
386.913	1622.94
387.138	1600.94
387.363	1574.94
387.588	1590.94
387.813	1595.94
388.038	1575.94
388.263	1638.94
388.488	1628.94
388.713	1596.94
388.938	1600.94
389.163	1594.94
389.387	1605.94
389.612	1600.94
389.837	1570.94
390.062	1580.94
390.287	1568.94
390.512	1588.94
390.736	1626.94
390.961	1670.94
391.186	1678.94
391.411	1714.94
391.636	1779.94
391.86	1800.94
392.085	1783.94
392.31	1759.94
392.534	1761.94
392.759	1745.94
392.984	1737.94
393.208	1718.94
393.433	1770.94
393.658	1778.94
393.882	1721.94
394.107	1691.94
394.331	1729.94
394.556	1761.94
394.78	1738.94
395.005	1722.94
395.229	1725.94
395.454	1783.94
395.678	1786.94
395.903	1811.94
396.127	1787.94
396.352	1754.94
396.576	1724.94
396.801	1775.94
397.025	1851.94
397.249	1806.94
397.474	1853.94
397.698	1831.94
397.922	1824.94
398.147	1852.94
398.371	1880.94
398.595	1888.94
398.82	1982.94
399.044	2112.94
399.268	2279.94
399.492	2578.94
399.717	2805.94
399.941	2786.94
400.165	2607.94
400.389	2406.94
400.613	2230.94
400.837	2141.94
401.062	2073.94
401.286	2039.94
401.51	2017.94
401.734	2044.94
401.958	2054.94
402.182	2036.94
402.406	2065.94
402.63	2099.94
402.854	2114.94
403.078	2146.94
403.302	2159.94
403.526	2152.94
403.75	2169.94
403.974	2247.94
404.198	2195.94
404.422	2177.94
404.645	2206.94
404.869	2160.94
405.093	2227.94
405.317	2182.94
405.541	2164.94
405.765	2141.94
405.988	2158.94
406.212	2152.94
406.436	2175.94
406.66	2256.94
406.883	2211.94
407.107	2394.94
407.331	2471.94
407.555	2553.94
407.778	2517.94
408.002	2456.94
408.226	2385.94
408.449	2398.94
408.673	2322.94
408.896	2216.94
409.12	2274.94
409.344	2277.94
409.567	2188.94
409.791	2217.94
410.014	2240.94
410.238	2200.94
410.461	2227.94
410.685	2189.94
410.908	2175.94
411.132	2133.94
411.355	2067.94
411.578	2089.94
411.802	2165.94
412.025	2095.94
412.249	2117.94
412.472	2118.94
412.695	2079.94
412.919	1999.94
413.142	2001.94
413.365	2008.94
413.589	2050.94
413.812	1992.94
414.035	1959.94
414.258	1977.94
414.482	2033.94
414.705	2053.94
414.928	2012.94
415.151	2009.94
415.374	1970.94
415.597	1938.94
415.821	1949.94
416.044	1955.94
416.267	1925.94
416.49	1915.94
416.713	1923.94
416.936	1942.94
417.159	1938.94
417.382	1916.94
417.605	1863.94
417.828	1926.94
418.051	1937.94
418.274	1924.94
418.497	1895.94
418.72	1979.94
418.943	1945.94
419.166	2072.94
419.389	2251.94
419.611	2179.94
419.834	2085.94
420.057	2011.94
420.28	1977.94
420.503	1869.94
420.726	1913.94
420.948	1885.94
421.171	1935.94
421.394	1932.94
421.617	1908.94
421.839	1907.94
422.062	1943.94
422.285	1890.94
422.507	1958.94
422.73	1977.94
422.953	1959.94
423.175	2007.94
423.398	1975.94
423.621	1984.94
423.843	2021.94
424.066	1994.94
424.288	1960.94
424.511	1982.94
424.733	2003.94
424.956	1936.94
425.178	1939.94
425.401	1964.94
425.623	1952.94
425.846	1875.94
426.068	1925.94
426.291	1871.94
426.513	1837.94
426.735	1831.94
426.958	1826.94
427.18	1783.94
427.402	1790.94
427.625	1818.94
427.847	1761.94
428.069	1771.94
428.292	1796.94
428.514	1746.94
428.736	1753.94
428.958	1742.94
429.181	1743.94
429.403	1718.94
429.625	1719.94
429.847	1703.94
430.069	1732.94
430.292	1741.94
430.514	1725.94
430.736	1732.94
430.958	1744.94
431.18	1735.94
431.402	1736.94
431.624	1741.94
431.846	1743.94
432.068	1752.94
432.29	1777.94
432.512	1778.94
432.734	1789.94
432.956	1766.94
433.178	1781.94
433.4	1802.94
433.622	1757.94
433.844	1809.94
434.066	1843.94
434.287	1840.94
434.509	1891.94
434.731	1965.94
434.953	1979.94
435.175	1963.94
435.397	1985.94
435.618	1882.94
435.84	1831.94
436.062	1819.94
436.284	1804.94
436.505	1745.94
436.727	1788.94
436.949	1768.94
437.17	1742.94
437.392	1741.94
437.614	1759.94
437.835	1670.94
438.057	1725.94
438.278	1665.94
438.5	1659.94
438.721	1693.94
438.943	1668.94
439.165	1655.94
439.386	1699.94
439.608	1685.94
439.829	1708.94
440.05	1704.94
440.272	1753.94
440.493	1735.94
440.715	1749.94
440.936	1804.94
441.158	1799.94
441.379	1864.94
441.6	1948.94
441.822	1916.94
442.043	1925.94
442.264	1880.94
442.486	1835.94
442.707	1892.94
442.928	1846.94
443.149	1868.94
443.371	1830.94
443.592	1869.94
443.813	1912.94
444.034	1943.94
444.255	1995.94
444.476	2037.94
444.698	2135.94
444.919	2175.94
445.14	2273.94
445.361	2054.94
445.582	1971.94
445.803	1904.94
446.024	1863.94
446.245	1814.94
446.466	1801.94
446.687	1714.94
446.908	1725.94
447.129	1675.94
447.35	1664.94
447.571	1685.94
447.792	1607.94
448.013	1641.94
448.234	1611.94
448.455	1613.94
448.675	1616.94
448.896	1567.94
449.117	1559.94
449.338	1549.94
449.559	1558.94
449.779	1556.94
450	1575.94
450.221	1551.94
450.442	1566.94
450.662	1564.94
450.883	1529.94
451.104	1556.94
451.324	1574.94
451.545	1567.94
451.766	1547.94
451.986	1555.94
452.207	1589.94
452.428	1502.94
452.648	1559.94
452.869	1521.94
453.089	1468.94
453.31	1536.94
453.53	1587.94
453.751	1492.94
453.971	1514.94
454.192	1524.94
454.412	1485.94
454.633	1444.94
454.853	1483.94
455.073	1473.94
455.294	1489.94
455.514	1513.94
455.734	1451.94
455.955	1503.94
456.175	1468.94
456.395	1440.94
456.616	1457.94
456.836	1474.94
457.056	1468.94
457.276	1462.94
457.497	1490.94
457.717	1452.94
457.937	1472.94
458.157	1525.94
458.377	1535.94
458.598	1548.94
458.818	1599.94
459.038	1635.94
459.258	1683.94
459.478	1745.94
459.698	1774.94
459.918	1811.94
460.138	1852.94
460.358	1908.94
460.578	1949.94
460.798	1976.94
461.018	1954.94
461.238	1959.94
461.458	1957.94
461.678	1963.94
461.898	2008.94
462.118	2041.94
462.338	2096.94
462.558	2126.94
462.777	2243.94
462.997	2345.94
463.217	2474.94
463.437	2515.94
463.657	2387.94
463.876	2290.94
464.096	2271.94
464.316	2301.94
464.536	2284.94
464.755	2224.94
464.975	2170.94
465.195	2038.94
465.414	1925.94
465.634	1887.94
465.854	1817.94
466.073	1781.94
466.293	1727.94
466.512	1680.94
466.732	1661.94
466.951	1663.94
467.171	1620.94
467.391	1667.94
467.61	1656.94
467.829	1646.94
468.049	1641.94
468.268	1580.94
468.488	1600.94
468.707	1594.94
468.927	1624.94
469.146	1578.94
469.365	1555.94
469.585	1579.94
469.804	1656.94
470.023	1665.94
470.243	1691.94
470.462	1684.94
470.681	1695.94
470.901	1667.94
471.12	1643.94
471.339	1626.94
471.558	1620.94
471.777	1631.94
471.997	1595.94
472.216	1608.94
472.435	1597.94
472.654	1605.94
472.873	1584.94
473.092	1569.94
473.311	1567.94
473.53	1558.94
473.749	1578.94
473.968	1545.94
474.187	1564.94
474.406	1537.94
474.625	1572.94
474.844	1570.94
475.063	1588.94
475.282	1573.94
475.501	1625.94
475.72	1623.94
475.939	1605.94
476.158	1650.94
476.377	1628.94
476.596	1645.94
476.814	1678.94
477.033	1642.94
477.252	1706.94
477.471	1715.94
477.69	1777.94
477.908	1774.94
478.127	1854.94
478.346	1881.94
478.564	1905.94
478.783	1944.94
479.002	1980.94
479.22	1990.94
479.439	1998.94
479.658	1931.94
479.876	1978.94
480.095	2012.94
480.313	2055.94
480.532	2087.94
480.751	2127.94
480.969	2040.94
481.188	2019.94
481.406	1985.94
481.624	1939.94
481.843	1905.94
482.061	1892.94
482.28	1944.94
482.498	1890.94
482.717	1903.94
482.935	1881.94
483.153	1962.94
483.372	1901.94
483.59	1938.94
483.808	1951.94
484.027	1951.94
484.245	2016.94
484.463	1999.94
484.681	2048.94
484.9	2051.94
485.118	2103.94
485.336	2098.94
485.554	2128.94
485.772	2095.94
485.99	2085.94
486.209	2125.94
486.427	2112.94
486.645	2068.94
486.863	2117.94
487.081	2127.94
487.299	2074.94
487.517	2125.94
487.735	2065.94
487.953	2087.94
488.171	2103.94
488.389	2075.94
488.607	2068.94
488.825	2044.94
489.043	1999.94
489.261	1990.94
489.479	2057.94
489.696	2051.94
489.914	2001.94
490.132	1994.94
490.35	2045.94
490.568	1986.94
490.786	1997.94
491.003	1976.94
491.221	1994.94
491.439	1981.94
491.657	1962.94
491.874	1997.94
492.092	1991.94
492.31	1948.94
492.527	1992.94
492.745	1965.94
492.963	1973.94
493.18	2013.94
493.398	2039.94
493.615	2046.94
493.833	1991.94
494.05	2039.94
494.268	2019.94
494.485	2021.94
494.703	2038.94
494.92	2046.94
495.138	2027.94
495.355	2053.94
495.573	2037.94
495.79	2067.94
496.008	2068.94
496.225	2105.94
496.442	2102.94
496.66	2096.94
496.877	2131.94
497.094	2162.94
497.312	2232.94
497.529	2264.94
497.746	2323.94
497.963	2398.94
498.181	2435.94
498.398	2498.94
498.615	2652.94
498.832	2810.94
499.049	3005.94
499.267	3193.94
499.484	3487.94
499.701	3808.94
499.918	4044.94
500.135	4532.94
500.352	5006.94
500.569	5055.94
500.786	5035.94
501.003	4858.94
501.22	4405.94
501.437	4020.94
501.654	3689.94
501.871	3402.94
502.088	3119.94
502.305	2960.94
502.522	2835.94
502.739	2691.94
502.956	2625.94
503.172	2461.94
503.389	2365.94
503.606	2314.94
503.823	2244.94
504.04	2222.94
504.256	2246.94
504.473	2311.94
504.69	2277.94
504.907	2275.94
505.123	2106.94
505.34	2041.94
505.557	2018.94
505.773	1913.94
505.99	1881.94
506.207	1869.94
506.423	1840.94
506.64	1784.94
506.856	1820.94
507.073	1788.94
507.289	1760.94
507.506	1710.94
507.722	1736.94
507.939	1696.94
508.155	1673.94
508.372	1695.94
508.588	1651.94
508.805	1684.94
509.021	1619.94
509.238	1669.94
509.454	1643.94
509.67	1585.94
509.887	1607.94
510.103	1596.94
510.319	1604.94
510.536	1561.94
510.752	1585.94
510.968	1589.94
511.184	1560.94
511.401	1583.94
511.617	1571.94
511.833	1605.94
512.049	1556.94
512.265	1540.94
512.481	1591.94
512.698	1570.94
512.914	1551.94
513.13	1565.94
513.346	1563.94
513.562	1588.94
513.778	1561.94
513.994	1611.94
514.21	1569.94
514.426	1587.94
514.642	1561.94
514.858	1607.94
515.074	1636.94
515.29	1643.94
515.506	1666.94
515.721	1641.94
515.937	1717.94
516.153	1691.94
516.369	1716.94
516.585	1756.94
516.801	1863.94
517.016	1910.94
517.232	1961.94
517.448	1996.94
517.664	2067.94
517.879	2041.94
518.095	2070.94
518.311	2051.94
518.527	1973.94
518.742	1866.94
518.958	1808.94
519.173	1785.94
519.389	1789.94
519.605	1715.94
519.82	1655.94
520.036	1641.94
520.251	1611.94
520.467	1628.94
520.682	1546.94
520.898	1553.94
521.113	1555.94
521.329	1489.94
521.544	1525.94
521.76	1515.94
521.975	1525.94
522.19	1488.94
522.406	1467.94
522.621	1460.94
522.836	1447.94
523.052	1472.94
523.267	1469.94
523.482	1460.94
523.698	1428.94
523.913	1434.94
524.128	1379.94
524.343	1437.94
524.559	1373.94
524.774	1408.94
524.989	1410.94
525.204	1436.94
525.419	1410.94
525.634	1412.94
525.849	1414.94
526.064	1387.94
526.28	1402.94
526.495	1391.94
526.71	1380.94
526.925	1357.94
527.14	1359.94
527.355	1382.94
527.57	1375.94
527.785	1416.94
527.999	1407.94
528.214	1401.94
528.429	1403.94
528.644	1396.94
528.859	1369.94
529.074	1377.94
529.289	1376.94
529.503	1396.94
529.718	1420.94
529.933	1388.94
530.148	1383.94
530.363	1350.94
530.577	1375.94
530.792	1361.94
531.007	1365.94
531.221	1381.94
531.436	1361.94
531.651	1394.94
531.865	1362.94
532.08	1377.94
532.295	1354.94
532.509	1378.94
532.724	1375.94
532.938	1371.94
533.153	1391.94
533.367	1367.94
533.582	1366.94
533.796	1379.94
534.011	1375.94
534.225	1363.94
534.44	1354.94
534.654	1375.94
534.868	1351.94
535.083	1323.94
535.297	1327.94
535.511	1302.94
535.726	1281.94
535.94	1318.94
536.154	1292.94
536.369	1277.94
536.583	1272.94
536.797	1293.94
537.011	1260.94
537.225	1243.94
537.44	1269.94
537.654	1250.94
537.868	1285.94
538.082	1272.94
538.296	1246.94
538.51	1271.94
538.724	1259.94
538.938	1242.94
539.153	1256.94
539.367	1213.94
539.581	1229.94
539.795	1245.94
540.009	1242.94
540.222	1195.94
540.436	1217.94
540.65	1191.94
540.864	1200.94
541.078	1224.94
541.292	1220.94
541.506	1236.94
541.72	1171.94
541.934	1217.94
542.147	1220.94
542.361	1203.94
542.575	1180.94
542.789	1206.94
543.002	1183.94
543.216	1220.94
543.43	1193.94
543.644	1203.94
543.857	1179.94
544.071	1212.94
544.285	1208.94
544.498	1212.94
544.712	1201.94
544.925	1207.94
545.139	1240.94
545.352	1235.94
545.566	1221.94
545.779	1236.94
545.993	1199.94
546.206	1204.94
546.42	1223.94
546.633	1215.94
546.847	1219.94
547.06	1205.94
547.274	1228.94
547.487	1217.94
547.7	1205.94
547.914	1220.94
548.127	1227.94
548.34	1235.94
548.554	1227.94
548.767	1243.94
548.98	1264.94
549.193	1242.94
549.407	1242.94
549.62	1239.94
549.833	1287.94
550.046	1267.94
550.259	1242.94
550.473	1221.94
550.686	1231.94
550.899	1238.94
551.112	1213.94
551.325	1176.94
551.538	1205.94
551.751	1175.94
551.964	1224.94
552.177	1239.94
552.39	1245.94
552.603	1254.94
552.816	1286.94
553.029	1300.94
553.242	1278.94
553.455	1288.94
553.667	1332.94
553.88	1292.94
554.093	1268.94
554.306	1239.94
554.519	1226.94
554.732	1203.94
554.944	1211.94
555.157	1166.94
555.37	1189.94
555.583	1122.94
555.795	1135.94
556.008	1119.94
556.221	1102.94
556.433	1086.94
556.646	1051.94
556.859	1088.94
557.071	1056.94
557.284	1048.94
557.496	1051.94
557.709	1057.94
557.921	1053.94
558.134	1042.94
558.346	1030.94
558.559	1021.94
558.771	1034.94
558.984	1036.94
559.196	1012.94
559.409	1048.94
559.621	1002.94
559.833	1027.94
560.046	1011.94
560.258	1010.94
560.47	1011.94
560.683	997.94
560.895	1017.94
561.107	993.94
561.32	1023.94
561.532	1010.94
561.744	1000.94
561.956	1002.94
562.168	985.94
562.381	989.94
562.593	1022.94
562.805	1032.94
563.017	1002.94
563.229	1031.94
563.441	1017.94
563.653	1046.94
563.865	1027.94
564.077	1048.94
564.289	1045.94
564.501	1054.94
564.713	1077.94
564.925	1105.94
565.137	1111.94
565.349	1185.94
565.561	1171.94
565.773	1179.94
565.985	1253.94
566.197	1308.94
566.408	1359.94
566.62	1466.94
566.832	1531.94
567.044	1598.94
567.255	1612.94
567.467	1601.94
567.679	1689.94
567.891	1723.94
568.102	1745.94
568.314	1733.94
568.526	1562.94
568.737	1485.94
568.949	1355.94
569.161	1221.94
569.372	1197.94
569.584	1172.94
569.795	1149.94
570.007	1076.94
570.218	1051.94
570.43	1040.94
570.641	1052.94
570.853	1037.94
571.064	1023.94
571.276	997.94
571.487	972.94
571.698	956.94
571.91	923.94
572.121	945.94
572.333	899.94
572.544	862.94
572.755	891.94
572.966	885.94
573.178	834.94
573.389	850.94
573.6	813.94
573.811	825.94
574.023	827.94
574.234	841.94
574.445	809.94
574.656	832.94
574.867	832.94
575.078	827.94
575.289	825.94
575.501	784.94
575.712	789.94
575.923	788.94
576.134	759.94
576.345	782.94
576.556	787.94
576.767	760.94
576.978	770.94
577.188	779.94
577.399	766.94
577.61	738.94
577.821	751.94
578.032	742.94
578.243	709.94
578.454	739.94
578.665	725.94
578.875	709.94
579.086	721.94
579.297	723.94
579.508	705.94
579.718	725.94
579.929	722.94
580.14	697.94
580.35	710.94
580.561	701.94
580.772	713.94
580.982	703.94
581.193	706.94
581.403	708.94
581.614	685.94
581.825	718.94
582.035	691.94
582.246	679.94
582.456	683.94
582.667	684.94
582.877	695.94
583.087	667.94
583.298	660.94
583.508	680.94
583.719	703.94
583.929	685.94
584.139	702.94
584.35	671.94
584.56	679.94
584.77	646.94
584.981	651.94
585.191	645.94
585.401	663.94
585.611	650.94
585.821	639.94
586.032	657.94
586.242	657.94
586.452	657.94
586.662	644.94
586.872	649.94
587.082	646.94
587.292	670.94
587.502	644.94
587.713	620.94
587.923	658.94
588.133	637.94
588.343	644.94
588.553	653.94
588.762	682.94
588.972	641.94
589.182	655.94
589.392	675.94
589.602	666.94
589.812	650.94
590.022	645.94
590.232	658.94
590.441	645.94
590.651	660.94
590.861	639.94
591.071	643.94
591.281	669.94
591.49	677.94
591.7	680.94
591.91	714.94
592.119	687.94
592.329	710.94
592.539	739.94
592.748	720.94
592.958	751.94
593.167	755.94
593.377	772.94
593.587	821.94
593.796	793.94
594.006	795.94
594.215	796.94
594.424	784.94
594.634	780.94
594.843	765.94
595.053	738.94
595.262	687.94
595.472	697.94
595.681	661.94
595.89	667.94
596.1	639.94
596.309	633.94
596.518	624.94
596.727	615.94
596.937	613.94
597.146	595.94
597.355	597.94
597.564	606.94
597.774	589.94
597.983	591.94
598.192	570.94
598.401	565.94
598.61	557.94
598.819	551.94
599.028	560.94
599.237	559.94
599.446	565.94
599.655	543.94
599.864	567.94
600.073	556.94
600.282	560.94
600.491	552.94
600.7	518.94
600.909	534.94
601.118	523.94
601.327	526.94
601.536	522.94
601.745	537.94
601.953	553.94
602.162	515.94
602.371	497.94
602.58	515.94
602.789	530.94
602.997	519.94
603.206	541.94
603.415	513.94
603.623	500.94
603.832	491.94
604.041	514.94
604.249	503.94
604.458	497.94
604.666	476.94
604.875	494.94
605.084	508.94
605.292	501.94
605.501	493.94
605.709	487.94
605.918	488.94
606.126	502.94
606.334	498.94
606.543	479.94
606.751	483.94
606.96	480.94
607.168	471.94
607.376	479.94
607.585	464.94
607.793	479.94
608.001	451.94
608.21	485.94
608.418	473.94
608.626	457.94
608.834	481.94
609.043	480.94
609.251	476.94
609.459	485.94
609.667	483.94
609.875	462.94
610.083	464.94
610.291	463.94
610.499	465.94
610.707	467.94
610.916	456.94
611.124	457.94
611.332	479.94
611.54	460.94
611.748	433.94
611.955	456.94
612.163	464.94
612.371	443.94
612.579	449.94
612.787	447.94
612.995	441.94
613.203	458.94
613.411	456.94
613.618	458.94
613.826	455.94
614.034	446.94
614.242	459.94
614.449	440.94
614.657	439.94
614.865	452.94
615.072	455.94
615.28	441.94
615.488	429.94
615.695	462.94
615.903	459.94
616.111	447.94
616.318	444.94
616.526	456.94
616.733	465.94
616.941	447.94
617.148	460.94
617.356	462.94
617.563	448.94
617.771	462.94
617.978	429.94
618.185	437.94
618.393	465.94
618.6	459.94
618.807	454.94
619.015	414.94
619.222	427.94
619.429	451.94
619.637	450.94
619.844	443.94
620.051	425.94
620.258	417.94
620.466	408.94
620.673	406.94
620.88	393.94
621.087	405.94
621.294	397.94
621.501	423.94
621.708	416.94
621.915	409.94
622.122	418.94
622.329	406.94
622.536	416.94
622.743	422.94
622.95	407.94
623.157	390.94
623.364	402.94
623.571	400.94
623.778	400.94
623.985	397.94
624.192	388.94
624.399	390.94
624.606	375.94
624.812	383.94
625.019	402.94
625.226	408.94
625.433	379.94
625.639	372.94
625.846	387.94
626.053	376.94
626.259	391.94
626.466	384.94
626.673	373.94
626.879	395.94
627.086	361.94
627.293	367.94
627.499	367.94
627.706	367.94
627.912	371.94
628.119	373.94
628.325	360.94
628.532	358.94
628.738	355.94
628.945	368.94
629.151	371.94
629.357	343.94
629.564	354.94
629.77	358.94
629.976	346.94
630.183	370.94
630.389	351.94
630.595	343.94
630.802	346.94
631.008	339.94
631.214	345.94
631.42	350.94
631.627	339.94
631.833	349.94
632.039	337.94
632.245	339.94
632.451	345.94
632.657	338.94
632.863	346.94
633.069	327.94
633.275	340.94
633.481	342.94
633.688	345.94
633.893	343.94
634.099	325.94
634.305	326.94
634.511	343.94
634.717	328.94
634.923	319.94
635.129	329.94
635.335	320.94
635.541	311.94
635.747	318.94
635.952	327.94
636.158	320.94
636.364	313.94
636.57	315.94
636.775	319.94
636.981	327.94
637.187	318.94
637.392	325.94
637.598	307.94
637.804	318.94
638.009	309.94
638.215	306.94
638.421	289.94
638.626	305.94
638.832	323.94
639.037	297.94
639.243	306.94
639.448	301.94
639.654	305.94
639.859	323.94
640.065	318.94
640.27	319.94
640.475	311.94
640.681	288.94
640.886	312.94
641.091	307.94
641.297	313.94
641.502	298.94
641.707	321.94
641.913	309.94
642.118	313.94
642.323	298.94
642.528	310.94
642.733	297.94
642.939	305.94
643.144	295.94
643.349	300.94
643.554	285.94
643.759	295.94
643.964	276.94
644.169	297.94
644.374	298.94
644.579	311.94
644.784	287.94
644.989	300.94
645.194	312.94
645.399	298.94
645.604	295.94
645.809	307.94
646.014	309.94
646.219	308.94
646.423	293.94
646.628	307.94
646.833	299.94
647.038	310.94
647.243	309.94
647.447	313.94
647.652	322.94
647.857	338.94
648.062	327.94
648.266	329.94
648.471	319.94
648.676	316.94
648.88	321.94
649.085	316.94
649.289	311.94
649.494	322.94
649.698	307.94
649.903	320.94
650.107	311.94
650.312	324.94
650.516	299.94
650.721	300.94
650.925	302.94
651.13	312.94
651.334	301.94
651.539	300.94
651.743	304.94
651.947	315.94
652.152	295.94
652.356	293.94
652.56	267.94
652.764	288.94
652.969	276.94
653.173	291.94
653.377	280.94
653.581	287.94
653.785	274.94
653.99	284.94
654.194	303.94
654.398	297.94
654.602	294.94
654.806	309.94
655.01	322.94
655.214	319.94
655.418	333.94
655.622	344.94
655.826	355.94
656.03	386.94
656.234	389.94
656.438	444.94
656.642	423.94
656.846	415.94
657.049	374.94
657.253	321.94
657.457	291.94
657.661	254.94
657.865	241.94
658.068	208.94
658.272	219.94
658.476	211.94
658.68	194.94
658.883	169.94
659.087	162.94
659.291	164.94
659.494	152.94
659.698	129.94
659.901	126.94
660.105	127.94
660.309	123.94
660.512	113.94
660.716	116.94
660.919	103.94
661.123	121.94
661.326	95.94
661.53	108.94
661.733	113.94
661.936	115.94
662.14	113.94
662.343	90.94
662.546	103.94
662.75	96.94
662.953	91.94
663.156	106.94
663.36	96.94
663.563	99.94
663.766	83.94
663.969	83.94
664.173	91.94
664.376	88.94
664.579	83.94
664.782	86.94
664.985	80.94
665.188	82.94
665.391	84.94
665.594	87.94
665.797	78.94
666	86.94
666.203	87.94
666.406	73.94
666.609	84.94
666.812	80.94
667.015	80.94
667.218	76.94
667.421	78.94
667.624	73.94
667.827	80.94
668.03	83.94
668.232	68.94
668.435	75.94
668.638	83.94
668.841	85.94
669.043	85.94
669.246	74.94
669.449	63.94
669.651	95.94
669.854	86.94
670.057	72.94
670.259	82.94
670.462	83.94
670.665	68.94
670.867	91.94
671.07	70.94
671.272	93.94
671.475	92.94
671.677	80.94
671.88	97.94
672.082	74.94
672.284	78.94
672.487	85.94
672.689	84.94
672.892	81.94
