Data from NiCl2@0.125M.TitratingCurve.Agarose3%dH2O.NegLispCup.LampEnergy10.LIBS07252019_HRD10591_18-30-06-574.txt Node
Date: Thu Jul 25 18:30:06 EDT 2019
User: cochatt
Spectrometer: HR+D1059
Trigger mode: 1
Integration Time (sec): 1.000000E-1
Scans to average: 1
Electric dark correction enabled: true
Nonlinearity correction enabled: false
Boxcar width: 0
XAxis mode: Wavelengths
Number of Pixels in Spectrum: 2048
>>>>>Begin Spectral Data<<<<<
223.165	-21.31
223.4	-21.31
223.635	-21.31
223.869	-20.31
224.104	-27.31
224.338	-0.31
224.573	-12.31
224.808	-22.31
225.042	-9.31
225.277	-8.31
225.511	-8.31
225.746	10.69
225.98	18.69
226.215	12.69
226.449	18.69
226.683	19.69
226.918	26.69
227.152	22.69
227.387	23.69
227.621	43.69
227.856	43.69
228.09	41.69
228.324	40.69
228.559	45.69
228.793	77.69
229.027	107.69
229.262	117.69
229.496	116.69
229.73	122.69
229.964	136.69
230.199	129.69
230.433	135.69
230.667	132.69
230.901	140.69
231.136	140.69
231.37	153.69
231.604	149.69
231.838	133.69
232.072	151.69
232.306	154.69
232.541	153.69
232.775	160.69
233.009	171.69
233.243	150.69
233.477	141.69
233.711	175.69
233.945	147.69
234.179	156.69
234.413	158.69
234.647	151.69
234.881	165.69
235.115	182.69
235.349	164.69
235.583	151.69
235.817	170.69
236.051	151.69
236.285	168.69
236.519	175.69
236.753	147.69
236.987	171.69
237.221	156.69
237.455	159.69
237.689	173.69
237.922	155.69
238.156	165.69
238.39	177.69
238.624	185.69
238.858	178.69
239.091	169.69
239.325	184.69
239.559	183.69
239.793	190.69
240.027	187.69
240.26	187.69
240.494	185.69
240.728	193.69
240.961	186.69
241.195	193.69
241.429	213.69
241.662	194.69
241.896	200.69
242.13	219.69
242.363	211.69
242.597	204.69
242.83	211.69
243.064	225.69
243.298	228.69
243.531	217.69
243.765	225.69
243.998	232.69
244.232	219.69
244.465	216.69
244.699	228.69
244.932	228.69
245.166	238.69
245.399	228.69
245.633	243.69
245.866	245.69
246.099	229.69
246.333	242.69
246.566	245.69
246.8	235.69
247.033	241.69
247.266	216.69
247.5	256.69
247.733	251.69
247.966	236.69
248.2	245.69
248.433	260.69
248.666	267.69
248.899	247.69
249.133	260.69
249.366	261.69
249.599	259.69
249.832	271.69
250.066	275.69
250.299	266.69
250.532	275.69
250.765	283.69
250.998	269.69
251.231	281.69
251.465	283.69
251.698	287.69
251.931	298.69
252.164	297.69
252.397	289.69
252.63	279.69
252.863	289.69
253.096	278.69
253.329	290.69
253.562	283.69
253.795	291.69
254.028	300.69
254.261	316.69
254.494	294.69
254.727	315.69
254.96	301.69
255.193	319.69
255.426	304.69
255.659	313.69
255.892	315.69
256.124	305.69
256.357	317.69
256.59	321.69
256.823	305.69
257.056	324.69
257.289	309.69
257.521	307.69
257.754	331.69
257.987	325.69
258.22	322.69
258.452	343.69
258.685	354.69
258.918	324.69
259.151	330.69
259.383	327.69
259.616	334.69
259.849	340.69
260.081	359.69
260.314	339.69
260.547	346.69
260.779	350.69
261.012	354.69
261.244	347.69
261.477	351.69
261.71	350.69
261.942	363.69
262.175	353.69
262.407	348.69
262.64	341.69
262.872	355.69
263.105	351.69
263.337	359.69
263.57	368.69
263.802	356.69
264.035	357.69
264.267	396.69
264.499	379.69
264.732	390.69
264.964	382.69
265.197	391.69
265.429	375.69
265.661	373.69
265.894	384.69
266.126	387.69
266.358	379.69
266.591	394.69
266.823	404.69
267.055	392.69
267.287	396.69
267.52	401.69
267.752	391.69
267.984	413.69
268.216	387.69
268.448	403.69
268.681	394.69
268.913	415.69
269.145	411.69
269.377	415.69
269.609	413.69
269.841	395.69
270.073	412.69
270.306	409.69
270.538	401.69
270.77	411.69
271.002	432.69
271.234	436.69
271.466	437.69
271.698	423.69
271.93	403.69
272.162	406.69
272.394	431.69
272.626	402.69
272.858	435.69
273.09	415.69
273.322	438.69
273.553	435.69
273.785	437.69
274.017	433.69
274.249	443.69
274.481	439.69
274.713	442.69
274.945	457.69
275.176	433.69
275.408	432.69
275.64	456.69
275.872	453.69
276.104	455.69
276.335	449.69
276.567	459.69
276.799	436.69
277.031	447.69
277.262	461.69
277.494	457.69
277.726	458.69
277.957	474.69
278.189	465.69
278.421	459.69
278.652	461.69
278.884	489.69
279.115	471.69
279.347	481.69
279.579	487.69
279.81	492.69
280.042	505.69
280.273	492.69
280.505	502.69
280.736	504.69
280.968	498.69
281.199	509.69
281.431	521.69
281.662	509.69
281.894	497.69
282.125	496.69
282.356	515.69
282.588	532.69
282.819	514.69
283.051	498.69
283.282	516.69
283.513	513.69
283.745	513.69
283.976	521.69
284.207	514.69
284.439	518.69
284.67	514.69
284.901	538.69
285.132	546.69
285.364	543.69
285.595	533.69
285.826	538.69
286.057	568.69
286.288	553.69
286.52	550.69
286.751	546.69
286.982	563.69
287.213	553.69
287.444	560.69
287.675	557.69
287.906	564.69
288.138	561.69
288.369	564.69
288.6	576.69
288.831	568.69
289.062	554.69
289.293	525.69
289.524	562.69
289.755	571.69
289.986	567.69
290.217	558.69
290.448	567.69
290.679	564.69
290.91	586.69
291.141	559.69
291.371	575.69
291.602	590.69
291.833	567.69
292.064	559.69
292.295	596.69
292.526	596.69
292.757	568.69
292.987	566.69
293.218	570.69
293.449	588.69
293.68	567.69
293.91	575.69
294.141	580.69
294.372	576.69
294.603	598.69
294.833	601.69
295.064	608.69
295.295	575.69
295.525	573.69
295.756	579.69
295.987	616.69
296.217	588.69
296.448	575.69
296.679	593.69
296.909	599.69
297.14	595.69
297.37	640.69
297.601	625.69
297.831	626.69
298.062	639.69
298.292	617.69
298.523	624.69
298.753	639.69
298.984	625.69
299.214	626.69
299.445	644.69
299.675	633.69
299.905	649.69
300.136	648.69
300.366	624.69
300.597	631.69
300.827	645.69
301.057	645.69
301.288	649.69
301.518	662.69
301.748	650.69
301.979	671.69
302.209	662.69
302.439	645.69
302.669	663.69
302.9	617.69
303.13	643.69
303.36	649.69
303.59	633.69
303.82	632.69
304.051	636.69
304.281	627.69
304.511	655.69
304.741	653.69
304.971	636.69
305.201	656.69
305.431	672.69
305.661	657.69
305.891	637.69
306.121	641.69
306.352	647.69
306.582	664.69
306.812	640.69
307.042	666.69
307.272	653.69
307.502	641.69
307.731	656.69
307.961	627.69
308.191	617.69
308.421	620.69
308.651	637.69
308.881	629.69
309.111	619.69
309.341	621.69
309.571	632.69
309.8	643.69
310.03	615.69
310.26	634.69
310.49	650.69
310.72	651.69
310.949	652.69
311.179	653.69
311.409	640.69
311.639	634.69
311.868	659.69
312.098	672.69
312.328	666.69
312.557	658.69
312.787	670.69
313.017	689.69
313.246	684.69
313.476	680.69
313.706	683.69
313.935	675.69
314.165	693.69
314.394	684.69
314.624	694.69
314.853	677.69
315.083	669.69
315.312	695.69
315.542	674.69
315.771	677.69
316.001	697.69
316.23	664.69
316.46	653.69
316.689	674.69
316.919	665.69
317.148	674.69
317.377	689.69
317.607	677.69
317.836	657.69
318.065	628.69
318.295	674.69
318.524	668.69
318.753	653.69
318.983	666.69
319.212	667.69
319.441	682.69
319.67	691.69
319.9	652.69
320.129	646.69
320.358	662.69
320.587	670.69
320.816	676.69
321.046	674.69
321.275	684.69
321.504	661.69
321.733	691.69
321.962	663.69
322.191	663.69
322.42	684.69
322.649	677.69
322.878	672.69
323.108	685.69
323.337	678.69
323.566	688.69
323.795	695.69
324.024	674.69
324.253	682.69
324.482	684.69
324.71	687.69
324.939	705.69
325.168	684.69
325.397	705.69
325.626	707.69
325.855	723.69
326.084	737.69
326.313	730.69
326.542	741.69
326.77	755.69
326.999	722.69
327.228	716.69
327.457	733.69
327.686	723.69
327.914	741.69
328.143	732.69
328.372	716.69
328.6	730.69
328.829	741.69
329.058	743.69
329.287	721.69
329.515	728.69
329.744	746.69
329.972	751.69
330.201	741.69
330.43	727.69
330.658	753.69
330.887	733.69
331.115	744.69
331.344	802.69
331.572	789.69
331.801	809.69
332.03	819.69
332.258	811.69
332.486	872.69
332.715	872.69
332.943	902.69
333.172	957.69
333.4	993.69
333.629	1040.69
333.857	1031.69
334.085	1009.69
334.314	984.69
334.542	973.69
334.771	940.69
334.999	919.69
335.227	927.69
335.455	903.69
335.684	919.69
335.912	885.69
336.14	894.69
336.369	924.69
336.597	913.69
336.825	867.69
337.053	884.69
337.281	868.69
337.51	861.69
337.738	838.69
337.966	804.69
338.194	811.69
338.422	795.69
338.65	787.69
338.878	822.69
339.106	815.69
339.334	768.69
339.562	763.69
339.79	767.69
340.018	740.69
340.246	763.69
340.474	771.69
340.702	791.69
340.93	784.69
341.158	782.69
341.386	760.69
341.614	747.69
341.842	741.69
342.07	744.69
342.298	768.69
342.526	776.69
342.754	760.69
342.981	782.69
343.209	807.69
343.437	824.69
343.665	891.69
343.893	943.69
344.12	923.69
344.348	910.69
344.576	860.69
344.804	851.69
345.031	820.69
345.259	799.69
345.487	774.69
345.714	753.69
345.942	744.69
346.17	779.69
346.397	751.69
346.625	747.69
346.853	779.69
347.08	756.69
347.308	757.69
347.535	732.69
347.763	764.69
347.99	751.69
348.218	743.69
348.445	771.69
348.673	741.69
348.9	748.69
349.128	732.69
349.355	744.69
349.583	726.69
349.81	729.69
350.037	730.69
350.265	727.69
350.492	729.69
350.72	704.69
350.947	693.69
351.174	695.69
351.402	689.69
351.629	720.69
351.856	690.69
352.083	720.69
352.311	689.69
352.538	687.69
352.765	683.69
352.992	701.69
353.22	701.69
353.447	702.69
353.674	702.69
353.901	706.69
354.128	708.69
354.355	694.69
354.583	717.69
354.81	734.69
355.037	715.69
355.264	711.69
355.491	712.69
355.718	720.69
355.945	737.69
356.172	735.69
356.399	719.69
356.626	706.69
356.853	686.69
357.08	697.69
357.307	735.69
357.534	717.69
357.761	723.69
357.988	714.69
358.215	702.69
358.441	710.69
358.668	693.69
358.895	722.69
359.122	705.69
359.349	721.69
359.576	715.69
359.802	713.69
360.029	717.69
360.256	733.69
360.483	722.69
360.709	709.69
360.936	736.69
361.163	719.69
361.39	709.69
361.616	706.69
361.843	723.69
362.07	704.69
362.296	697.69
362.523	674.69
362.749	695.69
362.976	715.69
363.203	712.69
363.429	713.69
363.656	703.69
363.882	720.69
364.109	727.69
364.335	720.69
364.562	696.69
364.788	702.69
365.015	687.69
365.241	706.69
365.468	724.69
365.694	682.69
365.92	720.69
366.147	684.69
366.373	704.69
366.599	711.69
366.826	710.69
367.052	700.69
367.278	706.69
367.505	714.69
367.731	716.69
367.957	705.69
368.184	725.69
368.41	717.69
368.636	723.69
368.862	729.69
369.089	744.69
369.315	746.69
369.541	755.69
369.767	729.69
369.993	745.69
370.219	741.69
370.445	768.69
370.672	736.69
370.898	751.69
371.124	787.69
371.35	775.69
371.576	769.69
371.802	796.69
372.028	777.69
372.254	780.69
372.48	780.69
372.706	805.69
372.932	839.69
373.158	845.69
373.384	807.69
373.61	795.69
373.835	752.69
374.061	786.69
374.287	774.69
374.513	795.69
374.739	842.69
374.965	856.69
375.191	841.69
375.416	850.69
375.642	843.69
375.868	823.69
376.094	793.69
376.319	803.69
376.545	801.69
376.771	821.69
376.997	770.69
377.222	763.69
377.448	773.69
377.674	819.69
377.899	779.69
378.125	769.69
378.35	758.69
378.576	779.69
378.802	758.69
379.027	769.69
379.253	779.69
379.478	759.69
379.704	752.69
379.929	767.69
380.155	772.69
380.38	751.69
380.606	763.69
380.831	721.69
381.057	775.69
381.282	769.69
381.507	775.69
381.733	777.69
381.958	807.69
382.184	780.69
382.409	806.69
382.634	825.69
382.86	843.69
383.085	844.69
383.31	868.69
383.535	884.69
383.761	843.69
383.986	893.69
384.211	886.69
384.436	921.69
384.662	946.69
384.887	927.69
385.112	946.69
385.337	927.69
385.562	949.69
385.787	954.69
386.013	955.69
386.238	960.69
386.463	947.69
386.688	915.69
386.913	929.69
387.138	955.69
387.363	963.69
387.588	935.69
387.813	920.69
388.038	901.69
388.263	929.69
388.488	957.69
388.713	945.69
388.938	912.69
389.163	904.69
389.387	916.69
389.612	889.69
389.837	903.69
390.062	882.69
390.287	931.69
390.512	927.69
390.736	931.69
390.961	929.69
391.186	975.69
391.411	986.69
391.636	1022.69
391.86	1029.69
392.085	1076.69
392.31	1068.69
392.534	1035.69
392.759	1021.69
392.984	1007.69
393.208	980.69
393.433	975.69
393.658	1002.69
393.882	1023.69
394.107	991.69
394.331	1032.69
394.556	990.69
394.78	1020.69
395.005	1013.69
395.229	1027.69
395.454	1068.69
395.678	1071.69
395.903	1051.69
396.127	1023.69
396.352	1017.69
396.576	998.69
396.801	1005.69
397.025	993.69
397.249	981.69
397.474	1071.69
397.698	1036.69
397.922	1056.69
398.147	1050.69
398.371	1069.69
398.595	1093.69
398.82	1170.69
399.044	1261.69
399.268	1357.69
399.492	1604.69
399.717	1817.69
399.941	1855.69
400.165	1590.69
400.389	1395.69
400.613	1300.69
400.837	1233.69
401.062	1165.69
401.286	1172.69
401.51	1183.69
401.734	1176.69
401.958	1194.69
402.182	1170.69
402.406	1183.69
402.63	1230.69
402.854	1265.69
403.078	1282.69
403.302	1308.69
403.526	1354.69
403.75	1352.69
403.974	1403.69
404.198	1393.69
404.422	1401.69
404.645	1384.69
404.869	1370.69
405.093	1340.69
405.317	1307.69
405.541	1303.69
405.765	1297.69
405.988	1283.69
406.212	1296.69
406.436	1290.69
406.66	1293.69
406.883	1306.69
407.107	1457.69
407.331	1501.69
407.555	1549.69
407.778	1519.69
408.002	1517.69
408.226	1444.69
408.449	1406.69
408.673	1379.69
408.896	1357.69
409.12	1323.69
409.344	1362.69
409.567	1331.69
409.791	1392.69
410.014	1352.69
410.238	1310.69
410.461	1311.69
410.685	1295.69
410.908	1298.69
411.132	1285.69
411.355	1228.69
411.578	1231.69
411.802	1233.69
412.025	1236.69
412.249	1259.69
412.472	1225.69
412.695	1224.69
412.919	1146.69
413.142	1193.69
413.365	1160.69
413.589	1181.69
413.812	1171.69
414.035	1140.69
414.258	1139.69
414.482	1210.69
414.705	1219.69
414.928	1225.69
415.151	1187.69
415.374	1203.69
415.597	1156.69
415.821	1148.69
416.044	1155.69
416.267	1161.69
416.49	1163.69
416.713	1136.69
416.936	1131.69
417.159	1141.69
417.382	1135.69
417.605	1160.69
417.828	1163.69
418.051	1177.69
418.274	1148.69
418.497	1178.69
418.72	1209.69
418.943	1200.69
419.166	1263.69
419.389	1353.69
419.611	1308.69
419.834	1279.69
420.057	1248.69
420.28	1182.69
420.503	1164.69
420.726	1164.69
420.948	1143.69
421.171	1171.69
421.394	1148.69
421.617	1147.69
421.839	1143.69
422.062	1179.69
422.285	1166.69
422.507	1218.69
422.73	1212.69
422.953	1219.69
423.175	1205.69
423.398	1252.69
423.621	1244.69
423.843	1287.69
424.066	1273.69
424.288	1270.69
424.511	1245.69
424.733	1239.69
424.956	1215.69
425.178	1210.69
425.401	1178.69
425.623	1157.69
425.846	1145.69
426.068	1136.69
426.291	1094.69
426.513	1091.69
426.735	1085.69
426.958	1115.69
427.18	1080.69
427.402	1096.69
427.625	1071.69
427.847	1030.69
428.069	1057.69
428.292	1073.69
428.514	1039.69
428.736	1049.69
428.958	1079.69
429.181	1036.69
429.403	1023.69
429.625	1026.69
429.847	1034.69
430.069	996.69
430.292	1002.69
430.514	1012.69
430.736	1017.69
430.958	1031.69
431.18	1000.69
431.402	1046.69
431.624	1019.69
431.846	1035.69
432.068	1043.69
432.29	1060.69
432.512	1023.69
432.734	1030.69
432.956	1034.69
433.178	1046.69
433.4	1022.69
433.622	1036.69
433.844	1050.69
434.066	1042.69
434.287	1063.69
434.509	1132.69
434.731	1132.69
434.953	1186.69
435.175	1173.69
435.397	1165.69
435.618	1112.69
435.84	1072.69
436.062	1068.69
436.284	1052.69
436.505	1021.69
436.727	1056.69
436.949	1063.69
437.17	1053.69
437.392	1018.69
437.614	1035.69
437.835	979.69
438.057	976.69
438.278	980.69
438.5	970.69
438.721	999.69
438.943	1011.69
439.165	980.69
439.386	991.69
439.608	1031.69
439.829	1034.69
440.05	1044.69
440.272	1068.69
440.493	1049.69
440.715	1055.69
440.936	1101.69
441.158	1102.69
441.379	1145.69
441.6	1183.69
441.822	1190.69
442.043	1192.69
442.264	1153.69
442.486	1169.69
442.707	1158.69
442.928	1146.69
443.149	1187.69
443.371	1140.69
443.592	1145.69
443.813	1164.69
444.034	1155.69
444.255	1233.69
444.476	1286.69
444.698	1388.69
444.919	1471.69
445.14	1541.69
445.361	1347.69
445.582	1229.69
445.803	1146.69
446.024	1105.69
446.245	1082.69
446.466	1040.69
446.687	1042.69
446.908	1075.69
447.129	1037.69
447.35	1037.69
447.571	998.69
447.792	965.69
448.013	981.69
448.234	959.69
448.455	983.69
448.675	919.69
448.896	979.69
449.117	950.69
449.338	943.69
449.559	950.69
449.779	943.69
450	955.69
450.221	946.69
450.442	981.69
450.662	992.69
450.883	995.69
451.104	1010.69
451.324	988.69
451.545	1011.69
451.766	987.69
451.986	938.69
452.207	941.69
452.428	957.69
452.648	934.69
452.869	959.69
453.089	939.69
453.31	937.69
453.53	918.69
453.751	927.69
453.971	927.69
454.192	948.69
454.412	903.69
454.633	885.69
454.853	910.69
455.073	920.69
455.294	910.69
455.514	860.69
455.734	871.69
455.955	895.69
456.175	891.69
456.395	889.69
456.616	896.69
456.836	898.69
457.056	913.69
457.276	876.69
457.497	909.69
457.717	871.69
457.937	890.69
458.157	891.69
458.377	926.69
458.598	934.69
458.818	940.69
459.038	980.69
459.258	1019.69
459.478	1065.69
459.698	1074.69
459.918	1111.69
460.138	1177.69
460.358	1266.69
460.578	1228.69
460.798	1245.69
461.018	1255.69
461.238	1225.69
461.458	1236.69
461.678	1224.69
461.898	1248.69
462.118	1292.69
462.338	1321.69
462.558	1353.69
462.777	1407.69
462.997	1544.69
463.217	1703.69
463.437	1726.69
463.657	1536.69
463.876	1444.69
464.096	1452.69
464.316	1471.69
464.536	1470.69
464.755	1396.69
464.975	1336.69
465.195	1285.69
465.414	1217.69
465.634	1147.69
465.854	1078.69
466.073	1057.69
466.293	1037.69
466.512	991.69
466.732	1028.69
466.951	999.69
467.171	981.69
467.391	1020.69
467.61	1015.69
467.829	975.69
468.049	1007.69
468.268	981.69
468.488	955.69
468.707	959.69
468.927	948.69
469.146	935.69
469.365	988.69
469.585	974.69
469.804	1013.69
470.023	1023.69
470.243	1037.69
470.462	1058.69
470.681	1036.69
470.901	1033.69
471.12	1033.69
471.339	1008.69
471.558	997.69
471.777	972.69
471.997	954.69
472.216	984.69
472.435	957.69
472.654	931.69
472.873	906.69
473.092	914.69
473.311	928.69
473.53	941.69
473.749	932.69
473.968	917.69
474.187	900.69
474.406	893.69
474.625	899.69
474.844	949.69
475.063	906.69
475.282	950.69
475.501	959.69
475.72	958.69
475.939	936.69
476.158	945.69
476.377	943.69
476.596	967.69
476.814	974.69
477.033	979.69
477.252	1001.69
477.471	1000.69
477.69	1042.69
477.908	1065.69
478.127	1079.69
478.346	1084.69
478.564	1079.69
478.783	1153.69
479.002	1175.69
479.22	1183.69
479.439	1162.69
479.658	1177.69
479.876	1141.69
480.095	1184.69
480.313	1243.69
480.532	1281.69
480.751	1251.69
480.969	1169.69
481.188	1170.69
481.406	1101.69
481.624	1084.69
481.843	1093.69
482.061	1063.69
482.28	1037.69
482.498	1064.69
482.717	1059.69
482.935	1037.69
483.153	1060.69
483.372	1072.69
483.59	1046.69
483.808	1055.69
484.027	1043.69
484.245	1086.69
484.463	1091.69
484.681	1084.69
484.9	1095.69
485.118	1137.69
485.336	1126.69
485.554	1127.69
485.772	1139.69
485.99	1110.69
486.209	1143.69
486.427	1158.69
486.645	1144.69
486.863	1122.69
487.081	1108.69
487.299	1123.69
487.517	1126.69
487.735	1099.69
487.953	1085.69
488.171	1094.69
488.389	1094.69
488.607	1083.69
488.825	1078.69
489.043	1055.69
489.261	1109.69
489.479	1092.69
489.696	1124.69
489.914	1128.69
490.132	1099.69
490.35	1100.69
490.568	1119.69
490.786	1106.69
491.003	1125.69
491.221	1131.69
491.439	1131.69
491.657	1110.69
491.874	1075.69
492.092	1125.69
492.31	1125.69
492.527	1146.69
492.745	1119.69
492.963	1106.69
493.18	1139.69
493.398	1129.69
493.615	1143.69
493.833	1146.69
494.05	1184.69
494.268	1164.69
494.485	1176.69
494.703	1185.69
494.92	1179.69
495.138	1166.69
495.355	1168.69
495.573	1176.69
495.79	1164.69
496.008	1180.69
496.225	1161.69
496.442	1163.69
496.66	1196.69
496.877	1223.69
497.094	1212.69
497.312	1276.69
497.529	1268.69
497.746	1320.69
497.963	1361.69
498.181	1394.69
498.398	1503.69
498.615	1569.69
498.832	1675.69
499.049	1825.69
499.267	1969.69
499.484	2173.69
499.701	2421.69
499.918	2621.69
500.135	3119.69
500.352	3607.69
500.569	3796.69
500.786	3733.69
501.003	3466.69
501.22	3019.69
501.437	2657.69
501.654	2302.69
501.871	2063.69
502.088	1908.69
502.305	1799.69
502.522	1671.69
502.739	1619.69
502.956	1490.69
503.172	1479.69
503.389	1395.69
503.606	1346.69
503.823	1339.69
504.04	1328.69
504.256	1357.69
504.473	1387.69
504.69	1413.69
504.907	1397.69
505.123	1314.69
505.34	1218.69
505.557	1168.69
505.773	1127.69
505.99	1125.69
506.207	1087.69
506.423	1076.69
506.64	1039.69
506.856	1049.69
507.073	1036.69
507.289	1053.69
507.506	995.69
507.722	1014.69
507.939	1042.69
508.155	1009.69
508.372	1010.69
508.588	968.69
508.805	996.69
509.021	965.69
509.238	989.69
509.454	960.69
509.67	945.69
509.887	960.69
510.103	943.69
510.319	928.69
510.536	919.69
510.752	920.69
510.968	945.69
511.184	932.69
511.401	932.69
511.617	938.69
511.833	948.69
512.049	928.69
512.265	917.69
512.481	955.69
512.698	929.69
512.914	948.69
513.13	934.69
513.346	937.69
513.562	921.69
513.778	963.69
513.994	934.69
514.21	935.69
514.426	968.69
514.642	938.69
514.858	952.69
515.074	942.69
515.29	982.69
515.506	996.69
515.721	981.69
515.937	1010.69
516.153	1025.69
516.369	1050.69
516.585	1076.69
516.801	1109.69
517.016	1168.69
517.232	1219.69
517.448	1291.69
517.664	1352.69
517.879	1386.69
518.095	1360.69
518.311	1345.69
518.527	1276.69
518.742	1195.69
518.958	1148.69
519.173	1116.69
519.389	1082.69
519.605	1075.69
519.82	1032.69
520.036	981.69
520.251	984.69
520.467	1000.69
520.682	970.69
520.898	953.69
521.113	920.69
521.329	932.69
521.544	926.69
521.76	906.69
521.975	916.69
522.19	909.69
522.406	882.69
522.621	864.69
522.836	905.69
523.052	901.69
523.267	864.69
523.482	867.69
523.698	887.69
523.913	874.69
524.128	874.69
524.343	896.69
524.559	863.69
524.774	849.69
524.989	860.69
525.204	850.69
525.419	847.69
525.634	870.69
525.849	865.69
526.064	840.69
526.28	864.69
526.495	846.69
526.71	840.69
526.925	844.69
527.14	840.69
527.355	852.69
527.57	855.69
527.785	859.69
527.999	861.69
528.214	851.69
528.429	852.69
528.644	857.69
528.859	852.69
529.074	846.69
529.289	842.69
529.503	823.69
529.718	843.69
529.933	854.69
530.148	851.69
530.363	851.69
530.577	833.69
530.792	845.69
531.007	846.69
531.221	865.69
531.436	856.69
531.651	877.69
531.865	880.69
532.08	836.69
532.295	883.69
532.509	833.69
532.724	844.69
532.938	874.69
533.153	849.69
533.367	835.69
533.582	843.69
533.796	849.69
534.011	834.69
534.225	840.69
534.44	841.69
534.654	860.69
534.868	836.69
535.083	839.69
535.297	825.69
535.511	805.69
535.726	841.69
535.94	833.69
536.154	810.69
536.369	804.69
536.583	796.69
536.797	807.69
537.011	787.69
537.225	808.69
537.44	782.69
537.654	784.69
537.868	775.69
538.082	768.69
538.296	788.69
538.51	803.69
538.724	803.69
538.938	772.69
539.153	756.69
539.367	763.69
539.581	774.69
539.795	747.69
540.009	748.69
540.222	746.69
540.436	756.69
540.65	758.69
540.864	747.69
541.078	773.69
541.292	751.69
541.506	774.69
541.72	746.69
541.934	746.69
542.147	770.69
542.361	739.69
542.575	775.69
542.789	755.69
543.002	744.69
543.216	771.69
543.43	769.69
543.644	729.69
543.857	722.69
544.071	739.69
544.285	752.69
544.498	742.69
544.712	730.69
544.925	777.69
545.139	747.69
545.352	777.69
545.566	793.69
545.779	780.69
545.993	769.69
546.206	808.69
546.42	771.69
546.633	760.69
546.847	801.69
547.06	759.69
547.274	757.69
547.487	764.69
547.7	756.69
547.914	761.69
548.127	780.69
548.34	779.69
548.554	793.69
548.767	789.69
548.98	774.69
549.193	791.69
549.407	772.69
549.62	790.69
549.833	827.69
550.046	795.69
550.259	765.69
550.473	761.69
550.686	760.69
550.899	771.69
551.112	761.69
551.325	748.69
551.538	780.69
551.751	744.69
551.964	760.69
552.177	770.69
552.39	761.69
552.603	803.69
552.816	827.69
553.029	851.69
553.242	868.69
553.455	844.69
553.667	873.69
553.88	856.69
554.093	833.69
554.306	798.69
554.519	787.69
554.732	771.69
554.944	741.69
555.157	740.69
555.37	709.69
555.583	713.69
555.795	719.69
556.008	701.69
556.221	693.69
556.433	685.69
556.646	713.69
556.859	671.69
557.071	663.69
557.284	670.69
557.496	647.69
557.709	662.69
557.921	646.69
558.134	661.69
558.346	660.69
558.559	660.69
558.771	643.69
558.984	641.69
559.196	647.69
559.409	633.69
559.621	668.69
559.833	644.69
560.046	654.69
560.258	651.69
560.47	623.69
560.683	623.69
560.895	632.69
561.107	613.69
561.32	618.69
561.532	623.69
561.744	644.69
561.956	606.69
562.168	628.69
562.381	629.69
562.593	648.69
562.805	669.69
563.017	650.69
563.229	643.69
563.441	650.69
563.653	647.69
563.865	666.69
564.077	668.69
564.289	668.69
564.501	662.69
564.713	675.69
564.925	664.69
565.137	693.69
565.349	716.69
565.561	739.69
565.773	753.69
565.985	776.69
566.197	858.69
566.408	885.69
566.62	984.69
566.832	1072.69
567.044	1068.69
567.255	1070.69
567.467	1123.69
567.679	1155.69
567.891	1267.69
568.102	1343.69
568.314	1265.69
568.526	1106.69
568.737	980.69
568.949	897.69
569.161	834.69
569.372	774.69
569.584	730.69
569.795	692.69
570.007	691.69
570.218	663.69
570.43	667.69
570.641	650.69
570.853	688.69
571.064	684.69
571.276	695.69
571.487	668.69
571.698	647.69
571.91	636.69
572.121	604.69
572.333	592.69
572.544	587.69
572.755	572.69
572.966	562.69
573.178	548.69
573.389	534.69
573.6	546.69
573.811	547.69
574.023	539.69
574.234	525.69
574.445	539.69
574.656	537.69
574.867	530.69
575.078	536.69
575.289	526.69
575.501	526.69
575.712	524.69
575.923	499.69
576.134	501.69
576.345	513.69
576.556	504.69
576.767	495.69
576.978	505.69
577.188	529.69
577.399	492.69
577.61	509.69
577.821	468.69
578.032	491.69
578.243	472.69
578.454	500.69
578.665	466.69
578.875	475.69
579.086	466.69
579.297	471.69
579.508	488.69
579.718	463.69
579.929	485.69
580.14	481.69
580.35	427.69
580.561	465.69
580.772	448.69
580.982	466.69
581.193	460.69
581.403	456.69
581.614	469.69
581.825	454.69
582.035	424.69
582.246	449.69
582.456	460.69
582.667	443.69
582.877	470.69
583.087	454.69
583.298	430.69
583.508	419.69
583.719	439.69
583.929	447.69
584.139	441.69
584.35	434.69
584.56	426.69
584.77	433.69
584.981	431.69
585.191	440.69
585.401	416.69
585.611	415.69
585.821	419.69
586.032	452.69
586.242	429.69
586.452	426.69
586.662	433.69
586.872	421.69
587.082	429.69
587.292	411.69
587.502	438.69
587.713	420.69
587.923	408.69
588.133	440.69
588.343	415.69
588.553	434.69
588.762	436.69
588.972	433.69
589.182	422.69
589.392	409.69
589.602	431.69
589.812	427.69
590.022	426.69
590.232	411.69
590.441	445.69
590.651	424.69
590.861	437.69
591.071	446.69
591.281	449.69
591.49	467.69
591.7	441.69
591.91	463.69
592.119	461.69
592.329	466.69
592.539	481.69
592.748	513.69
592.958	523.69
593.167	552.69
593.377	549.69
593.587	550.69
593.796	556.69
594.006	560.69
594.215	553.69
594.424	580.69
594.634	550.69
594.843	528.69
595.053	491.69
595.262	492.69
595.472	474.69
595.681	449.69
595.89	436.69
596.1	431.69
596.309	433.69
596.518	411.69
596.727	401.69
596.937	387.69
597.146	389.69
597.355	390.69
597.564	384.69
597.774	383.69
597.983	391.69
598.192	360.69
598.401	373.69
598.61	373.69
598.819	361.69
599.028	370.69
599.237	351.69
599.446	364.69
599.655	367.69
599.864	358.69
600.073	375.69
600.282	377.69
600.491	370.69
600.7	391.69
600.909	367.69
601.118	353.69
601.327	355.69
601.536	362.69
601.745	361.69
601.953	360.69
602.162	339.69
602.371	367.69
602.58	347.69
602.789	352.69
602.997	346.69
603.206	336.69
603.415	363.69
603.623	327.69
603.832	368.69
604.041	355.69
604.249	337.69
604.458	332.69
604.666	352.69
604.875	355.69
605.084	333.69
605.292	344.69
605.501	342.69
605.709	315.69
605.918	329.69
606.126	343.69
606.334	349.69
606.543	338.69
606.751	318.69
606.96	349.69
607.168	328.69
607.376	315.69
607.585	322.69
607.793	331.69
608.001	327.69
608.21	333.69
608.418	327.69
608.626	326.69
608.834	337.69
609.043	339.69
609.251	309.69
609.459	294.69
609.667	330.69
609.875	318.69
610.083	312.69
610.291	327.69
610.499	337.69
610.707	315.69
610.916	332.69
611.124	322.69
611.332	314.69
611.54	317.69
611.748	304.69
611.955	294.69
612.163	289.69
612.371	315.69
612.579	322.69
612.787	305.69
612.995	329.69
613.203	292.69
613.411	300.69
613.618	318.69
613.826	332.69
614.034	313.69
614.242	304.69
614.449	297.69
614.657	308.69
614.865	296.69
615.072	301.69
615.28	307.69
615.488	304.69
615.695	297.69
615.903	310.69
616.111	316.69
616.318	322.69
616.526	305.69
616.733	308.69
616.941	314.69
617.148	310.69
617.356	340.69
617.563	289.69
617.771	324.69
617.978	319.69
618.185	284.69
618.393	313.69
618.6	335.69
618.807	306.69
619.015	317.69
619.222	301.69
619.429	320.69
619.637	303.69
619.844	288.69
620.051	298.69
620.258	284.69
620.466	290.69
620.673	265.69
620.88	280.69
621.087	287.69
621.294	285.69
621.501	290.69
621.708	290.69
621.915	281.69
622.122	280.69
622.329	267.69
622.536	283.69
622.743	284.69
622.95	291.69
623.157	272.69
623.364	280.69
623.571	291.69
623.778	280.69
623.985	262.69
624.192	275.69
624.399	258.69
624.606	296.69
624.812	257.69
625.019	277.69
625.226	282.69
625.433	278.69
625.639	264.69
625.846	273.69
626.053	260.69
626.259	256.69
626.466	249.69
626.673	262.69
626.879	268.69
627.086	272.69
627.293	285.69
627.499	259.69
627.706	248.69
627.912	274.69
628.119	260.69
628.325	264.69
628.532	242.69
628.738	253.69
628.945	275.69
629.151	261.69
629.357	260.69
629.564	255.69
629.77	246.69
629.976	234.69
630.183	259.69
630.389	244.69
630.595	249.69
630.802	232.69
631.008	234.69
631.214	231.69
631.42	240.69
631.627	257.69
631.833	237.69
632.039	234.69
632.245	242.69
632.451	230.69
632.657	231.69
632.863	252.69
633.069	231.69
633.275	229.69
633.481	231.69
633.688	239.69
633.893	233.69
634.099	231.69
634.305	226.69
634.511	233.69
634.717	237.69
634.923	224.69
635.129	210.69
635.335	238.69
635.541	238.69
635.747	225.69
635.952	221.69
636.158	229.69
636.364	224.69
636.57	210.69
636.775	225.69
636.981	217.69
637.187	232.69
637.392	232.69
637.598	218.69
637.804	216.69
638.009	225.69
638.215	236.69
638.421	218.69
638.626	226.69
638.832	205.69
639.037	231.69
639.243	215.69
639.448	203.69
639.654	221.69
639.859	217.69
640.065	230.69
640.27	225.69
640.475	197.69
640.681	197.69
640.886	223.69
641.091	208.69
641.297	214.69
641.502	220.69
641.707	202.69
641.913	207.69
642.118	198.69
642.323	205.69
642.528	206.69
642.733	202.69
642.939	201.69
643.144	203.69
643.349	218.69
643.554	222.69
643.759	196.69
643.964	200.69
644.169	208.69
644.374	197.69
644.579	194.69
644.784	202.69
644.989	193.69
645.194	212.69
645.399	195.69
645.604	198.69
645.809	204.69
646.014	198.69
646.219	195.69
646.423	201.69
646.628	203.69
646.833	213.69
647.038	209.69
647.243	202.69
647.447	219.69
647.652	213.69
647.857	216.69
648.062	205.69
648.266	221.69
648.471	231.69
648.676	217.69
648.88	202.69
649.085	213.69
649.289	221.69
649.494	210.69
649.698	208.69
649.903	184.69
650.107	203.69
650.312	203.69
650.516	196.69
650.721	180.69
650.925	192.69
651.13	184.69
651.334	181.69
651.539	198.69
651.743	168.69
651.947	174.69
652.152	184.69
652.356	163.69
652.56	177.69
652.764	167.69
652.969	173.69
653.173	179.69
653.377	179.69
653.581	166.69
653.785	165.69
653.99	171.69
654.194	172.69
654.398	144.69
654.602	151.69
654.806	160.69
655.01	142.69
655.214	168.69
655.418	164.69
655.622	147.69
655.826	142.69
656.03	154.69
656.234	142.69
656.438	140.69
656.642	153.69
656.846	159.69
657.049	155.69
657.253	149.69
657.457	136.69
657.661	141.69
657.865	124.69
658.068	108.69
658.272	123.69
658.476	129.69
658.68	117.69
658.883	113.69
659.087	115.69
659.291	115.69
659.494	113.69
659.698	98.69
659.901	101.69
660.105	113.69
660.309	96.69
660.512	89.69
660.716	92.69
660.919	87.69
661.123	99.69
661.326	103.69
661.53	87.69
661.733	80.69
661.936	72.69
662.14	87.69
662.343	80.69
662.546	84.69
662.75	80.69
662.953	87.69
663.156	75.69
663.36	77.69
663.563	85.69
663.766	101.69
663.969	82.69
664.173	93.69
664.376	89.69
664.579	86.69
664.782	79.69
664.985	92.69
665.188	79.69
665.391	88.69
665.594	87.69
665.797	77.69
666	83.69
666.203	75.69
666.406	75.69
666.609	97.69
666.812	89.69
667.015	84.69
667.218	85.69
667.421	78.69
667.624	80.69
667.827	68.69
668.03	81.69
668.232	83.69
668.435	98.69
668.638	95.69
668.841	71.69
669.043	91.69
669.246	87.69
669.449	70.69
669.651	72.69
669.854	81.69
670.057	96.69
670.259	71.69
670.462	73.69
670.665	84.69
670.867	93.69
671.07	85.69
671.272	80.69
671.475	73.69
671.677	80.69
671.88	77.69
672.082	87.69
672.284	85.69
672.487	88.69
672.689	81.69
672.892	90.69
