Data from NiCl2@0.0625M.TitratingCurve.Agarose3%dH2O.NegLispCup.LampEnergy10.LIBS07252019_HRD10591_18-33-12-576.txt Node
Date: Thu Jul 25 18:33:12 EDT 2019
User: cochatt
Spectrometer: HR+D1059
Trigger mode: 1
Integration Time (sec): 1.000000E-1
Scans to average: 1
Electric dark correction enabled: true
Nonlinearity correction enabled: false
Boxcar width: 0
XAxis mode: Wavelengths
Number of Pixels in Spectrum: 2048
>>>>>Begin Spectral Data<<<<<
223.165	-16.88
223.4	-16.88
223.635	-16.88
223.869	-15.88
224.104	-21.88
224.338	3.12
224.573	2.12
224.808	-14.88
225.042	-14.88
225.277	-2.88
225.511	-7.88
225.746	0.12
225.98	8.12
226.215	6.12
226.449	8.12
226.683	18.12
226.918	25.12
227.152	24.12
227.387	33.12
227.621	51.12
227.856	44.12
228.09	40.12
228.324	42.12
228.559	53.12
228.793	86.12
229.027	144.12
229.262	148.12
229.496	169.12
229.73	170.12
229.964	177.12
230.199	203.12
230.433	188.12
230.667	191.12
230.901	195.12
231.136	189.12
231.37	174.12
231.604	193.12
231.838	177.12
232.072	193.12
232.306	207.12
232.541	210.12
232.775	205.12
233.009	196.12
233.243	194.12
233.477	210.12
233.711	219.12
233.945	225.12
234.179	208.12
234.413	229.12
234.647	195.12
234.881	229.12
235.115	219.12
235.349	229.12
235.583	226.12
235.817	229.12
236.051	231.12
236.285	212.12
236.519	253.12
236.753	229.12
236.987	231.12
237.221	234.12
237.455	255.12
237.689	226.12
237.922	245.12
238.156	243.12
238.39	252.12
238.624	265.12
238.858	267.12
239.091	281.12
239.325	252.12
239.559	266.12
239.793	263.12
240.027	282.12
240.26	261.12
240.494	280.12
240.728	278.12
240.961	278.12
241.195	292.12
241.429	285.12
241.662	307.12
241.896	318.12
242.13	305.12
242.363	304.12
242.597	312.12
242.83	310.12
243.064	303.12
243.298	308.12
243.531	336.12
243.765	323.12
243.998	340.12
244.232	319.12
244.465	336.12
244.699	325.12
244.932	343.12
245.166	342.12
245.399	358.12
245.633	347.12
245.866	347.12
246.099	363.12
246.333	339.12
246.566	375.12
246.8	352.12
247.033	371.12
247.266	359.12
247.5	377.12
247.733	373.12
247.966	383.12
248.2	377.12
248.433	388.12
248.666	398.12
248.899	389.12
249.133	393.12
249.366	377.12
249.599	406.12
249.832	411.12
250.066	410.12
250.299	397.12
250.532	407.12
250.765	418.12
250.998	423.12
251.231	431.12
251.465	437.12
251.698	443.12
251.931	426.12
252.164	462.12
252.397	432.12
252.63	438.12
252.863	456.12
253.096	452.12
253.329	450.12
253.562	420.12
253.795	450.12
254.028	481.12
254.261	444.12
254.494	457.12
254.727	441.12
254.96	452.12
255.193	453.12
255.426	460.12
255.659	455.12
255.892	491.12
256.124	478.12
256.357	471.12
256.59	487.12
256.823	486.12
257.056	495.12
257.289	481.12
257.521	488.12
257.754	486.12
257.987	485.12
258.22	504.12
258.452	494.12
258.685	513.12
258.918	503.12
259.151	522.12
259.383	522.12
259.616	534.12
259.849	511.12
260.081	513.12
260.314	531.12
260.547	558.12
260.779	547.12
261.012	535.12
261.244	535.12
261.477	556.12
261.71	559.12
261.942	550.12
262.175	536.12
262.407	543.12
262.64	569.12
262.872	571.12
263.105	538.12
263.337	547.12
263.57	555.12
263.802	563.12
264.035	559.12
264.267	582.12
264.499	581.12
264.732	575.12
264.964	608.12
265.197	589.12
265.429	590.12
265.661	586.12
265.894	587.12
266.126	588.12
266.358	605.12
266.591	615.12
266.823	591.12
267.055	593.12
267.287	623.12
267.52	612.12
267.752	619.12
267.984	597.12
268.216	649.12
268.448	647.12
268.681	627.12
268.913	632.12
269.145	636.12
269.377	634.12
269.609	630.12
269.841	643.12
270.073	616.12
270.306	649.12
270.538	638.12
270.77	647.12
271.002	656.12
271.234	647.12
271.466	661.12
271.698	642.12
271.93	685.12
272.162	653.12
272.394	668.12
272.626	669.12
272.858	675.12
273.09	678.12
273.322	699.12
273.553	699.12
273.785	684.12
274.017	676.12
274.249	687.12
274.481	705.12
274.713	689.12
274.945	702.12
275.176	737.12
275.408	724.12
275.64	718.12
275.872	701.12
276.104	752.12
276.335	720.12
276.567	693.12
276.799	720.12
277.031	733.12
277.262	731.12
277.494	709.12
277.726	735.12
277.957	742.12
278.189	731.12
278.421	737.12
278.652	749.12
278.884	758.12
279.115	769.12
279.347	745.12
279.579	797.12
279.81	774.12
280.042	769.12
280.273	762.12
280.505	807.12
280.736	777.12
280.968	782.12
281.199	798.12
281.431	783.12
281.662	801.12
281.894	814.12
282.125	783.12
282.356	806.12
282.588	833.12
282.819	833.12
283.051	826.12
283.282	821.12
283.513	819.12
283.745	839.12
283.976	841.12
284.207	804.12
284.439	821.12
284.67	813.12
284.901	861.12
285.132	858.12
285.364	863.12
285.595	818.12
285.826	827.12
286.057	857.12
286.288	827.12
286.52	869.12
286.751	853.12
286.982	882.12
287.213	849.12
287.444	859.12
287.675	882.12
287.906	893.12
288.138	882.12
288.369	893.12
288.6	909.12
288.831	885.12
289.062	893.12
289.293	900.12
289.524	872.12
289.755	881.12
289.986	870.12
290.217	911.12
290.448	878.12
290.679	907.12
290.91	919.12
291.141	912.12
291.371	892.12
291.602	916.12
291.833	909.12
292.064	931.12
292.295	886.12
292.526	896.12
292.757	907.12
292.987	905.12
293.218	905.12
293.449	934.12
293.68	937.12
293.91	906.12
294.141	937.12
294.372	884.12
294.603	895.12
294.833	930.12
295.064	947.12
295.295	924.12
295.525	913.12
295.756	915.12
295.987	923.12
296.217	946.12
296.448	920.12
296.679	930.12
296.909	926.12
297.14	961.12
297.37	963.12
297.601	973.12
297.831	964.12
298.062	999.12
298.292	983.12
298.523	1002.12
298.753	995.12
298.984	993.12
299.214	976.12
299.445	962.12
299.675	981.12
299.905	1003.12
300.136	994.12
300.366	1045.12
300.597	1002.12
300.827	1041.12
301.057	1038.12
301.288	1036.12
301.518	1023.12
301.748	1061.12
301.979	1052.12
302.209	1050.12
302.439	1051.12
302.669	1053.12
302.9	1016.12
303.13	1046.12
303.36	1060.12
303.59	1056.12
303.82	1040.12
304.051	1038.12
304.281	1007.12
304.511	1043.12
304.741	998.12
304.971	1033.12
305.201	1063.12
305.431	1023.12
305.661	1011.12
305.891	1016.12
306.121	1016.12
306.352	1035.12
306.582	1026.12
306.812	1011.12
307.042	1015.12
307.272	1036.12
307.502	1011.12
307.731	1051.12
307.961	1032.12
308.191	1027.12
308.421	993.12
308.651	1050.12
308.881	1009.12
309.111	995.12
309.341	1025.12
309.571	1060.12
309.8	1030.12
310.03	1052.12
310.26	1035.12
310.49	1043.12
310.72	1048.12
310.949	1042.12
311.179	1053.12
311.409	1061.12
311.639	1054.12
311.868	1055.12
312.098	1086.12
312.328	1073.12
312.557	1101.12
312.787	1111.12
313.017	1064.12
313.246	1113.12
313.476	1090.12
313.706	1090.12
313.935	1101.12
314.165	1101.12
314.394	1103.12
314.624	1110.12
314.853	1102.12
315.083	1105.12
315.312	1086.12
315.542	1112.12
315.771	1141.12
316.001	1123.12
316.23	1100.12
316.46	1091.12
316.689	1090.12
316.919	1099.12
317.148	1108.12
317.377	1113.12
317.607	1102.12
317.836	1088.12
318.065	1087.12
318.295	1093.12
318.524	1143.12
318.753	1095.12
318.983	1059.12
319.212	1067.12
319.441	1091.12
319.67	1110.12
319.9	1112.12
320.129	1077.12
320.358	1118.12
320.587	1109.12
320.816	1099.12
321.046	1129.12
321.275	1093.12
321.504	1089.12
321.733	1108.12
321.962	1126.12
322.191	1125.12
322.42	1102.12
322.649	1118.12
322.878	1096.12
323.108	1109.12
323.337	1115.12
323.566	1151.12
323.795	1135.12
324.024	1161.12
324.253	1150.12
324.482	1148.12
324.71	1173.12
324.939	1147.12
325.168	1134.12
325.397	1171.12
325.626	1161.12
325.855	1151.12
326.084	1190.12
326.313	1177.12
326.542	1215.12
326.77	1217.12
326.999	1194.12
327.228	1163.12
327.457	1196.12
327.686	1168.12
327.914	1195.12
328.143	1206.12
328.372	1211.12
328.6	1168.12
328.829	1209.12
329.058	1245.12
329.287	1187.12
329.515	1205.12
329.744	1219.12
329.972	1222.12
330.201	1241.12
330.43	1246.12
330.658	1221.12
330.887	1252.12
331.115	1259.12
331.344	1240.12
331.572	1287.12
331.801	1275.12
332.03	1298.12
332.258	1310.12
332.486	1384.12
332.715	1388.12
332.943	1416.12
333.172	1430.12
333.4	1512.12
333.629	1543.12
333.857	1561.12
334.085	1511.12
334.314	1539.12
334.542	1508.12
334.771	1524.12
334.999	1503.12
335.227	1501.12
335.455	1508.12
335.684	1513.12
335.912	1518.12
336.14	1470.12
336.369	1494.12
336.597	1481.12
336.825	1461.12
337.053	1453.12
337.281	1396.12
337.51	1398.12
337.738	1411.12
337.966	1366.12
338.194	1354.12
338.422	1341.12
338.65	1333.12
338.878	1324.12
339.106	1321.12
339.334	1339.12
339.562	1301.12
339.79	1306.12
340.018	1280.12
340.246	1275.12
340.474	1270.12
340.702	1265.12
340.93	1294.12
341.158	1276.12
341.386	1289.12
341.614	1277.12
341.842	1284.12
342.07	1248.12
342.298	1242.12
342.526	1248.12
342.754	1257.12
342.981	1252.12
343.209	1265.12
343.437	1331.12
343.665	1403.12
343.893	1493.12
344.12	1492.12
344.348	1481.12
344.576	1408.12
344.804	1366.12
345.031	1331.12
345.259	1266.12
345.487	1295.12
345.714	1259.12
345.942	1272.12
346.17	1238.12
346.397	1241.12
346.625	1210.12
346.853	1216.12
347.08	1209.12
347.308	1217.12
347.535	1230.12
347.763	1211.12
347.99	1213.12
348.218	1203.12
348.445	1196.12
348.673	1243.12
348.9	1209.12
349.128	1209.12
349.355	1167.12
349.583	1204.12
349.81	1169.12
350.037	1185.12
350.265	1189.12
350.492	1180.12
350.72	1191.12
350.947	1166.12
351.174	1159.12
351.402	1172.12
351.629	1199.12
351.856	1173.12
352.083	1153.12
352.311	1164.12
352.538	1124.12
352.765	1163.12
352.992	1119.12
353.22	1144.12
353.447	1179.12
353.674	1145.12
353.901	1147.12
354.128	1159.12
354.355	1140.12
354.583	1180.12
354.81	1191.12
355.037	1185.12
355.264	1168.12
355.491	1165.12
355.718	1181.12
355.945	1168.12
356.172	1165.12
356.399	1195.12
356.626	1159.12
356.853	1185.12
357.08	1197.12
357.307	1168.12
357.534	1145.12
357.761	1203.12
357.988	1173.12
358.215	1164.12
358.441	1159.12
358.668	1165.12
358.895	1184.12
359.122	1182.12
359.349	1172.12
359.576	1173.12
359.802	1164.12
360.029	1170.12
360.256	1176.12
360.483	1171.12
360.709	1182.12
360.936	1154.12
361.163	1193.12
361.39	1203.12
361.616	1171.12
361.843	1190.12
362.07	1176.12
362.296	1169.12
362.523	1145.12
362.749	1188.12
362.976	1152.12
363.203	1190.12
363.429	1172.12
363.656	1181.12
363.882	1163.12
364.109	1169.12
364.335	1177.12
364.562	1182.12
364.788	1176.12
365.015	1157.12
365.241	1158.12
365.468	1144.12
365.694	1150.12
365.92	1174.12
366.147	1186.12
366.373	1173.12
366.599	1201.12
366.826	1150.12
367.052	1158.12
367.278	1168.12
367.505	1169.12
367.731	1205.12
367.957	1191.12
368.184	1183.12
368.41	1207.12
368.636	1201.12
368.862	1184.12
369.089	1218.12
369.315	1205.12
369.541	1213.12
369.767	1233.12
369.993	1225.12
370.219	1208.12
370.445	1234.12
370.672	1229.12
370.898	1228.12
371.124	1273.12
371.35	1235.12
371.576	1271.12
371.802	1279.12
372.028	1289.12
372.254	1291.12
372.48	1266.12
372.706	1316.12
372.932	1327.12
373.158	1325.12
373.384	1290.12
373.61	1279.12
373.835	1295.12
374.061	1304.12
374.287	1307.12
374.513	1323.12
374.739	1372.12
374.965	1374.12
375.191	1413.12
375.416	1424.12
375.642	1353.12
375.868	1363.12
376.094	1322.12
376.319	1315.12
376.545	1310.12
376.771	1287.12
376.997	1243.12
377.222	1258.12
377.448	1256.12
377.674	1270.12
377.899	1264.12
378.125	1282.12
378.35	1246.12
378.576	1221.12
378.802	1234.12
379.027	1301.12
379.253	1277.12
379.478	1280.12
379.704	1270.12
379.929	1287.12
380.155	1268.12
380.38	1295.12
380.606	1272.12
380.831	1230.12
381.057	1293.12
381.282	1243.12
381.507	1254.12
381.733	1290.12
381.958	1310.12
382.184	1307.12
382.409	1322.12
382.634	1325.12
382.86	1316.12
383.085	1339.12
383.31	1349.12
383.535	1363.12
383.761	1364.12
383.986	1412.12
384.211	1422.12
384.436	1440.12
384.662	1457.12
384.887	1480.12
385.112	1500.12
385.337	1470.12
385.562	1526.12
385.787	1524.12
386.013	1532.12
386.238	1541.12
386.463	1498.12
386.688	1553.12
386.913	1506.12
387.138	1539.12
387.363	1548.12
387.588	1516.12
387.813	1505.12
388.038	1510.12
388.263	1518.12
388.488	1542.12
388.713	1529.12
388.938	1516.12
389.163	1498.12
389.387	1493.12
389.612	1489.12
389.837	1506.12
390.062	1485.12
390.287	1500.12
390.512	1552.12
390.736	1536.12
390.961	1526.12
391.186	1562.12
391.411	1600.12
391.636	1615.12
391.86	1709.12
392.085	1685.12
392.31	1691.12
392.534	1628.12
392.759	1643.12
392.984	1618.12
393.208	1653.12
393.433	1651.12
393.658	1658.12
393.882	1609.12
394.107	1603.12
394.331	1604.12
394.556	1614.12
394.78	1607.12
395.005	1626.12
395.229	1637.12
395.454	1651.12
395.678	1719.12
395.903	1685.12
396.127	1703.12
396.352	1671.12
396.576	1665.12
396.801	1659.12
397.025	1689.12
397.249	1738.12
397.474	1718.12
397.698	1743.12
397.922	1727.12
398.147	1737.12
398.371	1755.12
398.595	1811.12
398.82	1901.12
399.044	1995.12
399.268	2161.12
399.492	2399.12
399.717	2689.12
399.941	2647.12
400.165	2430.12
400.389	2269.12
400.613	2110.12
400.837	2010.12
401.062	1955.12
401.286	1945.12
401.51	1899.12
401.734	1892.12
401.958	1913.12
402.182	1901.12
402.406	1908.12
402.63	1969.12
402.854	1957.12
403.078	1965.12
403.302	2022.12
403.526	2028.12
403.75	2073.12
403.974	2083.12
404.198	2089.12
404.422	2074.12
404.645	2074.12
404.869	2059.12
405.093	2043.12
405.317	2031.12
405.541	2061.12
405.765	2041.12
405.988	2041.12
406.212	2048.12
406.436	2061.12
406.66	2163.12
406.883	2159.12
407.107	2267.12
407.331	2333.12
407.555	2417.12
407.778	2385.12
408.002	2353.12
408.226	2300.12
408.449	2258.12
408.673	2181.12
408.896	2195.12
409.12	2125.12
409.344	2137.12
409.567	2098.12
409.791	2088.12
410.014	2057.12
410.238	2080.12
410.461	2095.12
410.685	2041.12
410.908	1996.12
411.132	1948.12
411.355	1956.12
411.578	1980.12
411.802	1941.12
412.025	1989.12
412.249	1986.12
412.472	1982.12
412.695	1927.12
412.919	1923.12
413.142	1898.12
413.365	1900.12
413.589	1900.12
413.812	1876.12
414.035	1884.12
414.258	1911.12
414.482	1901.12
414.705	1917.12
414.928	1899.12
415.151	1917.12
415.374	1878.12
415.597	1857.12
415.821	1827.12
416.044	1818.12
416.267	1843.12
416.49	1796.12
416.713	1837.12
416.936	1825.12
417.159	1785.12
417.382	1825.12
417.605	1808.12
417.828	1793.12
418.051	1807.12
418.274	1822.12
418.497	1828.12
418.72	1843.12
418.943	1876.12
419.166	1922.12
419.389	2039.12
419.611	2021.12
419.834	1985.12
420.057	1907.12
420.28	1888.12
420.503	1774.12
420.726	1818.12
420.948	1825.12
421.171	1842.12
421.394	1834.12
421.617	1831.12
421.839	1809.12
422.062	1836.12
422.285	1770.12
422.507	1839.12
422.73	1831.12
422.953	1855.12
423.175	1846.12
423.398	1866.12
423.621	1889.12
423.843	1884.12
424.066	1900.12
424.288	1862.12
424.511	1883.12
424.733	1874.12
424.956	1845.12
425.178	1831.12
425.401	1850.12
425.623	1833.12
425.846	1771.12
426.068	1731.12
426.291	1756.12
426.513	1773.12
426.735	1779.12
426.958	1757.12
427.18	1695.12
427.402	1723.12
427.625	1692.12
427.847	1686.12
428.069	1667.12
428.292	1690.12
428.514	1642.12
428.736	1649.12
428.958	1650.12
429.181	1628.12
429.403	1667.12
429.625	1650.12
429.847	1615.12
430.069	1623.12
430.292	1655.12
430.514	1614.12
430.736	1654.12
430.958	1636.12
431.18	1611.12
431.402	1686.12
431.624	1638.12
431.846	1644.12
432.068	1701.12
432.29	1725.12
432.512	1643.12
432.734	1677.12
432.956	1675.12
433.178	1655.12
433.4	1677.12
433.622	1681.12
433.844	1688.12
434.066	1729.12
434.287	1714.12
434.509	1767.12
434.731	1799.12
434.953	1842.12
435.175	1822.12
435.397	1850.12
435.618	1740.12
435.84	1723.12
436.062	1697.12
436.284	1689.12
436.505	1683.12
436.727	1702.12
436.949	1670.12
437.17	1642.12
437.392	1618.12
437.614	1640.12
437.835	1571.12
438.057	1586.12
438.278	1547.12
438.5	1576.12
438.721	1572.12
438.943	1604.12
439.165	1607.12
439.386	1606.12
439.608	1599.12
439.829	1602.12
440.05	1637.12
440.272	1609.12
440.493	1653.12
440.715	1609.12
440.936	1679.12
441.158	1701.12
441.379	1732.12
441.6	1786.12
441.822	1786.12
442.043	1820.12
442.264	1793.12
442.486	1778.12
442.707	1783.12
442.928	1769.12
443.149	1771.12
443.371	1781.12
443.592	1768.12
443.813	1879.12
444.034	1842.12
444.255	1844.12
444.476	1878.12
444.698	2018.12
444.919	2037.12
445.14	2107.12
445.361	1998.12
445.582	1859.12
445.803	1762.12
446.024	1701.12
446.245	1717.12
446.466	1696.12
446.687	1613.12
446.908	1625.12
447.129	1594.12
447.35	1597.12
447.571	1587.12
447.792	1504.12
448.013	1526.12
448.234	1513.12
448.455	1544.12
448.675	1521.12
448.896	1489.12
449.117	1490.12
449.338	1502.12
449.559	1455.12
449.779	1441.12
450	1452.12
450.221	1455.12
450.442	1468.12
450.662	1470.12
450.883	1510.12
451.104	1530.12
451.324	1478.12
451.545	1474.12
451.766	1505.12
451.986	1470.12
452.207	1502.12
452.428	1463.12
452.648	1432.12
452.869	1438.12
453.089	1432.12
453.31	1467.12
453.53	1409.12
453.751	1422.12
453.971	1427.12
454.192	1416.12
454.412	1390.12
454.633	1388.12
454.853	1426.12
455.073	1416.12
455.294	1384.12
455.514	1373.12
455.734	1351.12
455.955	1367.12
456.175	1386.12
456.395	1351.12
456.616	1371.12
456.836	1370.12
457.056	1381.12
457.276	1377.12
457.497	1384.12
457.717	1357.12
457.937	1386.12
458.157	1408.12
458.377	1437.12
458.598	1499.12
458.818	1550.12
459.038	1531.12
459.258	1558.12
459.478	1657.12
459.698	1653.12
459.918	1703.12
460.138	1794.12
460.358	1811.12
460.578	1851.12
460.798	1886.12
461.018	1888.12
461.238	1832.12
461.458	1869.12
461.678	1847.12
461.898	1888.12
462.118	1905.12
462.338	2027.12
462.558	2042.12
462.777	2108.12
462.997	2203.12
463.217	2384.12
463.437	2387.12
463.657	2233.12
463.876	2178.12
464.096	2148.12
464.316	2106.12
464.536	2124.12
464.755	2107.12
464.975	2049.12
465.195	1939.12
465.414	1889.12
465.634	1739.12
465.854	1694.12
466.073	1683.12
466.293	1641.12
466.512	1610.12
466.732	1563.12
466.951	1602.12
467.171	1569.12
467.391	1541.12
467.61	1585.12
467.829	1532.12
468.049	1547.12
468.268	1487.12
468.488	1479.12
468.707	1479.12
468.927	1517.12
469.146	1490.12
469.365	1505.12
469.585	1517.12
469.804	1526.12
470.023	1576.12
470.243	1566.12
470.462	1627.12
470.681	1594.12
470.901	1612.12
471.12	1542.12
471.339	1531.12
471.558	1530.12
471.777	1555.12
471.997	1575.12
472.216	1529.12
472.435	1491.12
472.654	1498.12
472.873	1499.12
473.092	1532.12
473.311	1487.12
473.53	1489.12
473.749	1474.12
473.968	1460.12
474.187	1500.12
474.406	1492.12
474.625	1494.12
474.844	1494.12
475.063	1509.12
475.282	1519.12
475.501	1519.12
475.72	1521.12
475.939	1514.12
476.158	1531.12
476.377	1550.12
476.596	1573.12
476.814	1587.12
477.033	1581.12
477.252	1595.12
477.471	1623.12
477.69	1690.12
477.908	1713.12
478.127	1746.12
478.346	1731.12
478.564	1779.12
478.783	1806.12
479.002	1851.12
479.22	1841.12
479.439	1851.12
479.658	1881.12
479.876	1884.12
480.095	1885.12
480.313	1938.12
480.532	1966.12
480.751	1973.12
480.969	1910.12
481.188	1915.12
481.406	1861.12
481.624	1860.12
481.843	1814.12
482.061	1790.12
482.28	1777.12
482.498	1804.12
482.717	1798.12
482.935	1816.12
483.153	1803.12
483.372	1811.12
483.59	1843.12
483.808	1840.12
484.027	1824.12
484.245	1841.12
484.463	1843.12
484.681	1908.12
484.9	1921.12
485.118	1947.12
485.336	1942.12
485.554	1944.12
485.772	1957.12
485.99	1928.12
486.209	1960.12
486.427	1962.12
486.645	1910.12
486.863	1968.12
487.081	1882.12
487.299	1925.12
487.517	1969.12
487.735	1890.12
487.953	1951.12
488.171	1902.12
488.389	1901.12
488.607	1910.12
488.825	1926.12
489.043	1857.12
489.261	1859.12
489.479	1858.12
489.696	1821.12
489.914	1863.12
490.132	1872.12
490.35	1865.12
490.568	1895.12
490.786	1855.12
491.003	1855.12
491.221	1886.12
491.439	1917.12
491.657	1871.12
491.874	1853.12
492.092	1866.12
492.31	1879.12
492.527	1839.12
492.745	1865.12
492.963	1850.12
493.18	1855.12
493.398	1857.12
493.615	1889.12
493.833	1844.12
494.05	1885.12
494.268	1907.12
494.485	1887.12
494.703	1909.12
494.92	1887.12
495.138	1897.12
495.355	1927.12
495.573	1897.12
495.79	1902.12
496.008	1949.12
496.225	1957.12
496.442	1953.12
496.66	1993.12
496.877	2039.12
497.094	2073.12
497.312	2093.12
497.529	2097.12
497.746	2147.12
497.963	2213.12
498.181	2349.12
498.398	2401.12
498.615	2515.12
498.832	2689.12
499.049	2796.12
499.267	3020.12
499.484	3268.12
499.701	3533.12
499.918	3873.12
500.135	4321.12
500.352	4693.12
500.569	4901.12
500.786	4804.12
501.003	4562.12
501.22	4260.12
501.437	3903.12
501.654	3467.12
501.871	3213.12
502.088	2974.12
502.305	2774.12
502.522	2684.12
502.739	2589.12
502.956	2427.12
503.172	2344.12
503.389	2242.12
503.606	2173.12
503.823	2173.12
504.04	2155.12
504.256	2119.12
504.473	2161.12
504.69	2153.12
504.907	2191.12
505.123	2037.12
505.34	1988.12
505.557	1877.12
505.773	1837.12
505.99	1794.12
506.207	1743.12
506.423	1718.12
506.64	1713.12
506.856	1674.12
507.073	1685.12
507.289	1661.12
507.506	1660.12
507.722	1619.12
507.939	1582.12
508.155	1619.12
508.372	1575.12
508.588	1617.12
508.805	1523.12
509.021	1595.12
509.238	1557.12
509.454	1529.12
509.67	1540.12
509.887	1503.12
510.103	1497.12
510.319	1488.12
510.536	1514.12
510.752	1475.12
510.968	1455.12
511.184	1484.12
511.401	1488.12
511.617	1472.12
511.833	1466.12
512.049	1470.12
512.265	1480.12
512.481	1504.12
512.698	1493.12
512.914	1494.12
513.13	1469.12
513.346	1498.12
513.562	1477.12
513.778	1506.12
513.994	1525.12
514.21	1500.12
514.426	1468.12
514.642	1508.12
514.858	1494.12
515.074	1542.12
515.29	1555.12
515.506	1551.12
515.721	1591.12
515.937	1578.12
516.153	1623.12
516.369	1649.12
516.585	1739.12
516.801	1710.12
517.016	1798.12
517.232	1878.12
517.448	1924.12
517.664	1914.12
517.879	1969.12
518.095	1960.12
518.311	1946.12
518.527	1837.12
518.742	1819.12
518.958	1770.12
519.173	1711.12
519.389	1667.12
519.605	1623.12
519.82	1587.12
520.036	1562.12
520.251	1490.12
520.467	1484.12
520.682	1487.12
520.898	1480.12
521.113	1451.12
521.329	1451.12
521.544	1431.12
521.76	1480.12
521.975	1448.12
522.19	1410.12
522.406	1362.12
522.621	1397.12
522.836	1351.12
523.052	1381.12
523.267	1366.12
523.482	1360.12
523.698	1356.12
523.913	1354.12
524.128	1367.12
524.343	1320.12
524.559	1328.12
524.774	1336.12
524.989	1354.12
525.204	1353.12
525.419	1307.12
525.634	1303.12
525.849	1343.12
526.064	1317.12
526.28	1343.12
526.495	1342.12
526.71	1298.12
526.925	1313.12
527.14	1329.12
527.355	1281.12
527.57	1330.12
527.785	1275.12
527.999	1287.12
528.214	1311.12
528.429	1284.12
528.644	1302.12
528.859	1320.12
529.074	1273.12
529.289	1294.12
529.503	1286.12
529.718	1324.12
529.933	1300.12
530.148	1276.12
530.363	1274.12
530.577	1284.12
530.792	1281.12
531.007	1294.12
531.221	1302.12
531.436	1300.12
531.651	1279.12
531.865	1303.12
532.08	1299.12
532.295	1318.12
532.509	1279.12
532.724	1279.12
532.938	1317.12
533.153	1321.12
533.367	1293.12
533.582	1298.12
533.796	1295.12
534.011	1288.12
534.225	1250.12
534.44	1289.12
534.654	1276.12
534.868	1243.12
535.083	1282.12
535.297	1240.12
535.511	1262.12
535.726	1278.12
535.94	1254.12
536.154	1239.12
536.369	1225.12
536.583	1229.12
536.797	1185.12
537.011	1194.12
537.225	1186.12
537.44	1205.12
537.654	1192.12
537.868	1179.12
538.082	1165.12
538.296	1185.12
538.51	1156.12
538.724	1209.12
538.938	1185.12
539.153	1211.12
539.367	1155.12
539.581	1163.12
539.795	1148.12
540.009	1178.12
540.222	1165.12
540.436	1141.12
540.65	1130.12
540.864	1156.12
541.078	1139.12
541.292	1153.12
541.506	1150.12
541.72	1154.12
541.934	1147.12
542.147	1128.12
542.361	1141.12
542.575	1139.12
542.789	1118.12
543.002	1135.12
543.216	1113.12
543.43	1119.12
543.644	1125.12
543.857	1110.12
544.071	1133.12
544.285	1157.12
544.498	1118.12
544.712	1141.12
544.925	1148.12
545.139	1159.12
545.352	1163.12
545.566	1147.12
545.779	1173.12
545.993	1161.12
546.206	1141.12
546.42	1146.12
546.633	1158.12
546.847	1130.12
547.06	1153.12
547.274	1183.12
547.487	1159.12
547.7	1146.12
547.914	1152.12
548.127	1188.12
548.34	1153.12
548.554	1142.12
548.767	1166.12
548.98	1187.12
549.193	1181.12
549.407	1177.12
549.62	1167.12
549.833	1201.12
550.046	1177.12
550.259	1158.12
550.473	1163.12
550.686	1151.12
550.899	1153.12
551.112	1160.12
551.325	1132.12
551.538	1103.12
551.751	1134.12
551.964	1132.12
552.177	1162.12
552.39	1180.12
552.603	1174.12
552.816	1227.12
553.029	1205.12
553.242	1246.12
553.455	1242.12
553.667	1244.12
553.88	1248.12
554.093	1181.12
554.306	1179.12
554.519	1163.12
554.732	1149.12
554.944	1111.12
555.157	1107.12
555.37	1092.12
555.583	1085.12
555.795	1084.12
556.008	1079.12
556.221	1042.12
556.433	1032.12
556.646	1020.12
556.859	1010.12
557.071	994.12
557.284	1006.12
557.496	1001.12
557.709	995.12
557.921	961.12
558.134	1014.12
558.346	993.12
558.559	977.12
558.771	974.12
558.984	963.12
559.196	984.12
559.409	964.12
559.621	994.12
559.833	958.12
560.046	979.12
560.258	958.12
560.47	929.12
560.683	979.12
560.895	945.12
561.107	975.12
561.32	945.12
561.532	959.12
561.744	950.12
561.956	963.12
562.168	974.12
562.381	977.12
562.593	959.12
562.805	971.12
563.017	967.12
563.229	970.12
563.441	971.12
563.653	982.12
563.865	966.12
564.077	987.12
564.289	1005.12
564.501	1000.12
564.713	1042.12
564.925	1013.12
565.137	1064.12
565.349	1096.12
565.561	1105.12
565.773	1137.12
565.985	1185.12
566.197	1229.12
566.408	1295.12
566.62	1407.12
566.832	1467.12
567.044	1513.12
567.255	1453.12
567.467	1559.12
567.679	1586.12
567.891	1645.12
568.102	1635.12
568.314	1595.12
568.526	1505.12
568.737	1396.12
568.949	1296.12
569.161	1201.12
569.372	1120.12
569.584	1081.12
569.795	1043.12
570.007	997.12
570.218	1000.12
570.43	998.12
570.641	980.12
570.853	996.12
571.064	1025.12
571.276	1000.12
571.487	974.12
571.698	907.12
571.91	887.12
572.121	887.12
572.333	865.12
572.544	861.12
572.755	840.12
572.966	835.12
573.178	813.12
573.389	809.12
573.6	757.12
573.811	783.12
574.023	804.12
574.234	777.12
574.445	789.12
574.656	790.12
574.867	787.12
575.078	785.12
575.289	766.12
575.501	777.12
575.712	741.12
575.923	738.12
576.134	729.12
576.345	756.12
576.556	746.12
576.767	745.12
576.978	737.12
577.188	717.12
577.399	718.12
577.61	713.12
577.821	716.12
578.032	718.12
578.243	708.12
578.454	721.12
578.665	692.12
578.875	677.12
579.086	677.12
579.297	694.12
579.508	682.12
579.718	667.12
579.929	673.12
580.14	664.12
580.35	665.12
580.561	669.12
580.772	694.12
580.982	665.12
581.193	657.12
581.403	651.12
581.614	652.12
581.825	638.12
582.035	666.12
582.246	653.12
582.456	641.12
582.667	645.12
582.877	626.12
583.087	649.12
583.298	635.12
583.508	618.12
583.719	634.12
583.929	658.12
584.139	652.12
584.35	651.12
584.56	632.12
584.77	623.12
584.981	643.12
585.191	627.12
585.401	635.12
585.611	620.12
585.821	632.12
586.032	628.12
586.242	642.12
586.452	641.12
586.662	631.12
586.872	631.12
587.082	622.12
587.292	615.12
587.502	635.12
587.713	615.12
587.923	623.12
588.133	627.12
588.343	613.12
588.553	610.12
588.762	606.12
588.972	632.12
589.182	643.12
589.392	643.12
589.602	633.12
589.812	623.12
590.022	621.12
590.232	629.12
590.441	637.12
590.651	616.12
590.861	622.12
591.071	619.12
591.281	621.12
591.49	656.12
591.7	654.12
591.91	671.12
592.119	666.12
592.329	678.12
592.539	687.12
592.748	714.12
592.958	741.12
593.167	726.12
593.377	755.12
593.587	746.12
593.796	779.12
594.006	755.12
594.215	758.12
594.424	765.12
594.634	738.12
594.843	713.12
595.053	683.12
595.262	698.12
595.472	659.12
595.681	654.12
595.89	643.12
596.1	625.12
596.309	618.12
596.518	610.12
596.727	584.12
596.937	581.12
597.146	583.12
597.355	567.12
597.564	567.12
597.774	571.12
597.983	524.12
598.192	558.12
598.401	552.12
598.61	556.12
598.819	534.12
599.028	520.12
599.237	519.12
599.446	505.12
599.655	551.12
599.864	515.12
600.073	510.12
600.282	529.12
600.491	523.12
600.7	505.12
600.909	507.12
601.118	525.12
601.327	500.12
601.536	497.12
601.745	527.12
601.953	513.12
602.162	498.12
602.371	499.12
602.58	510.12
602.789	486.12
602.997	503.12
603.206	496.12
603.415	492.12
603.623	486.12
603.832	483.12
604.041	483.12
604.249	467.12
604.458	477.12
604.666	482.12
604.875	458.12
605.084	459.12
605.292	484.12
605.501	484.12
605.709	462.12
605.918	469.12
606.126	479.12
606.334	469.12
606.543	458.12
606.751	464.12
606.96	472.12
607.168	453.12
607.376	463.12
607.585	453.12
607.793	474.12
608.001	475.12
608.21	455.12
608.418	453.12
608.626	451.12
608.834	445.12
609.043	457.12
609.251	462.12
609.459	446.12
609.667	467.12
609.875	459.12
610.083	439.12
610.291	445.12
610.499	431.12
610.707	417.12
610.916	435.12
611.124	455.12
611.332	446.12
611.54	435.12
611.748	464.12
611.955	445.12
612.163	447.12
612.371	440.12
612.579	437.12
612.787	453.12
612.995	450.12
613.203	429.12
613.411	427.12
613.618	454.12
613.826	437.12
614.034	423.12
614.242	423.12
614.449	422.12
614.657	406.12
614.865	426.12
615.072	441.12
615.28	425.12
615.488	413.12
615.695	417.12
615.903	434.12
616.111	426.12
616.318	438.12
616.526	433.12
616.733	421.12
616.941	414.12
617.148	447.12
617.356	431.12
617.563	429.12
617.771	428.12
617.978	434.12
618.185	417.12
618.393	414.12
618.6	433.12
618.807	421.12
619.015	423.12
619.222	423.12
619.429	419.12
619.637	425.12
619.844	415.12
620.051	396.12
620.258	407.12
620.466	416.12
620.673	399.12
620.88	377.12
621.087	387.12
621.294	402.12
621.501	401.12
621.708	412.12
621.915	383.12
622.122	391.12
622.329	398.12
622.536	410.12
622.743	388.12
622.95	413.12
623.157	377.12
623.364	420.12
623.571	394.12
623.778	393.12
623.985	406.12
624.192	391.12
624.399	382.12
624.606	387.12
624.812	373.12
625.019	371.12
625.226	362.12
625.433	358.12
625.639	351.12
625.846	362.12
626.053	352.12
626.259	353.12
626.466	358.12
626.673	362.12
626.879	360.12
627.086	348.12
627.293	375.12
627.499	374.12
627.706	353.12
627.912	365.12
628.119	374.12
628.325	342.12
628.532	355.12
628.738	361.12
628.945	364.12
629.151	351.12
629.357	327.12
629.564	347.12
629.77	348.12
629.976	318.12
630.183	332.12
630.389	338.12
630.595	331.12
630.802	330.12
631.008	315.12
631.214	318.12
631.42	321.12
631.627	323.12
631.833	319.12
632.039	340.12
632.245	336.12
632.451	321.12
632.657	327.12
632.863	318.12
633.069	323.12
633.275	312.12
633.481	333.12
633.688	301.12
633.893	317.12
634.099	307.12
634.305	322.12
634.511	315.12
634.717	313.12
634.923	306.12
635.129	319.12
635.335	309.12
635.541	298.12
635.747	317.12
635.952	309.12
636.158	307.12
636.364	291.12
636.57	315.12
636.775	292.12
636.981	312.12
637.187	315.12
637.392	323.12
637.598	297.12
637.804	301.12
638.009	299.12
638.215	304.12
638.421	300.12
638.626	305.12
638.832	294.12
639.037	304.12
639.243	287.12
639.448	291.12
639.654	305.12
639.859	281.12
640.065	295.12
640.27	301.12
640.475	314.12
640.681	289.12
640.886	293.12
641.091	295.12
641.297	298.12
641.502	296.12
641.707	294.12
641.913	266.12
642.118	278.12
642.323	277.12
642.528	290.12
642.733	285.12
642.939	295.12
643.144	292.12
643.349	283.12
643.554	289.12
643.759	289.12
643.964	278.12
644.169	275.12
644.374	280.12
644.579	301.12
644.784	303.12
644.989	287.12
645.194	278.12
645.399	275.12
645.604	268.12
645.809	283.12
646.014	295.12
646.219	282.12
646.423	293.12
646.628	290.12
646.833	299.12
647.038	307.12
647.243	300.12
647.447	305.12
647.652	304.12
647.857	306.12
648.062	293.12
648.266	310.12
648.471	309.12
648.676	319.12
648.88	324.12
649.085	301.12
649.289	305.12
649.494	293.12
649.698	305.12
649.903	299.12
650.107	287.12
650.312	298.12
650.516	280.12
650.721	293.12
650.925	289.12
651.13	290.12
651.334	289.12
651.539	269.12
651.743	270.12
651.947	271.12
652.152	291.12
652.356	259.12
652.56	274.12
652.764	269.12
652.969	297.12
653.173	265.12
653.377	269.12
653.581	271.12
653.785	281.12
653.99	287.12
654.194	278.12
654.398	275.12
654.602	292.12
654.806	284.12
655.01	299.12
655.214	285.12
655.418	308.12
655.622	323.12
655.826	327.12
656.03	329.12
656.234	362.12
656.438	371.12
656.642	397.12
656.846	358.12
657.049	335.12
657.253	301.12
657.457	281.12
657.661	275.12
657.865	226.12
658.068	214.12
658.272	200.12
658.476	184.12
658.68	170.12
658.883	170.12
659.087	152.12
659.291	162.12
659.494	139.12
659.698	136.12
659.901	127.12
660.105	128.12
660.309	127.12
660.512	122.12
660.716	123.12
660.919	124.12
661.123	120.12
661.326	105.12
661.53	109.12
661.733	94.12
661.936	102.12
662.14	102.12
662.343	102.12
662.546	98.12
662.75	94.12
662.953	93.12
663.156	84.12
663.36	90.12
663.563	95.12
663.766	87.12
663.969	79.12
664.173	80.12
664.376	86.12
664.579	100.12
664.782	81.12
664.985	93.12
665.188	77.12
665.391	76.12
665.594	74.12
665.797	74.12
666	69.12
666.203	70.12
666.406	73.12
666.609	79.12
666.812	92.12
667.015	80.12
667.218	100.12
667.421	86.12
667.624	89.12
667.827	99.12
668.03	84.12
668.232	82.12
668.435	87.12
668.638	78.12
668.841	84.12
669.043	66.12
669.246	82.12
669.449	78.12
669.651	87.12
669.854	92.12
670.057	79.12
670.259	74.12
670.462	93.12
670.665	84.12
670.867	79.12
671.07	77.12
671.272	79.12
671.475	83.12
671.677	90.12
671.88	84.12
672.082	67.12
672.284	86.12
672.487	79.12
672.689	89.12
672.892	84.12
