Data from NiCl2@0.0625M.TitratingCurve.Agarose3%dH2O.NegLispCup.LampEnergy10.LIBS07252019_HRD10591_18-32-39-576.txt Node
Date: Thu Jul 25 18:32:39 EDT 2019
User: cochatt
Spectrometer: HR+D1059
Trigger mode: 1
Integration Time (sec): 1.000000E-1
Scans to average: 1
Electric dark correction enabled: true
Nonlinearity correction enabled: false
Boxcar width: 0
XAxis mode: Wavelengths
Number of Pixels in Spectrum: 2048
>>>>>Begin Spectral Data<<<<<
223.165	-19.88
223.4	-19.88
223.635	-19.88
223.869	-12.88
224.104	-29.88
224.338	-19.88
224.573	-12.88
224.808	-25.88
225.042	2.12
225.277	-12.88
225.511	-4.88
225.746	-4.88
225.98	11.12
226.215	8.12
226.449	12.12
226.683	34.12
226.918	34.12
227.152	42.12
227.387	34.12
227.621	40.12
227.856	53.12
228.09	56.12
228.324	44.12
228.559	60.12
228.793	81.12
229.027	150.12
229.262	171.12
229.496	165.12
229.73	180.12
229.964	169.12
230.199	182.12
230.433	192.12
230.667	191.12
230.901	173.12
231.136	191.12
231.37	187.12
231.604	208.12
231.838	212.12
232.072	217.12
232.306	220.12
232.541	203.12
232.775	228.12
233.009	215.12
233.243	204.12
233.477	205.12
233.711	212.12
233.945	215.12
234.179	224.12
234.413	243.12
234.647	209.12
234.881	222.12
235.115	233.12
235.349	229.12
235.583	219.12
235.817	236.12
236.051	224.12
236.285	231.12
236.519	230.12
236.753	228.12
236.987	239.12
237.221	255.12
237.455	256.12
237.689	263.12
237.922	255.12
238.156	247.12
238.39	263.12
238.624	277.12
238.858	269.12
239.091	260.12
239.325	282.12
239.559	281.12
239.793	296.12
240.027	278.12
240.26	276.12
240.494	269.12
240.728	305.12
240.961	288.12
241.195	296.12
241.429	291.12
241.662	299.12
241.896	310.12
242.13	307.12
242.363	303.12
242.597	313.12
242.83	329.12
243.064	314.12
243.298	321.12
243.531	334.12
243.765	347.12
243.998	336.12
244.232	340.12
244.465	351.12
244.699	355.12
244.932	357.12
245.166	371.12
245.399	352.12
245.633	358.12
245.866	371.12
246.099	377.12
246.333	365.12
246.566	347.12
246.8	373.12
247.033	370.12
247.266	375.12
247.5	391.12
247.733	379.12
247.966	404.12
248.2	425.12
248.433	422.12
248.666	401.12
248.899	389.12
249.133	417.12
249.366	408.12
249.599	407.12
249.832	423.12
250.066	416.12
250.299	411.12
250.532	435.12
250.765	437.12
250.998	424.12
251.231	427.12
251.465	457.12
251.698	440.12
251.931	439.12
252.164	477.12
252.397	453.12
252.63	472.12
252.863	453.12
253.096	460.12
253.329	471.12
253.562	450.12
253.795	458.12
254.028	479.12
254.261	461.12
254.494	463.12
254.727	483.12
254.96	475.12
255.193	502.12
255.426	483.12
255.659	458.12
255.892	496.12
256.124	497.12
256.357	494.12
256.59	497.12
256.823	482.12
257.056	517.12
257.289	508.12
257.521	522.12
257.754	535.12
257.987	507.12
258.22	520.12
258.452	524.12
258.685	529.12
258.918	532.12
259.151	532.12
259.383	537.12
259.616	544.12
259.849	560.12
260.081	529.12
260.314	548.12
260.547	548.12
260.779	550.12
261.012	543.12
261.244	559.12
261.477	546.12
261.71	567.12
261.942	563.12
262.175	554.12
262.407	563.12
262.64	567.12
262.872	586.12
263.105	588.12
263.337	580.12
263.57	593.12
263.802	584.12
264.035	586.12
264.267	601.12
264.499	592.12
264.732	602.12
264.964	588.12
265.197	599.12
265.429	613.12
265.661	597.12
265.894	618.12
266.126	614.12
266.358	608.12
266.591	619.12
266.823	650.12
267.055	627.12
267.287	612.12
267.52	645.12
267.752	641.12
267.984	662.12
268.216	643.12
268.448	657.12
268.681	662.12
268.913	634.12
269.145	671.12
269.377	643.12
269.609	669.12
269.841	645.12
270.073	668.12
270.306	648.12
270.538	669.12
270.77	632.12
271.002	663.12
271.234	661.12
271.466	666.12
271.698	688.12
271.93	687.12
272.162	691.12
272.394	708.12
272.626	711.12
272.858	700.12
273.09	707.12
273.322	709.12
273.553	724.12
273.785	703.12
274.017	713.12
274.249	726.12
274.481	703.12
274.713	737.12
274.945	727.12
275.176	755.12
275.408	753.12
275.64	755.12
275.872	764.12
276.104	758.12
276.335	760.12
276.567	743.12
276.799	756.12
277.031	755.12
277.262	774.12
277.494	777.12
277.726	756.12
277.957	776.12
278.189	783.12
278.421	767.12
278.652	791.12
278.884	771.12
279.115	799.12
279.347	825.12
279.579	811.12
279.81	822.12
280.042	804.12
280.273	820.12
280.505	839.12
280.736	821.12
280.968	823.12
281.199	847.12
281.431	825.12
281.662	813.12
281.894	835.12
282.125	844.12
282.356	827.12
282.588	876.12
282.819	850.12
283.051	857.12
283.282	855.12
283.513	820.12
283.745	851.12
283.976	849.12
284.207	879.12
284.439	863.12
284.67	853.12
284.901	909.12
285.132	924.12
285.364	884.12
285.595	895.12
285.826	866.12
286.057	874.12
286.288	892.12
286.52	897.12
286.751	899.12
286.982	901.12
287.213	886.12
287.444	908.12
287.675	922.12
287.906	902.12
288.138	898.12
288.369	896.12
288.6	922.12
288.831	920.12
289.062	891.12
289.293	915.12
289.524	913.12
289.755	959.12
289.986	957.12
290.217	958.12
290.448	938.12
290.679	918.12
290.91	927.12
291.141	950.12
291.371	947.12
291.602	930.12
291.833	937.12
292.064	941.12
292.295	945.12
292.526	979.12
292.757	922.12
292.987	930.12
293.218	943.12
293.449	951.12
293.68	969.12
293.91	938.12
294.141	951.12
294.372	921.12
294.603	941.12
294.833	941.12
295.064	954.12
295.295	954.12
295.525	963.12
295.756	963.12
295.987	967.12
296.217	981.12
296.448	968.12
296.679	986.12
296.909	997.12
297.14	991.12
297.37	992.12
297.601	1007.12
297.831	1006.12
298.062	1025.12
298.292	1045.12
298.523	1039.12
298.753	1034.12
298.984	1048.12
299.214	1004.12
299.445	1011.12
299.675	1030.12
299.905	1028.12
300.136	1049.12
300.366	1029.12
300.597	1022.12
300.827	1042.12
301.057	1071.12
301.288	1078.12
301.518	1066.12
301.748	1097.12
301.979	1110.12
302.209	1083.12
302.439	1105.12
302.669	1080.12
302.9	1059.12
303.13	1070.12
303.36	1101.12
303.59	1083.12
303.82	1092.12
304.051	1056.12
304.281	1114.12
304.511	1062.12
304.741	1064.12
304.971	1107.12
305.201	1079.12
305.431	1080.12
305.661	1060.12
305.891	1043.12
306.121	1057.12
306.352	1071.12
306.582	1073.12
306.812	1058.12
307.042	1078.12
307.272	1061.12
307.502	1046.12
307.731	1079.12
307.961	1084.12
308.191	1079.12
308.421	1069.12
308.651	1060.12
308.881	1049.12
309.111	1075.12
309.341	1049.12
309.571	1073.12
309.8	1051.12
310.03	1086.12
310.26	1092.12
310.49	1085.12
310.72	1092.12
310.949	1076.12
311.179	1089.12
311.409	1105.12
311.639	1096.12
311.868	1102.12
312.098	1124.12
312.328	1116.12
312.557	1120.12
312.787	1123.12
313.017	1143.12
313.246	1145.12
313.476	1148.12
313.706	1162.12
313.935	1135.12
314.165	1164.12
314.394	1163.12
314.624	1146.12
314.853	1156.12
315.083	1156.12
315.312	1167.12
315.542	1178.12
315.771	1147.12
316.001	1153.12
316.23	1139.12
316.46	1163.12
316.689	1169.12
316.919	1121.12
317.148	1149.12
317.377	1132.12
317.607	1144.12
317.836	1107.12
318.065	1157.12
318.295	1137.12
318.524	1139.12
318.753	1147.12
318.983	1168.12
319.212	1141.12
319.441	1158.12
319.67	1167.12
319.9	1121.12
320.129	1122.12
320.358	1174.12
320.587	1146.12
320.816	1145.12
321.046	1151.12
321.275	1154.12
321.504	1151.12
321.733	1163.12
321.962	1144.12
322.191	1201.12
322.42	1161.12
322.649	1132.12
322.878	1183.12
323.108	1155.12
323.337	1193.12
323.566	1171.12
323.795	1210.12
324.024	1180.12
324.253	1166.12
324.482	1171.12
324.71	1199.12
324.939	1187.12
325.168	1206.12
325.397	1192.12
325.626	1211.12
325.855	1252.12
326.084	1243.12
326.313	1270.12
326.542	1245.12
326.77	1237.12
326.999	1242.12
327.228	1227.12
327.457	1244.12
327.686	1227.12
327.914	1224.12
328.143	1237.12
328.372	1238.12
328.6	1261.12
328.829	1291.12
329.058	1241.12
329.287	1279.12
329.515	1274.12
329.744	1243.12
329.972	1267.12
330.201	1271.12
330.43	1307.12
330.658	1280.12
330.887	1293.12
331.115	1309.12
331.344	1340.12
331.572	1283.12
331.801	1329.12
332.03	1357.12
332.258	1375.12
332.486	1392.12
332.715	1453.12
332.943	1496.12
333.172	1524.12
333.4	1540.12
333.629	1600.12
333.857	1621.12
334.085	1631.12
334.314	1582.12
334.542	1588.12
334.771	1589.12
334.999	1579.12
335.227	1521.12
335.455	1555.12
335.684	1530.12
335.912	1556.12
336.14	1524.12
336.369	1493.12
336.597	1546.12
336.825	1482.12
337.053	1526.12
337.281	1461.12
337.51	1425.12
337.738	1449.12
337.966	1412.12
338.194	1402.12
338.422	1362.12
338.65	1415.12
338.878	1381.12
339.106	1368.12
339.334	1393.12
339.562	1359.12
339.79	1343.12
340.018	1299.12
340.246	1324.12
340.474	1330.12
340.702	1318.12
340.93	1331.12
341.158	1339.12
341.386	1341.12
341.614	1303.12
341.842	1309.12
342.07	1317.12
342.298	1306.12
342.526	1303.12
342.754	1282.12
342.981	1297.12
343.209	1379.12
343.437	1395.12
343.665	1432.12
343.893	1521.12
344.12	1556.12
344.348	1522.12
344.576	1477.12
344.804	1444.12
345.031	1398.12
345.259	1367.12
345.487	1342.12
345.714	1342.12
345.942	1305.12
346.17	1282.12
346.397	1293.12
346.625	1269.12
346.853	1271.12
347.08	1265.12
347.308	1266.12
347.535	1269.12
347.763	1264.12
347.99	1259.12
348.218	1215.12
348.445	1255.12
348.673	1265.12
348.9	1235.12
349.128	1252.12
349.355	1242.12
349.583	1261.12
349.81	1256.12
350.037	1226.12
350.265	1238.12
350.492	1216.12
350.72	1194.12
350.947	1227.12
351.174	1215.12
351.402	1225.12
351.629	1234.12
351.856	1237.12
352.083	1159.12
352.311	1208.12
352.538	1195.12
352.765	1219.12
352.992	1221.12
353.22	1219.12
353.447	1219.12
353.674	1190.12
353.901	1205.12
354.128	1216.12
354.355	1201.12
354.583	1177.12
354.81	1187.12
355.037	1227.12
355.264	1208.12
355.491	1223.12
355.718	1244.12
355.945	1223.12
356.172	1224.12
356.399	1219.12
356.626	1225.12
356.853	1237.12
357.08	1215.12
357.307	1209.12
357.534	1216.12
357.761	1237.12
357.988	1256.12
358.215	1225.12
358.441	1215.12
358.668	1248.12
358.895	1220.12
359.122	1209.12
359.349	1223.12
359.576	1238.12
359.802	1181.12
360.029	1196.12
360.256	1214.12
360.483	1215.12
360.709	1209.12
360.936	1195.12
361.163	1212.12
361.39	1191.12
361.616	1230.12
361.843	1220.12
362.07	1243.12
362.296	1253.12
362.523	1203.12
362.749	1241.12
362.976	1212.12
363.203	1213.12
363.429	1230.12
363.656	1193.12
363.882	1221.12
364.109	1236.12
364.335	1188.12
364.562	1243.12
364.788	1205.12
365.015	1238.12
365.241	1252.12
365.468	1207.12
365.694	1208.12
365.92	1207.12
366.147	1187.12
366.373	1236.12
366.599	1248.12
366.826	1213.12
367.052	1203.12
367.278	1239.12
367.505	1239.12
367.731	1242.12
367.957	1228.12
368.184	1236.12
368.41	1265.12
368.636	1247.12
368.862	1254.12
369.089	1251.12
369.315	1241.12
369.541	1245.12
369.767	1267.12
369.993	1251.12
370.219	1254.12
370.445	1267.12
370.672	1310.12
370.898	1281.12
371.124	1301.12
371.35	1333.12
371.576	1315.12
371.802	1332.12
372.028	1301.12
372.254	1331.12
372.48	1328.12
372.706	1338.12
372.932	1377.12
373.158	1392.12
373.384	1343.12
373.61	1356.12
373.835	1346.12
374.061	1334.12
374.287	1324.12
374.513	1387.12
374.739	1411.12
374.965	1442.12
375.191	1438.12
375.416	1421.12
375.642	1404.12
375.868	1376.12
376.094	1350.12
376.319	1331.12
376.545	1332.12
376.771	1362.12
376.997	1332.12
377.222	1320.12
377.448	1329.12
377.674	1335.12
377.899	1324.12
378.125	1285.12
378.35	1300.12
378.576	1315.12
378.802	1285.12
379.027	1281.12
379.253	1277.12
379.478	1279.12
379.704	1299.12
379.929	1301.12
380.155	1267.12
380.38	1309.12
380.606	1306.12
380.831	1293.12
381.057	1338.12
381.282	1319.12
381.507	1315.12
381.733	1354.12
381.958	1336.12
382.184	1353.12
382.409	1373.12
382.634	1363.12
382.86	1393.12
383.085	1378.12
383.31	1420.12
383.535	1439.12
383.761	1433.12
383.986	1439.12
384.211	1479.12
384.436	1493.12
384.662	1551.12
384.887	1543.12
385.112	1558.12
385.337	1591.12
385.562	1565.12
385.787	1598.12
386.013	1575.12
386.238	1632.12
386.463	1626.12
386.688	1590.12
386.913	1578.12
387.138	1537.12
387.363	1567.12
387.588	1550.12
387.813	1560.12
388.038	1540.12
388.263	1611.12
388.488	1603.12
388.713	1574.12
388.938	1567.12
389.163	1554.12
389.387	1552.12
389.612	1552.12
389.837	1540.12
390.062	1544.12
390.287	1567.12
390.512	1555.12
390.736	1589.12
390.961	1603.12
391.186	1626.12
391.411	1692.12
391.636	1669.12
391.86	1736.12
392.085	1761.12
392.31	1725.12
392.534	1712.12
392.759	1675.12
392.984	1713.12
393.208	1709.12
393.433	1718.12
393.658	1732.12
393.882	1677.12
394.107	1610.12
394.331	1669.12
394.556	1669.12
394.78	1651.12
395.005	1676.12
395.229	1725.12
395.454	1717.12
395.678	1786.12
395.903	1777.12
396.127	1741.12
396.352	1717.12
396.576	1704.12
396.801	1682.12
397.025	1775.12
397.249	1767.12
397.474	1812.12
397.698	1781.12
397.922	1769.12
398.147	1751.12
398.371	1839.12
398.595	1860.12
398.82	1940.12
399.044	2055.12
399.268	2241.12
399.492	2505.12
399.717	2677.12
399.941	2744.12
400.165	2523.12
400.389	2299.12
400.613	2187.12
400.837	2128.12
401.062	2008.12
401.286	1983.12
401.51	1961.12
401.734	1929.12
401.958	2007.12
402.182	1961.12
402.406	1998.12
402.63	1981.12
402.854	2020.12
403.078	2062.12
403.302	2103.12
403.526	2086.12
403.75	2091.12
403.974	2174.12
404.198	2109.12
404.422	2163.12
404.645	2161.12
404.869	2149.12
405.093	2148.12
405.317	2109.12
405.541	2137.12
405.765	2082.12
405.988	2107.12
406.212	2117.12
406.436	2125.12
406.66	2212.12
406.883	2175.12
407.107	2311.12
407.331	2358.12
407.555	2439.12
407.778	2521.12
408.002	2371.12
408.226	2363.12
408.449	2336.12
408.673	2248.12
408.896	2232.12
409.12	2220.12
409.344	2195.12
409.567	2170.12
409.791	2187.12
410.014	2135.12
410.238	2151.12
410.461	2109.12
410.685	2134.12
410.908	2073.12
411.132	2069.12
411.355	2008.12
411.578	2039.12
411.802	2054.12
412.025	2021.12
412.249	2104.12
412.472	2039.12
412.695	1990.12
412.919	1969.12
413.142	2002.12
413.365	1991.12
413.589	1994.12
413.812	1953.12
414.035	1933.12
414.258	1933.12
414.482	1890.12
414.705	1963.12
414.928	1996.12
415.151	1955.12
415.374	1961.12
415.597	1934.12
415.821	1897.12
416.044	1909.12
416.267	1897.12
416.49	1885.12
416.713	1864.12
416.936	1897.12
417.159	1881.12
417.382	1871.12
417.605	1873.12
417.828	1873.12
418.051	1932.12
418.274	1890.12
418.497	1884.12
418.72	1943.12
418.943	1927.12
419.166	2014.12
419.389	2179.12
419.611	2139.12
419.834	2066.12
420.057	1983.12
420.28	1914.12
420.503	1874.12
420.726	1840.12
420.948	1860.12
421.171	1870.12
421.394	1864.12
421.617	1863.12
421.839	1876.12
422.062	1890.12
422.285	1850.12
422.507	1891.12
422.73	1936.12
422.953	1911.12
423.175	1936.12
423.398	1944.12
423.621	1893.12
423.843	1970.12
424.066	1961.12
424.288	1887.12
424.511	1919.12
424.733	1917.12
424.956	1922.12
425.178	1902.12
425.401	1913.12
425.623	1886.12
425.846	1842.12
426.068	1836.12
426.291	1822.12
426.513	1783.12
426.735	1803.12
426.958	1810.12
427.18	1795.12
427.402	1762.12
427.625	1774.12
427.847	1691.12
428.069	1715.12
428.292	1747.12
428.514	1757.12
428.736	1722.12
428.958	1726.12
429.181	1683.12
429.403	1705.12
429.625	1694.12
429.847	1657.12
430.069	1705.12
430.292	1726.12
430.514	1660.12
430.736	1713.12
430.958	1716.12
431.18	1685.12
431.402	1709.12
431.624	1683.12
431.846	1713.12
432.068	1741.12
432.29	1738.12
432.512	1690.12
432.734	1731.12
432.956	1745.12
433.178	1720.12
433.4	1727.12
433.622	1754.12
433.844	1776.12
434.066	1803.12
434.287	1758.12
434.509	1806.12
434.731	1898.12
434.953	1912.12
435.175	1898.12
435.397	1887.12
435.618	1819.12
435.84	1787.12
436.062	1745.12
436.284	1725.12
436.505	1697.12
436.727	1713.12
436.949	1716.12
437.17	1728.12
437.392	1716.12
437.614	1662.12
437.835	1644.12
438.057	1652.12
438.278	1649.12
438.5	1611.12
438.721	1634.12
438.943	1676.12
439.165	1663.12
439.386	1657.12
439.608	1673.12
439.829	1696.12
440.05	1677.12
440.272	1691.12
440.493	1689.12
440.715	1695.12
440.936	1707.12
441.158	1739.12
441.379	1816.12
441.6	1862.12
441.822	1890.12
442.043	1866.12
442.264	1827.12
442.486	1841.12
442.707	1829.12
442.928	1855.12
443.149	1849.12
443.371	1831.12
443.592	1842.12
443.813	1895.12
444.034	1860.12
444.255	1916.12
444.476	1987.12
444.698	2113.12
444.919	2172.12
445.14	2158.12
445.361	2024.12
445.582	1944.12
445.803	1840.12
446.024	1785.12
446.245	1752.12
446.466	1715.12
446.687	1695.12
446.908	1689.12
447.129	1666.12
447.35	1607.12
447.571	1624.12
447.792	1568.12
448.013	1576.12
448.234	1597.12
448.455	1596.12
448.675	1535.12
448.896	1573.12
449.117	1530.12
449.338	1535.12
449.559	1516.12
449.779	1515.12
450	1568.12
450.221	1508.12
450.442	1563.12
450.662	1525.12
450.883	1511.12
451.104	1548.12
451.324	1566.12
451.545	1549.12
451.766	1546.12
451.986	1507.12
452.207	1525.12
452.428	1501.12
452.648	1520.12
452.869	1467.12
453.089	1496.12
453.31	1500.12
453.53	1449.12
453.751	1484.12
453.971	1448.12
454.192	1481.12
454.412	1453.12
454.633	1499.12
454.853	1458.12
455.073	1411.12
455.294	1434.12
455.514	1408.12
455.734	1445.12
455.955	1432.12
456.175	1424.12
456.395	1457.12
456.616	1483.12
456.836	1441.12
457.056	1483.12
457.276	1421.12
457.497	1458.12
457.717	1448.12
457.937	1470.12
458.157	1477.12
458.377	1491.12
458.598	1538.12
458.818	1576.12
459.038	1607.12
459.258	1622.12
459.478	1679.12
459.698	1747.12
459.918	1784.12
460.138	1803.12
460.358	1909.12
460.578	1909.12
460.798	1921.12
461.018	1953.12
461.238	1970.12
461.458	1931.12
461.678	1939.12
461.898	1984.12
462.118	2026.12
462.338	2068.12
462.558	2088.12
462.777	2187.12
462.997	2290.12
463.217	2437.12
463.437	2464.12
463.657	2302.12
463.876	2245.12
464.096	2248.12
464.316	2192.12
464.536	2218.12
464.755	2087.12
464.975	2063.12
465.195	1977.12
465.414	1900.12
465.634	1822.12
465.854	1737.12
466.073	1729.12
466.293	1693.12
466.512	1693.12
466.732	1619.12
466.951	1643.12
467.171	1596.12
467.391	1587.12
467.61	1618.12
467.829	1595.12
468.049	1601.12
468.268	1558.12
468.488	1525.12
468.707	1560.12
468.927	1537.12
469.146	1569.12
469.365	1584.12
469.585	1595.12
469.804	1630.12
470.023	1615.12
470.243	1622.12
470.462	1630.12
470.681	1669.12
470.901	1663.12
471.12	1648.12
471.339	1617.12
471.558	1649.12
471.777	1592.12
471.997	1608.12
472.216	1592.12
472.435	1563.12
472.654	1548.12
472.873	1541.12
473.092	1544.12
473.311	1579.12
473.53	1543.12
473.749	1540.12
473.968	1522.12
474.187	1544.12
474.406	1522.12
474.625	1524.12
474.844	1555.12
475.063	1524.12
475.282	1540.12
475.501	1596.12
475.72	1592.12
475.939	1612.12
476.158	1613.12
476.377	1629.12
476.596	1636.12
476.814	1620.12
477.033	1645.12
477.252	1685.12
477.471	1691.12
477.69	1713.12
477.908	1787.12
478.127	1832.12
478.346	1822.12
478.564	1889.12
478.783	1889.12
479.002	1921.12
479.22	1914.12
479.439	1928.12
479.658	1907.12
479.876	1933.12
480.095	1960.12
480.313	2031.12
480.532	2022.12
480.751	2023.12
480.969	2002.12
481.188	1912.12
481.406	1898.12
481.624	1855.12
481.843	1850.12
482.061	1862.12
482.28	1831.12
482.498	1832.12
482.717	1839.12
482.935	1812.12
483.153	1851.12
483.372	1853.12
483.59	1842.12
483.808	1921.12
484.027	1928.12
484.245	1924.12
484.463	1952.12
484.681	1943.12
484.9	1965.12
485.118	1945.12
485.336	1937.12
485.554	1988.12
485.772	2034.12
485.99	1985.12
486.209	1992.12
486.427	1962.12
486.645	1963.12
486.863	1949.12
487.081	1981.12
487.299	1970.12
487.517	1962.12
487.735	1962.12
487.953	1953.12
488.171	1990.12
488.389	1950.12
488.607	1923.12
488.825	1915.12
489.043	1926.12
489.261	1928.12
489.479	1952.12
489.696	1930.12
489.914	1929.12
490.132	1928.12
490.35	1932.12
490.568	1907.12
490.786	1936.12
491.003	1921.12
491.221	1954.12
491.439	1936.12
491.657	1917.12
491.874	1925.12
492.092	1955.12
492.31	1934.12
492.527	1949.12
492.745	1914.12
492.963	1916.12
493.18	1959.12
493.398	1981.12
493.615	1972.12
493.833	1938.12
494.05	1965.12
494.268	1982.12
494.485	2013.12
494.703	2014.12
494.92	1968.12
495.138	1970.12
495.355	1989.12
495.573	1995.12
495.79	2003.12
496.008	2074.12
496.225	2091.12
496.442	2037.12
496.66	2052.12
496.877	2060.12
497.094	2081.12
497.312	2133.12
497.529	2178.12
497.746	2227.12
497.963	2371.12
498.181	2423.12
498.398	2483.12
498.615	2596.12
498.832	2735.12
499.049	2867.12
499.267	3132.12
499.484	3342.12
499.701	3639.12
499.918	4011.12
500.135	4373.12
500.352	4821.12
500.569	4966.12
500.786	4989.12
501.003	4753.12
501.22	4338.12
501.437	3991.12
501.654	3650.12
501.871	3240.12
502.088	3055.12
502.305	2893.12
502.522	2742.12
502.739	2625.12
502.956	2492.12
503.172	2442.12
503.389	2339.12
503.606	2286.12
503.823	2234.12
504.04	2205.12
504.256	2186.12
504.473	2248.12
504.69	2251.12
504.907	2177.12
505.123	2081.12
505.34	2020.12
505.557	1897.12
505.773	1891.12
505.99	1831.12
506.207	1802.12
506.423	1779.12
506.64	1776.12
506.856	1775.12
507.073	1741.12
507.289	1720.12
507.506	1709.12
507.722	1731.12
507.939	1673.12
508.155	1651.12
508.372	1632.12
508.588	1644.12
508.805	1626.12
509.021	1646.12
509.238	1619.12
509.454	1601.12
509.67	1571.12
509.887	1550.12
510.103	1539.12
510.319	1560.12
510.536	1540.12
510.752	1509.12
510.968	1545.12
511.184	1545.12
511.401	1536.12
511.617	1518.12
511.833	1513.12
512.049	1501.12
512.265	1528.12
512.481	1568.12
512.698	1525.12
512.914	1529.12
513.13	1540.12
513.346	1513.12
513.562	1524.12
513.778	1541.12
513.994	1568.12
514.21	1522.12
514.426	1541.12
514.642	1549.12
514.858	1558.12
515.074	1580.12
515.29	1593.12
515.506	1600.12
515.721	1659.12
515.937	1667.12
516.153	1663.12
516.369	1699.12
516.585	1746.12
516.801	1780.12
517.016	1859.12
517.232	1895.12
517.448	1959.12
517.664	2026.12
517.879	2028.12
518.095	2008.12
518.311	1989.12
518.527	1952.12
518.742	1857.12
518.958	1813.12
519.173	1741.12
519.389	1760.12
519.605	1676.12
519.82	1627.12
520.036	1647.12
520.251	1577.12
520.467	1571.12
520.682	1541.12
520.898	1537.12
521.113	1515.12
521.329	1490.12
521.544	1476.12
521.76	1458.12
521.975	1451.12
522.19	1451.12
522.406	1441.12
522.621	1480.12
522.836	1440.12
523.052	1437.12
523.267	1420.12
523.482	1426.12
523.698	1387.12
523.913	1365.12
524.128	1413.12
524.343	1396.12
524.559	1387.12
524.774	1398.12
524.989	1397.12
525.204	1382.12
525.419	1337.12
525.634	1387.12
525.849	1381.12
526.064	1381.12
526.28	1370.12
526.495	1339.12
526.71	1376.12
526.925	1359.12
527.14	1364.12
527.355	1383.12
527.57	1361.12
527.785	1349.12
527.999	1349.12
528.214	1347.12
528.429	1324.12
528.644	1357.12
528.859	1348.12
529.074	1372.12
529.289	1372.12
529.503	1345.12
529.718	1324.12
529.933	1335.12
530.148	1334.12
530.363	1339.12
530.577	1311.12
530.792	1302.12
531.007	1303.12
531.221	1358.12
531.436	1336.12
531.651	1335.12
531.865	1318.12
532.08	1348.12
532.295	1322.12
532.509	1325.12
532.724	1306.12
532.938	1316.12
533.153	1324.12
533.367	1309.12
533.582	1327.12
533.796	1343.12
534.011	1324.12
534.225	1333.12
534.44	1298.12
534.654	1300.12
534.868	1293.12
535.083	1276.12
535.297	1301.12
535.511	1257.12
535.726	1266.12
535.94	1266.12
536.154	1268.12
536.369	1264.12
536.583	1248.12
536.797	1240.12
537.011	1228.12
537.225	1223.12
537.44	1233.12
537.654	1239.12
537.868	1206.12
538.082	1241.12
538.296	1223.12
538.51	1236.12
538.724	1222.12
538.938	1192.12
539.153	1215.12
539.367	1199.12
539.581	1219.12
539.795	1187.12
540.009	1189.12
540.222	1200.12
540.436	1196.12
540.65	1183.12
540.864	1173.12
541.078	1195.12
541.292	1155.12
541.506	1193.12
541.72	1174.12
541.934	1174.12
542.147	1171.12
542.361	1174.12
542.575	1164.12
542.789	1191.12
543.002	1159.12
543.216	1204.12
543.43	1193.12
543.644	1139.12
543.857	1171.12
544.071	1183.12
544.285	1181.12
544.498	1151.12
544.712	1174.12
544.925	1177.12
545.139	1204.12
545.352	1203.12
545.566	1203.12
545.779	1197.12
545.993	1197.12
546.206	1201.12
546.42	1205.12
546.633	1201.12
546.847	1201.12
547.06	1202.12
547.274	1215.12
547.487	1177.12
547.7	1172.12
547.914	1207.12
548.127	1211.12
548.34	1227.12
548.554	1211.12
548.767	1202.12
548.98	1234.12
549.193	1219.12
549.407	1243.12
549.62	1242.12
549.833	1229.12
550.046	1241.12
550.259	1224.12
550.473	1179.12
550.686	1188.12
550.899	1183.12
551.112	1163.12
551.325	1175.12
551.538	1154.12
551.751	1162.12
551.964	1183.12
552.177	1181.12
552.39	1212.12
552.603	1227.12
552.816	1240.12
553.029	1265.12
553.242	1276.12
553.455	1253.12
553.667	1287.12
553.88	1245.12
554.093	1225.12
554.306	1188.12
554.519	1205.12
554.732	1122.12
554.944	1163.12
555.157	1149.12
555.37	1125.12
555.583	1147.12
555.795	1078.12
556.008	1075.12
556.221	1068.12
556.433	1027.12
556.646	1045.12
556.859	1059.12
557.071	1040.12
557.284	1026.12
557.496	1012.12
557.709	1051.12
557.921	1013.12
558.134	998.12
558.346	1030.12
558.559	987.12
558.771	1011.12
558.984	1001.12
559.196	1008.12
559.409	1001.12
559.621	991.12
559.833	1008.12
560.046	959.12
560.258	980.12
560.47	1009.12
560.683	1008.12
560.895	1001.12
561.107	979.12
561.32	975.12
561.532	989.12
561.744	988.12
561.956	985.12
562.168	1015.12
562.381	988.12
562.593	1000.12
562.805	999.12
563.017	1000.12
563.229	999.12
563.441	999.12
563.653	1000.12
563.865	1042.12
564.077	1016.12
564.289	1026.12
564.501	1037.12
564.713	1059.12
564.925	1048.12
565.137	1081.12
565.349	1100.12
565.561	1110.12
565.773	1215.12
565.985	1226.12
566.197	1300.12
566.408	1358.12
566.62	1447.12
566.832	1481.12
567.044	1525.12
567.255	1538.12
567.467	1555.12
567.679	1651.12
567.891	1704.12
568.102	1712.12
568.314	1637.12
568.526	1523.12
568.737	1419.12
568.949	1338.12
569.161	1257.12
569.372	1156.12
569.584	1106.12
569.795	1059.12
570.007	1071.12
570.218	1039.12
570.43	1011.12
570.641	1011.12
570.853	1021.12
571.064	1010.12
571.276	988.12
571.487	977.12
571.698	940.12
571.91	908.12
572.121	911.12
572.333	881.12
572.544	887.12
572.755	871.12
572.966	857.12
573.178	849.12
573.389	838.12
573.6	819.12
573.811	811.12
574.023	812.12
574.234	794.12
574.445	787.12
574.656	811.12
574.867	794.12
575.078	800.12
575.289	781.12
575.501	801.12
575.712	757.12
575.923	775.12
576.134	755.12
576.345	773.12
576.556	741.12
576.767	738.12
576.978	744.12
577.188	734.12
577.399	755.12
577.61	727.12
577.821	721.12
578.032	735.12
578.243	745.12
578.454	733.12
578.665	735.12
578.875	711.12
579.086	719.12
579.297	673.12
579.508	706.12
579.718	702.12
579.929	690.12
580.14	697.12
580.35	680.12
580.561	700.12
580.772	704.12
580.982	669.12
581.193	674.12
581.403	670.12
581.614	681.12
581.825	673.12
582.035	662.12
582.246	643.12
582.456	665.12
582.667	671.12
582.877	680.12
583.087	671.12
583.298	661.12
583.508	657.12
583.719	681.12
583.929	667.12
584.139	660.12
584.35	645.12
584.56	657.12
584.77	625.12
584.981	630.12
585.191	636.12
585.401	634.12
585.611	643.12
585.821	658.12
586.032	639.12
586.242	650.12
586.452	645.12
586.662	635.12
586.872	637.12
587.082	642.12
587.292	637.12
587.502	654.12
587.713	639.12
587.923	635.12
588.133	640.12
588.343	627.12
588.553	636.12
588.762	635.12
588.972	639.12
589.182	675.12
589.392	670.12
589.602	619.12
589.812	662.12
590.022	659.12
590.232	641.12
590.441	652.12
590.651	651.12
590.861	636.12
591.071	652.12
591.281	680.12
591.49	659.12
591.7	692.12
591.91	667.12
592.119	690.12
592.329	688.12
592.539	715.12
592.748	726.12
592.958	735.12
593.167	738.12
593.377	785.12
593.587	791.12
593.796	792.12
594.006	798.12
594.215	795.12
594.424	762.12
594.634	757.12
594.843	701.12
595.053	695.12
595.262	687.12
595.472	681.12
595.681	673.12
595.89	643.12
596.1	652.12
596.309	615.12
596.518	618.12
596.727	591.12
596.937	585.12
597.146	584.12
597.355	590.12
597.564	577.12
597.774	561.12
597.983	548.12
598.192	539.12
598.401	553.12
598.61	540.12
598.819	563.12
599.028	553.12
599.237	537.12
599.446	534.12
599.655	528.12
599.864	528.12
600.073	534.12
600.282	526.12
600.491	526.12
600.7	540.12
600.909	512.12
601.118	523.12
601.327	513.12
601.536	509.12
601.745	521.12
601.953	514.12
602.162	503.12
602.371	504.12
602.58	496.12
602.789	496.12
602.997	512.12
603.206	513.12
603.415	501.12
603.623	497.12
603.832	499.12
604.041	486.12
604.249	474.12
604.458	492.12
604.666	459.12
604.875	464.12
605.084	459.12
605.292	475.12
605.501	483.12
605.709	468.12
605.918	475.12
606.126	476.12
606.334	456.12
606.543	450.12
606.751	483.12
606.96	492.12
607.168	487.12
607.376	467.12
607.585	466.12
607.793	484.12
608.001	481.12
608.21	456.12
608.418	485.12
608.626	465.12
608.834	453.12
609.043	458.12
609.251	459.12
609.459	477.12
609.667	465.12
609.875	458.12
610.083	473.12
610.291	465.12
610.499	465.12
610.707	468.12
610.916	444.12
611.124	448.12
611.332	445.12
611.54	450.12
611.748	449.12
611.955	456.12
612.163	449.12
612.371	449.12
612.579	456.12
612.787	426.12
612.995	425.12
613.203	463.12
613.411	446.12
613.618	452.12
613.826	433.12
614.034	436.12
614.242	431.12
614.449	447.12
614.657	429.12
614.865	436.12
615.072	414.12
615.28	437.12
615.488	435.12
615.695	450.12
615.903	441.12
616.111	436.12
616.318	429.12
616.526	434.12
616.733	437.12
616.941	453.12
617.148	441.12
617.356	437.12
617.563	450.12
617.771	439.12
617.978	435.12
618.185	450.12
618.393	425.12
618.6	452.12
618.807	415.12
619.015	423.12
619.222	424.12
619.429	429.12
619.637	447.12
619.844	403.12
620.051	424.12
620.258	415.12
620.466	406.12
620.673	408.12
620.88	388.12
621.087	392.12
621.294	404.12
621.501	405.12
621.708	394.12
621.915	419.12
622.122	411.12
622.329	409.12
622.536	384.12
622.743	401.12
622.95	413.12
623.157	388.12
623.364	385.12
623.571	380.12
623.778	393.12
623.985	387.12
624.192	393.12
624.399	396.12
624.606	387.12
624.812	387.12
625.019	372.12
625.226	389.12
625.433	398.12
625.639	381.12
625.846	383.12
626.053	377.12
626.259	374.12
626.466	378.12
626.673	363.12
626.879	372.12
627.086	371.12
627.293	362.12
627.499	370.12
627.706	364.12
627.912	351.12
628.119	338.12
628.325	387.12
628.532	360.12
628.738	342.12
628.945	355.12
629.151	372.12
629.357	364.12
629.564	352.12
629.77	346.12
629.976	340.12
630.183	331.12
630.389	336.12
630.595	343.12
630.802	351.12
631.008	329.12
631.214	349.12
631.42	328.12
631.627	340.12
631.833	329.12
632.039	320.12
632.245	319.12
632.451	340.12
632.657	321.12
632.863	344.12
633.069	344.12
633.275	327.12
633.481	323.12
633.688	327.12
633.893	328.12
634.099	332.12
634.305	312.12
634.511	324.12
634.717	319.12
634.923	313.12
635.129	329.12
635.335	331.12
635.541	322.12
635.747	307.12
635.952	302.12
636.158	317.12
636.364	316.12
636.57	304.12
636.775	328.12
636.981	311.12
637.187	314.12
637.392	304.12
637.598	310.12
637.804	296.12
638.009	309.12
638.215	321.12
638.421	294.12
638.626	288.12
638.832	311.12
639.037	296.12
639.243	291.12
639.448	304.12
639.654	312.12
639.859	295.12
640.065	289.12
640.27	306.12
640.475	312.12
640.681	292.12
640.886	290.12
641.091	292.12
641.297	277.12
641.502	269.12
641.707	291.12
641.913	287.12
642.118	290.12
642.323	283.12
642.528	288.12
642.733	280.12
642.939	300.12
643.144	288.12
643.349	305.12
643.554	293.12
643.759	300.12
643.964	303.12
644.169	293.12
644.374	275.12
644.579	290.12
644.784	277.12
644.989	288.12
645.194	275.12
645.399	289.12
645.604	294.12
645.809	290.12
646.014	282.12
646.219	304.12
646.423	304.12
646.628	295.12
646.833	289.12
647.038	291.12
647.243	287.12
647.447	298.12
647.652	304.12
647.857	327.12
648.062	316.12
648.266	307.12
648.471	311.12
648.676	314.12
648.88	329.12
649.085	316.12
649.289	324.12
649.494	322.12
649.698	306.12
649.903	280.12
650.107	274.12
650.312	304.12
650.516	313.12
650.721	303.12
650.925	299.12
651.13	287.12
651.334	292.12
651.539	288.12
651.743	287.12
651.947	296.12
652.152	285.12
652.356	282.12
652.56	287.12
652.764	283.12
652.969	263.12
653.173	276.12
653.377	275.12
653.581	285.12
653.785	279.12
653.99	269.12
654.194	273.12
654.398	279.12
654.602	286.12
654.806	278.12
655.01	286.12
655.214	290.12
655.418	298.12
655.622	312.12
655.826	307.12
656.03	330.12
656.234	344.12
656.438	345.12
656.642	374.12
656.846	343.12
657.049	315.12
657.253	279.12
657.457	251.12
657.661	253.12
657.865	246.12
658.068	226.12
658.272	207.12
658.476	198.12
658.68	196.12
658.883	165.12
659.087	156.12
659.291	145.12
659.494	136.12
659.698	133.12
659.901	130.12
660.105	120.12
660.309	111.12
660.512	123.12
660.716	109.12
660.919	108.12
661.123	111.12
661.326	98.12
661.53	103.12
661.733	99.12
661.936	95.12
662.14	91.12
662.343	99.12
662.546	102.12
662.75	95.12
662.953	85.12
663.156	91.12
663.36	83.12
663.563	83.12
663.766	93.12
663.969	76.12
664.173	79.12
664.376	76.12
664.579	92.12
664.782	85.12
664.985	79.12
665.188	95.12
665.391	87.12
665.594	72.12
665.797	85.12
666	91.12
666.203	75.12
666.406	88.12
666.609	88.12
666.812	77.12
667.015	81.12
667.218	68.12
667.421	83.12
667.624	83.12
667.827	84.12
668.03	80.12
668.232	69.12
668.435	76.12
668.638	79.12
668.841	90.12
669.043	72.12
669.246	84.12
669.449	82.12
669.651	89.12
669.854	73.12
670.057	95.12
670.259	82.12
670.462	67.12
670.665	75.12
670.867	89.12
671.07	84.12
671.272	81.12
671.475	74.12
671.677	87.12
671.88	68.12
672.082	84.12
672.284	84.12
672.487	82.12
672.689	92.12
672.892	83.12
