Data from NiCl2@0.0625M.TitratingCurve.Agarose3%dH2O.NegLispCup.LampEnergy10.LIBS07252019_HRD10591_18-33-54-577.txt Node
Date: Thu Jul 25 18:33:54 EDT 2019
User: cochatt
Spectrometer: HR+D1059
Trigger mode: 1
Integration Time (sec): 1.000000E-1
Scans to average: 1
Electric dark correction enabled: true
Nonlinearity correction enabled: false
Boxcar width: 0
XAxis mode: Wavelengths
Number of Pixels in Spectrum: 2048
>>>>>Begin Spectral Data<<<<<
223.165	-9.19
223.4	-9.19
223.635	-9.19
223.869	-13.19
224.104	-15.19
224.338	-11.19
224.573	-24.19
224.808	-18.19
225.042	-1.19
225.277	-6.19
225.511	6.81
225.746	-7.19
225.98	4.81
226.215	7.81
226.449	29.81
226.683	7.81
226.918	22.81
227.152	25.81
227.387	35.81
227.621	44.81
227.856	38.81
228.09	49.81
228.324	34.81
228.559	60.81
228.793	79.81
229.027	144.81
229.262	153.81
229.496	159.81
229.73	176.81
229.964	164.81
230.199	174.81
230.433	191.81
230.667	167.81
230.901	184.81
231.136	182.81
231.37	186.81
231.604	191.81
231.838	190.81
232.072	190.81
232.306	206.81
232.541	199.81
232.775	207.81
233.009	201.81
233.243	198.81
233.477	199.81
233.711	219.81
233.945	215.81
234.179	202.81
234.413	208.81
234.647	201.81
234.881	203.81
235.115	211.81
235.349	211.81
235.583	204.81
235.817	214.81
236.051	226.81
236.285	240.81
236.519	242.81
236.753	228.81
236.987	232.81
237.221	238.81
237.455	220.81
237.689	218.81
237.922	229.81
238.156	264.81
238.39	225.81
238.624	247.81
238.858	243.81
239.091	248.81
239.325	242.81
239.559	258.81
239.793	245.81
240.027	264.81
240.26	252.81
240.494	284.81
240.728	270.81
240.961	270.81
241.195	260.81
241.429	281.81
241.662	278.81
241.896	294.81
242.13	302.81
242.363	293.81
242.597	293.81
242.83	300.81
243.064	282.81
243.298	304.81
243.531	330.81
243.765	324.81
243.998	324.81
244.232	334.81
244.465	323.81
244.699	325.81
244.932	329.81
245.166	321.81
245.399	338.81
245.633	329.81
245.866	333.81
246.099	330.81
246.333	343.81
246.566	343.81
246.8	339.81
247.033	347.81
247.266	331.81
247.5	348.81
247.733	350.81
247.966	357.81
248.2	381.81
248.433	375.81
248.666	378.81
248.899	365.81
249.133	381.81
249.366	363.81
249.599	379.81
249.832	390.81
250.066	365.81
250.299	380.81
250.532	394.81
250.765	396.81
250.998	408.81
251.231	387.81
251.465	416.81
251.698	396.81
251.931	399.81
252.164	423.81
252.397	420.81
252.63	425.81
252.863	412.81
253.096	434.81
253.329	447.81
253.562	408.81
253.795	430.81
254.028	450.81
254.261	460.81
254.494	452.81
254.727	448.81
254.96	435.81
255.193	454.81
255.426	466.81
255.659	462.81
255.892	457.81
256.124	442.81
256.357	452.81
256.59	469.81
256.823	450.81
257.056	476.81
257.289	442.81
257.521	468.81
257.754	475.81
257.987	478.81
258.22	502.81
258.452	493.81
258.685	512.81
258.918	496.81
259.151	484.81
259.383	491.81
259.616	492.81
259.849	509.81
260.081	504.81
260.314	522.81
260.547	520.81
260.779	519.81
261.012	524.81
261.244	520.81
261.477	538.81
261.71	541.81
261.942	533.81
262.175	542.81
262.407	517.81
262.64	523.81
262.872	544.81
263.105	546.81
263.337	550.81
263.57	545.81
263.802	544.81
264.035	572.81
264.267	536.81
264.499	544.81
264.732	582.81
264.964	578.81
265.197	573.81
265.429	567.81
265.661	564.81
265.894	569.81
266.126	588.81
266.358	567.81
266.591	590.81
266.823	592.81
267.055	597.81
267.287	598.81
267.52	585.81
267.752	590.81
267.984	600.81
268.216	615.81
268.448	596.81
268.681	613.81
268.913	631.81
269.145	623.81
269.377	616.81
269.609	628.81
269.841	637.81
270.073	610.81
270.306	638.81
270.538	618.81
270.77	631.81
271.002	629.81
271.234	622.81
271.466	625.81
271.698	636.81
271.93	642.81
272.162	647.81
272.394	631.81
272.626	662.81
272.858	656.81
273.09	638.81
273.322	666.81
273.553	661.81
273.785	684.81
274.017	676.81
274.249	661.81
274.481	651.81
274.713	684.81
274.945	681.81
275.176	704.81
275.408	701.81
275.64	710.81
275.872	707.81
276.104	698.81
276.335	705.81
276.567	707.81
276.799	711.81
277.031	705.81
277.262	716.81
277.494	738.81
277.726	693.81
277.957	730.81
278.189	700.81
278.421	707.81
278.652	725.81
278.884	736.81
279.115	732.81
279.347	753.81
279.579	729.81
279.81	744.81
280.042	746.81
280.273	738.81
280.505	730.81
280.736	752.81
280.968	761.81
281.199	758.81
281.431	772.81
281.662	775.81
281.894	781.81
282.125	773.81
282.356	788.81
282.588	789.81
282.819	772.81
283.051	778.81
283.282	772.81
283.513	805.81
283.745	816.81
283.976	813.81
284.207	790.81
284.439	808.81
284.67	793.81
284.901	821.81
285.132	804.81
285.364	809.81
285.595	816.81
285.826	825.81
286.057	834.81
286.288	812.81
286.52	837.81
286.751	820.81
286.982	826.81
287.213	825.81
287.444	853.81
287.675	842.81
287.906	845.81
288.138	843.81
288.369	855.81
288.6	853.81
288.831	856.81
289.062	864.81
289.293	864.81
289.524	869.81
289.755	864.81
289.986	853.81
290.217	861.81
290.448	877.81
290.679	862.81
290.91	863.81
291.141	876.81
291.371	883.81
291.602	876.81
291.833	890.81
292.064	875.81
292.295	868.81
292.526	903.81
292.757	884.81
292.987	863.81
293.218	880.81
293.449	892.81
293.68	878.81
293.91	862.81
294.141	892.81
294.372	904.81
294.603	866.81
294.833	887.81
295.064	868.81
295.295	905.81
295.525	904.81
295.756	920.81
295.987	909.81
296.217	917.81
296.448	903.81
296.679	914.81
296.909	916.81
297.14	924.81
297.37	941.81
297.601	936.81
297.831	912.81
298.062	952.81
298.292	964.81
298.523	970.81
298.753	966.81
298.984	948.81
299.214	920.81
299.445	925.81
299.675	943.81
299.905	968.81
300.136	951.81
300.366	955.81
300.597	971.81
300.827	1009.81
301.057	948.81
301.288	1005.81
301.518	982.81
301.748	999.81
301.979	1024.81
302.209	1019.81
302.439	1012.81
302.669	1017.81
302.9	995.81
303.13	1022.81
303.36	1012.81
303.59	1025.81
303.82	1014.81
304.051	1027.81
304.281	1044.81
304.511	1003.81
304.741	980.81
304.971	1014.81
305.201	1003.81
305.431	994.81
305.661	998.81
305.891	984.81
306.121	1022.81
306.352	997.81
306.582	987.81
306.812	974.81
307.042	980.81
307.272	1005.81
307.502	994.81
307.731	987.81
307.961	968.81
308.191	1009.81
308.421	956.81
308.651	966.81
308.881	985.81
309.111	1006.81
309.341	980.81
309.571	1010.81
309.8	997.81
310.03	995.81
310.26	998.81
310.49	1013.81
310.72	997.81
310.949	973.81
311.179	1028.81
311.409	1032.81
311.639	995.81
311.868	1026.81
312.098	1034.81
312.328	1045.81
312.557	1038.81
312.787	1038.81
313.017	1038.81
313.246	1093.81
313.476	1060.81
313.706	1081.81
313.935	1081.81
314.165	1069.81
314.394	1052.81
314.624	1067.81
314.853	1023.81
315.083	1053.81
315.312	1066.81
315.542	1093.81
315.771	1072.81
316.001	1065.81
316.23	1044.81
316.46	1078.81
316.689	1050.81
316.919	1072.81
317.148	1073.81
317.377	1072.81
317.607	1038.81
317.836	1068.81
318.065	1045.81
318.295	1048.81
318.524	1069.81
318.753	1056.81
318.983	1060.81
319.212	1033.81
319.441	1041.81
319.67	1032.81
319.9	1050.81
320.129	1058.81
320.358	1065.81
320.587	1078.81
320.816	1052.81
321.046	1084.81
321.275	1052.81
321.504	1074.81
321.733	1096.81
321.962	1056.81
322.191	1083.81
322.42	1068.81
322.649	1065.81
322.878	1062.81
323.108	1101.81
323.337	1095.81
323.566	1082.81
323.795	1110.81
324.024	1109.81
324.253	1118.81
324.482	1108.81
324.71	1067.81
324.939	1129.81
325.168	1100.81
325.397	1116.81
325.626	1119.81
325.855	1118.81
326.084	1164.81
326.313	1180.81
326.542	1149.81
326.77	1163.81
326.999	1164.81
327.228	1140.81
327.457	1128.81
327.686	1164.81
327.914	1146.81
328.143	1182.81
328.372	1148.81
328.6	1138.81
328.829	1153.81
329.058	1173.81
329.287	1146.81
329.515	1191.81
329.744	1206.81
329.972	1176.81
330.201	1185.81
330.43	1160.81
330.658	1196.81
330.887	1182.81
331.115	1197.81
331.344	1208.81
331.572	1218.81
331.801	1199.81
332.03	1254.81
332.258	1267.81
332.486	1313.81
332.715	1331.81
332.943	1366.81
333.172	1424.81
333.4	1445.81
333.629	1469.81
333.857	1492.81
334.085	1479.81
334.314	1487.81
334.542	1466.81
334.771	1495.81
334.999	1480.81
335.227	1434.81
335.455	1470.81
335.684	1437.81
335.912	1447.81
336.14	1436.81
336.369	1406.81
336.597	1423.81
336.825	1412.81
337.053	1381.81
337.281	1357.81
337.51	1350.81
337.738	1337.81
337.966	1312.81
338.194	1296.81
338.422	1299.81
338.65	1252.81
338.878	1276.81
339.106	1258.81
339.334	1264.81
339.562	1264.81
339.79	1239.81
340.018	1234.81
340.246	1192.81
340.474	1227.81
340.702	1217.81
340.93	1280.81
341.158	1218.81
341.386	1218.81
341.614	1219.81
341.842	1224.81
342.07	1227.81
342.298	1231.81
342.526	1229.81
342.754	1177.81
342.981	1223.81
343.209	1226.81
343.437	1252.81
343.665	1363.81
343.893	1361.81
344.12	1442.81
344.348	1392.81
344.576	1396.81
344.804	1349.81
345.031	1299.81
345.259	1236.81
345.487	1232.81
345.714	1228.81
345.942	1200.81
346.17	1214.81
346.397	1182.81
346.625	1162.81
346.853	1170.81
347.08	1177.81
347.308	1190.81
347.535	1177.81
347.763	1142.81
347.99	1119.81
348.218	1146.81
348.445	1154.81
348.673	1138.81
348.9	1165.81
349.128	1146.81
349.355	1128.81
349.583	1168.81
349.81	1130.81
350.037	1150.81
350.265	1138.81
350.492	1148.81
350.72	1133.81
350.947	1111.81
351.174	1130.81
351.402	1144.81
351.629	1134.81
351.856	1133.81
352.083	1124.81
352.311	1110.81
352.538	1126.81
352.765	1131.81
352.992	1120.81
353.22	1112.81
353.447	1074.81
353.674	1080.81
353.901	1148.81
354.128	1108.81
354.355	1112.81
354.583	1141.81
354.81	1118.81
355.037	1158.81
355.264	1130.81
355.491	1147.81
355.718	1136.81
355.945	1124.81
356.172	1138.81
356.399	1129.81
356.626	1116.81
356.853	1137.81
357.08	1108.81
357.307	1123.81
357.534	1146.81
357.761	1154.81
357.988	1141.81
358.215	1142.81
358.441	1134.81
358.668	1136.81
358.895	1129.81
359.122	1109.81
359.349	1109.81
359.576	1131.81
359.802	1130.81
360.029	1142.81
360.256	1105.81
360.483	1095.81
360.709	1129.81
360.936	1106.81
361.163	1136.81
361.39	1126.81
361.616	1156.81
361.843	1144.81
362.07	1146.81
362.296	1166.81
362.523	1118.81
362.749	1097.81
362.976	1131.81
363.203	1114.81
363.429	1123.81
363.656	1136.81
363.882	1155.81
364.109	1148.81
364.335	1133.81
364.562	1152.81
364.788	1137.81
365.015	1118.81
365.241	1108.81
365.468	1126.81
365.694	1125.81
365.92	1145.81
366.147	1116.81
366.373	1150.81
366.599	1132.81
366.826	1096.81
367.052	1123.81
367.278	1145.81
367.505	1160.81
367.731	1149.81
367.957	1143.81
368.184	1152.81
368.41	1141.81
368.636	1132.81
368.862	1148.81
369.089	1156.81
369.315	1154.81
369.541	1158.81
369.767	1167.81
369.993	1197.81
370.219	1191.81
370.445	1189.81
370.672	1201.81
370.898	1187.81
371.124	1223.81
371.35	1250.81
371.576	1228.81
371.802	1231.81
372.028	1210.81
372.254	1216.81
372.48	1223.81
372.706	1250.81
372.932	1261.81
373.158	1259.81
373.384	1237.81
373.61	1216.81
373.835	1200.81
374.061	1237.81
374.287	1244.81
374.513	1258.81
374.739	1277.81
374.965	1287.81
375.191	1364.81
375.416	1341.81
375.642	1331.81
375.868	1271.81
376.094	1274.81
376.319	1255.81
376.545	1230.81
376.771	1241.81
376.997	1222.81
377.222	1237.81
377.448	1197.81
377.674	1224.81
377.899	1239.81
378.125	1225.81
378.35	1220.81
378.576	1187.81
378.802	1204.81
379.027	1222.81
379.253	1229.81
379.478	1213.81
379.704	1212.81
379.929	1220.81
380.155	1218.81
380.38	1193.81
380.606	1192.81
380.831	1184.81
381.057	1223.81
381.282	1213.81
381.507	1214.81
381.733	1229.81
381.958	1244.81
382.184	1218.81
382.409	1233.81
382.634	1285.81
382.86	1282.81
383.085	1333.81
383.31	1315.81
383.535	1342.81
383.761	1336.81
383.986	1362.81
384.211	1357.81
384.436	1414.81
384.662	1428.81
384.887	1421.81
385.112	1430.81
385.337	1438.81
385.562	1427.81
385.787	1491.81
386.013	1478.81
386.238	1492.81
386.463	1481.81
386.688	1452.81
386.913	1453.81
387.138	1468.81
387.363	1449.81
387.588	1418.81
387.813	1456.81
388.038	1430.81
388.263	1454.81
388.488	1454.81
388.713	1455.81
388.938	1453.81
389.163	1458.81
389.387	1462.81
389.612	1444.81
389.837	1450.81
390.062	1451.81
390.287	1468.81
390.512	1447.81
390.736	1475.81
390.961	1498.81
391.186	1487.81
391.411	1523.81
391.636	1559.81
391.86	1620.81
392.085	1618.81
392.31	1639.81
392.534	1566.81
392.759	1570.81
392.984	1548.81
393.208	1531.81
393.433	1546.81
393.658	1556.81
393.882	1522.81
394.107	1531.81
394.331	1553.81
394.556	1543.81
394.78	1576.81
395.005	1578.81
395.229	1561.81
395.454	1614.81
395.678	1639.81
395.903	1592.81
396.127	1609.81
396.352	1577.81
396.576	1570.81
396.801	1545.81
397.025	1590.81
397.249	1613.81
397.474	1662.81
397.698	1628.81
397.922	1658.81
398.147	1656.81
398.371	1701.81
398.595	1761.81
398.82	1800.81
399.044	1908.81
399.268	2092.81
399.492	2325.81
399.717	2507.81
399.941	2514.81
400.165	2356.81
400.389	2210.81
400.613	2046.81
400.837	1915.81
401.062	1893.81
401.286	1852.81
401.51	1844.81
401.734	1819.81
401.958	1808.81
402.182	1843.81
402.406	1833.81
402.63	1875.81
402.854	1875.81
403.078	1901.81
403.302	1921.81
403.526	1949.81
403.75	1946.81
403.974	1989.81
404.198	1967.81
404.422	1996.81
404.645	2005.81
404.869	1968.81
405.093	1996.81
405.317	1974.81
405.541	1970.81
405.765	1947.81
405.988	1965.81
406.212	2000.81
406.436	2010.81
406.66	2036.81
406.883	2044.81
407.107	2149.81
407.331	2188.81
407.555	2262.81
407.778	2282.81
408.002	2251.81
408.226	2204.81
408.449	2164.81
408.673	2068.81
408.896	2033.81
409.12	2081.81
409.344	2021.81
409.567	2048.81
409.791	2034.81
410.014	1986.81
410.238	2011.81
410.461	1954.81
410.685	1974.81
410.908	1950.81
411.132	1944.81
411.355	1906.81
411.578	1877.81
411.802	1930.81
412.025	1874.81
412.249	1912.81
412.472	1919.81
412.695	1851.81
412.919	1857.81
413.142	1829.81
413.365	1831.81
413.589	1811.81
413.812	1834.81
414.035	1800.81
414.258	1808.81
414.482	1790.81
414.705	1836.81
414.928	1861.81
415.151	1811.81
415.374	1841.81
415.597	1812.81
415.821	1789.81
416.044	1770.81
416.267	1728.81
416.49	1772.81
416.713	1711.81
416.936	1740.81
417.159	1754.81
417.382	1692.81
417.605	1733.81
417.828	1771.81
418.051	1732.81
418.274	1748.81
418.497	1729.81
418.72	1778.81
418.943	1757.81
419.166	1865.81
419.389	1982.81
419.611	1958.81
419.834	1926.81
420.057	1867.81
420.28	1810.81
420.503	1745.81
420.726	1737.81
420.948	1741.81
421.171	1768.81
421.394	1720.81
421.617	1722.81
421.839	1799.81
422.062	1763.81
422.285	1750.81
422.507	1799.81
422.73	1765.81
422.953	1788.81
423.175	1806.81
423.398	1799.81
423.621	1767.81
423.843	1850.81
424.066	1827.81
424.288	1808.81
424.511	1793.81
424.733	1733.81
424.956	1748.81
425.178	1767.81
425.401	1764.81
425.623	1752.81
425.846	1721.81
426.068	1712.81
426.291	1689.81
426.513	1650.81
426.735	1629.81
426.958	1706.81
427.18	1627.81
427.402	1642.81
427.625	1641.81
427.847	1611.81
428.069	1565.81
428.292	1629.81
428.514	1586.81
428.736	1582.81
428.958	1573.81
429.181	1560.81
429.403	1575.81
429.625	1529.81
429.847	1544.81
430.069	1545.81
430.292	1558.81
430.514	1498.81
430.736	1573.81
430.958	1589.81
431.18	1582.81
431.402	1595.81
431.624	1566.81
431.846	1604.81
432.068	1604.81
432.29	1629.81
432.512	1602.81
432.734	1598.81
432.956	1588.81
433.178	1606.81
433.4	1625.81
433.622	1614.81
433.844	1640.81
434.066	1642.81
434.287	1671.81
434.509	1727.81
434.731	1703.81
434.953	1765.81
435.175	1752.81
435.397	1770.81
435.618	1695.81
435.84	1679.81
436.062	1622.81
436.284	1611.81
436.505	1623.81
436.727	1588.81
436.949	1574.81
437.17	1596.81
437.392	1569.81
437.614	1540.81
437.835	1555.81
438.057	1545.81
438.278	1579.81
438.5	1506.81
438.721	1516.81
438.943	1561.81
439.165	1499.81
439.386	1511.81
439.608	1543.81
439.829	1550.81
440.05	1548.81
440.272	1578.81
440.493	1556.81
440.715	1584.81
440.936	1564.81
441.158	1616.81
441.379	1671.81
441.6	1705.81
441.822	1741.81
442.043	1734.81
442.264	1688.81
442.486	1649.81
442.707	1684.81
442.928	1661.81
443.149	1690.81
443.371	1712.81
443.592	1688.81
443.813	1690.81
444.034	1734.81
444.255	1779.81
444.476	1836.81
444.698	1925.81
444.919	1972.81
445.14	2065.81
445.361	1897.81
445.582	1796.81
445.803	1708.81
446.024	1684.81
446.245	1638.81
446.466	1632.81
446.687	1569.81
446.908	1551.81
447.129	1533.81
447.35	1531.81
447.571	1492.81
447.792	1486.81
448.013	1453.81
448.234	1453.81
448.455	1436.81
448.675	1434.81
448.896	1448.81
449.117	1384.81
449.338	1414.81
449.559	1414.81
449.779	1426.81
450	1419.81
450.221	1413.81
450.442	1437.81
450.662	1412.81
450.883	1435.81
451.104	1459.81
451.324	1436.81
451.545	1427.81
451.766	1422.81
451.986	1382.81
452.207	1404.81
452.428	1422.81
452.648	1369.81
452.869	1348.81
453.089	1391.81
453.31	1386.81
453.53	1360.81
453.751	1359.81
453.971	1344.81
454.192	1368.81
454.412	1337.81
454.633	1358.81
454.853	1318.81
455.073	1338.81
455.294	1344.81
455.514	1316.81
455.734	1343.81
455.955	1294.81
456.175	1322.81
456.395	1332.81
456.616	1306.81
456.836	1340.81
457.056	1321.81
457.276	1302.81
457.497	1338.81
457.717	1346.81
457.937	1362.81
458.157	1352.81
458.377	1364.81
458.598	1444.81
458.818	1416.81
459.038	1468.81
459.258	1485.81
459.478	1530.81
459.698	1582.81
459.918	1672.81
460.138	1650.81
460.358	1757.81
460.578	1758.81
460.798	1737.81
461.018	1810.81
461.238	1808.81
461.458	1780.81
461.678	1764.81
461.898	1821.81
462.118	1836.81
462.338	1907.81
462.558	1922.81
462.777	2030.81
462.997	2144.81
463.217	2257.81
463.437	2266.81
463.657	2170.81
463.876	2072.81
464.096	2064.81
464.316	2062.81
464.536	2019.81
464.755	1973.81
464.975	1906.81
465.195	1845.81
465.414	1793.81
465.634	1706.81
465.854	1644.81
466.073	1566.81
466.293	1578.81
466.512	1513.81
466.732	1529.81
466.951	1495.81
467.171	1506.81
467.391	1482.81
467.61	1504.81
467.829	1497.81
468.049	1461.81
468.268	1469.81
468.488	1436.81
468.707	1426.81
468.927	1422.81
469.146	1418.81
469.365	1444.81
469.585	1458.81
469.804	1491.81
470.023	1492.81
470.243	1494.81
470.462	1537.81
470.681	1524.81
470.901	1533.81
471.12	1518.81
471.339	1492.81
471.558	1430.81
471.777	1482.81
471.997	1458.81
472.216	1465.81
472.435	1447.81
472.654	1427.81
472.873	1425.81
473.092	1420.81
473.311	1431.81
473.53	1432.81
473.749	1420.81
473.968	1430.81
474.187	1456.81
474.406	1396.81
474.625	1433.81
474.844	1400.81
475.063	1435.81
475.282	1444.81
475.501	1430.81
475.72	1490.81
475.939	1503.81
476.158	1481.81
476.377	1465.81
476.596	1489.81
476.814	1502.81
477.033	1514.81
477.252	1539.81
477.471	1579.81
477.69	1627.81
477.908	1628.81
478.127	1666.81
478.346	1658.81
478.564	1732.81
478.783	1741.81
479.002	1742.81
479.22	1764.81
479.439	1772.81
479.658	1778.81
479.876	1826.81
480.095	1800.81
480.313	1896.81
480.532	1919.81
480.751	1907.81
480.969	1824.81
481.188	1822.81
481.406	1793.81
481.624	1772.81
481.843	1743.81
482.061	1709.81
482.28	1709.81
482.498	1718.81
482.717	1723.81
482.935	1741.81
483.153	1743.81
483.372	1744.81
483.59	1773.81
483.808	1781.81
484.027	1785.81
484.245	1806.81
484.463	1801.81
484.681	1863.81
484.9	1874.81
485.118	1917.81
485.336	1904.81
485.554	1901.81
485.772	1942.81
485.99	1928.81
486.209	1916.81
486.427	1922.81
486.645	1889.81
486.863	1917.81
487.081	1891.81
487.299	1840.81
487.517	1872.81
487.735	1836.81
487.953	1882.81
488.171	1858.81
488.389	1784.81
488.607	1814.81
488.825	1794.81
489.043	1812.81
489.261	1814.81
489.479	1829.81
489.696	1824.81
489.914	1808.81
490.132	1808.81
490.35	1836.81
490.568	1826.81
490.786	1783.81
491.003	1794.81
491.221	1787.81
491.439	1804.81
491.657	1800.81
491.874	1803.81
492.092	1796.81
492.31	1781.81
492.527	1817.81
492.745	1798.81
492.963	1790.81
493.18	1823.81
493.398	1818.81
493.615	1829.81
493.833	1820.81
494.05	1854.81
494.268	1798.81
494.485	1842.81
494.703	1848.81
494.92	1853.81
495.138	1810.81
495.355	1782.81
495.573	1861.81
495.79	1847.81
496.008	1873.81
496.225	1852.81
496.442	1862.81
496.66	1910.81
496.877	1942.81
497.094	1966.81
497.312	1994.81
497.529	2050.81
497.746	2074.81
497.963	2144.81
498.181	2243.81
498.398	2280.81
498.615	2413.81
498.832	2550.81
499.049	2736.81
499.267	2840.81
499.484	3127.81
499.701	3413.81
499.918	3672.81
500.135	4118.81
500.352	4490.81
500.569	4619.81
500.786	4561.81
501.003	4338.81
501.22	4046.81
501.437	3644.81
501.654	3297.81
501.871	3041.81
502.088	2805.81
502.305	2662.81
502.522	2567.81
502.739	2476.81
502.956	2396.81
503.172	2203.81
503.389	2154.81
503.606	2090.81
503.823	2099.81
504.04	2034.81
504.256	2041.81
504.473	2080.81
504.69	2109.81
504.907	2067.81
505.123	1932.81
505.34	1849.81
505.557	1761.81
505.773	1747.81
505.99	1731.81
506.207	1657.81
506.423	1674.81
506.64	1627.81
506.856	1592.81
507.073	1636.81
507.289	1586.81
507.506	1563.81
507.722	1577.81
507.939	1531.81
508.155	1572.81
508.372	1512.81
508.588	1523.81
508.805	1512.81
509.021	1456.81
509.238	1495.81
509.454	1467.81
509.67	1442.81
509.887	1468.81
510.103	1450.81
510.319	1419.81
510.536	1423.81
510.752	1400.81
510.968	1431.81
511.184	1427.81
511.401	1444.81
511.617	1417.81
511.833	1418.81
512.049	1427.81
512.265	1432.81
512.481	1410.81
512.698	1396.81
512.914	1407.81
513.13	1410.81
513.346	1418.81
513.562	1426.81
513.778	1433.81
513.994	1441.81
514.21	1422.81
514.426	1431.81
514.642	1430.81
514.858	1470.81
515.074	1436.81
515.29	1476.81
515.506	1466.81
515.721	1550.81
515.937	1511.81
516.153	1533.81
516.369	1557.81
516.585	1621.81
516.801	1650.81
517.016	1712.81
517.232	1778.81
517.448	1772.81
517.664	1826.81
517.879	1875.81
518.095	1830.81
518.311	1790.81
518.527	1780.81
518.742	1739.81
518.958	1686.81
519.173	1647.81
519.389	1594.81
519.605	1532.81
519.82	1526.81
520.036	1497.81
520.251	1452.81
520.467	1448.81
520.682	1441.81
520.898	1410.81
521.113	1402.81
521.329	1369.81
521.544	1365.81
521.76	1404.81
521.975	1371.81
522.19	1321.81
522.406	1357.81
522.621	1323.81
522.836	1310.81
523.052	1306.81
523.267	1317.81
523.482	1299.81
523.698	1265.81
523.913	1257.81
524.128	1294.81
524.343	1318.81
524.559	1298.81
524.774	1288.81
524.989	1288.81
525.204	1279.81
525.419	1289.81
525.634	1274.81
525.849	1266.81
526.064	1252.81
526.28	1264.81
526.495	1248.81
526.71	1254.81
526.925	1294.81
527.14	1253.81
527.355	1253.81
527.57	1253.81
527.785	1255.81
527.999	1238.81
528.214	1251.81
528.429	1279.81
528.644	1260.81
528.859	1243.81
529.074	1209.81
529.289	1253.81
529.503	1259.81
529.718	1264.81
529.933	1212.81
530.148	1216.81
530.363	1258.81
530.577	1242.81
530.792	1228.81
531.007	1234.81
531.221	1252.81
531.436	1268.81
531.651	1246.81
531.865	1240.81
532.08	1210.81
532.295	1251.81
532.509	1229.81
532.724	1284.81
532.938	1233.81
533.153	1222.81
533.367	1238.81
533.582	1206.81
533.796	1238.81
534.011	1216.81
534.225	1230.81
534.44	1236.81
534.654	1156.81
534.868	1237.81
535.083	1187.81
535.297	1212.81
535.511	1206.81
535.726	1214.81
535.94	1201.81
536.154	1170.81
536.369	1215.81
536.583	1149.81
536.797	1137.81
537.011	1185.81
537.225	1115.81
537.44	1148.81
537.654	1151.81
537.868	1168.81
538.082	1146.81
538.296	1136.81
538.51	1104.81
538.724	1140.81
538.938	1116.81
539.153	1110.81
539.367	1134.81
539.581	1108.81
539.795	1107.81
540.009	1131.81
540.222	1116.81
540.436	1112.81
540.65	1084.81
540.864	1112.81
541.078	1091.81
541.292	1080.81
541.506	1088.81
541.72	1097.81
541.934	1106.81
542.147	1115.81
542.361	1107.81
542.575	1097.81
542.789	1094.81
543.002	1073.81
543.216	1098.81
543.43	1116.81
543.644	1103.81
543.857	1094.81
544.071	1066.81
544.285	1078.81
544.498	1106.81
544.712	1089.81
544.925	1106.81
545.139	1091.81
545.352	1130.81
545.566	1117.81
545.779	1120.81
545.993	1142.81
546.206	1095.81
546.42	1091.81
546.633	1102.81
546.847	1087.81
547.06	1123.81
547.274	1109.81
547.487	1086.81
547.7	1130.81
547.914	1125.81
548.127	1124.81
548.34	1139.81
548.554	1128.81
548.767	1088.81
548.98	1120.81
549.193	1099.81
549.407	1123.81
549.62	1155.81
549.833	1158.81
550.046	1128.81
550.259	1133.81
550.473	1105.81
550.686	1114.81
550.899	1125.81
551.112	1092.81
551.325	1086.81
551.538	1088.81
551.751	1085.81
551.964	1108.81
552.177	1131.81
552.39	1129.81
552.603	1129.81
552.816	1182.81
553.029	1166.81
553.242	1201.81
553.455	1180.81
553.667	1189.81
553.88	1179.81
554.093	1173.81
554.306	1127.81
554.519	1106.81
554.732	1054.81
554.944	1083.81
555.157	1043.81
555.37	1070.81
555.583	1078.81
555.795	1015.81
556.008	1014.81
556.221	989.81
556.433	979.81
556.646	992.81
556.859	981.81
557.071	964.81
557.284	958.81
557.496	960.81
557.709	922.81
557.921	937.81
558.134	938.81
558.346	938.81
558.559	961.81
558.771	911.81
558.984	930.81
559.196	960.81
559.409	932.81
559.621	938.81
559.833	926.81
560.046	925.81
560.258	935.81
560.47	877.81
560.683	898.81
560.895	931.81
561.107	916.81
561.32	929.81
561.532	910.81
561.744	922.81
561.956	890.81
562.168	901.81
562.381	916.81
562.593	906.81
562.805	929.81
563.017	946.81
563.229	913.81
563.441	922.81
563.653	925.81
563.865	970.81
564.077	966.81
564.289	979.81
564.501	978.81
564.713	975.81
564.925	983.81
565.137	1015.81
565.349	1030.81
565.561	1090.81
565.773	1129.81
565.985	1152.81
566.197	1197.81
566.408	1245.81
566.62	1338.81
566.832	1388.81
567.044	1422.81
567.255	1432.81
567.467	1428.81
567.679	1499.81
567.891	1591.81
568.102	1594.81
568.314	1529.81
568.526	1422.81
568.737	1302.81
568.949	1235.81
569.161	1158.81
569.372	1066.81
569.584	1042.81
569.795	1026.81
570.007	978.81
570.218	931.81
570.43	952.81
570.641	930.81
570.853	941.81
571.064	944.81
571.276	908.81
571.487	910.81
571.698	879.81
571.91	860.81
572.121	835.81
572.333	797.81
572.544	781.81
572.755	789.81
572.966	794.81
573.178	768.81
573.389	778.81
573.6	745.81
573.811	794.81
574.023	743.81
574.234	758.81
574.445	740.81
574.656	718.81
574.867	716.81
575.078	741.81
575.289	746.81
575.501	706.81
575.712	709.81
575.923	719.81
576.134	716.81
576.345	690.81
576.556	707.81
576.767	731.81
576.978	709.81
577.188	700.81
577.399	698.81
577.61	688.81
577.821	667.81
578.032	652.81
578.243	676.81
578.454	681.81
578.665	680.81
578.875	667.81
579.086	664.81
579.297	673.81
579.508	668.81
579.718	660.81
579.929	669.81
580.14	629.81
580.35	637.81
580.561	634.81
580.772	667.81
580.982	623.81
581.193	645.81
581.403	654.81
581.614	649.81
581.825	637.81
582.035	622.81
582.246	628.81
582.456	618.81
582.667	624.81
582.877	642.81
583.087	611.81
583.298	629.81
583.508	613.81
583.719	625.81
583.929	624.81
584.139	621.81
584.35	602.81
584.56	598.81
584.77	600.81
584.981	601.81
585.191	600.81
585.401	600.81
585.611	615.81
585.821	599.81
586.032	588.81
586.242	613.81
586.452	610.81
586.662	605.81
586.872	610.81
587.082	584.81
587.292	582.81
587.502	596.81
587.713	598.81
587.923	606.81
588.133	586.81
588.343	597.81
588.553	610.81
588.762	606.81
588.972	606.81
589.182	597.81
589.392	606.81
589.602	613.81
589.812	601.81
590.022	606.81
590.232	603.81
590.441	601.81
590.651	585.81
590.861	596.81
591.071	606.81
591.281	610.81
591.49	611.81
591.7	644.81
591.91	649.81
592.119	651.81
592.329	640.81
592.539	677.81
592.748	666.81
592.958	671.81
593.167	713.81
593.377	706.81
593.587	734.81
593.796	729.81
594.006	752.81
594.215	742.81
594.424	734.81
594.634	685.81
594.843	713.81
595.053	680.81
595.262	636.81
595.472	654.81
595.681	631.81
595.89	612.81
596.1	571.81
596.309	568.81
596.518	588.81
596.727	568.81
596.937	544.81
597.146	541.81
597.355	551.81
597.564	536.81
597.774	534.81
597.983	525.81
598.192	512.81
598.401	513.81
598.61	516.81
598.819	498.81
599.028	508.81
599.237	521.81
599.446	519.81
599.655	511.81
599.864	489.81
600.073	514.81
600.282	503.81
600.491	503.81
600.7	507.81
600.909	485.81
601.118	482.81
601.327	496.81
601.536	482.81
601.745	480.81
601.953	486.81
602.162	499.81
602.371	466.81
602.58	485.81
602.789	483.81
602.997	457.81
603.206	481.81
603.415	475.81
603.623	464.81
603.832	475.81
604.041	454.81
604.249	467.81
604.458	462.81
604.666	452.81
604.875	461.81
605.084	445.81
605.292	469.81
605.501	440.81
605.709	466.81
605.918	419.81
606.126	448.81
606.334	464.81
606.543	446.81
606.751	443.81
606.96	427.81
607.168	448.81
607.376	438.81
607.585	451.81
607.793	454.81
608.001	450.81
608.21	438.81
608.418	456.81
608.626	421.81
608.834	432.81
609.043	436.81
609.251	436.81
609.459	423.81
609.667	432.81
609.875	410.81
610.083	440.81
610.291	438.81
610.499	432.81
610.707	414.81
610.916	415.81
611.124	420.81
611.332	421.81
611.54	427.81
611.748	405.81
611.955	417.81
612.163	406.81
612.371	428.81
612.579	429.81
612.787	424.81
612.995	425.81
613.203	421.81
613.411	426.81
613.618	404.81
613.826	413.81
614.034	424.81
614.242	388.81
614.449	407.81
614.657	417.81
614.865	421.81
615.072	426.81
615.28	426.81
615.488	422.81
615.695	423.81
615.903	429.81
616.111	413.81
616.318	418.81
616.526	401.81
616.733	402.81
616.941	423.81
617.148	412.81
617.356	414.81
617.563	411.81
617.771	419.81
617.978	417.81
618.185	413.81
618.393	419.81
618.6	416.81
618.807	412.81
619.015	407.81
619.222	403.81
619.429	389.81
619.637	393.81
619.844	407.81
620.051	381.81
620.258	378.81
620.466	409.81
620.673	384.81
620.88	362.81
621.087	377.81
621.294	395.81
621.501	382.81
621.708	378.81
621.915	379.81
622.122	389.81
622.329	376.81
622.536	374.81
622.743	370.81
622.95	377.81
623.157	388.81
623.364	378.81
623.571	371.81
623.778	359.81
623.985	374.81
624.192	374.81
624.399	362.81
624.606	370.81
624.812	346.81
625.019	346.81
625.226	350.81
625.433	358.81
625.639	343.81
625.846	347.81
626.053	360.81
626.259	357.81
626.466	365.81
626.673	346.81
626.879	349.81
627.086	346.81
627.293	345.81
627.499	342.81
627.706	346.81
627.912	347.81
628.119	345.81
628.325	353.81
628.532	331.81
628.738	346.81
628.945	323.81
629.151	332.81
629.357	341.81
629.564	330.81
629.77	323.81
629.976	337.81
630.183	314.81
630.389	326.81
630.595	334.81
630.802	319.81
631.008	317.81
631.214	310.81
631.42	319.81
631.627	321.81
631.833	315.81
632.039	304.81
632.245	309.81
632.451	315.81
632.657	311.81
632.863	332.81
633.069	316.81
633.275	309.81
633.481	308.81
633.688	309.81
633.893	305.81
634.099	304.81
634.305	325.81
634.511	305.81
634.717	301.81
634.923	296.81
635.129	310.81
635.335	294.81
635.541	297.81
635.747	306.81
635.952	304.81
636.158	300.81
636.364	302.81
636.57	295.81
636.775	309.81
636.981	300.81
637.187	293.81
637.392	289.81
637.598	313.81
637.804	292.81
638.009	295.81
638.215	316.81
638.421	299.81
638.626	291.81
638.832	290.81
639.037	288.81
639.243	293.81
639.448	283.81
639.654	321.81
639.859	266.81
640.065	278.81
640.27	286.81
640.475	293.81
640.681	302.81
640.886	291.81
641.091	276.81
641.297	268.81
641.502	266.81
641.707	283.81
641.913	269.81
642.118	286.81
642.323	290.81
642.528	280.81
642.733	270.81
642.939	265.81
643.144	261.81
643.349	286.81
643.554	276.81
643.759	284.81
643.964	282.81
644.169	275.81
644.374	265.81
644.579	270.81
644.784	261.81
644.989	285.81
645.194	283.81
645.399	269.81
645.604	274.81
645.809	285.81
646.014	274.81
646.219	310.81
646.423	295.81
646.628	297.81
646.833	295.81
647.038	265.81
647.243	284.81
647.447	278.81
647.652	296.81
647.857	289.81
648.062	313.81
648.266	314.81
648.471	295.81
648.676	306.81
648.88	303.81
649.085	307.81
649.289	314.81
649.494	290.81
649.698	302.81
649.903	292.81
650.107	292.81
650.312	296.81
650.516	289.81
650.721	298.81
650.925	275.81
651.13	261.81
651.334	269.81
651.539	285.81
651.743	270.81
651.947	282.81
652.152	269.81
652.356	260.81
652.56	258.81
652.764	268.81
652.969	257.81
653.173	269.81
653.377	263.81
653.581	277.81
653.785	286.81
653.99	278.81
654.194	275.81
654.398	277.81
654.602	264.81
654.806	288.81
655.01	288.81
655.214	290.81
655.418	294.81
655.622	322.81
655.826	320.81
656.03	364.81
656.234	370.81
656.438	392.81
656.642	397.81
656.846	359.81
657.049	347.81
657.253	295.81
657.457	266.81
657.661	243.81
657.865	218.81
658.068	216.81
658.272	196.81
658.476	194.81
658.68	164.81
658.883	168.81
659.087	166.81
659.291	160.81
659.494	132.81
659.698	137.81
659.901	140.81
660.105	131.81
660.309	129.81
660.512	128.81
660.716	124.81
660.919	106.81
661.123	117.81
661.326	113.81
661.53	101.81
661.733	104.81
661.936	114.81
662.14	90.81
662.343	84.81
662.546	100.81
662.75	96.81
662.953	86.81
663.156	84.81
663.36	86.81
663.563	94.81
663.766	90.81
663.969	90.81
664.173	81.81
664.376	77.81
664.579	89.81
664.782	76.81
664.985	84.81
665.188	86.81
665.391	83.81
665.594	89.81
665.797	81.81
666	85.81
666.203	75.81
666.406	86.81
666.609	82.81
666.812	80.81
667.015	82.81
667.218	84.81
667.421	78.81
667.624	60.81
667.827	87.81
668.03	88.81
668.232	88.81
668.435	70.81
668.638	86.81
668.841	86.81
669.043	91.81
669.246	82.81
669.449	101.81
669.651	81.81
669.854	89.81
670.057	74.81
670.259	77.81
670.462	89.81
670.665	83.81
670.867	100.81
671.07	90.81
671.272	94.81
671.475	91.81
671.677	78.81
671.88	92.81
672.082	80.81
672.284	89.81
672.487	73.81
672.689	79.81
672.892	91.81
