Data from NiCl2@0.25M.TitratingCurve.Agarose3%dH2O.NegLispCup.LampEnergy10.LIBS07252019_HRD10591_18-25-00-574.txt Node
Date: Thu Jul 25 18:25:00 EDT 2019
User: cochatt
Spectrometer: HR+D1059
Trigger mode: 1
Integration Time (sec): 1.000000E-1
Scans to average: 1
Electric dark correction enabled: true
Nonlinearity correction enabled: false
Boxcar width: 0
XAxis mode: Wavelengths
Number of Pixels in Spectrum: 2048
>>>>>Begin Spectral Data<<<<<
223.165	-22.38
223.4	-22.38
223.635	-22.38
223.869	-18.38
224.104	-19.38
224.338	-20.38
224.573	-6.38
224.808	-11.38
225.042	2.62
225.277	-10.38
225.511	-14.38
225.746	5.62
225.98	12.62
226.215	17.62
226.449	15.62
226.683	22.62
226.918	13.62
227.152	32.62
227.387	31.62
227.621	36.62
227.856	26.62
228.09	56.62
228.324	53.62
228.559	61.62
228.793	79.62
229.027	108.62
229.262	132.62
229.496	112.62
229.73	130.62
229.964	118.62
230.199	158.62
230.433	148.62
230.667	136.62
230.901	165.62
231.136	181.62
231.37	166.62
231.604	163.62
231.838	161.62
232.072	165.62
232.306	162.62
232.541	172.62
232.775	169.62
233.009	180.62
233.243	168.62
233.477	175.62
233.711	183.62
233.945	162.62
234.179	189.62
234.413	195.62
234.647	176.62
234.881	186.62
235.115	183.62
235.349	179.62
235.583	183.62
235.817	183.62
236.051	193.62
236.285	195.62
236.519	192.62
236.753	201.62
236.987	196.62
237.221	187.62
237.455	197.62
237.689	189.62
237.922	202.62
238.156	190.62
238.39	196.62
238.624	199.62
238.858	215.62
239.091	209.62
239.325	207.62
239.559	219.62
239.793	221.62
240.027	232.62
240.26	216.62
240.494	243.62
240.728	227.62
240.961	218.62
241.195	217.62
241.429	239.62
241.662	234.62
241.896	228.62
242.13	262.62
242.363	247.62
242.597	226.62
242.83	248.62
243.064	254.62
243.298	249.62
243.531	246.62
243.765	268.62
243.998	246.62
244.232	268.62
244.465	257.62
244.699	255.62
244.932	250.62
245.166	266.62
245.399	270.62
245.633	278.62
245.866	289.62
246.099	277.62
246.333	280.62
246.566	281.62
246.8	286.62
247.033	280.62
247.266	283.62
247.5	282.62
247.733	281.62
247.966	296.62
248.2	297.62
248.433	295.62
248.666	289.62
248.899	295.62
249.133	296.62
249.366	319.62
249.599	309.62
249.832	308.62
250.066	306.62
250.299	328.62
250.532	334.62
250.765	329.62
250.998	313.62
251.231	323.62
251.465	335.62
251.698	331.62
251.931	340.62
252.164	333.62
252.397	345.62
252.63	360.62
252.863	332.62
253.096	349.62
253.329	351.62
253.562	338.62
253.795	343.62
254.028	356.62
254.261	355.62
254.494	344.62
254.727	355.62
254.96	354.62
255.193	352.62
255.426	365.62
255.659	347.62
255.892	352.62
256.124	361.62
256.357	382.62
256.59	392.62
256.823	378.62
257.056	401.62
257.289	357.62
257.521	377.62
257.754	375.62
257.987	372.62
258.22	405.62
258.452	388.62
258.685	413.62
258.918	407.62
259.151	404.62
259.383	392.62
259.616	382.62
259.849	398.62
260.081	397.62
260.314	399.62
260.547	399.62
260.779	410.62
261.012	404.62
261.244	410.62
261.477	405.62
261.71	390.62
261.942	410.62
262.175	402.62
262.407	438.62
262.64	415.62
262.872	408.62
263.105	412.62
263.337	429.62
263.57	435.62
263.802	440.62
264.035	443.62
264.267	446.62
264.499	434.62
264.732	424.62
264.964	442.62
265.197	425.62
265.429	449.62
265.661	443.62
265.894	447.62
266.126	440.62
266.358	475.62
266.591	435.62
266.823	474.62
267.055	471.62
267.287	474.62
267.52	488.62
267.752	458.62
267.984	458.62
268.216	476.62
268.448	472.62
268.681	492.62
268.913	476.62
269.145	466.62
269.377	493.62
269.609	500.62
269.841	497.62
270.073	464.62
270.306	499.62
270.538	482.62
270.77	468.62
271.002	473.62
271.234	497.62
271.466	475.62
271.698	493.62
271.93	501.62
272.162	500.62
272.394	513.62
272.626	526.62
272.858	499.62
273.09	494.62
273.322	538.62
273.553	511.62
273.785	521.62
274.017	534.62
274.249	520.62
274.481	512.62
274.713	516.62
274.945	524.62
275.176	520.62
275.408	543.62
275.64	525.62
275.872	553.62
276.104	552.62
276.335	547.62
276.567	553.62
276.799	550.62
277.031	560.62
277.262	541.62
277.494	554.62
277.726	555.62
277.957	566.62
278.189	522.62
278.421	564.62
278.652	581.62
278.884	553.62
279.115	555.62
279.347	551.62
279.579	586.62
279.81	577.62
280.042	581.62
280.273	574.62
280.505	580.62
280.736	590.62
280.968	587.62
281.199	602.62
281.431	608.62
281.662	590.62
281.894	582.62
282.125	633.62
282.356	616.62
282.588	633.62
282.819	616.62
283.051	597.62
283.282	618.62
283.513	625.62
283.745	630.62
283.976	634.62
284.207	639.62
284.439	621.62
284.67	653.62
284.901	644.62
285.132	644.62
285.364	620.62
285.595	630.62
285.826	626.62
286.057	640.62
286.288	644.62
286.52	641.62
286.751	653.62
286.982	635.62
287.213	655.62
287.444	666.62
287.675	661.62
287.906	664.62
288.138	648.62
288.369	645.62
288.6	692.62
288.831	688.62
289.062	677.62
289.293	656.62
289.524	678.62
289.755	680.62
289.986	662.62
290.217	682.62
290.448	672.62
290.679	672.62
290.91	682.62
291.141	698.62
291.371	703.62
291.602	680.62
291.833	685.62
292.064	706.62
292.295	695.62
292.526	676.62
292.757	691.62
292.987	675.62
293.218	690.62
293.449	693.62
293.68	683.62
293.91	698.62
294.141	670.62
294.372	684.62
294.603	692.62
294.833	711.62
295.064	714.62
295.295	685.62
295.525	702.62
295.756	701.62
295.987	706.62
296.217	719.62
296.448	692.62
296.679	703.62
296.909	697.62
297.14	708.62
297.37	762.62
297.601	752.62
297.831	725.62
298.062	744.62
298.292	739.62
298.523	780.62
298.753	769.62
298.984	733.62
299.214	766.62
299.445	744.62
299.675	722.62
299.905	752.62
300.136	749.62
300.366	746.62
300.597	781.62
300.827	776.62
301.057	774.62
301.288	806.62
301.518	792.62
301.748	787.62
301.979	782.62
302.209	820.62
302.439	805.62
302.669	776.62
302.9	784.62
303.13	802.62
303.36	768.62
303.59	775.62
303.82	753.62
304.051	784.62
304.281	797.62
304.511	764.62
304.741	783.62
304.971	783.62
305.201	758.62
305.431	784.62
305.661	771.62
305.891	769.62
306.121	769.62
306.352	774.62
306.582	758.62
306.812	747.62
307.042	797.62
307.272	771.62
307.502	762.62
307.731	742.62
307.961	755.62
308.191	770.62
308.421	748.62
308.651	760.62
308.881	749.62
309.111	746.62
309.341	746.62
309.571	779.62
309.8	784.62
310.03	753.62
310.26	749.62
310.49	769.62
310.72	780.62
310.949	763.62
311.179	765.62
311.409	760.62
311.639	778.62
311.868	768.62
312.098	800.62
312.328	780.62
312.557	806.62
312.787	800.62
313.017	798.62
313.246	812.62
313.476	817.62
313.706	821.62
313.935	829.62
314.165	818.62
314.394	822.62
314.624	820.62
314.853	824.62
315.083	809.62
315.312	804.62
315.542	809.62
315.771	827.62
316.001	808.62
316.23	816.62
316.46	808.62
316.689	824.62
316.919	826.62
317.148	824.62
317.377	801.62
317.607	786.62
317.836	783.62
318.065	806.62
318.295	836.62
318.524	805.62
318.753	825.62
318.983	810.62
319.212	771.62
319.441	784.62
319.67	800.62
319.9	809.62
320.129	805.62
320.358	780.62
320.587	792.62
320.816	820.62
321.046	819.62
321.275	829.62
321.504	790.62
321.733	811.62
321.962	793.62
322.191	807.62
322.42	811.62
322.649	796.62
322.878	824.62
323.108	850.62
323.337	836.62
323.566	818.62
323.795	837.62
324.024	839.62
324.253	808.62
324.482	843.62
324.71	826.62
324.939	809.62
325.168	858.62
325.397	823.62
325.626	856.62
325.855	893.62
326.084	851.62
326.313	898.62
326.542	904.62
326.77	887.62
326.999	862.62
327.228	878.62
327.457	878.62
327.686	853.62
327.914	878.62
328.143	889.62
328.372	872.62
328.6	899.62
328.829	881.62
329.058	888.62
329.287	879.62
329.515	899.62
329.744	902.62
329.972	893.62
330.201	901.62
330.43	909.62
330.658	912.62
330.887	898.62
331.115	922.62
331.344	929.62
331.572	931.62
331.801	959.62
332.03	996.62
332.258	1010.62
332.486	1032.62
332.715	1059.62
332.943	1116.62
333.172	1116.62
333.4	1185.62
333.629	1202.62
333.857	1217.62
334.085	1203.62
334.314	1202.62
334.542	1202.62
334.771	1124.62
334.999	1127.62
335.227	1128.62
335.455	1100.62
335.684	1118.62
335.912	1140.62
336.14	1139.62
336.369	1097.62
336.597	1106.62
336.825	1071.62
337.053	1061.62
337.281	1042.62
337.51	1006.62
337.738	1004.62
337.966	1007.62
338.194	1003.62
338.422	985.62
338.65	965.62
338.878	957.62
339.106	942.62
339.334	962.62
339.562	956.62
339.79	932.62
340.018	928.62
340.246	917.62
340.474	902.62
340.702	929.62
340.93	929.62
341.158	913.62
341.386	924.62
341.614	935.62
341.842	921.62
342.07	935.62
342.298	922.62
342.526	911.62
342.754	917.62
342.981	924.62
343.209	929.62
343.437	1015.62
343.665	1060.62
343.893	1117.62
344.12	1176.62
344.348	1140.62
344.576	1070.62
344.804	1015.62
345.031	955.62
345.259	941.62
345.487	946.62
345.714	937.62
345.942	941.62
346.17	923.62
346.397	907.62
346.625	898.62
346.853	874.62
347.08	899.62
347.308	893.62
347.535	899.62
347.763	898.62
347.99	892.62
348.218	897.62
348.445	876.62
348.673	896.62
348.9	892.62
349.128	889.62
349.355	876.62
349.583	883.62
349.81	875.62
350.037	873.62
350.265	859.62
350.492	886.62
350.72	851.62
350.947	875.62
351.174	864.62
351.402	855.62
351.629	885.62
351.856	876.62
352.083	852.62
352.311	868.62
352.538	866.62
352.765	856.62
352.992	863.62
353.22	854.62
353.447	857.62
353.674	855.62
353.901	842.62
354.128	845.62
354.355	830.62
354.583	844.62
354.81	872.62
355.037	844.62
355.264	857.62
355.491	849.62
355.718	850.62
355.945	902.62
356.172	861.62
356.399	862.62
356.626	869.62
356.853	895.62
357.08	869.62
357.307	868.62
357.534	844.62
357.761	894.62
357.988	871.62
358.215	858.62
358.441	835.62
358.668	845.62
358.895	880.62
359.122	828.62
359.349	861.62
359.576	882.62
359.802	833.62
360.029	885.62
360.256	898.62
360.483	880.62
360.709	860.62
360.936	864.62
361.163	867.62
361.39	865.62
361.616	882.62
361.843	850.62
362.07	867.62
362.296	887.62
362.523	835.62
362.749	848.62
362.976	869.62
363.203	873.62
363.429	851.62
363.656	847.62
363.882	857.62
364.109	844.62
364.335	831.62
364.562	846.62
364.788	868.62
365.015	863.62
365.241	841.62
365.468	854.62
365.694	866.62
365.92	863.62
366.147	836.62
366.373	836.62
366.599	875.62
366.826	885.62
367.052	851.62
367.278	856.62
367.505	860.62
367.731	848.62
367.957	866.62
368.184	864.62
368.41	854.62
368.636	870.62
368.862	892.62
369.089	886.62
369.315	876.62
369.541	888.62
369.767	910.62
369.993	898.62
370.219	899.62
370.445	902.62
370.672	916.62
370.898	909.62
371.124	917.62
371.35	951.62
371.576	930.62
371.802	937.62
372.028	955.62
372.254	918.62
372.48	933.62
372.706	962.62
372.932	969.62
373.158	997.62
373.384	981.62
373.61	930.62
373.835	944.62
374.061	937.62
374.287	938.62
374.513	963.62
374.739	1003.62
374.965	1046.62
375.191	1022.62
375.416	1073.62
375.642	1014.62
375.868	963.62
376.094	989.62
376.319	960.62
376.545	937.62
376.771	947.62
376.997	944.62
377.222	937.62
377.448	926.62
377.674	954.62
377.899	939.62
378.125	956.62
378.35	927.62
378.576	908.62
378.802	925.62
379.027	937.62
379.253	933.62
379.478	940.62
379.704	933.62
379.929	941.62
380.155	913.62
380.38	900.62
380.606	938.62
380.831	938.62
381.057	911.62
381.282	924.62
381.507	909.62
381.733	927.62
381.958	916.62
382.184	944.62
382.409	946.62
382.634	985.62
382.86	967.62
383.085	975.62
383.31	1013.62
383.535	1034.62
383.761	1053.62
383.986	1055.62
384.211	1082.62
384.436	1106.62
384.662	1083.62
384.887	1126.62
385.112	1145.62
385.337	1156.62
385.562	1104.62
385.787	1148.62
386.013	1159.62
386.238	1147.62
386.463	1148.62
386.688	1152.62
386.913	1134.62
387.138	1125.62
387.363	1142.62
387.588	1120.62
387.813	1132.62
388.038	1103.62
388.263	1139.62
388.488	1144.62
388.713	1117.62
388.938	1116.62
389.163	1102.62
389.387	1083.62
389.612	1091.62
389.837	1121.62
390.062	1095.62
390.287	1112.62
390.512	1129.62
390.736	1115.62
390.961	1159.62
391.186	1199.62
391.411	1202.62
391.636	1220.62
391.86	1290.62
392.085	1299.62
392.31	1296.62
392.534	1254.62
392.759	1257.62
392.984	1246.62
393.208	1216.62
393.433	1190.62
393.658	1241.62
393.882	1227.62
394.107	1206.62
394.331	1220.62
394.556	1192.62
394.78	1195.62
395.005	1273.62
395.229	1199.62
395.454	1276.62
395.678	1312.62
395.903	1296.62
396.127	1260.62
396.352	1237.62
396.576	1184.62
396.801	1180.62
397.025	1244.62
397.249	1243.62
397.474	1301.62
397.698	1297.62
397.922	1277.62
398.147	1324.62
398.371	1318.62
398.595	1358.62
398.82	1434.62
399.044	1539.62
399.268	1659.62
399.492	1917.62
399.717	2192.62
399.941	2195.62
400.165	1968.62
400.389	1824.62
400.613	1650.62
400.837	1546.62
401.062	1538.62
401.286	1487.62
401.51	1458.62
401.734	1481.62
401.958	1482.62
402.182	1499.62
402.406	1542.62
402.63	1505.62
402.854	1540.62
403.078	1565.62
403.302	1575.62
403.526	1619.62
403.75	1657.62
403.974	1644.62
404.198	1668.62
404.422	1676.62
404.645	1684.62
404.869	1637.62
405.093	1633.62
405.317	1582.62
405.541	1610.62
405.765	1615.62
405.988	1600.62
406.212	1595.62
406.436	1601.62
406.66	1673.62
406.883	1648.62
407.107	1753.62
407.331	1846.62
407.555	1903.62
407.778	1883.62
408.002	1835.62
408.226	1783.62
408.449	1763.62
408.673	1699.62
408.896	1637.62
409.12	1629.62
409.344	1606.62
409.567	1592.62
409.791	1645.62
410.014	1641.62
410.238	1607.62
410.461	1613.62
410.685	1584.62
410.908	1551.62
411.132	1539.62
411.355	1498.62
411.578	1479.62
411.802	1498.62
412.025	1497.62
412.249	1533.62
412.472	1532.62
412.695	1508.62
412.919	1487.62
413.142	1441.62
413.365	1449.62
413.589	1470.62
413.812	1452.62
414.035	1420.62
414.258	1445.62
414.482	1450.62
414.705	1495.62
414.928	1479.62
415.151	1444.62
415.374	1431.62
415.597	1410.62
415.821	1438.62
416.044	1409.62
416.267	1399.62
416.49	1397.62
416.713	1402.62
416.936	1394.62
417.159	1389.62
417.382	1404.62
417.605	1376.62
417.828	1406.62
418.051	1442.62
418.274	1444.62
418.497	1414.62
418.72	1441.62
418.943	1455.62
419.166	1570.62
419.389	1655.62
419.611	1605.62
419.834	1524.62
420.057	1493.62
420.28	1447.62
420.503	1405.62
420.726	1420.62
420.948	1408.62
421.171	1394.62
421.394	1415.62
421.617	1409.62
421.839	1453.62
422.062	1412.62
422.285	1378.62
422.507	1450.62
422.73	1410.62
422.953	1463.62
423.175	1468.62
423.398	1466.62
423.621	1489.62
423.843	1489.62
424.066	1489.62
424.288	1480.62
424.511	1483.62
424.733	1447.62
424.956	1439.62
425.178	1426.62
425.401	1468.62
425.623	1399.62
425.846	1382.62
426.068	1390.62
426.291	1324.62
426.513	1327.62
426.735	1311.62
426.958	1341.62
427.18	1331.62
427.402	1274.62
427.625	1298.62
427.847	1248.62
428.069	1278.62
428.292	1290.62
428.514	1259.62
428.736	1226.62
428.958	1278.62
429.181	1228.62
429.403	1226.62
429.625	1234.62
429.847	1219.62
430.069	1196.62
430.292	1221.62
430.514	1182.62
430.736	1217.62
430.958	1248.62
431.18	1200.62
431.402	1230.62
431.624	1226.62
431.846	1257.62
432.068	1280.62
432.29	1262.62
432.512	1259.62
432.734	1262.62
432.956	1231.62
433.178	1260.62
433.4	1216.62
433.622	1287.62
433.844	1257.62
434.066	1264.62
434.287	1283.62
434.509	1307.62
434.731	1344.62
434.953	1378.62
435.175	1408.62
435.397	1372.62
435.618	1288.62
435.84	1286.62
436.062	1278.62
436.284	1227.62
436.505	1248.62
436.727	1242.62
436.949	1222.62
437.17	1261.62
437.392	1206.62
437.614	1216.62
437.835	1212.62
438.057	1191.62
438.278	1160.62
438.5	1171.62
438.721	1176.62
438.943	1243.62
439.165	1191.62
439.386	1221.62
439.608	1210.62
439.829	1238.62
440.05	1232.62
440.272	1244.62
440.493	1228.62
440.715	1279.62
440.936	1286.62
441.158	1308.62
441.379	1308.62
441.6	1413.62
441.822	1408.62
442.043	1438.62
442.264	1387.62
442.486	1363.62
442.707	1362.62
442.928	1346.62
443.149	1377.62
443.371	1352.62
443.592	1393.62
443.813	1440.62
444.034	1408.62
444.255	1476.62
444.476	1524.62
444.698	1612.62
444.919	1699.62
445.14	1755.62
445.361	1585.62
445.582	1452.62
445.803	1396.62
446.024	1332.62
446.245	1300.62
446.466	1293.62
446.687	1256.62
446.908	1264.62
447.129	1242.62
447.35	1186.62
447.571	1184.62
447.792	1172.62
448.013	1170.62
448.234	1155.62
448.455	1154.62
448.675	1153.62
448.896	1144.62
449.117	1124.62
449.338	1113.62
449.559	1117.62
449.779	1106.62
450	1100.62
450.221	1093.62
450.442	1131.62
450.662	1137.62
450.883	1146.62
451.104	1143.62
451.324	1137.62
451.545	1170.62
451.766	1150.62
451.986	1136.62
452.207	1128.62
452.428	1143.62
452.648	1101.62
452.869	1094.62
453.089	1106.62
453.31	1097.62
453.53	1059.62
453.751	1088.62
453.971	1060.62
454.192	1083.62
454.412	1042.62
454.633	1063.62
454.853	1058.62
455.073	1056.62
455.294	1085.62
455.514	1074.62
455.734	1068.62
455.955	1030.62
456.175	1058.62
456.395	1042.62
456.616	1054.62
456.836	1078.62
457.056	1046.62
457.276	1046.62
457.497	1096.62
457.717	1030.62
457.937	1083.62
458.157	1064.62
458.377	1080.62
458.598	1100.62
458.818	1162.62
459.038	1180.62
459.258	1230.62
459.478	1270.62
459.698	1289.62
459.918	1349.62
460.138	1376.62
460.358	1474.62
460.578	1507.62
460.798	1521.62
461.018	1492.62
461.238	1482.62
461.458	1493.62
461.678	1492.62
461.898	1521.62
462.118	1509.62
462.338	1615.62
462.558	1618.62
462.777	1700.62
462.997	1853.62
463.217	1996.62
463.437	1966.62
463.657	1867.62
463.876	1778.62
464.096	1761.62
464.316	1723.62
464.536	1722.62
464.755	1646.62
464.975	1603.62
465.195	1532.62
465.414	1467.62
465.634	1376.62
465.854	1305.62
466.073	1251.62
466.293	1260.62
466.512	1239.62
466.732	1202.62
466.951	1208.62
467.171	1160.62
467.391	1164.62
467.61	1190.62
467.829	1185.62
468.049	1166.62
468.268	1162.62
468.488	1132.62
468.707	1114.62
468.927	1161.62
469.146	1185.62
469.365	1164.62
469.585	1150.62
469.804	1177.62
470.023	1213.62
470.243	1200.62
470.462	1234.62
470.681	1236.62
470.901	1259.62
471.12	1218.62
471.339	1203.62
471.558	1175.62
471.777	1157.62
471.997	1165.62
472.216	1156.62
472.435	1130.62
472.654	1106.62
472.873	1099.62
473.092	1069.62
473.311	1117.62
473.53	1104.62
473.749	1090.62
473.968	1111.62
474.187	1101.62
474.406	1125.62
474.625	1093.62
474.844	1096.62
475.063	1150.62
475.282	1152.62
475.501	1131.62
475.72	1146.62
475.939	1149.62
476.158	1144.62
476.377	1150.62
476.596	1172.62
476.814	1195.62
477.033	1185.62
477.252	1219.62
477.471	1235.62
477.69	1255.62
477.908	1281.62
478.127	1337.62
478.346	1306.62
478.564	1357.62
478.783	1376.62
479.002	1406.62
479.22	1404.62
479.439	1409.62
479.658	1422.62
479.876	1414.62
480.095	1428.62
480.313	1493.62
480.532	1537.62
480.751	1517.62
480.969	1469.62
481.188	1395.62
481.406	1338.62
481.624	1328.62
481.843	1280.62
482.061	1281.62
482.28	1275.62
482.498	1260.62
482.717	1263.62
482.935	1281.62
483.153	1285.62
483.372	1273.62
483.59	1248.62
483.808	1222.62
484.027	1275.62
484.245	1290.62
484.463	1302.62
484.681	1304.62
484.9	1296.62
485.118	1336.62
485.336	1310.62
485.554	1336.62
485.772	1334.62
485.99	1362.62
486.209	1357.62
486.427	1346.62
486.645	1353.62
486.863	1337.62
487.081	1332.62
487.299	1347.62
487.517	1348.62
487.735	1298.62
487.953	1314.62
488.171	1334.62
488.389	1326.62
488.607	1342.62
488.825	1301.62
489.043	1306.62
489.261	1297.62
489.479	1308.62
489.696	1323.62
489.914	1323.62
490.132	1305.62
490.35	1338.62
490.568	1338.62
490.786	1329.62
491.003	1330.62
491.221	1369.62
491.439	1354.62
491.657	1346.62
491.874	1347.62
492.092	1343.62
492.31	1351.62
492.527	1369.62
492.745	1397.62
492.963	1404.62
493.18	1386.62
493.398	1374.62
493.615	1419.62
493.833	1426.62
494.05	1431.62
494.268	1400.62
494.485	1404.62
494.703	1433.62
494.92	1421.62
495.138	1394.62
495.355	1433.62
495.573	1438.62
495.79	1453.62
496.008	1458.62
496.225	1475.62
496.442	1475.62
496.66	1526.62
496.877	1516.62
497.094	1548.62
497.312	1601.62
497.529	1580.62
497.746	1659.62
497.963	1716.62
498.181	1718.62
498.398	1898.62
498.615	1991.62
498.832	2133.62
499.049	2247.62
499.267	2524.62
499.484	2718.62
499.701	2995.62
499.918	3317.62
500.135	3785.62
500.352	4322.62
500.569	4423.62
500.786	4479.62
501.003	4157.62
501.22	3776.62
501.437	3273.62
501.654	2961.62
501.871	2694.62
502.088	2464.62
502.305	2242.62
502.522	2114.62
502.739	2081.62
502.956	1947.62
503.172	1889.62
503.389	1796.62
503.606	1722.62
503.823	1696.62
504.04	1706.62
504.256	1692.62
504.473	1716.62
504.69	1694.62
504.907	1704.62
505.123	1615.62
505.34	1520.62
505.557	1444.62
505.773	1426.62
505.99	1368.62
506.207	1337.62
506.423	1323.62
506.64	1305.62
506.856	1309.62
507.073	1272.62
507.289	1278.62
507.506	1267.62
507.722	1272.62
507.939	1253.62
508.155	1241.62
508.372	1230.62
508.588	1238.62
508.805	1189.62
509.021	1186.62
509.238	1221.62
509.454	1166.62
509.67	1174.62
509.887	1171.62
510.103	1175.62
510.319	1129.62
510.536	1186.62
510.752	1152.62
510.968	1126.62
511.184	1158.62
511.401	1140.62
511.617	1158.62
511.833	1150.62
512.049	1157.62
512.265	1185.62
512.481	1151.62
512.698	1114.62
512.914	1133.62
513.13	1164.62
513.346	1149.62
513.562	1130.62
513.778	1159.62
513.994	1137.62
514.21	1162.62
514.426	1154.62
514.642	1199.62
514.858	1163.62
515.074	1210.62
515.29	1220.62
515.506	1252.62
515.721	1216.62
515.937	1245.62
516.153	1282.62
516.369	1317.62
516.585	1322.62
516.801	1387.62
517.016	1408.62
517.232	1488.62
517.448	1543.62
517.664	1654.62
517.879	1648.62
518.095	1618.62
518.311	1614.62
518.527	1547.62
518.742	1483.62
518.958	1389.62
519.173	1328.62
519.389	1328.62
519.605	1289.62
519.82	1264.62
520.036	1222.62
520.251	1188.62
520.467	1182.62
520.682	1146.62
520.898	1133.62
521.113	1141.62
521.329	1127.62
521.544	1140.62
521.76	1099.62
521.975	1092.62
522.19	1090.62
522.406	1110.62
522.621	1111.62
522.836	1097.62
523.052	1109.62
523.267	1074.62
523.482	1065.62
523.698	1076.62
523.913	1062.62
524.128	1088.62
524.343	1058.62
524.559	1062.62
524.774	1057.62
524.989	1068.62
525.204	1058.62
525.419	1028.62
525.634	1039.62
525.849	1062.62
526.064	1039.62
526.28	1034.62
526.495	1058.62
526.71	1033.62
526.925	994.62
527.14	1024.62
527.355	1014.62
527.57	1006.62
527.785	1001.62
527.999	1035.62
528.214	1037.62
528.429	1032.62
528.644	1045.62
528.859	1006.62
529.074	1026.62
529.289	1018.62
529.503	1033.62
529.718	1038.62
529.933	1017.62
530.148	1031.62
530.363	1023.62
530.577	997.62
530.792	1012.62
531.007	988.62
531.221	1024.62
531.436	1036.62
531.651	1038.62
531.865	1013.62
532.08	1037.62
532.295	1033.62
532.509	1042.62
532.724	1037.62
532.938	1011.62
533.153	1016.62
533.367	1012.62
533.582	1013.62
533.796	1024.62
534.011	1011.62
534.225	1027.62
534.44	1013.62
534.654	981.62
534.868	980.62
535.083	988.62
535.297	999.62
535.511	956.62
535.726	948.62
535.94	984.62
536.154	956.62
536.369	956.62
536.583	966.62
536.797	959.62
537.011	915.62
537.225	938.62
537.44	936.62
537.654	963.62
537.868	912.62
538.082	910.62
538.296	926.62
538.51	921.62
538.724	920.62
538.938	921.62
539.153	937.62
539.367	939.62
539.581	957.62
539.795	922.62
540.009	907.62
540.222	938.62
540.436	916.62
540.65	900.62
540.864	932.62
541.078	927.62
541.292	894.62
541.506	928.62
541.72	923.62
541.934	898.62
542.147	924.62
542.361	895.62
542.575	896.62
542.789	907.62
543.002	897.62
543.216	901.62
543.43	893.62
543.644	881.62
543.857	918.62
544.071	899.62
544.285	901.62
544.498	900.62
544.712	925.62
544.925	963.62
545.139	944.62
545.352	941.62
545.566	955.62
545.779	930.62
545.993	964.62
546.206	952.62
546.42	909.62
546.633	933.62
546.847	942.62
547.06	910.62
547.274	938.62
547.487	924.62
547.7	923.62
547.914	911.62
548.127	940.62
548.34	951.62
548.554	956.62
548.767	955.62
548.98	927.62
549.193	936.62
549.407	947.62
549.62	988.62
549.833	968.62
550.046	977.62
550.259	942.62
550.473	891.62
550.686	938.62
550.899	941.62
551.112	932.62
551.325	916.62
551.538	910.62
551.751	930.62
551.964	901.62
552.177	915.62
552.39	963.62
552.603	971.62
552.816	977.62
553.029	997.62
553.242	1050.62
553.455	1028.62
553.667	1036.62
553.88	1028.62
554.093	986.62
554.306	979.62
554.519	965.62
554.732	931.62
554.944	921.62
555.157	924.62
555.37	869.62
555.583	873.62
555.795	858.62
556.008	836.62
556.221	855.62
556.433	811.62
556.646	803.62
556.859	794.62
557.071	811.62
557.284	795.62
557.496	808.62
557.709	813.62
557.921	779.62
558.134	803.62
558.346	808.62
558.559	806.62
558.771	792.62
558.984	783.62
559.196	789.62
559.409	780.62
559.621	788.62
559.833	789.62
560.046	770.62
560.258	734.62
560.47	772.62
560.683	756.62
560.895	766.62
561.107	736.62
561.32	735.62
561.532	776.62
561.744	781.62
561.956	767.62
562.168	780.62
562.381	752.62
562.593	773.62
562.805	794.62
563.017	768.62
563.229	761.62
563.441	771.62
563.653	786.62
563.865	796.62
564.077	809.62
564.289	791.62
564.501	813.62
564.713	810.62
564.925	835.62
565.137	873.62
565.349	859.62
565.561	892.62
565.773	925.62
565.985	970.62
566.197	1042.62
566.408	1102.62
566.62	1217.62
566.832	1284.62
567.044	1320.62
567.255	1304.62
567.467	1370.62
567.679	1439.62
567.891	1462.62
568.102	1540.62
568.314	1437.62
568.526	1315.62
568.737	1228.62
568.949	1098.62
569.161	1015.62
569.372	953.62
569.584	910.62
569.795	867.62
570.007	833.62
570.218	835.62
570.43	806.62
570.641	785.62
570.853	810.62
571.064	791.62
571.276	772.62
571.487	774.62
571.698	758.62
571.91	707.62
572.121	719.62
572.333	685.62
572.544	671.62
572.755	664.62
572.966	663.62
573.178	665.62
573.389	641.62
573.6	653.62
573.811	628.62
574.023	634.62
574.234	632.62
574.445	636.62
574.656	624.62
574.867	632.62
575.078	629.62
575.289	617.62
575.501	613.62
575.712	598.62
575.923	588.62
576.134	618.62
576.345	615.62
576.556	581.62
576.767	600.62
576.978	592.62
577.188	610.62
577.399	577.62
577.61	583.62
577.821	541.62
578.032	573.62
578.243	576.62
578.454	557.62
578.665	567.62
578.875	574.62
579.086	566.62
579.297	551.62
579.508	576.62
579.718	531.62
579.929	523.62
580.14	544.62
580.35	547.62
580.561	548.62
580.772	525.62
580.982	518.62
581.193	535.62
581.403	544.62
581.614	526.62
581.825	549.62
582.035	530.62
582.246	505.62
582.456	536.62
582.667	534.62
582.877	522.62
583.087	528.62
583.298	514.62
583.508	533.62
583.719	514.62
583.929	534.62
584.139	520.62
584.35	529.62
584.56	499.62
584.77	513.62
584.981	514.62
585.191	510.62
585.401	503.62
585.611	496.62
585.821	501.62
586.032	514.62
586.242	532.62
586.452	500.62
586.662	519.62
586.872	526.62
587.082	522.62
587.292	492.62
587.502	483.62
587.713	498.62
587.923	499.62
588.133	481.62
588.343	482.62
588.553	500.62
588.762	507.62
588.972	517.62
589.182	514.62
589.392	530.62
589.602	486.62
589.812	506.62
590.022	519.62
590.232	514.62
590.441	506.62
590.651	539.62
590.861	493.62
591.071	514.62
591.281	525.62
591.49	527.62
591.7	553.62
591.91	561.62
592.119	556.62
592.329	562.62
592.539	575.62
592.748	590.62
592.958	616.62
593.167	615.62
593.377	631.62
593.587	621.62
593.796	642.62
594.006	644.62
594.215	649.62
594.424	650.62
594.634	638.62
594.843	608.62
595.053	584.62
595.262	577.62
595.472	537.62
595.681	532.62
595.89	542.62
596.1	507.62
596.309	504.62
596.518	490.62
596.727	470.62
596.937	470.62
597.146	447.62
597.355	451.62
597.564	465.62
597.774	449.62
597.983	447.62
598.192	461.62
598.401	437.62
598.61	427.62
598.819	443.62
599.028	432.62
599.237	435.62
599.446	417.62
599.655	438.62
599.864	422.62
600.073	403.62
600.282	414.62
600.491	410.62
600.7	410.62
600.909	404.62
601.118	407.62
601.327	401.62
601.536	397.62
601.745	402.62
601.953	409.62
602.162	409.62
602.371	421.62
602.58	390.62
602.789	385.62
602.997	414.62
603.206	402.62
603.415	403.62
603.623	382.62
603.832	396.62
604.041	411.62
604.249	398.62
604.458	409.62
604.666	379.62
604.875	384.62
605.084	381.62
605.292	374.62
605.501	395.62
605.709	384.62
605.918	374.62
606.126	379.62
606.334	362.62
606.543	376.62
606.751	369.62
606.96	378.62
607.168	378.62
607.376	385.62
607.585	372.62
607.793	376.62
608.001	381.62
608.21	380.62
608.418	363.62
608.626	365.62
608.834	373.62
609.043	357.62
609.251	373.62
609.459	357.62
609.667	372.62
609.875	348.62
610.083	348.62
610.291	366.62
610.499	367.62
610.707	374.62
610.916	380.62
611.124	371.62
611.332	360.62
611.54	346.62
611.748	352.62
611.955	357.62
612.163	363.62
612.371	342.62
612.579	351.62
612.787	350.62
612.995	347.62
613.203	349.62
613.411	357.62
613.618	370.62
613.826	362.62
614.034	354.62
614.242	359.62
614.449	340.62
614.657	346.62
614.865	352.62
615.072	348.62
615.28	349.62
615.488	345.62
615.695	354.62
615.903	355.62
616.111	344.62
616.318	361.62
616.526	348.62
616.733	354.62
616.941	344.62
617.148	340.62
617.356	338.62
617.563	349.62
617.771	369.62
617.978	352.62
618.185	343.62
618.393	355.62
618.6	353.62
618.807	338.62
619.015	353.62
619.222	344.62
619.429	336.62
619.637	368.62
619.844	355.62
620.051	317.62
620.258	334.62
620.466	328.62
620.673	321.62
620.88	328.62
621.087	328.62
621.294	323.62
621.501	334.62
621.708	322.62
621.915	324.62
622.122	322.62
622.329	328.62
622.536	348.62
622.743	331.62
622.95	331.62
623.157	306.62
623.364	316.62
623.571	311.62
623.778	336.62
623.985	304.62
624.192	315.62
624.399	325.62
624.606	300.62
624.812	302.62
625.019	291.62
625.226	298.62
625.433	309.62
625.639	310.62
625.846	308.62
626.053	304.62
626.259	304.62
626.466	302.62
626.673	292.62
626.879	303.62
627.086	292.62
627.293	291.62
627.499	297.62
627.706	293.62
627.912	294.62
628.119	298.62
628.325	282.62
628.532	297.62
628.738	288.62
628.945	283.62
629.151	265.62
629.357	257.62
629.564	278.62
629.77	277.62
629.976	284.62
630.183	266.62
630.389	283.62
630.595	272.62
630.802	275.62
631.008	286.62
631.214	267.62
631.42	261.62
631.627	273.62
631.833	262.62
632.039	277.62
632.245	262.62
632.451	264.62
632.657	256.62
632.863	248.62
633.069	257.62
633.275	263.62
633.481	282.62
633.688	264.62
633.893	256.62
634.099	251.62
634.305	266.62
634.511	256.62
634.717	260.62
634.923	261.62
635.129	245.62
635.335	265.62
635.541	260.62
635.747	262.62
635.952	252.62
636.158	241.62
636.364	242.62
636.57	243.62
636.775	256.62
636.981	247.62
637.187	243.62
637.392	240.62
637.598	232.62
637.804	252.62
638.009	239.62
638.215	244.62
638.421	238.62
638.626	260.62
638.832	237.62
639.037	229.62
639.243	241.62
639.448	240.62
639.654	245.62
639.859	227.62
640.065	229.62
640.27	228.62
640.475	235.62
640.681	233.62
640.886	243.62
641.091	242.62
641.297	247.62
641.502	223.62
641.707	233.62
641.913	233.62
642.118	233.62
642.323	232.62
642.528	233.62
642.733	236.62
642.939	230.62
643.144	222.62
643.349	215.62
643.554	235.62
643.759	210.62
643.964	210.62
644.169	239.62
644.374	217.62
644.579	217.62
644.784	221.62
644.989	218.62
645.194	223.62
645.399	218.62
645.604	221.62
645.809	237.62
646.014	214.62
646.219	207.62
646.423	223.62
646.628	235.62
646.833	221.62
647.038	212.62
647.243	230.62
647.447	236.62
647.652	248.62
647.857	231.62
648.062	234.62
648.266	232.62
648.471	237.62
648.676	230.62
648.88	217.62
649.085	225.62
649.289	216.62
649.494	230.62
649.698	211.62
649.903	219.62
650.107	214.62
650.312	219.62
650.516	211.62
650.721	206.62
650.925	201.62
651.13	199.62
651.334	187.62
651.539	188.62
651.743	198.62
651.947	194.62
652.152	202.62
652.356	194.62
652.56	185.62
652.764	184.62
652.969	167.62
653.173	173.62
653.377	187.62
653.581	176.62
653.785	166.62
653.99	176.62
654.194	163.62
654.398	166.62
654.602	162.62
654.806	168.62
655.01	164.62
655.214	149.62
655.418	150.62
655.622	162.62
655.826	156.62
656.03	156.62
656.234	135.62
656.438	144.62
656.642	143.62
656.846	141.62
657.049	154.62
657.253	139.62
657.457	140.62
657.661	139.62
657.865	132.62
658.068	124.62
658.272	121.62
658.476	123.62
658.68	106.62
658.883	114.62
659.087	121.62
659.291	110.62
659.494	124.62
659.698	105.62
659.901	98.62
660.105	99.62
660.309	90.62
660.512	113.62
660.716	94.62
660.919	107.62
661.123	99.62
661.326	87.62
661.53	89.62
661.733	88.62
661.936	96.62
662.14	91.62
662.343	88.62
662.546	87.62
662.75	97.62
662.953	92.62
663.156	92.62
663.36	78.62
663.563	72.62
663.766	104.62
663.969	86.62
664.173	76.62
664.376	71.62
664.579	72.62
664.782	90.62
664.985	80.62
665.188	89.62
665.391	83.62
665.594	81.62
665.797	74.62
666	69.62
666.203	96.62
666.406	85.62
666.609	70.62
666.812	86.62
667.015	82.62
667.218	87.62
667.421	76.62
667.624	71.62
667.827	90.62
668.03	86.62
668.232	85.62
668.435	78.62
668.638	102.62
668.841	84.62
669.043	99.62
669.246	84.62
669.449	78.62
669.651	83.62
669.854	96.62
670.057	101.62
670.259	92.62
670.462	92.62
670.665	89.62
670.867	79.62
671.07	87.62
671.272	78.62
671.475	91.62
671.677	85.62
671.88	84.62
672.082	71.62
672.284	84.62
672.487	77.62
672.689	85.62
672.892	82.62
