Data from NiCl2@0.125M.TitratingCurve.Agarose3%dH2O.NegLispCup.LampEnergy10.LIBS07252019_HRD10591_18-27-32-574.txt Node
Date: Thu Jul 25 18:27:32 EDT 2019
User: cochatt
Spectrometer: HR+D1059
Trigger mode: 1
Integration Time (sec): 1.000000E-1
Scans to average: 1
Electric dark correction enabled: true
Nonlinearity correction enabled: false
Boxcar width: 0
XAxis mode: Wavelengths
Number of Pixels in Spectrum: 2048
>>>>>Begin Spectral Data<<<<<
223.165	-22.94
223.4	-22.94
223.635	-22.94
223.869	1.06
224.104	-12.94
224.338	-26.94
224.573	-4.94
224.808	-19.94
225.042	-0.94
225.277	-8.94
225.511	-11.94
225.746	1.06
225.98	16.06
226.215	13.06
226.449	15.06
226.683	17.06
226.918	19.06
227.152	27.06
227.387	36.06
227.621	40.06
227.856	53.06
228.09	59.06
228.324	48.06
228.559	60.06
228.793	72.06
229.027	104.06
229.262	121.06
229.496	110.06
229.73	119.06
229.964	123.06
230.199	146.06
230.433	128.06
230.667	137.06
230.901	133.06
231.136	141.06
231.37	139.06
231.604	140.06
231.838	147.06
232.072	145.06
232.306	154.06
232.541	171.06
232.775	161.06
233.009	150.06
233.243	151.06
233.477	166.06
233.711	158.06
233.945	151.06
234.179	148.06
234.413	155.06
234.647	159.06
234.881	167.06
235.115	161.06
235.349	153.06
235.583	172.06
235.817	152.06
236.051	159.06
236.285	172.06
236.519	163.06
236.753	172.06
236.987	169.06
237.221	165.06
237.455	187.06
237.689	191.06
237.922	172.06
238.156	185.06
238.39	162.06
238.624	179.06
238.858	173.06
239.091	181.06
239.325	171.06
239.559	185.06
239.793	209.06
240.027	182.06
240.26	175.06
240.494	190.06
240.728	200.06
240.961	187.06
241.195	201.06
241.429	208.06
241.662	201.06
241.896	192.06
242.13	208.06
242.363	199.06
242.597	201.06
242.83	199.06
243.064	199.06
243.298	209.06
243.531	208.06
243.765	206.06
243.998	223.06
244.232	225.06
244.465	220.06
244.699	217.06
244.932	219.06
245.166	231.06
245.399	217.06
245.633	222.06
245.866	231.06
246.099	228.06
246.333	234.06
246.566	243.06
246.8	238.06
247.033	225.06
247.266	242.06
247.5	219.06
247.733	240.06
247.966	239.06
248.2	262.06
248.433	256.06
248.666	241.06
248.899	259.06
249.133	255.06
249.366	258.06
249.599	272.06
249.832	245.06
250.066	283.06
250.299	279.06
250.532	268.06
250.765	268.06
250.998	269.06
251.231	266.06
251.465	255.06
251.698	284.06
251.931	272.06
252.164	282.06
252.397	301.06
252.63	272.06
252.863	293.06
253.096	276.06
253.329	294.06
253.562	286.06
253.795	274.06
254.028	305.06
254.261	288.06
254.494	296.06
254.727	288.06
254.96	299.06
255.193	293.06
255.426	289.06
255.659	299.06
255.892	300.06
256.124	304.06
256.357	311.06
256.59	311.06
256.823	308.06
257.056	309.06
257.289	298.06
257.521	318.06
257.754	305.06
257.987	323.06
258.22	315.06
258.452	334.06
258.685	324.06
258.918	322.06
259.151	323.06
259.383	328.06
259.616	330.06
259.849	348.06
260.081	335.06
260.314	321.06
260.547	343.06
260.779	332.06
261.012	347.06
261.244	336.06
261.477	329.06
261.71	341.06
261.942	343.06
262.175	336.06
262.407	323.06
262.64	336.06
262.872	365.06
263.105	336.06
263.337	356.06
263.57	337.06
263.802	343.06
264.035	351.06
264.267	364.06
264.499	360.06
264.732	360.06
264.964	361.06
265.197	344.06
265.429	348.06
265.661	361.06
265.894	383.06
266.126	359.06
266.358	377.06
266.591	376.06
266.823	380.06
267.055	359.06
267.287	371.06
267.52	383.06
267.752	366.06
267.984	373.06
268.216	368.06
268.448	394.06
268.681	383.06
268.913	400.06
269.145	379.06
269.377	383.06
269.609	376.06
269.841	405.06
270.073	391.06
270.306	385.06
270.538	407.06
270.77	396.06
271.002	397.06
271.234	407.06
271.466	391.06
271.698	401.06
271.93	399.06
272.162	415.06
272.394	385.06
272.626	408.06
272.858	392.06
273.09	405.06
273.322	429.06
273.553	435.06
273.785	423.06
274.017	409.06
274.249	412.06
274.481	441.06
274.713	420.06
274.945	420.06
275.176	410.06
275.408	426.06
275.64	439.06
275.872	415.06
276.104	422.06
276.335	452.06
276.567	419.06
276.799	449.06
277.031	433.06
277.262	451.06
277.494	426.06
277.726	437.06
277.957	423.06
278.189	447.06
278.421	447.06
278.652	461.06
278.884	460.06
279.115	447.06
279.347	468.06
279.579	463.06
279.81	460.06
280.042	454.06
280.273	473.06
280.505	471.06
280.736	479.06
280.968	470.06
281.199	476.06
281.431	478.06
281.662	485.06
281.894	473.06
282.125	479.06
282.356	474.06
282.588	487.06
282.819	487.06
283.051	484.06
283.282	511.06
283.513	502.06
283.745	499.06
283.976	489.06
284.207	479.06
284.439	473.06
284.67	517.06
284.901	492.06
285.132	512.06
285.364	505.06
285.595	513.06
285.826	508.06
286.057	506.06
286.288	501.06
286.52	511.06
286.751	503.06
286.982	513.06
287.213	514.06
287.444	504.06
287.675	534.06
287.906	512.06
288.138	532.06
288.369	507.06
288.6	522.06
288.831	518.06
289.062	522.06
289.293	515.06
289.524	537.06
289.755	543.06
289.986	547.06
290.217	546.06
290.448	550.06
290.679	527.06
290.91	543.06
291.141	541.06
291.371	541.06
291.602	544.06
291.833	524.06
292.064	533.06
292.295	541.06
292.526	543.06
292.757	529.06
292.987	529.06
293.218	551.06
293.449	558.06
293.68	558.06
293.91	545.06
294.141	532.06
294.372	555.06
294.603	548.06
294.833	558.06
295.064	559.06
295.295	573.06
295.525	561.06
295.756	576.06
295.987	549.06
296.217	579.06
296.448	570.06
296.679	569.06
296.909	568.06
297.14	585.06
297.37	593.06
297.601	581.06
297.831	599.06
298.062	580.06
298.292	599.06
298.523	601.06
298.753	606.06
298.984	590.06
299.214	608.06
299.445	616.06
299.675	613.06
299.905	604.06
300.136	591.06
300.366	605.06
300.597	605.06
300.827	628.06
301.057	620.06
301.288	645.06
301.518	638.06
301.748	638.06
301.979	659.06
302.209	629.06
302.439	615.06
302.669	617.06
302.9	621.06
303.13	603.06
303.36	631.06
303.59	633.06
303.82	615.06
304.051	596.06
304.281	628.06
304.511	596.06
304.741	640.06
304.971	616.06
305.201	633.06
305.431	621.06
305.661	605.06
305.891	614.06
306.121	606.06
306.352	600.06
306.582	610.06
306.812	607.06
307.042	604.06
307.272	589.06
307.502	603.06
307.731	610.06
307.961	593.06
308.191	587.06
308.421	570.06
308.651	607.06
308.881	603.06
309.111	585.06
309.341	593.06
309.571	594.06
309.8	585.06
310.03	599.06
310.26	604.06
310.49	589.06
310.72	638.06
310.949	620.06
311.179	603.06
311.409	619.06
311.639	600.06
311.868	621.06
312.098	635.06
312.328	640.06
312.557	628.06
312.787	634.06
313.017	646.06
313.246	649.06
313.476	647.06
313.706	672.06
313.935	656.06
314.165	653.06
314.394	640.06
314.624	660.06
314.853	645.06
315.083	633.06
315.312	667.06
315.542	662.06
315.771	649.06
316.001	606.06
316.23	652.06
316.46	630.06
316.689	616.06
316.919	623.06
317.148	629.06
317.377	624.06
317.607	645.06
317.836	617.06
318.065	627.06
318.295	629.06
318.524	657.06
318.753	617.06
318.983	625.06
319.212	630.06
319.441	657.06
319.67	657.06
319.9	633.06
320.129	652.06
320.358	630.06
320.587	633.06
320.816	635.06
321.046	641.06
321.275	624.06
321.504	651.06
321.733	654.06
321.962	616.06
322.191	650.06
322.42	651.06
322.649	655.06
322.878	639.06
323.108	623.06
323.337	637.06
323.566	656.06
323.795	672.06
324.024	650.06
324.253	652.06
324.482	640.06
324.71	647.06
324.939	654.06
325.168	669.06
325.397	679.06
325.626	695.06
325.855	692.06
326.084	685.06
326.313	699.06
326.542	699.06
326.77	712.06
326.999	716.06
327.228	694.06
327.457	696.06
327.686	676.06
327.914	704.06
328.143	685.06
328.372	704.06
328.6	686.06
328.829	691.06
329.058	717.06
329.287	695.06
329.515	709.06
329.744	707.06
329.972	692.06
330.201	683.06
330.43	713.06
330.658	715.06
330.887	685.06
331.115	722.06
331.344	738.06
331.572	740.06
331.801	751.06
332.03	765.06
332.258	776.06
332.486	791.06
332.715	798.06
332.943	843.06
333.172	896.06
333.4	931.06
333.629	911.06
333.857	979.06
334.085	924.06
334.314	919.06
334.542	882.06
334.771	881.06
334.999	870.06
335.227	872.06
335.455	875.06
335.684	865.06
335.912	844.06
336.14	842.06
336.369	860.06
336.597	815.06
336.825	827.06
337.053	832.06
337.281	801.06
337.51	784.06
337.738	784.06
337.966	778.06
338.194	769.06
338.422	779.06
338.65	735.06
338.878	743.06
339.106	742.06
339.334	761.06
339.562	739.06
339.79	739.06
340.018	716.06
340.246	701.06
340.474	724.06
340.702	739.06
340.93	725.06
341.158	743.06
341.386	720.06
341.614	726.06
341.842	723.06
342.07	727.06
342.298	698.06
342.526	684.06
342.754	713.06
342.981	736.06
343.209	733.06
343.437	770.06
343.665	826.06
343.893	891.06
344.12	911.06
344.348	878.06
344.576	840.06
344.804	778.06
345.031	746.06
345.259	758.06
345.487	730.06
345.714	741.06
345.942	721.06
346.17	716.06
346.397	717.06
346.625	725.06
346.853	670.06
347.08	702.06
347.308	712.06
347.535	706.06
347.763	715.06
347.99	713.06
348.218	686.06
348.445	683.06
348.673	708.06
348.9	677.06
349.128	692.06
349.355	685.06
349.583	706.06
349.81	698.06
350.037	693.06
350.265	668.06
350.492	671.06
350.72	682.06
350.947	676.06
351.174	689.06
351.402	681.06
351.629	666.06
351.856	675.06
352.083	672.06
352.311	661.06
352.538	661.06
352.765	665.06
352.992	644.06
353.22	653.06
353.447	673.06
353.674	678.06
353.901	687.06
354.128	660.06
354.355	661.06
354.583	695.06
354.81	669.06
355.037	652.06
355.264	676.06
355.491	656.06
355.718	689.06
355.945	672.06
356.172	690.06
356.399	663.06
356.626	671.06
356.853	661.06
357.08	705.06
357.307	689.06
357.534	671.06
357.761	685.06
357.988	688.06
358.215	671.06
358.441	655.06
358.668	663.06
358.895	672.06
359.122	664.06
359.349	661.06
359.576	681.06
359.802	658.06
360.029	681.06
360.256	678.06
360.483	679.06
360.709	694.06
360.936	695.06
361.163	686.06
361.39	671.06
361.616	679.06
361.843	703.06
362.07	696.06
362.296	657.06
362.523	681.06
362.749	659.06
362.976	676.06
363.203	666.06
363.429	651.06
363.656	665.06
363.882	687.06
364.109	658.06
364.335	655.06
364.562	669.06
364.788	675.06
365.015	663.06
365.241	668.06
365.468	669.06
365.694	670.06
365.92	663.06
366.147	688.06
366.373	677.06
366.599	672.06
366.826	658.06
367.052	649.06
367.278	656.06
367.505	700.06
367.731	682.06
367.957	669.06
368.184	669.06
368.41	666.06
368.636	695.06
368.862	675.06
369.089	678.06
369.315	665.06
369.541	675.06
369.767	691.06
369.993	685.06
370.219	700.06
370.445	729.06
370.672	733.06
370.898	716.06
371.124	718.06
371.35	736.06
371.576	736.06
371.802	731.06
372.028	727.06
372.254	717.06
372.48	761.06
372.706	765.06
372.932	749.06
373.158	760.06
373.384	744.06
373.61	745.06
373.835	763.06
374.061	709.06
374.287	717.06
374.513	772.06
374.739	771.06
374.965	797.06
375.191	821.06
375.416	785.06
375.642	771.06
375.868	786.06
376.094	777.06
376.319	758.06
376.545	747.06
376.771	737.06
376.997	740.06
377.222	705.06
377.448	713.06
377.674	750.06
377.899	737.06
378.125	742.06
378.35	707.06
378.576	718.06
378.802	730.06
379.027	712.06
379.253	709.06
379.478	695.06
379.704	728.06
379.929	742.06
380.155	722.06
380.38	730.06
380.606	726.06
380.831	726.06
381.057	714.06
381.282	709.06
381.507	732.06
381.733	719.06
381.958	748.06
382.184	745.06
382.409	718.06
382.634	766.06
382.86	781.06
383.085	773.06
383.31	798.06
383.535	811.06
383.761	821.06
383.986	823.06
384.211	843.06
384.436	855.06
384.662	871.06
384.887	854.06
385.112	863.06
385.337	895.06
385.562	867.06
385.787	883.06
386.013	887.06
386.238	913.06
386.463	864.06
386.688	891.06
386.913	867.06
387.138	858.06
387.363	852.06
387.588	887.06
387.813	844.06
388.038	859.06
388.263	870.06
388.488	899.06
388.713	874.06
388.938	847.06
389.163	823.06
389.387	832.06
389.612	833.06
389.837	859.06
390.062	826.06
390.287	842.06
390.512	842.06
390.736	887.06
390.961	892.06
391.186	909.06
391.411	901.06
391.636	943.06
391.86	968.06
392.085	989.06
392.31	981.06
392.534	959.06
392.759	929.06
392.984	931.06
393.208	906.06
393.433	905.06
393.658	908.06
393.882	911.06
394.107	921.06
394.331	927.06
394.556	933.06
394.78	911.06
395.005	941.06
395.229	935.06
395.454	982.06
395.678	992.06
395.903	987.06
396.127	981.06
396.352	937.06
396.576	937.06
396.801	919.06
397.025	918.06
397.249	932.06
397.474	1006.06
397.698	965.06
397.922	985.06
398.147	935.06
398.371	983.06
398.595	1048.06
398.82	1094.06
399.044	1142.06
399.268	1290.06
399.492	1486.06
399.717	1689.06
399.941	1665.06
400.165	1501.06
400.389	1309.06
400.613	1241.06
400.837	1166.06
401.062	1119.06
401.286	1131.06
401.51	1118.06
401.734	1110.06
401.958	1115.06
402.182	1104.06
402.406	1129.06
402.63	1140.06
402.854	1173.06
403.078	1164.06
403.302	1201.06
403.526	1252.06
403.75	1284.06
403.974	1261.06
404.198	1291.06
404.422	1311.06
404.645	1269.06
404.869	1241.06
405.093	1260.06
405.317	1207.06
405.541	1197.06
405.765	1219.06
405.988	1176.06
406.212	1195.06
406.436	1190.06
406.66	1276.06
406.883	1256.06
407.107	1333.06
407.331	1431.06
407.555	1421.06
407.778	1416.06
408.002	1380.06
408.226	1333.06
408.449	1320.06
408.673	1286.06
408.896	1241.06
409.12	1216.06
409.344	1220.06
409.567	1237.06
409.791	1239.06
410.014	1238.06
410.238	1228.06
410.461	1231.06
410.685	1189.06
410.908	1165.06
411.132	1145.06
411.355	1116.06
411.578	1132.06
411.802	1133.06
412.025	1131.06
412.249	1141.06
412.472	1143.06
412.695	1130.06
412.919	1083.06
413.142	1068.06
413.365	1131.06
413.589	1103.06
413.812	1084.06
414.035	1054.06
414.258	1091.06
414.482	1081.06
414.705	1109.06
414.928	1095.06
415.151	1115.06
415.374	1076.06
415.597	1077.06
415.821	1050.06
416.044	1073.06
416.267	1052.06
416.49	1068.06
416.713	1073.06
416.936	1123.06
417.159	1105.06
417.382	1085.06
417.605	1094.06
417.828	1069.06
418.051	1103.06
418.274	1095.06
418.497	1092.06
418.72	1120.06
418.943	1095.06
419.166	1162.06
419.389	1236.06
419.611	1250.06
419.834	1194.06
420.057	1151.06
420.28	1130.06
420.503	1071.06
420.726	1093.06
420.948	1081.06
421.171	1098.06
421.394	1096.06
421.617	1073.06
421.839	1067.06
422.062	1109.06
422.285	1059.06
422.507	1116.06
422.73	1125.06
422.953	1109.06
423.175	1163.06
423.398	1145.06
423.621	1123.06
423.843	1159.06
424.066	1163.06
424.288	1143.06
424.511	1151.06
424.733	1135.06
424.956	1106.06
425.178	1091.06
425.401	1094.06
425.623	1119.06
425.846	1081.06
426.068	1042.06
426.291	1035.06
426.513	1028.06
426.735	1037.06
426.958	1005.06
427.18	990.06
427.402	1007.06
427.625	975.06
427.847	969.06
428.069	969.06
428.292	981.06
428.514	940.06
428.736	953.06
428.958	977.06
429.181	926.06
429.403	958.06
429.625	969.06
429.847	957.06
430.069	951.06
430.292	954.06
430.514	935.06
430.736	945.06
430.958	944.06
431.18	964.06
431.402	971.06
431.624	949.06
431.846	970.06
432.068	965.06
432.29	989.06
432.512	967.06
432.734	971.06
432.956	976.06
433.178	981.06
433.4	973.06
433.622	996.06
433.844	980.06
434.066	976.06
434.287	1018.06
434.509	1029.06
434.731	1057.06
434.953	1102.06
435.175	1117.06
435.397	1079.06
435.618	1009.06
435.84	959.06
436.062	971.06
436.284	968.06
436.505	988.06
436.727	961.06
436.949	972.06
437.17	949.06
437.392	958.06
437.614	953.06
437.835	899.06
438.057	933.06
438.278	917.06
438.5	925.06
438.721	964.06
438.943	939.06
439.165	924.06
439.386	940.06
439.608	963.06
439.829	962.06
440.05	972.06
440.272	957.06
440.493	987.06
440.715	1004.06
440.936	999.06
441.158	1037.06
441.379	1047.06
441.6	1069.06
441.822	1119.06
442.043	1102.06
442.264	1095.06
442.486	1080.06
442.707	1060.06
442.928	1056.06
443.149	1110.06
443.371	1064.06
443.592	1079.06
443.813	1065.06
444.034	1111.06
444.255	1153.06
444.476	1208.06
444.698	1248.06
444.919	1306.06
445.14	1408.06
445.361	1275.06
445.582	1154.06
445.803	1100.06
446.024	1039.06
446.245	1027.06
446.466	1040.06
446.687	1003.06
446.908	996.06
447.129	952.06
447.35	936.06
447.571	981.06
447.792	889.06
448.013	927.06
448.234	903.06
448.455	920.06
448.675	909.06
448.896	877.06
449.117	909.06
449.338	885.06
449.559	892.06
449.779	872.06
450	885.06
450.221	895.06
450.442	921.06
450.662	907.06
450.883	919.06
451.104	943.06
451.324	922.06
451.545	908.06
451.766	932.06
451.986	923.06
452.207	900.06
452.428	893.06
452.648	885.06
452.869	872.06
453.089	864.06
453.31	911.06
453.53	895.06
453.751	888.06
453.971	841.06
454.192	881.06
454.412	872.06
454.633	865.06
454.853	853.06
455.073	856.06
455.294	840.06
455.514	855.06
455.734	846.06
455.955	827.06
456.175	842.06
456.395	837.06
456.616	797.06
456.836	833.06
457.056	830.06
457.276	829.06
457.497	831.06
457.717	823.06
457.937	843.06
458.157	853.06
458.377	869.06
458.598	895.06
458.818	899.06
459.038	919.06
459.258	975.06
459.478	968.06
459.698	1001.06
459.918	1022.06
460.138	1071.06
460.358	1111.06
460.578	1161.06
460.798	1178.06
461.018	1146.06
461.238	1119.06
461.458	1126.06
461.678	1152.06
461.898	1151.06
462.118	1166.06
462.338	1219.06
462.558	1264.06
462.777	1289.06
462.997	1397.06
463.217	1517.06
463.437	1529.06
463.657	1415.06
463.876	1313.06
464.096	1323.06
464.316	1322.06
464.536	1331.06
464.755	1265.06
464.975	1236.06
465.195	1189.06
465.414	1096.06
465.634	1050.06
465.854	1024.06
466.073	995.06
466.293	1006.06
466.512	947.06
466.732	940.06
466.951	955.06
467.171	943.06
467.391	903.06
467.61	936.06
467.829	926.06
468.049	917.06
468.268	912.06
468.488	907.06
468.707	892.06
468.927	889.06
469.146	879.06
469.365	887.06
469.585	925.06
469.804	943.06
470.023	922.06
470.243	985.06
470.462	967.06
470.681	983.06
470.901	981.06
471.12	977.06
471.339	952.06
471.558	917.06
471.777	933.06
471.997	923.06
472.216	887.06
472.435	874.06
472.654	875.06
472.873	847.06
473.092	872.06
473.311	895.06
473.53	865.06
473.749	857.06
473.968	864.06
474.187	856.06
474.406	875.06
474.625	854.06
474.844	883.06
475.063	887.06
475.282	864.06
475.501	893.06
475.72	889.06
475.939	887.06
476.158	883.06
476.377	907.06
476.596	916.06
476.814	924.06
477.033	906.06
477.252	947.06
477.471	958.06
477.69	966.06
477.908	1008.06
478.127	1031.06
478.346	1064.06
478.564	1044.06
478.783	1063.06
479.002	1085.06
479.22	1088.06
479.439	1077.06
479.658	1075.06
479.876	1066.06
480.095	1100.06
480.313	1158.06
480.532	1185.06
480.751	1159.06
480.969	1121.06
481.188	1093.06
481.406	1041.06
481.624	1036.06
481.843	993.06
482.061	1015.06
482.28	979.06
482.498	1007.06
482.717	991.06
482.935	976.06
483.153	982.06
483.372	1001.06
483.59	979.06
483.808	983.06
484.027	982.06
484.245	1007.06
484.463	989.06
484.681	1030.06
484.9	1022.06
485.118	1024.06
485.336	1030.06
485.554	1020.06
485.772	1029.06
485.99	1022.06
486.209	1101.06
486.427	1034.06
486.645	1029.06
486.863	1040.06
487.081	1028.06
487.299	1012.06
487.517	1013.06
487.735	1026.06
487.953	1045.06
488.171	1009.06
488.389	1017.06
488.607	1021.06
488.825	1017.06
489.043	996.06
489.261	1003.06
489.479	1044.06
489.696	1041.06
489.914	1034.06
490.132	1039.06
490.35	1063.06
490.568	1028.06
490.786	1045.06
491.003	1050.06
491.221	1055.06
491.439	1054.06
491.657	1029.06
491.874	1040.06
492.092	1078.06
492.31	1063.06
492.527	1045.06
492.745	1083.06
492.963	1059.06
493.18	1075.06
493.398	1061.06
493.615	1097.06
493.833	1091.06
494.05	1088.06
494.268	1088.06
494.485	1144.06
494.703	1134.06
494.92	1088.06
495.138	1089.06
495.355	1095.06
495.573	1111.06
495.79	1091.06
496.008	1079.06
496.225	1128.06
496.442	1120.06
496.66	1121.06
496.877	1158.06
497.094	1161.06
497.312	1207.06
497.529	1242.06
497.746	1229.06
497.963	1275.06
498.181	1323.06
498.398	1400.06
498.615	1471.06
498.832	1560.06
499.049	1651.06
499.267	1821.06
499.484	2026.06
499.701	2219.06
499.918	2445.06
500.135	2794.06
500.352	3224.06
500.569	3358.06
500.786	3331.06
501.003	3079.06
501.22	2736.06
501.437	2441.06
501.654	2132.06
501.871	1945.06
502.088	1817.06
502.305	1663.06
502.522	1613.06
502.739	1521.06
502.956	1438.06
503.172	1375.06
503.389	1322.06
503.606	1283.06
503.823	1234.06
504.04	1263.06
504.256	1294.06
504.473	1311.06
504.69	1316.06
504.907	1289.06
505.123	1201.06
505.34	1130.06
505.557	1069.06
505.773	1039.06
505.99	1038.06
506.207	1028.06
506.423	992.06
506.64	1009.06
506.856	989.06
507.073	984.06
507.289	966.06
507.506	974.06
507.722	961.06
507.939	941.06
508.155	918.06
508.372	915.06
508.588	912.06
508.805	903.06
509.021	934.06
509.238	904.06
509.454	898.06
509.67	904.06
509.887	947.06
510.103	895.06
510.319	902.06
510.536	875.06
510.752	889.06
510.968	879.06
511.184	852.06
511.401	879.06
511.617	853.06
511.833	859.06
512.049	863.06
512.265	837.06
512.481	872.06
512.698	887.06
512.914	844.06
513.13	891.06
513.346	865.06
513.562	867.06
513.778	899.06
513.994	879.06
514.21	893.06
514.426	901.06
514.642	871.06
514.858	898.06
515.074	921.06
515.29	948.06
515.506	963.06
515.721	931.06
515.937	937.06
516.153	952.06
516.369	984.06
516.585	1012.06
516.801	1029.06
517.016	1054.06
517.232	1141.06
517.448	1175.06
517.664	1227.06
517.879	1248.06
518.095	1247.06
518.311	1200.06
518.527	1131.06
518.742	1133.06
518.958	1060.06
519.173	1044.06
519.389	992.06
519.605	939.06
519.82	940.06
520.036	941.06
520.251	935.06
520.467	908.06
520.682	887.06
520.898	882.06
521.113	885.06
521.329	847.06
521.544	883.06
521.76	853.06
521.975	853.06
522.19	853.06
522.406	846.06
522.621	841.06
522.836	841.06
523.052	817.06
523.267	825.06
523.482	816.06
523.698	811.06
523.913	831.06
524.128	827.06
524.343	816.06
524.559	828.06
524.774	822.06
524.989	813.06
525.204	813.06
525.419	804.06
525.634	812.06
525.849	806.06
526.064	813.06
526.28	804.06
526.495	779.06
526.71	804.06
526.925	783.06
527.14	781.06
527.355	785.06
527.57	814.06
527.785	795.06
527.999	823.06
528.214	791.06
528.429	795.06
528.644	769.06
528.859	798.06
529.074	810.06
529.289	821.06
529.503	804.06
529.718	792.06
529.933	785.06
530.148	777.06
530.363	803.06
530.577	764.06
530.792	793.06
531.007	753.06
531.221	781.06
531.436	796.06
531.651	805.06
531.865	800.06
532.08	814.06
532.295	766.06
532.509	745.06
532.724	786.06
532.938	788.06
533.153	809.06
533.367	788.06
533.582	763.06
533.796	788.06
534.011	797.06
534.225	774.06
534.44	798.06
534.654	786.06
534.868	755.06
535.083	766.06
535.297	788.06
535.511	771.06
535.726	777.06
535.94	761.06
536.154	760.06
536.369	759.06
536.583	742.06
536.797	718.06
537.011	750.06
537.225	718.06
537.44	760.06
537.654	745.06
537.868	720.06
538.082	704.06
538.296	713.06
538.51	703.06
538.724	705.06
538.938	711.06
539.153	713.06
539.367	710.06
539.581	713.06
539.795	712.06
540.009	710.06
540.222	709.06
540.436	727.06
540.65	704.06
540.864	713.06
541.078	700.06
541.292	748.06
541.506	721.06
541.72	712.06
541.934	695.06
542.147	715.06
542.361	715.06
542.575	718.06
542.789	708.06
543.002	689.06
543.216	710.06
543.43	729.06
543.644	672.06
543.857	695.06
544.071	691.06
544.285	722.06
544.498	721.06
544.712	709.06
544.925	731.06
545.139	733.06
545.352	741.06
545.566	750.06
545.779	739.06
545.993	740.06
546.206	736.06
546.42	754.06
546.633	726.06
546.847	743.06
547.06	702.06
547.274	720.06
547.487	737.06
547.7	773.06
547.914	752.06
548.127	730.06
548.34	749.06
548.554	756.06
548.767	722.06
548.98	742.06
549.193	746.06
549.407	747.06
549.62	744.06
549.833	745.06
550.046	786.06
550.259	741.06
550.473	705.06
550.686	715.06
550.899	709.06
551.112	700.06
551.325	691.06
551.538	707.06
551.751	717.06
551.964	714.06
552.177	727.06
552.39	724.06
552.603	745.06
552.816	746.06
553.029	759.06
553.242	782.06
553.455	823.06
553.667	811.06
553.88	792.06
554.093	795.06
554.306	751.06
554.519	767.06
554.732	733.06
554.944	685.06
555.157	691.06
555.37	683.06
555.583	669.06
555.795	650.06
556.008	641.06
556.221	635.06
556.433	637.06
556.646	624.06
556.859	632.06
557.071	619.06
557.284	631.06
557.496	639.06
557.709	633.06
557.921	625.06
558.134	635.06
558.346	643.06
558.559	622.06
558.771	639.06
558.984	617.06
559.196	613.06
559.409	621.06
559.621	604.06
559.833	627.06
560.046	593.06
560.258	607.06
560.47	603.06
560.683	599.06
560.895	610.06
561.107	623.06
561.32	590.06
561.532	607.06
561.744	600.06
561.956	599.06
562.168	581.06
562.381	595.06
562.593	608.06
562.805	612.06
563.017	623.06
563.229	599.06
563.441	614.06
563.653	624.06
563.865	581.06
564.077	625.06
564.289	609.06
564.501	627.06
564.713	633.06
564.925	671.06
565.137	656.06
565.349	665.06
565.561	691.06
565.773	718.06
565.985	734.06
566.197	773.06
566.408	843.06
566.62	912.06
566.832	966.06
567.044	988.06
567.255	997.06
567.467	1031.06
567.679	1070.06
567.891	1136.06
568.102	1198.06
568.314	1127.06
568.526	1001.06
568.737	909.06
568.949	813.06
569.161	764.06
569.372	703.06
569.584	689.06
569.795	659.06
570.007	616.06
570.218	630.06
570.43	627.06
570.641	617.06
570.853	618.06
571.064	632.06
571.276	619.06
571.487	589.06
571.698	577.06
571.91	571.06
572.121	559.06
572.333	556.06
572.544	531.06
572.755	516.06
572.966	529.06
573.178	533.06
573.389	519.06
573.6	517.06
573.811	492.06
574.023	473.06
574.234	470.06
574.445	490.06
574.656	488.06
574.867	502.06
575.078	490.06
575.289	501.06
575.501	491.06
575.712	492.06
575.923	479.06
576.134	474.06
576.345	457.06
576.556	474.06
576.767	475.06
576.978	474.06
577.188	471.06
577.399	461.06
577.61	457.06
577.821	462.06
578.032	455.06
578.243	446.06
578.454	466.06
578.665	440.06
578.875	430.06
579.086	443.06
579.297	431.06
579.508	436.06
579.718	454.06
579.929	435.06
580.14	418.06
580.35	428.06
580.561	455.06
580.772	427.06
580.982	405.06
581.193	418.06
581.403	405.06
581.614	436.06
581.825	437.06
582.035	419.06
582.246	429.06
582.456	432.06
582.667	413.06
582.877	423.06
583.087	395.06
583.298	421.06
583.508	412.06
583.719	419.06
583.929	427.06
584.139	406.06
584.35	424.06
584.56	408.06
584.77	417.06
584.981	406.06
585.191	402.06
585.401	390.06
585.611	388.06
585.821	408.06
586.032	409.06
586.242	394.06
586.452	395.06
586.662	412.06
586.872	397.06
587.082	417.06
587.292	393.06
587.502	405.06
587.713	395.06
587.923	392.06
588.133	392.06
588.343	397.06
588.553	395.06
588.762	432.06
588.972	376.06
589.182	416.06
589.392	400.06
589.602	397.06
589.812	398.06
590.022	391.06
590.232	425.06
590.441	395.06
590.651	388.06
590.861	387.06
591.071	430.06
591.281	421.06
591.49	425.06
591.7	416.06
591.91	414.06
592.119	437.06
592.329	445.06
592.539	445.06
592.748	478.06
592.958	484.06
593.167	514.06
593.377	492.06
593.587	509.06
593.796	505.06
594.006	499.06
594.215	534.06
594.424	529.06
594.634	518.06
594.843	492.06
595.053	469.06
595.262	445.06
595.472	429.06
595.681	420.06
595.89	430.06
596.1	403.06
596.309	379.06
596.518	402.06
596.727	395.06
596.937	389.06
597.146	396.06
597.355	379.06
597.564	365.06
597.774	365.06
597.983	347.06
598.192	364.06
598.401	337.06
598.61	359.06
598.819	348.06
599.028	350.06
599.237	340.06
599.446	347.06
599.655	349.06
599.864	337.06
600.073	348.06
600.282	357.06
600.491	341.06
600.7	342.06
600.909	334.06
601.118	347.06
601.327	342.06
601.536	327.06
601.745	334.06
601.953	343.06
602.162	333.06
602.371	327.06
602.58	334.06
602.789	343.06
602.997	346.06
603.206	327.06
603.415	343.06
603.623	336.06
603.832	335.06
604.041	311.06
604.249	331.06
604.458	311.06
604.666	339.06
604.875	320.06
605.084	325.06
605.292	315.06
605.501	313.06
605.709	316.06
605.918	320.06
606.126	308.06
606.334	330.06
606.543	304.06
606.751	308.06
606.96	310.06
607.168	303.06
607.376	307.06
607.585	313.06
607.793	316.06
608.001	306.06
608.21	308.06
608.418	312.06
608.626	293.06
608.834	299.06
609.043	296.06
609.251	279.06
609.459	295.06
609.667	305.06
609.875	295.06
610.083	292.06
610.291	296.06
610.499	282.06
610.707	299.06
610.916	288.06
611.124	309.06
611.332	310.06
611.54	295.06
611.748	312.06
611.955	303.06
612.163	313.06
612.371	293.06
612.579	281.06
612.787	294.06
612.995	296.06
613.203	308.06
613.411	293.06
613.618	306.06
613.826	293.06
614.034	304.06
614.242	289.06
614.449	289.06
614.657	293.06
614.865	309.06
615.072	278.06
615.28	296.06
615.488	287.06
615.695	283.06
615.903	302.06
616.111	307.06
616.318	293.06
616.526	286.06
616.733	307.06
616.941	296.06
617.148	292.06
617.356	295.06
617.563	304.06
617.771	299.06
617.978	292.06
618.185	288.06
618.393	284.06
618.6	283.06
618.807	315.06
619.015	312.06
619.222	291.06
619.429	290.06
619.637	282.06
619.844	279.06
620.051	284.06
620.258	292.06
620.466	280.06
620.673	269.06
620.88	265.06
621.087	274.06
621.294	269.06
621.501	281.06
621.708	301.06
621.915	263.06
622.122	271.06
622.329	277.06
622.536	259.06
622.743	251.06
622.95	261.06
623.157	253.06
623.364	263.06
623.571	269.06
623.778	269.06
623.985	272.06
624.192	266.06
624.399	268.06
624.606	250.06
624.812	268.06
625.019	248.06
625.226	254.06
625.433	257.06
625.639	248.06
625.846	240.06
626.053	247.06
626.259	262.06
626.466	244.06
626.673	246.06
626.879	244.06
627.086	246.06
627.293	251.06
627.499	228.06
627.706	243.06
627.912	236.06
628.119	259.06
628.325	252.06
628.532	244.06
628.738	243.06
628.945	234.06
629.151	251.06
629.357	244.06
629.564	241.06
629.77	237.06
629.976	237.06
630.183	238.06
630.389	223.06
630.595	227.06
630.802	222.06
631.008	223.06
631.214	228.06
631.42	229.06
631.627	213.06
631.833	221.06
632.039	223.06
632.245	222.06
632.451	222.06
632.657	223.06
632.863	230.06
633.069	213.06
633.275	234.06
633.481	205.06
633.688	210.06
633.893	222.06
634.099	214.06
634.305	205.06
634.511	218.06
634.717	226.06
634.923	208.06
635.129	207.06
635.335	208.06
635.541	204.06
635.747	205.06
635.952	199.06
636.158	215.06
636.364	218.06
636.57	207.06
636.775	215.06
636.981	214.06
637.187	215.06
637.392	205.06
637.598	199.06
637.804	214.06
638.009	209.06
638.215	194.06
638.421	195.06
638.626	197.06
638.832	206.06
639.037	192.06
639.243	203.06
639.448	198.06
639.654	213.06
639.859	205.06
640.065	203.06
640.27	200.06
640.475	216.06
640.681	208.06
640.886	208.06
641.091	199.06
641.297	195.06
641.502	203.06
641.707	199.06
641.913	182.06
642.118	193.06
642.323	193.06
642.528	197.06
642.733	188.06
642.939	199.06
643.144	198.06
643.349	204.06
643.554	197.06
643.759	187.06
643.964	190.06
644.169	188.06
644.374	183.06
644.579	184.06
644.784	176.06
644.989	193.06
645.194	181.06
645.399	189.06
645.604	189.06
645.809	212.06
646.014	187.06
646.219	195.06
646.423	186.06
646.628	192.06
646.833	177.06
647.038	193.06
647.243	185.06
647.447	194.06
647.652	203.06
647.857	193.06
648.062	206.06
648.266	184.06
648.471	217.06
648.676	212.06
648.88	209.06
649.085	197.06
649.289	191.06
649.494	180.06
649.698	202.06
649.903	191.06
650.107	175.06
650.312	200.06
650.516	175.06
650.721	176.06
650.925	177.06
651.13	164.06
651.334	172.06
651.539	169.06
651.743	190.06
651.947	162.06
652.152	172.06
652.356	179.06
652.56	175.06
652.764	171.06
652.969	169.06
653.173	157.06
653.377	144.06
653.581	141.06
653.785	156.06
653.99	155.06
654.194	149.06
654.398	152.06
654.602	149.06
654.806	159.06
655.01	155.06
655.214	143.06
655.418	134.06
655.622	155.06
655.826	137.06
656.03	146.06
656.234	152.06
656.438	143.06
656.642	141.06
656.846	127.06
657.049	152.06
657.253	134.06
657.457	128.06
657.661	132.06
657.865	112.06
658.068	109.06
658.272	111.06
658.476	106.06
658.68	111.06
658.883	117.06
659.087	104.06
659.291	102.06
659.494	105.06
659.698	109.06
659.901	97.06
660.105	106.06
660.309	92.06
660.512	101.06
660.716	96.06
660.919	96.06
661.123	101.06
661.326	106.06
661.53	83.06
661.733	85.06
661.936	100.06
662.14	88.06
662.343	102.06
662.546	108.06
662.75	87.06
662.953	96.06
663.156	86.06
663.36	82.06
663.563	92.06
663.766	70.06
663.969	70.06
664.173	70.06
664.376	79.06
664.579	85.06
664.782	89.06
664.985	92.06
665.188	72.06
665.391	84.06
665.594	77.06
665.797	87.06
666	79.06
666.203	90.06
666.406	86.06
666.609	82.06
666.812	86.06
667.015	90.06
667.218	78.06
667.421	84.06
667.624	85.06
667.827	89.06
668.03	76.06
668.232	80.06
668.435	86.06
668.638	77.06
668.841	90.06
669.043	81.06
669.246	85.06
669.449	77.06
669.651	88.06
669.854	85.06
670.057	93.06
670.259	91.06
670.462	89.06
670.665	90.06
670.867	80.06
671.07	68.06
671.272	89.06
671.475	86.06
671.677	74.06
671.88	91.06
672.082	99.06
672.284	85.06
672.487	91.06
672.689	90.06
672.892	75.06
