Data from NiCl2@0.25M.TitratingCurve.Agarose3%dH2O.NegLispCup.LampEnergy10.LIBS07252019_HRD10591_18-25-45-573.txt Node
Date: Thu Jul 25 18:25:45 EDT 2019
User: cochatt
Spectrometer: HR+D1059
Trigger mode: 1
Integration Time (sec): 1.000000E-1
Scans to average: 1
Electric dark correction enabled: true
Nonlinearity correction enabled: false
Boxcar width: 0
XAxis mode: Wavelengths
Number of Pixels in Spectrum: 2048
>>>>>Begin Spectral Data<<<<<
223.165	-13.44
223.4	-13.44
223.635	-13.44
223.869	-22.44
224.104	-4.44
224.338	-6.44
224.573	-14.44
224.808	-24.44
225.042	-4.44
225.277	-14.44
225.511	-4.44
225.746	6.56
225.98	15.56
226.215	-10.44
226.449	18.56
226.683	22.56
226.918	31.56
227.152	24.56
227.387	42.56
227.621	39.56
227.856	57.56
228.09	38.56
228.324	45.56
228.559	53.56
228.793	82.56
229.027	142.56
229.262	143.56
229.496	143.56
229.73	169.56
229.964	162.56
230.199	179.56
230.433	173.56
230.667	187.56
230.901	157.56
231.136	182.56
231.37	184.56
231.604	189.56
231.838	185.56
232.072	182.56
232.306	182.56
232.541	196.56
232.775	196.56
233.009	194.56
233.243	221.56
233.477	201.56
233.711	217.56
233.945	210.56
234.179	219.56
234.413	194.56
234.647	201.56
234.881	197.56
235.115	200.56
235.349	209.56
235.583	209.56
235.817	215.56
236.051	213.56
236.285	213.56
236.519	213.56
236.753	210.56
236.987	214.56
237.221	223.56
237.455	232.56
237.689	221.56
237.922	255.56
238.156	233.56
238.39	244.56
238.624	241.56
238.858	245.56
239.091	223.56
239.325	233.56
239.559	228.56
239.793	241.56
240.027	255.56
240.26	249.56
240.494	268.56
240.728	282.56
240.961	266.56
241.195	281.56
241.429	266.56
241.662	272.56
241.896	291.56
242.13	288.56
242.363	282.56
242.597	312.56
242.83	302.56
243.064	285.56
243.298	302.56
243.531	293.56
243.765	299.56
243.998	317.56
244.232	314.56
244.465	333.56
244.699	317.56
244.932	326.56
245.166	335.56
245.399	324.56
245.633	320.56
245.866	316.56
246.099	320.56
246.333	332.56
246.566	330.56
246.8	335.56
247.033	342.56
247.266	329.56
247.5	341.56
247.733	344.56
247.966	360.56
248.2	333.56
248.433	336.56
248.666	367.56
248.899	356.56
249.133	376.56
249.366	349.56
249.599	371.56
249.832	397.56
250.066	374.56
250.299	379.56
250.532	380.56
250.765	360.56
250.998	385.56
251.231	381.56
251.465	378.56
251.698	387.56
251.931	380.56
252.164	422.56
252.397	415.56
252.63	410.56
252.863	389.56
253.096	403.56
253.329	426.56
253.562	410.56
253.795	397.56
254.028	417.56
254.261	405.56
254.494	421.56
254.727	423.56
254.96	434.56
255.193	439.56
255.426	438.56
255.659	423.56
255.892	436.56
256.124	437.56
256.357	449.56
256.59	455.56
256.823	451.56
257.056	447.56
257.289	455.56
257.521	461.56
257.754	465.56
257.987	469.56
258.22	459.56
258.452	459.56
258.685	463.56
258.918	470.56
259.151	449.56
259.383	465.56
259.616	476.56
259.849	480.56
260.081	469.56
260.314	474.56
260.547	489.56
260.779	503.56
261.012	497.56
261.244	491.56
261.477	487.56
261.71	489.56
261.942	473.56
262.175	490.56
262.407	511.56
262.64	519.56
262.872	504.56
263.105	504.56
263.337	513.56
263.57	531.56
263.802	530.56
264.035	528.56
264.267	542.56
264.499	535.56
264.732	528.56
264.964	551.56
265.197	550.56
265.429	565.56
265.661	546.56
265.894	539.56
266.126	541.56
266.358	563.56
266.591	559.56
266.823	609.56
267.055	565.56
267.287	558.56
267.52	563.56
267.752	578.56
267.984	574.56
268.216	573.56
268.448	572.56
268.681	596.56
268.913	587.56
269.145	569.56
269.377	577.56
269.609	588.56
269.841	578.56
270.073	569.56
270.306	608.56
270.538	590.56
270.77	591.56
271.002	604.56
271.234	600.56
271.466	591.56
271.698	604.56
271.93	622.56
272.162	621.56
272.394	608.56
272.626	618.56
272.858	625.56
273.09	629.56
273.322	616.56
273.553	604.56
273.785	638.56
274.017	632.56
274.249	628.56
274.481	630.56
274.713	639.56
274.945	643.56
275.176	651.56
275.408	655.56
275.64	643.56
275.872	639.56
276.104	648.56
276.335	637.56
276.567	643.56
276.799	669.56
277.031	645.56
277.262	677.56
277.494	678.56
277.726	659.56
277.957	705.56
278.189	689.56
278.421	690.56
278.652	695.56
278.884	678.56
279.115	669.56
279.347	711.56
279.579	718.56
279.81	697.56
280.042	708.56
280.273	705.56
280.505	703.56
280.736	700.56
280.968	715.56
281.199	724.56
281.431	731.56
281.662	693.56
281.894	711.56
282.125	738.56
282.356	773.56
282.588	716.56
282.819	745.56
283.051	772.56
283.282	769.56
283.513	754.56
283.745	754.56
283.976	771.56
284.207	772.56
284.439	770.56
284.67	771.56
284.901	772.56
285.132	781.56
285.364	800.56
285.595	780.56
285.826	781.56
286.057	799.56
286.288	786.56
286.52	805.56
286.751	782.56
286.982	809.56
287.213	803.56
287.444	772.56
287.675	798.56
287.906	817.56
288.138	806.56
288.369	833.56
288.6	827.56
288.831	807.56
289.062	842.56
289.293	822.56
289.524	812.56
289.755	799.56
289.986	825.56
290.217	830.56
290.448	856.56
290.679	854.56
290.91	853.56
291.141	842.56
291.371	839.56
291.602	819.56
291.833	836.56
292.064	844.56
292.295	845.56
292.526	836.56
292.757	852.56
292.987	813.56
293.218	850.56
293.449	835.56
293.68	850.56
293.91	850.56
294.141	832.56
294.372	828.56
294.603	849.56
294.833	859.56
295.064	856.56
295.295	845.56
295.525	851.56
295.756	854.56
295.987	861.56
296.217	856.56
296.448	867.56
296.679	858.56
296.909	854.56
297.14	879.56
297.37	869.56
297.601	894.56
297.831	863.56
298.062	885.56
298.292	938.56
298.523	935.56
298.753	913.56
298.984	915.56
299.214	893.56
299.445	917.56
299.675	905.56
299.905	917.56
300.136	901.56
300.366	900.56
300.597	939.56
300.827	934.56
301.057	935.56
301.288	931.56
301.518	953.56
301.748	958.56
301.979	939.56
302.209	966.56
302.439	954.56
302.669	953.56
302.9	921.56
303.13	925.56
303.36	940.56
303.59	934.56
303.82	952.56
304.051	981.56
304.281	959.56
304.511	940.56
304.741	916.56
304.971	940.56
305.201	940.56
305.431	960.56
305.661	959.56
305.891	925.56
306.121	931.56
306.352	942.56
306.582	926.56
306.812	950.56
307.042	956.56
307.272	922.56
307.502	920.56
307.731	940.56
307.961	924.56
308.191	934.56
308.421	894.56
308.651	931.56
308.881	917.56
309.111	910.56
309.341	913.56
309.571	921.56
309.8	916.56
310.03	956.56
310.26	946.56
310.49	940.56
310.72	949.56
310.949	956.56
311.179	934.56
311.409	935.56
311.639	938.56
311.868	958.56
312.098	960.56
312.328	968.56
312.557	970.56
312.787	978.56
313.017	954.56
313.246	991.56
313.476	985.56
313.706	1001.56
313.935	995.56
314.165	1033.56
314.394	998.56
314.624	994.56
314.853	999.56
315.083	1000.56
315.312	990.56
315.542	977.56
315.771	981.56
316.001	981.56
316.23	1007.56
316.46	987.56
316.689	1027.56
316.919	979.56
317.148	995.56
317.377	981.56
317.607	990.56
317.836	969.56
318.065	967.56
318.295	991.56
318.524	961.56
318.753	984.56
318.983	989.56
319.212	975.56
319.441	978.56
319.67	990.56
319.9	998.56
320.129	980.56
320.358	964.56
320.587	977.56
320.816	978.56
321.046	977.56
321.275	986.56
321.504	997.56
321.733	995.56
321.962	985.56
322.191	984.56
322.42	973.56
322.649	1004.56
322.878	993.56
323.108	998.56
323.337	1033.56
323.566	1030.56
323.795	1021.56
324.024	1031.56
324.253	985.56
324.482	979.56
324.71	1040.56
324.939	1029.56
325.168	1051.56
325.397	1039.56
325.626	1038.56
325.855	1061.56
326.084	1060.56
326.313	1071.56
326.542	1091.56
326.77	1153.56
326.999	1101.56
327.228	1051.56
327.457	1061.56
327.686	1073.56
327.914	1068.56
328.143	1096.56
328.372	1065.56
328.6	1074.56
328.829	1059.56
329.058	1071.56
329.287	1085.56
329.515	1087.56
329.744	1117.56
329.972	1113.56
330.201	1100.56
330.43	1124.56
330.658	1130.56
330.887	1131.56
331.115	1121.56
331.344	1138.56
331.572	1125.56
331.801	1211.56
332.03	1155.56
332.258	1189.56
332.486	1230.56
332.715	1245.56
332.943	1291.56
333.172	1316.56
333.4	1348.56
333.629	1394.56
333.857	1435.56
334.085	1420.56
334.314	1427.56
334.542	1433.56
334.771	1410.56
334.999	1393.56
335.227	1379.56
335.455	1379.56
335.684	1404.56
335.912	1355.56
336.14	1305.56
336.369	1330.56
336.597	1302.56
336.825	1316.56
337.053	1323.56
337.281	1317.56
337.51	1279.56
337.738	1251.56
337.966	1213.56
338.194	1192.56
338.422	1215.56
338.65	1176.56
338.878	1189.56
339.106	1196.56
339.334	1167.56
339.562	1174.56
339.79	1179.56
340.018	1141.56
340.246	1114.56
340.474	1110.56
340.702	1145.56
340.93	1128.56
341.158	1146.56
341.386	1144.56
341.614	1120.56
341.842	1138.56
342.07	1129.56
342.298	1139.56
342.526	1117.56
342.754	1127.56
342.981	1132.56
343.209	1161.56
343.437	1195.56
343.665	1231.56
343.893	1289.56
344.12	1367.56
344.348	1348.56
344.576	1323.56
344.804	1273.56
345.031	1190.56
345.259	1196.56
345.487	1143.56
345.714	1153.56
345.942	1125.56
346.17	1121.56
346.397	1101.56
346.625	1101.56
346.853	1104.56
347.08	1077.56
347.308	1111.56
347.535	1096.56
347.763	1105.56
347.99	1106.56
348.218	1101.56
348.445	1105.56
348.673	1080.56
348.9	1097.56
349.128	1088.56
349.355	1059.56
349.583	1078.56
349.81	1083.56
350.037	1065.56
350.265	1069.56
350.492	1048.56
350.72	1039.56
350.947	1046.56
351.174	1031.56
351.402	1077.56
351.629	1026.56
351.856	1037.56
352.083	1014.56
352.311	1057.56
352.538	1061.56
352.765	1041.56
352.992	1045.56
353.22	1036.56
353.447	1047.56
353.674	1009.56
353.901	1058.56
354.128	1047.56
354.355	1035.56
354.583	1061.56
354.81	1001.56
355.037	1058.56
355.264	1018.56
355.491	1029.56
355.718	1074.56
355.945	1048.56
356.172	1015.56
356.399	1067.56
356.626	1051.56
356.853	1079.56
357.08	1067.56
357.307	1051.56
357.534	1053.56
357.761	1055.56
357.988	1063.56
358.215	1062.56
358.441	1042.56
358.668	1056.56
358.895	1034.56
359.122	1061.56
359.349	1055.56
359.576	1042.56
359.802	1066.56
360.029	1016.56
360.256	1042.56
360.483	1040.56
360.709	1058.56
360.936	1077.56
361.163	1063.56
361.39	1039.56
361.616	1033.56
361.843	1057.56
362.07	1049.56
362.296	1022.56
362.523	1035.56
362.749	1027.56
362.976	1043.56
363.203	1052.56
363.429	1034.56
363.656	1057.56
363.882	1030.56
364.109	1038.56
364.335	1033.56
364.562	1048.56
364.788	1053.56
365.015	1013.56
365.241	1050.56
365.468	1039.56
365.694	1034.56
365.92	1045.56
366.147	1034.56
366.373	1021.56
366.599	1033.56
366.826	1030.56
367.052	1011.56
367.278	1036.56
367.505	1045.56
367.731	1062.56
367.957	1044.56
368.184	1052.56
368.41	1050.56
368.636	1052.56
368.862	1084.56
369.089	1078.56
369.315	1082.56
369.541	1090.56
369.767	1076.56
369.993	1086.56
370.219	1102.56
370.445	1094.56
370.672	1108.56
370.898	1119.56
371.124	1134.56
371.35	1166.56
371.576	1096.56
371.802	1155.56
372.028	1141.56
372.254	1154.56
372.48	1155.56
372.706	1169.56
372.932	1175.56
373.158	1163.56
373.384	1164.56
373.61	1153.56
373.835	1138.56
374.061	1135.56
374.287	1137.56
374.513	1159.56
374.739	1215.56
374.965	1212.56
375.191	1265.56
375.416	1245.56
375.642	1221.56
375.868	1220.56
376.094	1191.56
376.319	1162.56
376.545	1177.56
376.771	1155.56
376.997	1166.56
377.222	1141.56
377.448	1148.56
377.674	1153.56
377.899	1161.56
378.125	1124.56
378.35	1105.56
378.576	1125.56
378.802	1143.56
379.027	1141.56
379.253	1132.56
379.478	1129.56
379.704	1157.56
379.929	1119.56
380.155	1129.56
380.38	1126.56
380.606	1110.56
380.831	1105.56
381.057	1162.56
381.282	1146.56
381.507	1131.56
381.733	1128.56
381.958	1142.56
382.184	1171.56
382.409	1161.56
382.634	1168.56
382.86	1198.56
383.085	1202.56
383.31	1238.56
383.535	1220.56
383.761	1239.56
383.986	1262.56
384.211	1299.56
384.436	1303.56
384.662	1316.56
384.887	1349.56
385.112	1325.56
385.337	1345.56
385.562	1348.56
385.787	1345.56
386.013	1394.56
386.238	1373.56
386.463	1405.56
386.688	1398.56
386.913	1380.56
387.138	1378.56
387.363	1423.56
387.588	1367.56
387.813	1404.56
388.038	1364.56
388.263	1424.56
388.488	1421.56
388.713	1404.56
388.938	1366.56
389.163	1361.56
389.387	1374.56
389.612	1344.56
389.837	1418.56
390.062	1383.56
390.287	1409.56
390.512	1382.56
390.736	1405.56
390.961	1385.56
391.186	1423.56
391.411	1498.56
391.636	1509.56
391.86	1543.56
392.085	1550.56
392.31	1547.56
392.534	1551.56
392.759	1521.56
392.984	1513.56
393.208	1461.56
393.433	1469.56
393.658	1477.56
393.882	1483.56
394.107	1485.56
394.331	1486.56
394.556	1463.56
394.78	1496.56
395.005	1505.56
395.229	1518.56
395.454	1565.56
395.678	1555.56
395.903	1559.56
396.127	1550.56
396.352	1525.56
396.576	1521.56
396.801	1533.56
397.025	1539.56
397.249	1556.56
397.474	1587.56
397.698	1590.56
397.922	1578.56
398.147	1595.56
398.371	1646.56
398.595	1687.56
398.82	1749.56
399.044	1846.56
399.268	2017.56
399.492	2214.56
399.717	2415.56
399.941	2489.56
400.165	2363.56
400.389	2197.56
400.613	2074.56
400.837	1954.56
401.062	1843.56
401.286	1843.56
401.51	1817.56
401.734	1747.56
401.958	1847.56
402.182	1803.56
402.406	1783.56
402.63	1755.56
402.854	1851.56
403.078	1848.56
403.302	1869.56
403.526	1900.56
403.75	1892.56
403.974	1958.56
404.198	1910.56
404.422	1948.56
404.645	1938.56
404.869	1938.56
405.093	1958.56
405.317	1889.56
405.541	1942.56
405.765	1941.56
405.988	1897.56
406.212	1978.56
406.436	1979.56
406.66	1985.56
406.883	1993.56
407.107	2084.56
407.331	2181.56
407.555	2231.56
407.778	2232.56
408.002	2189.56
408.226	2169.56
408.449	2144.56
408.673	2065.56
408.896	2003.56
409.12	2021.56
409.344	1984.56
409.567	1998.56
409.791	1994.56
410.014	1992.56
410.238	1952.56
410.461	1954.56
410.685	1939.56
410.908	1902.56
411.132	1846.56
411.355	1843.56
411.578	1831.56
411.802	1832.56
412.025	1836.56
412.249	1851.56
412.472	1815.56
412.695	1834.56
412.919	1743.56
413.142	1764.56
413.365	1791.56
413.589	1769.56
413.812	1762.56
414.035	1725.56
414.258	1746.56
414.482	1733.56
414.705	1762.56
414.928	1785.56
415.151	1800.56
415.374	1758.56
415.597	1781.56
415.821	1650.56
416.044	1699.56
416.267	1666.56
416.49	1703.56
416.713	1690.56
416.936	1727.56
417.159	1680.56
417.382	1671.56
417.605	1681.56
417.828	1717.56
418.051	1720.56
418.274	1702.56
418.497	1719.56
418.72	1751.56
418.943	1718.56
419.166	1889.56
419.389	1969.56
419.611	1962.56
419.834	1890.56
420.057	1797.56
420.28	1726.56
420.503	1713.56
420.726	1698.56
420.948	1698.56
421.171	1712.56
421.394	1679.56
421.617	1693.56
421.839	1696.56
422.062	1733.56
422.285	1658.56
422.507	1721.56
422.73	1725.56
422.953	1742.56
423.175	1750.56
423.398	1767.56
423.621	1723.56
423.843	1748.56
424.066	1749.56
424.288	1739.56
424.511	1709.56
424.733	1702.56
424.956	1719.56
425.178	1738.56
425.401	1747.56
425.623	1705.56
425.846	1619.56
426.068	1698.56
426.291	1637.56
426.513	1653.56
426.735	1605.56
426.958	1623.56
427.18	1562.56
427.402	1606.56
427.625	1574.56
427.847	1542.56
428.069	1574.56
428.292	1562.56
428.514	1571.56
428.736	1538.56
428.958	1571.56
429.181	1502.56
429.403	1505.56
429.625	1513.56
429.847	1482.56
430.069	1473.56
430.292	1507.56
430.514	1474.56
430.736	1484.56
430.958	1492.56
431.18	1492.56
431.402	1518.56
431.624	1527.56
431.846	1544.56
432.068	1545.56
432.29	1582.56
432.512	1499.56
432.734	1491.56
432.956	1546.56
433.178	1541.56
433.4	1533.56
433.622	1538.56
433.844	1577.56
434.066	1543.56
434.287	1580.56
434.509	1637.56
434.731	1643.56
434.953	1656.56
435.175	1707.56
435.397	1697.56
435.618	1586.56
435.84	1579.56
436.062	1550.56
436.284	1550.56
436.505	1531.56
436.727	1547.56
436.949	1546.56
437.17	1506.56
437.392	1485.56
437.614	1467.56
437.835	1433.56
438.057	1449.56
438.278	1448.56
438.5	1430.56
438.721	1467.56
438.943	1477.56
439.165	1449.56
439.386	1450.56
439.608	1492.56
439.829	1503.56
440.05	1474.56
440.272	1498.56
440.493	1491.56
440.715	1526.56
440.936	1518.56
441.158	1572.56
441.379	1578.56
441.6	1681.56
441.822	1654.56
442.043	1669.56
442.264	1638.56
442.486	1659.56
442.707	1627.56
442.928	1608.56
443.149	1638.56
443.371	1619.56
443.592	1658.56
443.813	1681.56
444.034	1691.56
444.255	1770.56
444.476	1784.56
444.698	1903.56
444.919	1935.56
445.14	1969.56
445.361	1882.56
445.582	1760.56
445.803	1690.56
446.024	1643.56
446.245	1577.56
446.466	1585.56
446.687	1552.56
446.908	1566.56
447.129	1513.56
447.35	1454.56
447.571	1483.56
447.792	1440.56
448.013	1427.56
448.234	1414.56
448.455	1409.56
448.675	1402.56
448.896	1401.56
449.117	1359.56
449.338	1345.56
449.559	1341.56
449.779	1369.56
450	1324.56
450.221	1370.56
450.442	1356.56
450.662	1401.56
450.883	1411.56
451.104	1412.56
451.324	1399.56
451.545	1395.56
451.766	1402.56
451.986	1354.56
452.207	1355.56
452.428	1349.56
452.648	1348.56
452.869	1356.56
453.089	1337.56
453.31	1394.56
453.53	1337.56
453.751	1332.56
453.971	1329.56
454.192	1329.56
454.412	1299.56
454.633	1303.56
454.853	1314.56
455.073	1299.56
455.294	1292.56
455.514	1318.56
455.734	1272.56
455.955	1257.56
456.175	1307.56
456.395	1275.56
456.616	1263.56
456.836	1283.56
457.056	1278.56
457.276	1283.56
457.497	1321.56
457.717	1318.56
457.937	1286.56
458.157	1312.56
458.377	1358.56
458.598	1372.56
458.818	1429.56
459.038	1461.56
459.258	1469.56
459.478	1544.56
459.698	1547.56
459.918	1613.56
460.138	1671.56
460.358	1740.56
460.578	1750.56
460.798	1789.56
461.018	1783.56
461.238	1758.56
461.458	1786.56
461.678	1761.56
461.898	1843.56
462.118	1867.56
462.338	1892.56
462.558	1943.56
462.777	2059.56
462.997	2205.56
463.217	2274.56
463.437	2293.56
463.657	2221.56
463.876	2150.56
464.096	2094.56
464.316	2072.56
464.536	2104.56
464.755	2028.56
464.975	1956.56
465.195	1881.56
465.414	1762.56
465.634	1672.56
465.854	1625.56
466.073	1582.56
466.293	1555.56
466.512	1537.56
466.732	1448.56
466.951	1475.56
467.171	1458.56
467.391	1481.56
467.61	1416.56
467.829	1491.56
468.049	1448.56
468.268	1402.56
468.488	1378.56
468.707	1411.56
468.927	1397.56
469.146	1420.56
469.365	1409.56
469.585	1433.56
469.804	1433.56
470.023	1448.56
470.243	1467.56
470.462	1475.56
470.681	1507.56
470.901	1488.56
471.12	1488.56
471.339	1451.56
471.558	1424.56
471.777	1431.56
471.997	1433.56
472.216	1406.56
472.435	1423.56
472.654	1429.56
472.873	1360.56
473.092	1382.56
473.311	1390.56
473.53	1400.56
473.749	1363.56
473.968	1377.56
474.187	1377.56
474.406	1355.56
474.625	1384.56
474.844	1369.56
475.063	1339.56
475.282	1383.56
475.501	1384.56
475.72	1378.56
475.939	1402.56
476.158	1421.56
476.377	1449.56
476.596	1457.56
476.814	1435.56
477.033	1453.56
477.252	1493.56
477.471	1539.56
477.69	1527.56
477.908	1589.56
478.127	1618.56
478.346	1640.56
478.564	1633.56
478.783	1687.56
479.002	1645.56
479.22	1745.56
479.439	1708.56
479.658	1711.56
479.876	1757.56
480.095	1775.56
480.313	1798.56
480.532	1781.56
480.751	1827.56
480.969	1762.56
481.188	1715.56
481.406	1700.56
481.624	1657.56
481.843	1639.56
482.061	1612.56
482.28	1601.56
482.498	1522.56
482.717	1571.56
482.935	1582.56
483.153	1556.56
483.372	1568.56
483.59	1567.56
483.808	1559.56
484.027	1595.56
484.245	1589.56
484.463	1615.56
484.681	1661.56
484.9	1636.56
485.118	1638.56
485.336	1648.56
485.554	1644.56
485.772	1659.56
485.99	1642.56
486.209	1669.56
486.427	1696.56
486.645	1675.56
486.863	1678.56
487.081	1662.56
487.299	1674.56
487.517	1616.56
487.735	1610.56
487.953	1626.56
488.171	1637.56
488.389	1645.56
488.607	1614.56
488.825	1643.56
489.043	1642.56
489.261	1619.56
489.479	1645.56
489.696	1643.56
489.914	1657.56
490.132	1664.56
490.35	1674.56
490.568	1669.56
490.786	1652.56
491.003	1689.56
491.221	1704.56
491.439	1687.56
491.657	1669.56
491.874	1685.56
492.092	1695.56
492.31	1687.56
492.527	1718.56
492.745	1705.56
492.963	1694.56
493.18	1734.56
493.398	1739.56
493.615	1745.56
493.833	1753.56
494.05	1769.56
494.268	1769.56
494.485	1756.56
494.703	1768.56
494.92	1754.56
495.138	1759.56
495.355	1799.56
495.573	1839.56
495.79	1835.56
496.008	1849.56
496.225	1866.56
496.442	1873.56
496.66	1913.56
496.877	1917.56
497.094	1973.56
497.312	1971.56
497.529	2033.56
497.746	2101.56
497.963	2148.56
498.181	2278.56
498.398	2359.56
498.615	2565.56
498.832	2647.56
499.049	2779.56
499.267	3025.56
499.484	3331.56
499.701	3601.56
499.918	3889.56
500.135	4323.56
500.352	4634.56
500.569	4825.56
500.786	4768.56
501.003	4601.56
501.22	4271.56
501.437	3957.56
501.654	3627.56
501.871	3307.56
502.088	3031.56
502.305	2883.56
502.522	2699.56
502.739	2582.56
502.956	2414.56
503.172	2377.56
503.389	2292.56
503.606	2188.56
503.823	2168.56
504.04	2110.56
504.256	2137.56
504.473	2162.56
504.69	2114.56
504.907	2089.56
505.123	1980.56
505.34	1903.56
505.557	1858.56
505.773	1768.56
505.99	1759.56
506.207	1694.56
506.423	1653.56
506.64	1652.56
506.856	1625.56
507.073	1613.56
507.289	1606.56
507.506	1590.56
507.722	1586.56
507.939	1596.56
508.155	1541.56
508.372	1518.56
508.588	1519.56
508.805	1523.56
509.021	1502.56
509.238	1505.56
509.454	1501.56
509.67	1465.56
509.887	1452.56
510.103	1442.56
510.319	1413.56
510.536	1473.56
510.752	1442.56
510.968	1434.56
511.184	1461.56
511.401	1461.56
511.617	1436.56
511.833	1420.56
512.049	1411.56
512.265	1427.56
512.481	1406.56
512.698	1412.56
512.914	1432.56
513.13	1417.56
513.346	1420.56
513.562	1412.56
513.778	1410.56
513.994	1482.56
514.21	1437.56
514.426	1428.56
514.642	1472.56
514.858	1467.56
515.074	1479.56
515.29	1514.56
515.506	1538.56
515.721	1576.56
515.937	1573.56
516.153	1558.56
516.369	1627.56
516.585	1648.56
516.801	1697.56
517.016	1753.56
517.232	1846.56
517.448	1859.56
517.664	1942.56
517.879	1945.56
518.095	1953.56
518.311	1920.56
518.527	1819.56
518.742	1841.56
518.958	1769.56
519.173	1668.56
519.389	1640.56
519.605	1568.56
519.82	1538.56
520.036	1559.56
520.251	1449.56
520.467	1482.56
520.682	1480.56
520.898	1462.56
521.113	1432.56
521.329	1425.56
521.544	1399.56
521.76	1379.56
521.975	1395.56
522.19	1355.56
522.406	1339.56
522.621	1348.56
522.836	1335.56
523.052	1369.56
523.267	1320.56
523.482	1350.56
523.698	1319.56
523.913	1284.56
524.128	1310.56
524.343	1336.56
524.559	1270.56
524.774	1299.56
524.989	1285.56
525.204	1326.56
525.419	1292.56
525.634	1301.56
525.849	1283.56
526.064	1283.56
526.28	1289.56
526.495	1281.56
526.71	1281.56
526.925	1255.56
527.14	1243.56
527.355	1255.56
527.57	1275.56
527.785	1299.56
527.999	1262.56
528.214	1252.56
528.429	1257.56
528.644	1257.56
528.859	1273.56
529.074	1275.56
529.289	1245.56
529.503	1241.56
529.718	1252.56
529.933	1235.56
530.148	1287.56
530.363	1254.56
530.577	1276.56
530.792	1252.56
531.007	1234.56
531.221	1259.56
531.436	1265.56
531.651	1287.56
531.865	1285.56
532.08	1310.56
532.295	1273.56
532.509	1245.56
532.724	1250.56
532.938	1255.56
533.153	1257.56
533.367	1248.56
533.582	1242.56
533.796	1243.56
534.011	1249.56
534.225	1232.56
534.44	1247.56
534.654	1231.56
534.868	1241.56
535.083	1228.56
535.297	1212.56
535.511	1208.56
535.726	1220.56
535.94	1202.56
536.154	1206.56
536.369	1206.56
536.583	1188.56
536.797	1158.56
537.011	1192.56
537.225	1176.56
537.44	1171.56
537.654	1189.56
537.868	1173.56
538.082	1152.56
538.296	1161.56
538.51	1145.56
538.724	1130.56
538.938	1143.56
539.153	1150.56
539.367	1164.56
539.581	1146.56
539.795	1141.56
540.009	1157.56
540.222	1122.56
540.436	1127.56
540.65	1124.56
540.864	1135.56
541.078	1120.56
541.292	1103.56
541.506	1135.56
541.72	1128.56
541.934	1111.56
542.147	1150.56
542.361	1130.56
542.575	1136.56
542.789	1103.56
543.002	1113.56
543.216	1107.56
543.43	1078.56
543.644	1094.56
543.857	1130.56
544.071	1152.56
544.285	1127.56
544.498	1137.56
544.712	1121.56
544.925	1159.56
545.139	1144.56
545.352	1160.56
545.566	1159.56
545.779	1179.56
545.993	1153.56
546.206	1149.56
546.42	1164.56
546.633	1152.56
546.847	1158.56
547.06	1160.56
547.274	1135.56
547.487	1110.56
547.7	1157.56
547.914	1163.56
548.127	1165.56
548.34	1186.56
548.554	1161.56
548.767	1164.56
548.98	1160.56
549.193	1158.56
549.407	1170.56
549.62	1191.56
549.833	1181.56
550.046	1158.56
550.259	1185.56
550.473	1167.56
550.686	1163.56
550.899	1148.56
551.112	1134.56
551.325	1113.56
551.538	1144.56
551.751	1109.56
551.964	1153.56
552.177	1184.56
552.39	1177.56
552.603	1222.56
552.816	1220.56
553.029	1210.56
553.242	1247.56
553.455	1234.56
553.667	1273.56
553.88	1227.56
554.093	1183.56
554.306	1130.56
554.519	1161.56
554.732	1171.56
554.944	1132.56
555.157	1118.56
555.37	1083.56
555.583	1083.56
555.795	1070.56
556.008	1004.56
556.221	1033.56
556.433	1019.56
556.646	1013.56
556.859	1015.56
557.071	988.56
557.284	975.56
557.496	968.56
557.709	1001.56
557.921	992.56
558.134	963.56
558.346	957.56
558.559	998.56
558.771	930.56
558.984	947.56
559.196	934.56
559.409	968.56
559.621	970.56
559.833	958.56
560.046	963.56
560.258	967.56
560.47	952.56
560.683	953.56
560.895	930.56
561.107	949.56
561.32	948.56
561.532	938.56
561.744	940.56
561.956	940.56
562.168	934.56
562.381	961.56
562.593	924.56
562.805	953.56
563.017	924.56
563.229	942.56
563.441	953.56
563.653	964.56
563.865	987.56
564.077	1025.56
564.289	1001.56
564.501	1019.56
564.713	1045.56
564.925	1055.56
565.137	1074.56
565.349	1103.56
565.561	1134.56
565.773	1149.56
565.985	1211.56
566.197	1289.56
566.408	1353.56
566.62	1399.56
566.832	1507.56
567.044	1506.56
567.255	1580.56
567.467	1596.56
567.679	1629.56
567.891	1678.56
568.102	1661.56
568.314	1597.56
568.526	1528.56
568.737	1397.56
568.949	1310.56
569.161	1237.56
569.372	1195.56
569.584	1125.56
569.795	1061.56
570.007	1027.56
570.218	1012.56
570.43	993.56
570.641	975.56
570.853	1010.56
571.064	999.56
571.276	963.56
571.487	968.56
571.698	911.56
571.91	919.56
572.121	883.56
572.333	868.56
572.544	836.56
572.755	831.56
572.966	817.56
573.178	830.56
573.389	826.56
573.6	822.56
573.811	765.56
574.023	756.56
574.234	770.56
574.445	780.56
574.656	792.56
574.867	769.56
575.078	790.56
575.289	753.56
575.501	738.56
575.712	728.56
575.923	745.56
576.134	745.56
576.345	730.56
576.556	730.56
576.767	721.56
576.978	740.56
577.188	716.56
577.399	711.56
577.61	724.56
577.821	703.56
578.032	692.56
578.243	679.56
578.454	704.56
578.665	670.56
578.875	660.56
579.086	662.56
579.297	679.56
579.508	686.56
579.718	682.56
579.929	675.56
580.14	668.56
580.35	658.56
580.561	676.56
580.772	674.56
580.982	665.56
581.193	655.56
581.403	655.56
581.614	647.56
581.825	640.56
582.035	659.56
582.246	682.56
582.456	671.56
582.667	637.56
582.877	633.56
583.087	648.56
583.298	640.56
583.508	650.56
583.719	643.56
583.929	647.56
584.139	647.56
584.35	622.56
584.56	628.56
584.77	651.56
584.981	632.56
585.191	630.56
585.401	607.56
585.611	599.56
585.821	630.56
586.032	610.56
586.242	619.56
586.452	630.56
586.662	625.56
586.872	610.56
587.082	623.56
587.292	623.56
587.502	634.56
587.713	611.56
587.923	621.56
588.133	607.56
588.343	628.56
588.553	599.56
588.762	613.56
588.972	618.56
589.182	656.56
589.392	607.56
589.602	588.56
589.812	616.56
590.022	623.56
590.232	635.56
590.441	646.56
590.651	630.56
590.861	628.56
591.071	641.56
591.281	654.56
591.49	659.56
591.7	663.56
591.91	657.56
592.119	674.56
592.329	672.56
592.539	692.56
592.748	733.56
592.958	739.56
593.167	778.56
593.377	767.56
593.587	757.56
593.796	769.56
594.006	749.56
594.215	754.56
594.424	774.56
594.634	758.56
594.843	711.56
595.053	709.56
595.262	702.56
595.472	671.56
595.681	660.56
595.89	631.56
596.1	630.56
596.309	603.56
596.518	611.56
596.727	586.56
596.937	578.56
597.146	566.56
597.355	583.56
597.564	558.56
597.774	554.56
597.983	539.56
598.192	541.56
598.401	555.56
598.61	525.56
598.819	544.56
599.028	507.56
599.237	507.56
599.446	528.56
599.655	517.56
599.864	509.56
600.073	522.56
600.282	500.56
600.491	507.56
600.7	502.56
600.909	515.56
601.118	501.56
601.327	504.56
601.536	481.56
601.745	500.56
601.953	498.56
602.162	486.56
602.371	505.56
602.58	500.56
602.789	493.56
602.997	486.56
603.206	484.56
603.415	481.56
603.623	479.56
603.832	465.56
604.041	471.56
604.249	468.56
604.458	476.56
604.666	449.56
604.875	459.56
605.084	455.56
605.292	467.56
605.501	469.56
605.709	460.56
605.918	453.56
606.126	444.56
606.334	455.56
606.543	467.56
606.751	439.56
606.96	450.56
607.168	421.56
607.376	450.56
607.585	456.56
607.793	455.56
608.001	450.56
608.21	434.56
608.418	438.56
608.626	463.56
608.834	457.56
609.043	468.56
609.251	463.56
609.459	435.56
609.667	436.56
609.875	417.56
610.083	441.56
610.291	444.56
610.499	434.56
610.707	427.56
610.916	415.56
611.124	436.56
611.332	431.56
611.54	439.56
611.748	409.56
611.955	439.56
612.163	419.56
612.371	452.56
612.579	426.56
612.787	415.56
612.995	427.56
613.203	446.56
613.411	427.56
613.618	407.56
613.826	424.56
614.034	430.56
614.242	412.56
614.449	389.56
614.657	415.56
614.865	415.56
615.072	426.56
615.28	427.56
615.488	429.56
615.695	419.56
615.903	405.56
616.111	417.56
616.318	404.56
616.526	411.56
616.733	423.56
616.941	407.56
617.148	430.56
617.356	423.56
617.563	426.56
617.771	411.56
617.978	395.56
618.185	413.56
618.393	391.56
618.6	413.56
618.807	425.56
619.015	405.56
619.222	411.56
619.429	395.56
619.637	414.56
619.844	397.56
620.051	399.56
620.258	412.56
620.466	382.56
620.673	382.56
620.88	398.56
621.087	383.56
621.294	387.56
621.501	390.56
621.708	392.56
621.915	383.56
622.122	373.56
622.329	378.56
622.536	398.56
622.743	383.56
622.95	386.56
623.157	385.56
623.364	365.56
623.571	381.56
623.778	373.56
623.985	392.56
624.192	376.56
624.399	368.56
624.606	382.56
624.812	362.56
625.019	371.56
625.226	351.56
625.433	373.56
625.639	348.56
625.846	363.56
626.053	362.56
626.259	347.56
626.466	346.56
626.673	362.56
626.879	334.56
627.086	345.56
627.293	340.56
627.499	329.56
627.706	358.56
627.912	334.56
628.119	347.56
628.325	349.56
628.532	349.56
628.738	357.56
628.945	334.56
629.151	339.56
629.357	346.56
629.564	340.56
629.77	338.56
629.976	335.56
630.183	331.56
630.389	333.56
630.595	319.56
630.802	333.56
631.008	312.56
631.214	317.56
631.42	327.56
631.627	331.56
631.833	302.56
632.039	321.56
632.245	302.56
632.451	308.56
632.657	309.56
632.863	314.56
633.069	339.56
633.275	306.56
633.481	289.56
633.688	303.56
633.893	306.56
634.099	295.56
634.305	315.56
634.511	313.56
634.717	308.56
634.923	288.56
635.129	291.56
635.335	294.56
635.541	294.56
635.747	311.56
635.952	296.56
636.158	305.56
636.364	289.56
636.57	293.56
636.775	290.56
636.981	300.56
637.187	285.56
637.392	278.56
637.598	299.56
637.804	306.56
638.009	279.56
638.215	286.56
638.421	287.56
638.626	293.56
638.832	282.56
639.037	271.56
639.243	259.56
639.448	282.56
639.654	283.56
639.859	268.56
640.065	267.56
640.27	266.56
640.475	282.56
640.681	271.56
640.886	280.56
641.091	271.56
641.297	268.56
641.502	272.56
641.707	266.56
641.913	276.56
642.118	269.56
642.323	251.56
642.528	260.56
642.733	291.56
642.939	270.56
643.144	277.56
643.349	262.56
643.554	273.56
643.759	255.56
643.964	253.56
644.169	262.56
644.374	241.56
644.579	294.56
644.784	259.56
644.989	264.56
645.194	292.56
645.399	263.56
645.604	262.56
645.809	245.56
646.014	262.56
646.219	277.56
646.423	254.56
646.628	259.56
646.833	266.56
647.038	252.56
647.243	269.56
647.447	268.56
647.652	254.56
647.857	249.56
648.062	271.56
648.266	262.56
648.471	261.56
648.676	270.56
648.88	282.56
649.085	278.56
649.289	275.56
649.494	230.56
649.698	238.56
649.903	264.56
650.107	246.56
650.312	236.56
650.516	232.56
650.721	230.56
650.925	211.56
651.13	223.56
651.334	238.56
651.539	223.56
651.743	226.56
651.947	215.56
652.152	219.56
652.356	219.56
652.56	211.56
652.764	205.56
652.969	217.56
653.173	210.56
653.377	211.56
653.581	200.56
653.785	205.56
653.99	205.56
654.194	199.56
654.398	189.56
654.602	177.56
654.806	189.56
655.01	196.56
655.214	195.56
655.418	187.56
655.622	201.56
655.826	186.56
656.03	169.56
656.234	172.56
656.438	189.56
656.642	198.56
656.846	168.56
657.049	172.56
657.253	174.56
657.457	160.56
657.661	154.56
657.865	152.56
658.068	138.56
658.272	136.56
658.476	128.56
658.68	132.56
658.883	117.56
659.087	118.56
659.291	125.56
659.494	125.56
659.698	106.56
659.901	131.56
660.105	103.56
660.309	107.56
660.512	105.56
660.716	87.56
660.919	99.56
661.123	98.56
661.326	99.56
661.53	99.56
661.733	111.56
661.936	93.56
662.14	101.56
662.343	79.56
662.546	86.56
662.75	90.56
662.953	92.56
663.156	87.56
663.36	98.56
663.563	89.56
663.766	90.56
663.969	74.56
664.173	84.56
664.376	102.56
664.579	83.56
664.782	82.56
664.985	84.56
665.188	80.56
665.391	95.56
665.594	89.56
665.797	87.56
666	88.56
666.203	84.56
666.406	85.56
666.609	70.56
666.812	76.56
667.015	74.56
667.218	83.56
667.421	80.56
667.624	78.56
667.827	93.56
668.03	86.56
668.232	82.56
668.435	89.56
668.638	85.56
668.841	98.56
669.043	81.56
669.246	77.56
669.449	90.56
669.651	89.56
669.854	96.56
670.057	86.56
670.259	78.56
670.462	80.56
670.665	82.56
670.867	84.56
671.07	86.56
671.272	82.56
671.475	77.56
671.677	73.56
671.88	75.56
672.082	83.56
672.284	92.56
672.487	72.56
672.689	71.56
672.892	80.56
