Data from NiCl2@0.0625M.TitratingCurve.Agarose3%dH2O.NegLispCup.LampEnergy10.LIBS07252019_HRD10591_18-32-42-580.txt Node
Date: Thu Jul 25 18:32:42 EDT 2019
User: cochatt
Spectrometer: HR+D1059
Trigger mode: 1
Integration Time (sec): 1.000000E-1
Scans to average: 1
Electric dark correction enabled: true
Nonlinearity correction enabled: false
Boxcar width: 0
XAxis mode: Wavelengths
Number of Pixels in Spectrum: 2048
>>>>>Begin Spectral Data<<<<<
223.165	-14.56
223.4	-14.56
223.635	-14.56
223.869	-26.56
224.104	-8.56
224.338	-13.56
224.573	-11.56
224.808	-10.56
225.042	-1.56
225.277	1.44
225.511	-2.56
225.746	-2.56
225.98	-0.56
226.215	9.44
226.449	5.44
226.683	32.44
226.918	23.44
227.152	20.44
227.387	37.44
227.621	40.44
227.856	28.44
228.09	38.44
228.324	39.44
228.559	49.44
228.793	73.44
229.027	155.44
229.262	148.44
229.496	162.44
229.73	153.44
229.964	173.44
230.199	186.44
230.433	189.44
230.667	204.44
230.901	178.44
231.136	179.44
231.37	200.44
231.604	198.44
231.838	199.44
232.072	210.44
232.306	217.44
232.541	210.44
232.775	210.44
233.009	213.44
233.243	212.44
233.477	214.44
233.711	201.44
233.945	221.44
234.179	229.44
234.413	218.44
234.647	222.44
234.881	207.44
235.115	224.44
235.349	216.44
235.583	217.44
235.817	238.44
236.051	224.44
236.285	232.44
236.519	253.44
236.753	237.44
236.987	232.44
237.221	236.44
237.455	248.44
237.689	249.44
237.922	264.44
238.156	239.44
238.39	255.44
238.624	269.44
238.858	254.44
239.091	271.44
239.325	272.44
239.559	271.44
239.793	261.44
240.027	277.44
240.26	286.44
240.494	290.44
240.728	296.44
240.961	291.44
241.195	284.44
241.429	303.44
241.662	303.44
241.896	313.44
242.13	293.44
242.363	306.44
242.597	305.44
242.83	326.44
243.064	338.44
243.298	327.44
243.531	316.44
243.765	328.44
243.998	344.44
244.232	333.44
244.465	333.44
244.699	374.44
244.932	334.44
245.166	379.44
245.399	340.44
245.633	356.44
245.866	358.44
246.099	356.44
246.333	373.44
246.566	364.44
246.8	364.44
247.033	370.44
247.266	372.44
247.5	378.44
247.733	379.44
247.966	380.44
248.2	405.44
248.433	422.44
248.666	388.44
248.899	388.44
249.133	393.44
249.366	423.44
249.599	408.44
249.832	399.44
250.066	415.44
250.299	415.44
250.532	411.44
250.765	433.44
250.998	425.44
251.231	430.44
251.465	440.44
251.698	458.44
251.931	448.44
252.164	450.44
252.397	450.44
252.63	465.44
252.863	460.44
253.096	440.44
253.329	453.44
253.562	463.44
253.795	491.44
254.028	477.44
254.261	475.44
254.494	481.44
254.727	488.44
254.96	458.44
255.193	490.44
255.426	481.44
255.659	492.44
255.892	518.44
256.124	496.44
256.357	492.44
256.59	520.44
256.823	505.44
257.056	489.44
257.289	490.44
257.521	490.44
257.754	495.44
257.987	510.44
258.22	525.44
258.452	538.44
258.685	525.44
258.918	512.44
259.151	526.44
259.383	528.44
259.616	520.44
259.849	548.44
260.081	545.44
260.314	566.44
260.547	550.44
260.779	550.44
261.012	560.44
261.244	591.44
261.477	574.44
261.71	576.44
261.942	590.44
262.175	564.44
262.407	575.44
262.64	575.44
262.872	582.44
263.105	581.44
263.337	586.44
263.57	592.44
263.802	621.44
264.035	572.44
264.267	607.44
264.499	598.44
264.732	601.44
264.964	600.44
265.197	613.44
265.429	630.44
265.661	611.44
265.894	646.44
266.126	615.44
266.358	633.44
266.591	641.44
266.823	634.44
267.055	622.44
267.287	632.44
267.52	630.44
267.752	622.44
267.984	640.44
268.216	651.44
268.448	634.44
268.681	624.44
268.913	643.44
269.145	676.44
269.377	638.44
269.609	662.44
269.841	679.44
270.073	654.44
270.306	660.44
270.538	681.44
270.77	642.44
271.002	690.44
271.234	689.44
271.466	679.44
271.698	669.44
271.93	685.44
272.162	696.44
272.394	700.44
272.626	701.44
272.858	690.44
273.09	694.44
273.322	714.44
273.553	696.44
273.785	700.44
274.017	724.44
274.249	723.44
274.481	736.44
274.713	717.44
274.945	739.44
275.176	758.44
275.408	741.44
275.64	744.44
275.872	753.44
276.104	767.44
276.335	754.44
276.567	742.44
276.799	764.44
277.031	759.44
277.262	753.44
277.494	775.44
277.726	778.44
277.957	751.44
278.189	784.44
278.421	769.44
278.652	780.44
278.884	793.44
279.115	797.44
279.347	793.44
279.579	793.44
279.81	816.44
280.042	813.44
280.273	817.44
280.505	825.44
280.736	816.44
280.968	794.44
281.199	814.44
281.431	800.44
281.662	850.44
281.894	833.44
282.125	815.44
282.356	835.44
282.588	845.44
282.819	849.44
283.051	841.44
283.282	866.44
283.513	870.44
283.745	878.44
283.976	855.44
284.207	872.44
284.439	858.44
284.67	867.44
284.901	861.44
285.132	885.44
285.364	893.44
285.595	874.44
285.826	874.44
286.057	893.44
286.288	886.44
286.52	910.44
286.751	883.44
286.982	885.44
287.213	901.44
287.444	919.44
287.675	904.44
287.906	905.44
288.138	922.44
288.369	905.44
288.6	916.44
288.831	924.44
289.062	912.44
289.293	946.44
289.524	926.44
289.755	930.44
289.986	933.44
290.217	942.44
290.448	944.44
290.679	940.44
290.91	935.44
291.141	934.44
291.371	932.44
291.602	945.44
291.833	936.44
292.064	965.44
292.295	959.44
292.526	942.44
292.757	937.44
292.987	921.44
293.218	928.44
293.449	975.44
293.68	942.44
293.91	928.44
294.141	930.44
294.372	949.44
294.603	951.44
294.833	967.44
295.064	974.44
295.295	925.44
295.525	934.44
295.756	942.44
295.987	940.44
296.217	983.44
296.448	961.44
296.679	982.44
296.909	951.44
297.14	975.44
297.37	1011.44
297.601	1010.44
297.831	1021.44
298.062	1028.44
298.292	1002.44
298.523	1029.44
298.753	1066.44
298.984	1032.44
299.214	999.44
299.445	1011.44
299.675	997.44
299.905	993.44
300.136	1017.44
300.366	1050.44
300.597	1019.44
300.827	1043.44
301.057	1079.44
301.288	1093.44
301.518	1072.44
301.748	1069.44
301.979	1088.44
302.209	1100.44
302.439	1090.44
302.669	1081.44
302.9	1066.44
303.13	1081.44
303.36	1065.44
303.59	1064.44
303.82	1072.44
304.051	1090.44
304.281	1118.44
304.511	1090.44
304.741	1068.44
304.971	1098.44
305.201	1062.44
305.431	1065.44
305.661	1105.44
305.891	1072.44
306.121	1093.44
306.352	1082.44
306.582	1071.44
306.812	1064.44
307.042	1035.44
307.272	1057.44
307.502	1058.44
307.731	1091.44
307.961	1099.44
308.191	1059.44
308.421	1084.44
308.651	1074.44
308.881	1061.44
309.111	1052.44
309.341	1078.44
309.571	1055.44
309.8	1076.44
310.03	1092.44
310.26	1074.44
310.49	1082.44
310.72	1052.44
310.949	1074.44
311.179	1118.44
311.409	1109.44
311.639	1125.44
311.868	1094.44
312.098	1096.44
312.328	1090.44
312.557	1118.44
312.787	1160.44
313.017	1126.44
313.246	1152.44
313.476	1093.44
313.706	1137.44
313.935	1192.44
314.165	1158.44
314.394	1169.44
314.624	1150.44
314.853	1144.44
315.083	1168.44
315.312	1165.44
315.542	1193.44
315.771	1178.44
316.001	1146.44
316.23	1152.44
316.46	1166.44
316.689	1181.44
316.919	1152.44
317.148	1135.44
317.377	1145.44
317.607	1139.44
317.836	1169.44
318.065	1123.44
318.295	1148.44
318.524	1178.44
318.753	1151.44
318.983	1170.44
319.212	1142.44
319.441	1123.44
319.67	1142.44
319.9	1152.44
320.129	1146.44
320.358	1101.44
320.587	1148.44
320.816	1156.44
321.046	1141.44
321.275	1161.44
321.504	1143.44
321.733	1170.44
321.962	1140.44
322.191	1190.44
322.42	1185.44
322.649	1170.44
322.878	1182.44
323.108	1141.44
323.337	1168.44
323.566	1173.44
323.795	1198.44
324.024	1146.44
324.253	1202.44
324.482	1190.44
324.71	1171.44
324.939	1216.44
325.168	1211.44
325.397	1193.44
325.626	1213.44
325.855	1244.44
326.084	1227.44
326.313	1279.44
326.542	1215.44
326.77	1274.44
326.999	1267.44
327.228	1206.44
327.457	1209.44
327.686	1241.44
327.914	1222.44
328.143	1244.44
328.372	1258.44
328.6	1259.44
328.829	1220.44
329.058	1258.44
329.287	1234.44
329.515	1240.44
329.744	1240.44
329.972	1264.44
330.201	1305.44
330.43	1281.44
330.658	1270.44
330.887	1299.44
331.115	1277.44
331.344	1311.44
331.572	1305.44
331.801	1336.44
332.03	1360.44
332.258	1392.44
332.486	1388.44
332.715	1437.44
332.943	1489.44
333.172	1533.44
333.4	1547.44
333.629	1596.44
333.857	1597.44
334.085	1573.44
334.314	1584.44
334.542	1611.44
334.771	1570.44
334.999	1554.44
335.227	1570.44
335.455	1540.44
335.684	1513.44
335.912	1575.44
336.14	1543.44
336.369	1476.44
336.597	1536.44
336.825	1486.44
337.053	1488.44
337.281	1469.44
337.51	1456.44
337.738	1447.44
337.966	1421.44
338.194	1423.44
338.422	1400.44
338.65	1362.44
338.878	1366.44
339.106	1353.44
339.334	1386.44
339.562	1357.44
339.79	1341.44
340.018	1365.44
340.246	1352.44
340.474	1339.44
340.702	1316.44
340.93	1318.44
341.158	1336.44
341.386	1306.44
341.614	1309.44
341.842	1308.44
342.07	1295.44
342.298	1284.44
342.526	1305.44
342.754	1330.44
342.981	1316.44
343.209	1313.44
343.437	1396.44
343.665	1434.44
343.893	1516.44
344.12	1508.44
344.348	1519.44
344.576	1504.44
344.804	1442.44
345.031	1377.44
345.259	1354.44
345.487	1342.44
345.714	1326.44
345.942	1294.44
346.17	1330.44
346.397	1292.44
346.625	1262.44
346.853	1271.44
347.08	1256.44
347.308	1278.44
347.535	1295.44
347.763	1288.44
347.99	1253.44
348.218	1279.44
348.445	1242.44
348.673	1238.44
348.9	1254.44
349.128	1235.44
349.355	1246.44
349.583	1254.44
349.81	1241.44
350.037	1249.44
350.265	1215.44
350.492	1238.44
350.72	1223.44
350.947	1219.44
351.174	1215.44
351.402	1198.44
351.629	1219.44
351.856	1227.44
352.083	1218.44
352.311	1189.44
352.538	1236.44
352.765	1238.44
352.992	1172.44
353.22	1193.44
353.447	1184.44
353.674	1179.44
353.901	1176.44
354.128	1189.44
354.355	1224.44
354.583	1206.44
354.81	1193.44
355.037	1245.44
355.264	1228.44
355.491	1221.44
355.718	1218.44
355.945	1199.44
356.172	1235.44
356.399	1214.44
356.626	1228.44
356.853	1231.44
357.08	1240.44
357.307	1236.44
357.534	1215.44
357.761	1235.44
357.988	1208.44
358.215	1218.44
358.441	1214.44
358.668	1226.44
358.895	1198.44
359.122	1204.44
359.349	1239.44
359.576	1206.44
359.802	1240.44
360.029	1223.44
360.256	1227.44
360.483	1210.44
360.709	1215.44
360.936	1249.44
361.163	1200.44
361.39	1217.44
361.616	1236.44
361.843	1231.44
362.07	1223.44
362.296	1206.44
362.523	1242.44
362.749	1221.44
362.976	1249.44
363.203	1235.44
363.429	1198.44
363.656	1236.44
363.882	1190.44
364.109	1212.44
364.335	1227.44
364.562	1221.44
364.788	1188.44
365.015	1219.44
365.241	1197.44
365.468	1222.44
365.694	1220.44
365.92	1213.44
366.147	1204.44
366.373	1238.44
366.599	1237.44
366.826	1229.44
367.052	1224.44
367.278	1218.44
367.505	1220.44
367.731	1269.44
367.957	1220.44
368.184	1236.44
368.41	1266.44
368.636	1241.44
368.862	1249.44
369.089	1222.44
369.315	1280.44
369.541	1285.44
369.767	1230.44
369.993	1253.44
370.219	1269.44
370.445	1254.44
370.672	1282.44
370.898	1283.44
371.124	1325.44
371.35	1334.44
371.576	1304.44
371.802	1316.44
372.028	1296.44
372.254	1338.44
372.48	1351.44
372.706	1375.44
372.932	1410.44
373.158	1333.44
373.384	1354.44
373.61	1358.44
373.835	1321.44
374.061	1308.44
374.287	1344.44
374.513	1361.44
374.739	1392.44
374.965	1416.44
375.191	1441.44
375.416	1488.44
375.642	1393.44
375.868	1407.44
376.094	1330.44
376.319	1324.44
376.545	1355.44
376.771	1323.44
376.997	1325.44
377.222	1330.44
377.448	1319.44
377.674	1337.44
377.899	1337.44
378.125	1339.44
378.35	1337.44
378.576	1289.44
378.802	1311.44
379.027	1323.44
379.253	1304.44
379.478	1310.44
379.704	1335.44
379.929	1329.44
380.155	1301.44
380.38	1328.44
380.606	1304.44
380.831	1280.44
381.057	1326.44
381.282	1301.44
381.507	1327.44
381.733	1334.44
381.958	1290.44
382.184	1318.44
382.409	1363.44
382.634	1373.44
382.86	1378.44
383.085	1393.44
383.31	1425.44
383.535	1440.44
383.761	1449.44
383.986	1459.44
384.211	1500.44
384.436	1514.44
384.662	1513.44
384.887	1538.44
385.112	1537.44
385.337	1558.44
385.562	1557.44
385.787	1550.44
386.013	1606.44
386.238	1598.44
386.463	1599.44
386.688	1597.44
386.913	1559.44
387.138	1566.44
387.363	1572.44
387.588	1543.44
387.813	1559.44
388.038	1567.44
388.263	1574.44
388.488	1596.44
388.713	1577.44
388.938	1540.44
389.163	1556.44
389.387	1566.44
389.612	1545.44
389.837	1576.44
390.062	1600.44
390.287	1506.44
390.512	1547.44
390.736	1596.44
390.961	1596.44
391.186	1625.44
391.411	1682.44
391.636	1680.44
391.86	1717.44
392.085	1735.44
392.31	1693.44
392.534	1742.44
392.759	1672.44
392.984	1691.44
393.208	1726.44
393.433	1792.44
393.658	1848.44
393.882	1712.44
394.107	1681.44
394.331	1672.44
394.556	1663.44
394.78	1669.44
395.005	1686.44
395.229	1722.44
395.454	1716.44
395.678	1746.44
395.903	1706.44
396.127	1766.44
396.352	1717.44
396.576	1725.44
396.801	1756.44
397.025	1772.44
397.249	1793.44
397.474	1775.44
397.698	1783.44
397.922	1781.44
398.147	1786.44
398.371	1846.44
398.595	1862.44
398.82	1927.44
399.044	2014.44
399.268	2214.44
399.492	2454.44
399.717	2665.44
399.941	2716.44
400.165	2525.44
400.389	2327.44
400.613	2178.44
400.837	2089.44
401.062	2005.44
401.286	2008.44
401.51	1976.44
401.734	1933.44
401.958	1964.44
402.182	1975.44
402.406	1962.44
402.63	1982.44
402.854	2011.44
403.078	1997.44
403.302	2049.44
403.526	2109.44
403.75	2104.44
403.974	2130.44
404.198	2141.44
404.422	2170.44
404.645	2114.44
404.869	2084.44
405.093	2149.44
405.317	2064.44
405.541	2102.44
405.765	2094.44
405.988	2084.44
406.212	2116.44
406.436	2149.44
406.66	2172.44
406.883	2176.44
407.107	2310.44
407.331	2444.44
407.555	2482.44
407.778	2469.44
408.002	2384.44
408.226	2338.44
408.449	2356.44
408.673	2195.44
408.896	2210.44
409.12	2193.44
409.344	2147.44
409.567	2164.44
409.791	2169.44
410.014	2163.44
410.238	2084.44
410.461	2121.44
410.685	2177.44
410.908	2062.44
411.132	2038.44
411.355	1987.44
411.578	2050.44
411.802	2044.44
412.025	2027.44
412.249	2020.44
412.472	2029.44
412.695	2019.44
412.919	1943.44
413.142	1936.44
413.365	1927.44
413.589	1996.44
413.812	1944.44
414.035	1938.44
414.258	1958.44
414.482	1971.44
414.705	1973.44
414.928	1940.44
415.151	1910.44
415.374	1933.44
415.597	1961.44
415.821	1932.44
416.044	1874.44
416.267	1896.44
416.49	1838.44
416.713	1864.44
416.936	1916.44
417.159	1880.44
417.382	1866.44
417.605	1844.44
417.828	1873.44
418.051	1912.44
418.274	1901.44
418.497	1880.44
418.72	1950.44
418.943	1914.44
419.166	2005.44
419.389	2180.44
419.611	2128.44
419.834	2054.44
420.057	2002.44
420.28	1914.44
420.503	1865.44
420.726	1850.44
420.948	1851.44
421.171	1846.44
421.394	1855.44
421.617	1843.44
421.839	1874.44
422.062	1896.44
422.285	1852.44
422.507	1932.44
422.73	1929.44
422.953	1944.44
423.175	1907.44
423.398	1930.44
423.621	1944.44
423.843	1913.44
424.066	1942.44
424.288	1938.44
424.511	1913.44
424.733	1913.44
424.956	1883.44
425.178	1881.44
425.401	1869.44
425.623	1894.44
425.846	1842.44
426.068	1838.44
426.291	1790.44
426.513	1823.44
426.735	1774.44
426.958	1785.44
427.18	1749.44
427.402	1768.44
427.625	1744.44
427.847	1697.44
428.069	1682.44
428.292	1734.44
428.514	1727.44
428.736	1692.44
428.958	1744.44
429.181	1695.44
429.403	1680.44
429.625	1674.44
429.847	1652.44
430.069	1699.44
430.292	1711.44
430.514	1674.44
430.736	1706.44
430.958	1686.44
431.18	1681.44
431.402	1709.44
431.624	1694.44
431.846	1688.44
432.068	1727.44
432.29	1711.44
432.512	1706.44
432.734	1759.44
432.956	1718.44
433.178	1703.44
433.4	1759.44
433.622	1737.44
433.844	1777.44
434.066	1772.44
434.287	1758.44
434.509	1803.44
434.731	1864.44
434.953	1856.44
435.175	1881.44
435.397	1865.44
435.618	1808.44
435.84	1759.44
436.062	1780.44
436.284	1712.44
436.505	1699.44
436.727	1704.44
436.949	1712.44
437.17	1672.44
437.392	1693.44
437.614	1657.44
437.835	1621.44
438.057	1671.44
438.278	1628.44
438.5	1664.44
438.721	1622.44
438.943	1668.44
439.165	1652.44
439.386	1677.44
439.608	1680.44
439.829	1706.44
440.05	1678.44
440.272	1664.44
440.493	1665.44
440.715	1717.44
440.936	1705.44
441.158	1789.44
441.379	1817.44
441.6	1839.44
441.822	1893.44
442.043	1910.44
442.264	1812.44
442.486	1812.44
442.707	1820.44
442.928	1809.44
443.149	1825.44
443.371	1824.44
443.592	1874.44
443.813	1818.44
444.034	1878.44
444.255	1912.44
444.476	1974.44
444.698	2028.44
444.919	2118.44
445.14	2178.44
445.361	2000.44
445.582	1911.44
445.803	1797.44
446.024	1764.44
446.245	1729.44
446.466	1756.44
446.687	1661.44
446.908	1671.44
447.129	1656.44
447.35	1632.44
447.571	1632.44
447.792	1547.44
448.013	1590.44
448.234	1529.44
448.455	1560.44
448.675	1557.44
448.896	1523.44
449.117	1521.44
449.338	1509.44
449.559	1488.44
449.779	1540.44
450	1501.44
450.221	1519.44
450.442	1518.44
450.662	1530.44
450.883	1531.44
451.104	1586.44
451.324	1514.44
451.545	1539.44
451.766	1544.44
451.986	1529.44
452.207	1506.44
452.428	1491.44
452.648	1495.44
452.869	1464.44
453.089	1463.44
453.31	1490.44
453.53	1451.44
453.751	1442.44
453.971	1481.44
454.192	1489.44
454.412	1428.44
454.633	1409.44
454.853	1476.44
455.073	1423.44
455.294	1428.44
455.514	1436.44
455.734	1462.44
455.955	1447.44
456.175	1464.44
456.395	1432.44
456.616	1463.44
456.836	1445.44
457.056	1434.44
457.276	1420.44
457.497	1447.44
457.717	1452.44
457.937	1444.44
458.157	1489.44
458.377	1521.44
458.598	1510.44
458.818	1586.44
459.038	1601.44
459.258	1636.44
459.478	1682.44
459.698	1761.44
459.918	1767.44
460.138	1837.44
460.358	1873.44
460.578	1897.44
460.798	1960.44
461.018	1940.44
461.238	1957.44
461.458	1918.44
461.678	1930.44
461.898	1999.44
462.118	1984.44
462.338	2005.44
462.558	2112.44
462.777	2179.44
462.997	2282.44
463.217	2384.44
463.437	2428.44
463.657	2302.44
463.876	2207.44
464.096	2232.44
464.316	2196.44
464.536	2196.44
464.755	2111.44
464.975	2068.44
465.195	1952.44
465.414	1902.44
465.634	1806.44
465.854	1727.44
466.073	1683.44
466.293	1670.44
466.512	1621.44
466.732	1628.44
466.951	1602.44
467.171	1636.44
467.391	1647.44
467.61	1569.44
467.829	1605.44
468.049	1594.44
468.268	1560.44
468.488	1569.44
468.707	1537.44
468.927	1561.44
469.146	1551.44
469.365	1547.44
469.585	1568.44
469.804	1602.44
470.023	1611.44
470.243	1626.44
470.462	1648.44
470.681	1678.44
470.901	1672.44
471.12	1641.44
471.339	1614.44
471.558	1603.44
471.777	1600.44
471.997	1577.44
472.216	1553.44
472.435	1573.44
472.654	1523.44
472.873	1519.44
473.092	1535.44
473.311	1578.44
473.53	1520.44
473.749	1504.44
473.968	1560.44
474.187	1537.44
474.406	1501.44
474.625	1545.44
474.844	1566.44
475.063	1541.44
475.282	1572.44
475.501	1545.44
475.72	1532.44
475.939	1570.44
476.158	1614.44
476.377	1622.44
476.596	1615.44
476.814	1672.44
477.033	1641.44
477.252	1673.44
477.471	1725.44
477.69	1724.44
477.908	1779.44
478.127	1799.44
478.346	1820.44
478.564	1903.44
478.783	1898.44
479.002	1906.44
479.22	1871.44
479.439	1911.44
479.658	1894.44
479.876	1916.44
480.095	1964.44
480.313	1982.44
480.532	1991.44
480.751	2034.44
480.969	1984.44
481.188	1925.44
481.406	1927.44
481.624	1917.44
481.843	1840.44
482.061	1843.44
482.28	1846.44
482.498	1870.44
482.717	1838.44
482.935	1830.44
483.153	1845.44
483.372	1848.44
483.59	1877.44
483.808	1868.44
484.027	1862.44
484.245	1898.44
484.463	1971.44
484.681	1923.44
484.9	1954.44
485.118	1957.44
485.336	2007.44
485.554	1926.44
485.772	1992.44
485.99	1924.44
486.209	1993.44
486.427	1993.44
486.645	1940.44
486.863	1940.44
487.081	1952.44
487.299	1962.44
487.517	1963.44
487.735	1944.44
487.953	1929.44
488.171	1936.44
488.389	1925.44
488.607	1903.44
488.825	1923.44
489.043	1914.44
489.261	1897.44
489.479	1918.44
489.696	1915.44
489.914	1892.44
490.132	1933.44
490.35	1896.44
490.568	1904.44
490.786	1913.44
491.003	1936.44
491.221	1924.44
491.439	1913.44
491.657	1926.44
491.874	1950.44
492.092	1894.44
492.31	1908.44
492.527	1905.44
492.745	1927.44
492.963	1939.44
493.18	1918.44
493.398	1928.44
493.615	1924.44
493.833	1973.44
494.05	1986.44
494.268	1981.44
494.485	1924.44
494.703	1944.44
494.92	1977.44
495.138	1959.44
495.355	1973.44
495.573	1997.44
495.79	1983.44
496.008	2032.44
496.225	2017.44
496.442	2051.44
496.66	2062.44
496.877	2099.44
497.094	2100.44
497.312	2172.44
497.529	2196.44
497.746	2233.44
497.963	2316.44
498.181	2370.44
498.398	2450.44
498.615	2574.44
498.832	2720.44
499.049	2895.44
499.267	3094.44
499.484	3328.44
499.701	3645.44
499.918	3902.44
500.135	4351.44
500.352	4732.44
500.569	4878.44
500.786	4882.44
501.003	4629.44
501.22	4298.44
501.437	3886.44
501.654	3523.44
501.871	3286.44
502.088	3034.44
502.305	2909.44
502.522	2776.44
502.739	2663.44
502.956	2496.44
503.172	2416.44
503.389	2323.44
503.606	2254.44
503.823	2236.44
504.04	2188.44
504.256	2234.44
504.473	2230.44
504.69	2269.44
504.907	2218.44
505.123	2073.44
505.34	1970.44
505.557	1955.44
505.773	1894.44
505.99	1862.44
506.207	1826.44
506.423	1747.44
506.64	1749.44
506.856	1733.44
507.073	1752.44
507.289	1743.44
507.506	1679.44
507.722	1723.44
507.939	1682.44
508.155	1662.44
508.372	1614.44
508.588	1597.44
508.805	1621.44
509.021	1589.44
509.238	1598.44
509.454	1584.44
509.67	1546.44
509.887	1575.44
510.103	1562.44
510.319	1572.44
510.536	1552.44
510.752	1523.44
510.968	1565.44
511.184	1550.44
511.401	1562.44
511.617	1552.44
511.833	1573.44
512.049	1549.44
512.265	1527.44
512.481	1560.44
512.698	1513.44
512.914	1539.44
513.13	1488.44
513.346	1538.44
513.562	1522.44
513.778	1532.44
513.994	1513.44
514.21	1522.44
514.426	1516.44
514.642	1538.44
514.858	1579.44
515.074	1591.44
515.29	1607.44
515.506	1599.44
515.721	1614.44
515.937	1623.44
516.153	1680.44
516.369	1682.44
516.585	1743.44
516.801	1786.44
517.016	1821.44
517.232	1895.44
517.448	1934.44
517.664	2007.44
517.879	1996.44
518.095	1998.44
518.311	1978.44
518.527	1908.44
518.742	1889.44
518.958	1781.44
519.173	1742.44
519.389	1688.44
519.605	1637.44
519.82	1607.44
520.036	1614.44
520.251	1580.44
520.467	1518.44
520.682	1519.44
520.898	1502.44
521.113	1481.44
521.329	1517.44
521.544	1456.44
521.76	1470.44
521.975	1454.44
522.19	1449.44
522.406	1411.44
522.621	1456.44
522.836	1415.44
523.052	1427.44
523.267	1425.44
523.482	1389.44
523.698	1404.44
523.913	1390.44
524.128	1425.44
524.343	1371.44
524.559	1359.44
524.774	1384.44
524.989	1365.44
525.204	1380.44
525.419	1398.44
525.634	1357.44
525.849	1400.44
526.064	1409.44
526.28	1374.44
526.495	1341.44
526.71	1378.44
526.925	1354.44
527.14	1355.44
527.355	1353.44
527.57	1349.44
527.785	1338.44
527.999	1349.44
528.214	1381.44
528.429	1331.44
528.644	1330.44
528.859	1370.44
529.074	1323.44
529.289	1344.44
529.503	1346.44
529.718	1326.44
529.933	1330.44
530.148	1327.44
530.363	1336.44
530.577	1337.44
530.792	1316.44
531.007	1318.44
531.221	1306.44
531.436	1334.44
531.651	1316.44
531.865	1306.44
532.08	1328.44
532.295	1344.44
532.509	1304.44
532.724	1317.44
532.938	1344.44
533.153	1300.44
533.367	1357.44
533.582	1336.44
533.796	1315.44
534.011	1316.44
534.225	1300.44
534.44	1300.44
534.654	1309.44
534.868	1295.44
535.083	1285.44
535.297	1314.44
535.511	1275.44
535.726	1242.44
535.94	1277.44
536.154	1245.44
536.369	1242.44
536.583	1220.44
536.797	1254.44
537.011	1233.44
537.225	1263.44
537.44	1218.44
537.654	1223.44
537.868	1213.44
538.082	1200.44
538.296	1217.44
538.51	1224.44
538.724	1236.44
538.938	1202.44
539.153	1223.44
539.367	1221.44
539.581	1229.44
539.795	1227.44
540.009	1204.44
540.222	1204.44
540.436	1194.44
540.65	1161.44
540.864	1183.44
541.078	1173.44
541.292	1177.44
541.506	1178.44
541.72	1184.44
541.934	1181.44
542.147	1168.44
542.361	1208.44
542.575	1157.44
542.789	1163.44
543.002	1178.44
543.216	1140.44
543.43	1185.44
543.644	1146.44
543.857	1158.44
544.071	1151.44
544.285	1186.44
544.498	1191.44
544.712	1167.44
544.925	1166.44
545.139	1182.44
545.352	1209.44
545.566	1200.44
545.779	1184.44
545.993	1187.44
546.206	1196.44
546.42	1188.44
546.633	1161.44
546.847	1190.44
547.06	1194.44
547.274	1198.44
547.487	1142.44
547.7	1194.44
547.914	1191.44
548.127	1198.44
548.34	1202.44
548.554	1199.44
548.767	1228.44
548.98	1229.44
549.193	1191.44
549.407	1218.44
549.62	1210.44
549.833	1243.44
550.046	1219.44
550.259	1183.44
550.473	1177.44
550.686	1164.44
550.899	1164.44
551.112	1171.44
551.325	1141.44
551.538	1154.44
551.751	1152.44
551.964	1186.44
552.177	1217.44
552.39	1176.44
552.603	1213.44
552.816	1258.44
553.029	1244.44
553.242	1246.44
553.455	1278.44
553.667	1279.44
553.88	1254.44
554.093	1225.44
554.306	1202.44
554.519	1191.44
554.732	1164.44
554.944	1152.44
555.157	1137.44
555.37	1123.44
555.583	1080.44
555.795	1091.44
556.008	1082.44
556.221	1067.44
556.433	1058.44
556.646	1069.44
556.859	1034.44
557.071	1030.44
557.284	1059.44
557.496	1020.44
557.709	1009.44
557.921	1000.44
558.134	993.44
558.346	1020.44
558.559	1011.44
558.771	987.44
558.984	978.44
559.196	978.44
559.409	970.44
559.621	1006.44
559.833	951.44
560.046	988.44
560.258	980.44
560.47	981.44
560.683	975.44
560.895	978.44
561.107	967.44
561.32	966.44
561.532	957.44
561.744	969.44
561.956	977.44
562.168	977.44
562.381	979.44
562.593	979.44
562.805	963.44
563.017	975.44
563.229	977.44
563.441	1009.44
563.653	1006.44
563.865	989.44
564.077	994.44
564.289	1038.44
564.501	1060.44
564.713	1062.44
564.925	1052.44
565.137	1063.44
565.349	1110.44
565.561	1123.44
565.773	1192.44
565.985	1188.44
566.197	1257.44
566.408	1328.44
566.62	1384.44
566.832	1469.44
567.044	1513.44
567.255	1533.44
567.467	1544.44
567.679	1604.44
567.891	1652.44
568.102	1675.44
568.314	1641.44
568.526	1481.44
568.737	1396.44
568.949	1304.44
569.161	1248.44
569.372	1184.44
569.584	1112.44
569.795	1093.44
570.007	1034.44
570.218	998.44
570.43	1010.44
570.641	991.44
570.853	1015.44
571.064	978.44
571.276	969.44
571.487	950.44
571.698	923.44
571.91	911.44
572.121	877.44
572.333	884.44
572.544	838.44
572.755	872.44
572.966	840.44
573.178	840.44
573.389	823.44
573.6	793.44
573.811	806.44
574.023	805.44
574.234	793.44
574.445	799.44
574.656	783.44
574.867	799.44
575.078	756.44
575.289	781.44
575.501	772.44
575.712	764.44
575.923	779.44
576.134	762.44
576.345	764.44
576.556	772.44
576.767	727.44
576.978	737.44
577.188	756.44
577.399	738.44
577.61	721.44
577.821	710.44
578.032	704.44
578.243	717.44
578.454	724.44
578.665	726.44
578.875	681.44
579.086	698.44
579.297	716.44
579.508	711.44
579.718	702.44
579.929	681.44
580.14	705.44
580.35	708.44
580.561	667.44
580.772	690.44
580.982	699.44
581.193	651.44
581.403	697.44
581.614	689.44
581.825	672.44
582.035	656.44
582.246	658.44
582.456	680.44
582.667	668.44
582.877	663.44
583.087	644.44
583.298	650.44
583.508	673.44
583.719	650.44
583.929	630.44
584.139	660.44
584.35	638.44
584.56	631.44
584.77	662.44
584.981	657.44
585.191	643.44
585.401	636.44
585.611	632.44
585.821	624.44
586.032	634.44
586.242	629.44
586.452	632.44
586.662	625.44
586.872	618.44
587.082	646.44
587.292	640.44
587.502	621.44
587.713	643.44
587.923	652.44
588.133	618.44
588.343	628.44
588.553	610.44
588.762	640.44
588.972	638.44
589.182	662.44
589.392	638.44
589.602	647.44
589.812	646.44
590.022	659.44
590.232	624.44
590.441	662.44
590.651	649.44
590.861	638.44
591.071	651.44
591.281	662.44
591.49	652.44
591.7	649.44
591.91	666.44
592.119	654.44
592.329	682.44
592.539	698.44
592.748	725.44
592.958	727.44
593.167	754.44
593.377	748.44
593.587	783.44
593.796	788.44
594.006	749.44
594.215	769.44
594.424	790.44
594.634	750.44
594.843	714.44
595.053	709.44
595.262	685.44
595.472	670.44
595.681	646.44
595.89	648.44
596.1	658.44
596.309	601.44
596.518	613.44
596.727	594.44
596.937	598.44
597.146	581.44
597.355	595.44
597.564	574.44
597.774	558.44
597.983	540.44
598.192	545.44
598.401	551.44
598.61	525.44
598.819	533.44
599.028	533.44
599.237	511.44
599.446	503.44
599.655	520.44
599.864	544.44
600.073	498.44
600.282	528.44
600.491	514.44
600.7	515.44
600.909	520.44
601.118	520.44
601.327	502.44
601.536	514.44
601.745	521.44
601.953	522.44
602.162	502.44
602.371	496.44
602.58	500.44
602.789	506.44
602.997	485.44
603.206	504.44
603.415	488.44
603.623	481.44
603.832	482.44
604.041	477.44
604.249	483.44
604.458	478.44
604.666	486.44
604.875	481.44
605.084	487.44
605.292	482.44
605.501	446.44
605.709	480.44
605.918	456.44
606.126	466.44
606.334	481.44
606.543	473.44
606.751	449.44
606.96	469.44
607.168	464.44
607.376	462.44
607.585	469.44
607.793	440.44
608.001	464.44
608.21	452.44
608.418	473.44
608.626	457.44
608.834	435.44
609.043	454.44
609.251	446.44
609.459	446.44
609.667	450.44
609.875	444.44
610.083	446.44
610.291	453.44
610.499	451.44
610.707	443.44
610.916	450.44
611.124	431.44
611.332	442.44
611.54	453.44
611.748	470.44
611.955	449.44
612.163	438.44
612.371	441.44
612.579	450.44
612.787	430.44
612.995	445.44
613.203	464.44
613.411	433.44
613.618	418.44
613.826	429.44
614.034	443.44
614.242	429.44
614.449	428.44
614.657	424.44
614.865	417.44
615.072	446.44
615.28	439.44
615.488	423.44
615.695	434.44
615.903	436.44
616.111	429.44
616.318	448.44
616.526	434.44
616.733	440.44
616.941	416.44
617.148	435.44
617.356	448.44
617.563	426.44
617.771	447.44
617.978	422.44
618.185	424.44
618.393	427.44
618.6	413.44
618.807	419.44
619.015	448.44
619.222	414.44
619.429	417.44
619.637	421.44
619.844	415.44
620.051	390.44
620.258	397.44
620.466	399.44
620.673	398.44
620.88	377.44
621.087	395.44
621.294	406.44
621.501	388.44
621.708	416.44
621.915	406.44
622.122	399.44
622.329	402.44
622.536	399.44
622.743	404.44
622.95	395.44
623.157	398.44
623.364	368.44
623.571	379.44
623.778	414.44
623.985	395.44
624.192	394.44
624.399	387.44
624.606	363.44
624.812	364.44
625.019	374.44
625.226	381.44
625.433	384.44
625.639	374.44
625.846	375.44
626.053	380.44
626.259	371.44
626.466	371.44
626.673	375.44
626.879	364.44
627.086	365.44
627.293	358.44
627.499	349.44
627.706	380.44
627.912	366.44
628.119	357.44
628.325	365.44
628.532	352.44
628.738	362.44
628.945	369.44
629.151	355.44
629.357	348.44
629.564	378.44
629.77	330.44
629.976	337.44
630.183	358.44
630.389	347.44
630.595	318.44
630.802	337.44
631.008	330.44
631.214	338.44
631.42	329.44
631.627	346.44
631.833	336.44
632.039	323.44
632.245	310.44
632.451	339.44
632.657	338.44
632.863	316.44
633.069	322.44
633.275	336.44
633.481	313.44
633.688	322.44
633.893	303.44
634.099	318.44
634.305	326.44
634.511	316.44
634.717	316.44
634.923	318.44
635.129	307.44
635.335	325.44
635.541	322.44
635.747	296.44
635.952	307.44
636.158	302.44
636.364	297.44
636.57	331.44
636.775	306.44
636.981	317.44
637.187	320.44
637.392	304.44
637.598	293.44
637.804	302.44
638.009	289.44
638.215	307.44
638.421	318.44
638.626	301.44
638.832	315.44
639.037	323.44
639.243	301.44
639.448	300.44
639.654	297.44
639.859	292.44
640.065	294.44
640.27	305.44
640.475	302.44
640.681	276.44
640.886	315.44
641.091	303.44
641.297	294.44
641.502	278.44
641.707	289.44
641.913	289.44
642.118	297.44
642.323	282.44
642.528	294.44
642.733	279.44
642.939	264.44
643.144	289.44
643.349	282.44
643.554	296.44
643.759	274.44
643.964	289.44
644.169	278.44
644.374	276.44
644.579	299.44
644.784	286.44
644.989	273.44
645.194	308.44
645.399	287.44
645.604	286.44
645.809	298.44
646.014	288.44
646.219	308.44
646.423	319.44
646.628	284.44
646.833	276.44
647.038	294.44
647.243	307.44
647.447	304.44
647.652	307.44
647.857	309.44
648.062	320.44
648.266	320.44
648.471	305.44
648.676	321.44
648.88	308.44
649.085	297.44
649.289	312.44
649.494	287.44
649.698	296.44
649.903	297.44
650.107	296.44
650.312	302.44
650.516	305.44
650.721	296.44
650.925	291.44
651.13	281.44
651.334	260.44
651.539	294.44
651.743	284.44
651.947	278.44
652.152	280.44
652.356	276.44
652.56	288.44
652.764	259.44
652.969	266.44
653.173	276.44
653.377	279.44
653.581	286.44
653.785	270.44
653.99	261.44
654.194	273.44
654.398	276.44
654.602	274.44
654.806	271.44
655.01	296.44
655.214	271.44
655.418	291.44
655.622	295.44
655.826	293.44
656.03	317.44
656.234	324.44
656.438	336.44
656.642	333.44
656.846	317.44
657.049	284.44
657.253	273.44
657.457	272.44
657.661	236.44
657.865	214.44
658.068	210.44
658.272	187.44
658.476	171.44
658.68	171.44
658.883	169.44
659.087	160.44
659.291	158.44
659.494	153.44
659.698	139.44
659.901	129.44
660.105	129.44
660.309	128.44
660.512	115.44
660.716	110.44
660.919	105.44
661.123	119.44
661.326	117.44
661.53	99.44
661.733	107.44
661.936	103.44
662.14	104.44
662.343	94.44
662.546	92.44
662.75	83.44
662.953	94.44
663.156	73.44
663.36	85.44
663.563	77.44
663.766	85.44
663.969	85.44
664.173	71.44
664.376	74.44
664.579	85.44
664.782	77.44
664.985	78.44
665.188	80.44
665.391	83.44
665.594	82.44
665.797	94.44
666	90.44
666.203	72.44
666.406	86.44
666.609	84.44
666.812	82.44
667.015	83.44
667.218	88.44
667.421	75.44
667.624	89.44
667.827	83.44
668.03	74.44
668.232	72.44
668.435	64.44
668.638	83.44
668.841	77.44
669.043	71.44
669.246	96.44
669.449	64.44
669.651	94.44
669.854	88.44
670.057	94.44
670.259	78.44
670.462	79.44
670.665	83.44
670.867	82.44
671.07	61.44
671.272	88.44
671.475	75.44
671.677	80.44
671.88	90.44
672.082	82.44
672.284	87.44
672.487	78.44
672.689	74.44
672.892	85.44
