Data from NiCl2@0.25M.TitratingCurve.Agarose3%dH2O.NegLispCup.LampEnergy10.LIBS07252019_HRD10591_18-25-31-573.txt Node
Date: Thu Jul 25 18:25:31 EDT 2019
User: cochatt
Spectrometer: HR+D1059
Trigger mode: 1
Integration Time (sec): 1.000000E-1
Scans to average: 1
Electric dark correction enabled: true
Nonlinearity correction enabled: false
Boxcar width: 0
XAxis mode: Wavelengths
Number of Pixels in Spectrum: 2048
>>>>>Begin Spectral Data<<<<<
223.165	-21.88
223.4	-21.88
223.635	-21.88
223.869	-32.88
224.104	-6.88
224.338	-18.88
224.573	5.12
224.808	-16.88
225.042	-5.88
225.277	-12.88
225.511	-11.88
225.746	11.12
225.98	4.12
226.215	16.12
226.449	24.12
226.683	22.12
226.918	27.12
227.152	18.12
227.387	28.12
227.621	35.12
227.856	61.12
228.09	54.12
228.324	49.12
228.559	36.12
228.793	70.12
229.027	102.12
229.262	121.12
229.496	119.12
229.73	135.12
229.964	137.12
230.199	143.12
230.433	131.12
230.667	149.12
230.901	155.12
231.136	144.12
231.37	165.12
231.604	151.12
231.838	161.12
232.072	154.12
232.306	175.12
232.541	157.12
232.775	173.12
233.009	157.12
233.243	174.12
233.477	177.12
233.711	175.12
233.945	181.12
234.179	171.12
234.413	171.12
234.647	180.12
234.881	157.12
235.115	172.12
235.349	166.12
235.583	177.12
235.817	187.12
236.051	167.12
236.285	162.12
236.519	181.12
236.753	187.12
236.987	195.12
237.221	189.12
237.455	182.12
237.689	186.12
237.922	205.12
238.156	191.12
238.39	200.12
238.624	207.12
238.858	213.12
239.091	199.12
239.325	206.12
239.559	205.12
239.793	209.12
240.027	218.12
240.26	202.12
240.494	222.12
240.728	221.12
240.961	215.12
241.195	215.12
241.429	210.12
241.662	212.12
241.896	228.12
242.13	241.12
242.363	224.12
242.597	241.12
242.83	245.12
243.064	245.12
243.298	258.12
243.531	261.12
243.765	251.12
243.998	266.12
244.232	246.12
244.465	257.12
244.699	257.12
244.932	272.12
245.166	273.12
245.399	266.12
245.633	261.12
245.866	269.12
246.099	277.12
246.333	272.12
246.566	294.12
246.8	263.12
247.033	277.12
247.266	266.12
247.5	288.12
247.733	281.12
247.966	306.12
248.2	285.12
248.433	313.12
248.666	303.12
248.899	298.12
249.133	298.12
249.366	302.12
249.599	297.12
249.832	305.12
250.066	310.12
250.299	299.12
250.532	313.12
250.765	334.12
250.998	315.12
251.231	314.12
251.465	333.12
251.698	345.12
251.931	306.12
252.164	336.12
252.397	329.12
252.63	323.12
252.863	332.12
253.096	356.12
253.329	348.12
253.562	337.12
253.795	353.12
254.028	340.12
254.261	342.12
254.494	343.12
254.727	339.12
254.96	344.12
255.193	355.12
255.426	357.12
255.659	331.12
255.892	349.12
256.124	336.12
256.357	362.12
256.59	371.12
256.823	367.12
257.056	355.12
257.289	392.12
257.521	373.12
257.754	363.12
257.987	369.12
258.22	360.12
258.452	381.12
258.685	371.12
258.918	383.12
259.151	383.12
259.383	391.12
259.616	374.12
259.849	377.12
260.081	387.12
260.314	388.12
260.547	409.12
260.779	392.12
261.012	385.12
261.244	387.12
261.477	394.12
261.71	404.12
261.942	405.12
262.175	399.12
262.407	438.12
262.64	407.12
262.872	446.12
263.105	412.12
263.337	427.12
263.57	418.12
263.802	417.12
264.035	431.12
264.267	439.12
264.499	452.12
264.732	432.12
264.964	435.12
265.197	455.12
265.429	430.12
265.661	440.12
265.894	448.12
266.126	456.12
266.358	445.12
266.591	437.12
266.823	450.12
267.055	456.12
267.287	444.12
267.52	441.12
267.752	472.12
267.984	457.12
268.216	456.12
268.448	494.12
268.681	469.12
268.913	465.12
269.145	474.12
269.377	479.12
269.609	489.12
269.841	483.12
270.073	465.12
270.306	499.12
270.538	477.12
270.77	482.12
271.002	489.12
271.234	494.12
271.466	507.12
271.698	481.12
271.93	478.12
272.162	512.12
272.394	497.12
272.626	486.12
272.858	470.12
273.09	495.12
273.322	514.12
273.553	505.12
273.785	521.12
274.017	516.12
274.249	513.12
274.481	519.12
274.713	534.12
274.945	547.12
275.176	529.12
275.408	527.12
275.64	540.12
275.872	546.12
276.104	536.12
276.335	531.12
276.567	542.12
276.799	536.12
277.031	550.12
277.262	525.12
277.494	550.12
277.726	544.12
277.957	554.12
278.189	543.12
278.421	547.12
278.652	542.12
278.884	562.12
279.115	583.12
279.347	582.12
279.579	565.12
279.81	569.12
280.042	565.12
280.273	591.12
280.505	598.12
280.736	594.12
280.968	573.12
281.199	584.12
281.431	594.12
281.662	611.12
281.894	594.12
282.125	611.12
282.356	612.12
282.588	621.12
282.819	598.12
283.051	598.12
283.282	614.12
283.513	597.12
283.745	625.12
283.976	616.12
284.207	627.12
284.439	607.12
284.67	625.12
284.901	602.12
285.132	627.12
285.364	621.12
285.595	604.12
285.826	639.12
286.057	637.12
286.288	627.12
286.52	658.12
286.751	646.12
286.982	668.12
287.213	646.12
287.444	663.12
287.675	649.12
287.906	666.12
288.138	670.12
288.369	658.12
288.6	652.12
288.831	656.12
289.062	660.12
289.293	656.12
289.524	656.12
289.755	659.12
289.986	674.12
290.217	673.12
290.448	676.12
290.679	686.12
290.91	667.12
291.141	673.12
291.371	667.12
291.602	677.12
291.833	661.12
292.064	690.12
292.295	669.12
292.526	695.12
292.757	680.12
292.987	676.12
293.218	660.12
293.449	675.12
293.68	678.12
293.91	702.12
294.141	680.12
294.372	675.12
294.603	693.12
294.833	707.12
295.064	686.12
295.295	686.12
295.525	695.12
295.756	721.12
295.987	687.12
296.217	730.12
296.448	717.12
296.679	691.12
296.909	719.12
297.14	723.12
297.37	710.12
297.601	725.12
297.831	706.12
298.062	736.12
298.292	722.12
298.523	744.12
298.753	755.12
298.984	776.12
299.214	735.12
299.445	735.12
299.675	745.12
299.905	753.12
300.136	741.12
300.366	730.12
300.597	740.12
300.827	750.12
301.057	765.12
301.288	779.12
301.518	801.12
301.748	779.12
301.979	770.12
302.209	786.12
302.439	767.12
302.669	771.12
302.9	756.12
303.13	771.12
303.36	784.12
303.59	760.12
303.82	793.12
304.051	787.12
304.281	775.12
304.511	768.12
304.741	770.12
304.971	823.12
305.201	757.12
305.431	798.12
305.661	769.12
305.891	771.12
306.121	772.12
306.352	780.12
306.582	731.12
306.812	749.12
307.042	741.12
307.272	730.12
307.502	743.12
307.731	760.12
307.961	756.12
308.191	784.12
308.421	751.12
308.651	753.12
308.881	731.12
309.111	750.12
309.341	727.12
309.571	748.12
309.8	749.12
310.03	726.12
310.26	773.12
310.49	760.12
310.72	773.12
310.949	744.12
311.179	757.12
311.409	778.12
311.639	782.12
311.868	792.12
312.098	799.12
312.328	800.12
312.557	815.12
312.787	793.12
313.017	799.12
313.246	829.12
313.476	791.12
313.706	810.12
313.935	838.12
314.165	816.12
314.394	797.12
314.624	824.12
314.853	797.12
315.083	813.12
315.312	815.12
315.542	818.12
315.771	784.12
316.001	777.12
316.23	807.12
316.46	794.12
316.689	823.12
316.919	799.12
317.148	811.12
317.377	795.12
317.607	791.12
317.836	813.12
318.065	786.12
318.295	785.12
318.524	785.12
318.753	787.12
318.983	808.12
319.212	813.12
319.441	793.12
319.67	789.12
319.9	783.12
320.129	795.12
320.358	809.12
320.587	802.12
320.816	800.12
321.046	778.12
321.275	787.12
321.504	793.12
321.733	804.12
321.962	806.12
322.191	816.12
322.42	794.12
322.649	825.12
322.878	821.12
323.108	807.12
323.337	786.12
323.566	813.12
323.795	840.12
324.024	809.12
324.253	819.12
324.482	806.12
324.71	827.12
324.939	845.12
325.168	850.12
325.397	842.12
325.626	840.12
325.855	829.12
326.084	879.12
326.313	894.12
326.542	884.12
326.77	901.12
326.999	869.12
327.228	846.12
327.457	882.12
327.686	864.12
327.914	869.12
328.143	893.12
328.372	901.12
328.6	871.12
328.829	870.12
329.058	880.12
329.287	863.12
329.515	858.12
329.744	886.12
329.972	907.12
330.201	887.12
330.43	909.12
330.658	884.12
330.887	887.12
331.115	921.12
331.344	940.12
331.572	920.12
331.801	978.12
332.03	955.12
332.258	1001.12
332.486	1035.12
332.715	1049.12
332.943	1129.12
333.172	1152.12
333.4	1155.12
333.629	1204.12
333.857	1194.12
334.085	1188.12
334.314	1200.12
334.542	1165.12
334.771	1157.12
334.999	1144.12
335.227	1119.12
335.455	1122.12
335.684	1090.12
335.912	1110.12
336.14	1083.12
336.369	1094.12
336.597	1089.12
336.825	1069.12
337.053	1074.12
337.281	1058.12
337.51	1025.12
337.738	1008.12
337.966	1026.12
338.194	998.12
338.422	964.12
338.65	969.12
338.878	970.12
339.106	963.12
339.334	982.12
339.562	943.12
339.79	933.12
340.018	931.12
340.246	890.12
340.474	893.12
340.702	930.12
340.93	936.12
341.158	944.12
341.386	929.12
341.614	959.12
341.842	941.12
342.07	920.12
342.298	914.12
342.526	906.12
342.754	916.12
342.981	930.12
343.209	938.12
343.437	962.12
343.665	1059.12
343.893	1105.12
344.12	1148.12
344.348	1115.12
344.576	1087.12
344.804	995.12
345.031	968.12
345.259	952.12
345.487	945.12
345.714	913.12
345.942	913.12
346.17	921.12
346.397	899.12
346.625	873.12
346.853	861.12
347.08	884.12
347.308	870.12
347.535	878.12
347.763	890.12
347.99	880.12
348.218	905.12
348.445	881.12
348.673	875.12
348.9	869.12
349.128	888.12
349.355	861.12
349.583	867.12
349.81	857.12
350.037	868.12
350.265	859.12
350.492	838.12
350.72	829.12
350.947	848.12
351.174	847.12
351.402	870.12
351.629	834.12
351.856	854.12
352.083	832.12
352.311	823.12
352.538	843.12
352.765	872.12
352.992	844.12
353.22	845.12
353.447	869.12
353.674	848.12
353.901	831.12
354.128	832.12
354.355	823.12
354.583	825.12
354.81	844.12
355.037	855.12
355.264	842.12
355.491	861.12
355.718	862.12
355.945	823.12
356.172	862.12
356.399	854.12
356.626	867.12
356.853	870.12
357.08	858.12
357.307	836.12
357.534	863.12
357.761	871.12
357.988	867.12
358.215	825.12
358.441	858.12
358.668	856.12
358.895	825.12
359.122	828.12
359.349	839.12
359.576	853.12
359.802	849.12
360.029	858.12
360.256	873.12
360.483	848.12
360.709	837.12
360.936	861.12
361.163	868.12
361.39	840.12
361.616	830.12
361.843	839.12
362.07	847.12
362.296	861.12
362.523	841.12
362.749	831.12
362.976	839.12
363.203	853.12
363.429	840.12
363.656	842.12
363.882	846.12
364.109	853.12
364.335	836.12
364.562	830.12
364.788	849.12
365.015	859.12
365.241	842.12
365.468	835.12
365.694	816.12
365.92	832.12
366.147	820.12
366.373	823.12
366.599	841.12
366.826	867.12
367.052	839.12
367.278	855.12
367.505	835.12
367.731	873.12
367.957	854.12
368.184	846.12
368.41	852.12
368.636	880.12
368.862	856.12
369.089	852.12
369.315	869.12
369.541	887.12
369.767	873.12
369.993	869.12
370.219	883.12
370.445	880.12
370.672	907.12
370.898	902.12
371.124	929.12
371.35	914.12
371.576	928.12
371.802	929.12
372.028	914.12
372.254	877.12
372.48	923.12
372.706	936.12
372.932	961.12
373.158	960.12
373.384	956.12
373.61	921.12
373.835	940.12
374.061	925.12
374.287	919.12
374.513	980.12
374.739	974.12
374.965	1008.12
375.191	1067.12
375.416	1032.12
375.642	1011.12
375.868	986.12
376.094	976.12
376.319	931.12
376.545	927.12
376.771	925.12
376.997	909.12
377.222	934.12
377.448	947.12
377.674	893.12
377.899	905.12
378.125	905.12
378.35	886.12
378.576	905.12
378.802	901.12
379.027	900.12
379.253	934.12
379.478	908.12
379.704	906.12
379.929	902.12
380.155	936.12
380.38	927.12
380.606	901.12
380.831	941.12
381.057	912.12
381.282	916.12
381.507	902.12
381.733	915.12
381.958	927.12
382.184	955.12
382.409	959.12
382.634	948.12
382.86	981.12
383.085	962.12
383.31	995.12
383.535	998.12
383.761	1002.12
383.986	1036.12
384.211	1055.12
384.436	1080.12
384.662	1076.12
384.887	1109.12
385.112	1136.12
385.337	1109.12
385.562	1128.12
385.787	1142.12
386.013	1135.12
386.238	1120.12
386.463	1122.12
386.688	1173.12
386.913	1095.12
387.138	1118.12
387.363	1125.12
387.588	1105.12
387.813	1123.12
388.038	1096.12
388.263	1101.12
388.488	1112.12
388.713	1134.12
388.938	1111.12
389.163	1090.12
389.387	1123.12
389.612	1094.12
389.837	1097.12
390.062	1091.12
390.287	1105.12
390.512	1090.12
390.736	1134.12
390.961	1152.12
391.186	1151.12
391.411	1161.12
391.636	1219.12
391.86	1265.12
392.085	1297.12
392.31	1263.12
392.534	1250.12
392.759	1207.12
392.984	1208.12
393.208	1189.12
393.433	1177.12
393.658	1160.12
393.882	1220.12
394.107	1189.12
394.331	1199.12
394.556	1178.12
394.78	1198.12
395.005	1214.12
395.229	1223.12
395.454	1240.12
395.678	1281.12
395.903	1298.12
396.127	1232.12
396.352	1219.12
396.576	1185.12
396.801	1173.12
397.025	1205.12
397.249	1237.12
397.474	1318.12
397.698	1273.12
397.922	1290.12
398.147	1262.12
398.371	1312.12
398.595	1367.12
398.82	1386.12
399.044	1510.12
399.268	1654.12
399.492	1905.12
399.717	2165.12
399.941	2201.12
400.165	1989.12
400.389	1799.12
400.613	1657.12
400.837	1542.12
401.062	1497.12
401.286	1425.12
401.51	1472.12
401.734	1447.12
401.958	1473.12
402.182	1498.12
402.406	1491.12
402.63	1469.12
402.854	1508.12
403.078	1562.12
403.302	1529.12
403.526	1586.12
403.75	1618.12
403.974	1653.12
404.198	1665.12
404.422	1685.12
404.645	1671.12
404.869	1606.12
405.093	1639.12
405.317	1625.12
405.541	1606.12
405.765	1597.12
405.988	1563.12
406.212	1629.12
406.436	1568.12
406.66	1615.12
406.883	1643.12
407.107	1719.12
407.331	1821.12
407.555	1918.12
407.778	1907.12
408.002	1817.12
408.226	1743.12
408.449	1699.12
408.673	1655.12
408.896	1607.12
409.12	1622.12
409.344	1643.12
409.567	1617.12
409.791	1651.12
410.014	1626.12
410.238	1597.12
410.461	1592.12
410.685	1543.12
410.908	1530.12
411.132	1504.12
411.355	1442.12
411.578	1486.12
411.802	1463.12
412.025	1441.12
412.249	1511.12
412.472	1501.12
412.695	1478.12
412.919	1447.12
413.142	1384.12
413.365	1435.12
413.589	1423.12
413.812	1414.12
414.035	1419.12
414.258	1413.12
414.482	1425.12
414.705	1455.12
414.928	1435.12
415.151	1453.12
415.374	1400.12
415.597	1431.12
415.821	1392.12
416.044	1388.12
416.267	1346.12
416.49	1376.12
416.713	1384.12
416.936	1379.12
417.159	1391.12
417.382	1378.12
417.605	1389.12
417.828	1391.12
418.051	1394.12
418.274	1417.12
418.497	1403.12
418.72	1430.12
418.943	1442.12
419.166	1544.12
419.389	1639.12
419.611	1610.12
419.834	1528.12
420.057	1480.12
420.28	1418.12
420.503	1424.12
420.726	1377.12
420.948	1410.12
421.171	1372.12
421.394	1415.12
421.617	1397.12
421.839	1388.12
422.062	1400.12
422.285	1390.12
422.507	1392.12
422.73	1453.12
422.953	1467.12
423.175	1429.12
423.398	1469.12
423.621	1465.12
423.843	1495.12
424.066	1462.12
424.288	1463.12
424.511	1477.12
424.733	1438.12
424.956	1413.12
425.178	1443.12
425.401	1397.12
425.623	1425.12
425.846	1397.12
426.068	1344.12
426.291	1333.12
426.513	1362.12
426.735	1285.12
426.958	1313.12
427.18	1262.12
427.402	1277.12
427.625	1251.12
427.847	1262.12
428.069	1248.12
428.292	1262.12
428.514	1261.12
428.736	1240.12
428.958	1247.12
429.181	1193.12
429.403	1199.12
429.625	1199.12
429.847	1222.12
430.069	1194.12
430.292	1195.12
430.514	1197.12
430.736	1204.12
430.958	1219.12
431.18	1205.12
431.402	1217.12
431.624	1209.12
431.846	1246.12
432.068	1249.12
432.29	1277.12
432.512	1249.12
432.734	1239.12
432.956	1233.12
433.178	1228.12
433.4	1228.12
433.622	1242.12
433.844	1249.12
434.066	1252.12
434.287	1266.12
434.509	1323.12
434.731	1359.12
434.953	1385.12
435.175	1391.12
435.397	1383.12
435.618	1305.12
435.84	1267.12
436.062	1233.12
436.284	1210.12
436.505	1221.12
436.727	1234.12
436.949	1230.12
437.17	1182.12
437.392	1210.12
437.614	1203.12
437.835	1168.12
438.057	1183.12
438.278	1166.12
438.5	1173.12
438.721	1145.12
438.943	1205.12
439.165	1186.12
439.386	1195.12
439.608	1174.12
439.829	1162.12
440.05	1233.12
440.272	1236.12
440.493	1243.12
440.715	1233.12
440.936	1277.12
441.158	1277.12
441.379	1347.12
441.6	1392.12
441.822	1397.12
442.043	1430.12
442.264	1358.12
442.486	1358.12
442.707	1359.12
442.928	1382.12
443.149	1351.12
443.371	1339.12
443.592	1342.12
443.813	1364.12
444.034	1396.12
444.255	1472.12
444.476	1512.12
444.698	1616.12
444.919	1651.12
445.14	1692.12
445.361	1550.12
445.582	1456.12
445.803	1366.12
446.024	1315.12
446.245	1315.12
446.466	1292.12
446.687	1252.12
446.908	1263.12
447.129	1209.12
447.35	1213.12
447.571	1184.12
447.792	1137.12
448.013	1150.12
448.234	1131.12
448.455	1110.12
448.675	1118.12
448.896	1122.12
449.117	1123.12
449.338	1108.12
449.559	1098.12
449.779	1073.12
450	1078.12
450.221	1091.12
450.442	1146.12
450.662	1101.12
450.883	1113.12
451.104	1121.12
451.324	1146.12
451.545	1116.12
451.766	1133.12
451.986	1130.12
452.207	1121.12
452.428	1143.12
452.648	1095.12
452.869	1079.12
453.089	1065.12
453.31	1094.12
453.53	1065.12
453.751	1074.12
453.971	1067.12
454.192	1053.12
454.412	1068.12
454.633	1032.12
454.853	1062.12
455.073	1061.12
455.294	1060.12
455.514	1023.12
455.734	1013.12
455.955	1002.12
456.175	1022.12
456.395	1029.12
456.616	1003.12
456.836	1026.12
457.056	1033.12
457.276	1019.12
457.497	1044.12
457.717	1021.12
457.937	1027.12
458.157	1071.12
458.377	1086.12
458.598	1142.12
458.818	1149.12
459.038	1144.12
459.258	1197.12
459.478	1258.12
459.698	1291.12
459.918	1337.12
460.138	1339.12
460.358	1417.12
460.578	1475.12
460.798	1491.12
461.018	1489.12
461.238	1448.12
461.458	1451.12
461.678	1449.12
461.898	1496.12
462.118	1485.12
462.338	1590.12
462.558	1591.12
462.777	1707.12
462.997	1838.12
463.217	1965.12
463.437	1944.12
463.657	1807.12
463.876	1770.12
464.096	1720.12
464.316	1735.12
464.536	1719.12
464.755	1704.12
464.975	1613.12
465.195	1537.12
465.414	1416.12
465.634	1335.12
465.854	1293.12
466.073	1241.12
466.293	1233.12
466.512	1218.12
466.732	1183.12
466.951	1153.12
467.171	1153.12
467.391	1175.12
467.61	1140.12
467.829	1148.12
468.049	1150.12
468.268	1110.12
468.488	1125.12
468.707	1119.12
468.927	1137.12
469.146	1107.12
469.365	1146.12
469.585	1136.12
469.804	1174.12
470.023	1221.12
470.243	1200.12
470.462	1209.12
470.681	1213.12
470.901	1213.12
471.12	1198.12
471.339	1182.12
471.558	1146.12
471.777	1159.12
471.997	1149.12
472.216	1129.12
472.435	1106.12
472.654	1102.12
472.873	1095.12
473.092	1114.12
473.311	1082.12
473.53	1113.12
473.749	1096.12
473.968	1101.12
474.187	1093.12
474.406	1094.12
474.625	1098.12
474.844	1104.12
475.063	1099.12
475.282	1095.12
475.501	1093.12
475.72	1145.12
475.939	1130.12
476.158	1136.12
476.377	1129.12
476.596	1122.12
476.814	1145.12
477.033	1153.12
477.252	1189.12
477.471	1215.12
477.69	1227.12
477.908	1292.12
478.127	1309.12
478.346	1316.12
478.564	1358.12
478.783	1344.12
479.002	1365.12
479.22	1389.12
479.439	1380.12
479.658	1394.12
479.876	1384.12
480.095	1394.12
480.313	1469.12
480.532	1533.12
480.751	1493.12
480.969	1453.12
481.188	1371.12
481.406	1307.12
481.624	1308.12
481.843	1272.12
482.061	1259.12
482.28	1246.12
482.498	1269.12
482.717	1256.12
482.935	1244.12
483.153	1252.12
483.372	1241.12
483.59	1224.12
483.808	1241.12
484.027	1282.12
484.245	1279.12
484.463	1229.12
484.681	1271.12
484.9	1297.12
485.118	1317.12
485.336	1319.12
485.554	1282.12
485.772	1353.12
485.99	1337.12
486.209	1331.12
486.427	1337.12
486.645	1302.12
486.863	1321.12
487.081	1334.12
487.299	1302.12
487.517	1287.12
487.735	1293.12
487.953	1300.12
488.171	1319.12
488.389	1279.12
488.607	1298.12
488.825	1283.12
489.043	1293.12
489.261	1324.12
489.479	1301.12
489.696	1281.12
489.914	1321.12
490.132	1281.12
490.35	1336.12
490.568	1303.12
490.786	1297.12
491.003	1332.12
491.221	1311.12
491.439	1345.12
491.657	1329.12
491.874	1347.12
492.092	1321.12
492.31	1357.12
492.527	1338.12
492.745	1331.12
492.963	1356.12
493.18	1341.12
493.398	1380.12
493.615	1337.12
493.833	1357.12
494.05	1378.12
494.268	1403.12
494.485	1389.12
494.703	1395.12
494.92	1410.12
495.138	1390.12
495.355	1413.12
495.573	1432.12
495.79	1402.12
496.008	1411.12
496.225	1410.12
496.442	1423.12
496.66	1465.12
496.877	1517.12
497.094	1530.12
497.312	1567.12
497.529	1576.12
497.746	1620.12
497.963	1667.12
498.181	1753.12
498.398	1841.12
498.615	1920.12
498.832	2071.12
499.049	2257.12
499.267	2485.12
499.484	2681.12
499.701	2953.12
499.918	3303.12
500.135	3736.12
500.352	4184.12
500.569	4407.12
500.786	4346.12
501.003	4138.12
501.22	3768.12
501.437	3283.12
501.654	2907.12
501.871	2659.12
502.088	2452.12
502.305	2235.12
502.522	2097.12
502.739	1992.12
502.956	1951.12
503.172	1859.12
503.389	1723.12
503.606	1667.12
503.823	1684.12
504.04	1645.12
504.256	1649.12
504.473	1702.12
504.69	1719.12
504.907	1675.12
505.123	1590.12
505.34	1545.12
505.557	1457.12
505.773	1402.12
505.99	1359.12
506.207	1333.12
506.423	1290.12
506.64	1274.12
506.856	1279.12
507.073	1227.12
507.289	1185.12
507.506	1238.12
507.722	1218.12
507.939	1229.12
508.155	1203.12
508.372	1203.12
508.588	1166.12
508.805	1199.12
509.021	1167.12
509.238	1158.12
509.454	1157.12
509.67	1155.12
509.887	1145.12
510.103	1139.12
510.319	1126.12
510.536	1117.12
510.752	1112.12
510.968	1118.12
511.184	1109.12
511.401	1133.12
511.617	1128.12
511.833	1136.12
512.049	1071.12
512.265	1101.12
512.481	1134.12
512.698	1098.12
512.914	1119.12
513.13	1117.12
513.346	1122.12
513.562	1121.12
513.778	1117.12
513.994	1129.12
514.21	1118.12
514.426	1122.12
514.642	1113.12
514.858	1165.12
515.074	1147.12
515.29	1159.12
515.506	1178.12
515.721	1207.12
515.937	1207.12
516.153	1239.12
516.369	1291.12
516.585	1326.12
516.801	1366.12
517.016	1418.12
517.232	1485.12
517.448	1527.12
517.664	1582.12
517.879	1636.12
518.095	1653.12
518.311	1597.12
518.527	1508.12
518.742	1442.12
518.958	1375.12
519.173	1347.12
519.389	1302.12
519.605	1254.12
519.82	1239.12
520.036	1202.12
520.251	1189.12
520.467	1183.12
520.682	1130.12
520.898	1118.12
521.113	1142.12
521.329	1120.12
521.544	1105.12
521.76	1081.12
521.975	1056.12
522.19	1085.12
522.406	1051.12
522.621	1073.12
522.836	1081.12
523.052	1053.12
523.267	1061.12
523.482	1035.12
523.698	1040.12
523.913	986.12
524.128	1046.12
524.343	1027.12
524.559	1045.12
524.774	1042.12
524.989	1028.12
525.204	1017.12
525.419	1037.12
525.634	998.12
525.849	1001.12
526.064	1028.12
526.28	1030.12
526.495	1031.12
526.71	1039.12
526.925	1003.12
527.14	986.12
527.355	1004.12
527.57	964.12
527.785	990.12
527.999	1011.12
528.214	1027.12
528.429	990.12
528.644	1009.12
528.859	1003.12
529.074	984.12
529.289	996.12
529.503	969.12
529.718	1023.12
529.933	983.12
530.148	1000.12
530.363	995.12
530.577	1008.12
530.792	968.12
531.007	995.12
531.221	979.12
531.436	997.12
531.651	1039.12
531.865	996.12
532.08	1011.12
532.295	1008.12
532.509	1019.12
532.724	1012.12
532.938	1000.12
533.153	985.12
533.367	993.12
533.582	993.12
533.796	992.12
534.011	993.12
534.225	996.12
534.44	979.12
534.654	1001.12
534.868	953.12
535.083	974.12
535.297	972.12
535.511	963.12
535.726	953.12
535.94	960.12
536.154	957.12
536.369	939.12
536.583	934.12
536.797	942.12
537.011	935.12
537.225	951.12
537.44	917.12
537.654	887.12
537.868	917.12
538.082	906.12
538.296	916.12
538.51	902.12
538.724	899.12
538.938	897.12
539.153	886.12
539.367	896.12
539.581	888.12
539.795	889.12
540.009	902.12
540.222	861.12
540.436	897.12
540.65	886.12
540.864	875.12
541.078	883.12
541.292	875.12
541.506	893.12
541.72	915.12
541.934	895.12
542.147	899.12
542.361	867.12
542.575	863.12
542.789	867.12
543.002	855.12
543.216	893.12
543.43	893.12
543.644	864.12
543.857	885.12
544.071	886.12
544.285	908.12
544.498	923.12
544.712	912.12
544.925	885.12
545.139	874.12
545.352	909.12
545.566	941.12
545.779	924.12
545.993	905.12
546.206	889.12
546.42	915.12
546.633	923.12
546.847	905.12
547.06	915.12
547.274	920.12
547.487	917.12
547.7	874.12
547.914	921.12
548.127	922.12
548.34	925.12
548.554	929.12
548.767	914.12
548.98	927.12
549.193	926.12
549.407	921.12
549.62	931.12
549.833	941.12
550.046	941.12
550.259	920.12
550.473	911.12
550.686	906.12
550.899	911.12
551.112	900.12
551.325	886.12
551.538	901.12
551.751	896.12
551.964	921.12
552.177	923.12
552.39	923.12
552.603	961.12
552.816	978.12
553.029	988.12
553.242	1017.12
553.455	995.12
553.667	1027.12
553.88	1000.12
554.093	984.12
554.306	987.12
554.519	944.12
554.732	939.12
554.944	904.12
555.157	869.12
555.37	848.12
555.583	864.12
555.795	850.12
556.008	803.12
556.221	805.12
556.433	821.12
556.646	824.12
556.859	803.12
557.071	789.12
557.284	792.12
557.496	766.12
557.709	799.12
557.921	795.12
558.134	782.12
558.346	777.12
558.559	763.12
558.771	813.12
558.984	772.12
559.196	750.12
559.409	742.12
559.621	755.12
559.833	749.12
560.046	733.12
560.258	761.12
560.47	731.12
560.683	733.12
560.895	745.12
561.107	741.12
561.32	744.12
561.532	743.12
561.744	721.12
561.956	739.12
562.168	757.12
562.381	749.12
562.593	737.12
562.805	735.12
563.017	751.12
563.229	765.12
563.441	768.12
563.653	734.12
563.865	736.12
564.077	765.12
564.289	799.12
564.501	807.12
564.713	803.12
564.925	809.12
565.137	842.12
565.349	867.12
565.561	896.12
565.773	925.12
565.985	944.12
566.197	995.12
566.408	1087.12
566.62	1135.12
566.832	1216.12
567.044	1288.12
567.255	1310.12
567.467	1292.12
567.679	1376.12
567.891	1508.12
568.102	1495.12
568.314	1389.12
568.526	1290.12
568.737	1163.12
568.949	1074.12
569.161	995.12
569.372	903.12
569.584	888.12
569.795	856.12
570.007	793.12
570.218	792.12
570.43	803.12
570.641	778.12
570.853	797.12
571.064	796.12
571.276	776.12
571.487	771.12
571.698	719.12
571.91	682.12
572.121	721.12
572.333	689.12
572.544	646.12
572.755	653.12
572.966	670.12
573.178	642.12
573.389	639.12
573.6	634.12
573.811	625.12
574.023	622.12
574.234	624.12
574.445	616.12
574.656	616.12
574.867	621.12
575.078	608.12
575.289	624.12
575.501	618.12
575.712	591.12
575.923	589.12
576.134	592.12
576.345	580.12
576.556	607.12
576.767	565.12
576.978	570.12
577.188	564.12
577.399	567.12
577.61	566.12
577.821	544.12
578.032	554.12
578.243	553.12
578.454	574.12
578.665	545.12
578.875	537.12
579.086	537.12
579.297	524.12
579.508	529.12
579.718	510.12
579.929	515.12
580.14	530.12
580.35	535.12
580.561	510.12
580.772	499.12
580.982	502.12
581.193	502.12
581.403	526.12
581.614	539.12
581.825	527.12
582.035	507.12
582.246	518.12
582.456	519.12
582.667	510.12
582.877	487.12
583.087	513.12
583.298	531.12
583.508	521.12
583.719	528.12
583.929	509.12
584.139	504.12
584.35	489.12
584.56	486.12
584.77	497.12
584.981	500.12
585.191	489.12
585.401	483.12
585.611	473.12
585.821	490.12
586.032	497.12
586.242	484.12
586.452	462.12
586.662	505.12
586.872	481.12
587.082	483.12
587.292	504.12
587.502	489.12
587.713	483.12
587.923	498.12
588.133	487.12
588.343	494.12
588.553	486.12
588.762	460.12
588.972	504.12
589.182	503.12
589.392	511.12
589.602	497.12
589.812	507.12
590.022	499.12
590.232	472.12
590.441	497.12
590.651	491.12
590.861	501.12
591.071	493.12
591.281	517.12
591.49	509.12
591.7	530.12
591.91	506.12
592.119	528.12
592.329	549.12
592.539	554.12
592.748	570.12
592.958	617.12
593.167	614.12
593.377	594.12
593.587	626.12
593.796	642.12
594.006	640.12
594.215	648.12
594.424	643.12
594.634	625.12
594.843	627.12
595.053	584.12
595.262	547.12
595.472	552.12
595.681	513.12
595.89	511.12
596.1	494.12
596.309	465.12
596.518	488.12
596.727	468.12
596.937	489.12
597.146	462.12
597.355	440.12
597.564	459.12
597.774	448.12
597.983	447.12
598.192	443.12
598.401	427.12
598.61	433.12
598.819	418.12
599.028	416.12
599.237	409.12
599.446	426.12
599.655	416.12
599.864	405.12
600.073	396.12
600.282	422.12
600.491	416.12
600.7	429.12
600.909	417.12
601.118	414.12
601.327	384.12
601.536	398.12
601.745	392.12
601.953	400.12
602.162	378.12
602.371	383.12
602.58	413.12
602.789	396.12
602.997	405.12
603.206	394.12
603.415	381.12
603.623	368.12
603.832	368.12
604.041	378.12
604.249	377.12
604.458	394.12
604.666	370.12
604.875	372.12
605.084	386.12
605.292	373.12
605.501	372.12
605.709	384.12
605.918	396.12
606.126	385.12
606.334	346.12
606.543	371.12
606.751	375.12
606.96	365.12
607.168	375.12
607.376	352.12
607.585	371.12
607.793	371.12
608.001	368.12
608.21	348.12
608.418	356.12
608.626	354.12
608.834	349.12
609.043	363.12
609.251	355.12
609.459	360.12
609.667	343.12
609.875	337.12
610.083	341.12
610.291	367.12
610.499	360.12
610.707	341.12
610.916	353.12
611.124	357.12
611.332	358.12
611.54	336.12
611.748	347.12
611.955	350.12
612.163	348.12
612.371	343.12
612.579	351.12
612.787	356.12
612.995	342.12
613.203	347.12
613.411	339.12
613.618	338.12
613.826	347.12
614.034	343.12
614.242	350.12
614.449	333.12
614.657	359.12
614.865	334.12
615.072	341.12
615.28	339.12
615.488	337.12
615.695	350.12
615.903	336.12
616.111	323.12
616.318	352.12
616.526	345.12
616.733	347.12
616.941	322.12
617.148	351.12
617.356	317.12
617.563	335.12
617.771	349.12
617.978	344.12
618.185	325.12
618.393	315.12
618.6	332.12
618.807	358.12
619.015	339.12
619.222	342.12
619.429	344.12
619.637	346.12
619.844	342.12
620.051	309.12
620.258	318.12
620.466	323.12
620.673	306.12
620.88	304.12
621.087	305.12
621.294	322.12
621.501	322.12
621.708	328.12
621.915	314.12
622.122	330.12
622.329	321.12
622.536	303.12
622.743	312.12
622.95	317.12
623.157	307.12
623.364	316.12
623.571	317.12
623.778	303.12
623.985	300.12
624.192	316.12
624.399	314.12
624.606	290.12
624.812	288.12
625.019	291.12
625.226	296.12
625.433	291.12
625.639	275.12
625.846	293.12
626.053	290.12
626.259	289.12
626.466	308.12
626.673	287.12
626.879	282.12
627.086	282.12
627.293	258.12
627.499	283.12
627.706	296.12
627.912	295.12
628.119	293.12
628.325	280.12
628.532	279.12
628.738	269.12
628.945	278.12
629.151	258.12
629.357	271.12
629.564	278.12
629.77	281.12
629.976	281.12
630.183	285.12
630.389	277.12
630.595	267.12
630.802	263.12
631.008	248.12
631.214	255.12
631.42	259.12
631.627	250.12
631.833	243.12
632.039	261.12
632.245	259.12
632.451	251.12
632.657	259.12
632.863	268.12
633.069	250.12
633.275	261.12
633.481	261.12
633.688	246.12
633.893	260.12
634.099	259.12
634.305	245.12
634.511	262.12
634.717	247.12
634.923	237.12
635.129	259.12
635.335	249.12
635.541	237.12
635.747	248.12
635.952	257.12
636.158	254.12
636.364	244.12
636.57	262.12
636.775	229.12
636.981	240.12
637.187	242.12
637.392	245.12
637.598	240.12
637.804	232.12
638.009	253.12
638.215	239.12
638.421	255.12
638.626	233.12
638.832	233.12
639.037	229.12
639.243	209.12
639.448	224.12
639.654	238.12
639.859	224.12
640.065	210.12
640.27	221.12
640.475	211.12
640.681	224.12
640.886	235.12
641.091	241.12
641.297	230.12
641.502	232.12
641.707	221.12
641.913	227.12
642.118	228.12
642.323	204.12
642.528	230.12
642.733	226.12
642.939	237.12
643.144	209.12
643.349	217.12
643.554	202.12
643.759	217.12
643.964	213.12
644.169	224.12
644.374	213.12
644.579	216.12
644.784	224.12
644.989	214.12
645.194	226.12
645.399	213.12
645.604	222.12
645.809	215.12
646.014	217.12
646.219	237.12
646.423	202.12
646.628	209.12
646.833	217.12
647.038	212.12
647.243	220.12
647.447	209.12
647.652	224.12
647.857	225.12
648.062	229.12
648.266	232.12
648.471	221.12
648.676	237.12
648.88	241.12
649.085	227.12
649.289	228.12
649.494	205.12
649.698	219.12
649.903	197.12
650.107	196.12
650.312	210.12
650.516	210.12
650.721	205.12
650.925	198.12
651.13	187.12
651.334	193.12
651.539	192.12
651.743	194.12
651.947	182.12
652.152	187.12
652.356	180.12
652.56	167.12
652.764	183.12
652.969	173.12
653.173	177.12
653.377	160.12
653.581	159.12
653.785	175.12
653.99	179.12
654.194	148.12
654.398	168.12
654.602	156.12
654.806	164.12
655.01	159.12
655.214	151.12
655.418	175.12
655.622	167.12
655.826	149.12
656.03	145.12
656.234	150.12
656.438	148.12
656.642	158.12
656.846	160.12
657.049	147.12
657.253	148.12
657.457	145.12
657.661	129.12
657.865	123.12
658.068	112.12
658.272	122.12
658.476	124.12
658.68	128.12
658.883	106.12
659.087	111.12
659.291	121.12
659.494	103.12
659.698	111.12
659.901	104.12
660.105	100.12
660.309	94.12
660.512	83.12
660.716	98.12
660.919	104.12
661.123	96.12
661.326	87.12
661.53	92.12
661.733	92.12
661.936	96.12
662.14	71.12
662.343	79.12
662.546	90.12
662.75	85.12
662.953	90.12
663.156	86.12
663.36	84.12
663.563	87.12
663.766	84.12
663.969	86.12
664.173	93.12
664.376	83.12
664.579	81.12
664.782	89.12
664.985	84.12
665.188	85.12
665.391	67.12
665.594	82.12
665.797	68.12
666	67.12
666.203	85.12
666.406	74.12
666.609	73.12
666.812	82.12
667.015	83.12
667.218	72.12
667.421	70.12
667.624	77.12
667.827	83.12
668.03	73.12
668.232	91.12
668.435	89.12
668.638	78.12
668.841	80.12
669.043	65.12
669.246	81.12
669.449	85.12
669.651	81.12
669.854	81.12
670.057	83.12
670.259	76.12
670.462	79.12
670.665	75.12
670.867	77.12
671.07	81.12
671.272	74.12
671.475	88.12
671.677	80.12
671.88	81.12
672.082	77.12
672.284	90.12
672.487	88.12
672.689	87.12
672.892	88.12
