Data from NiCl2@0.25M.TitratingCurve.Agarose3%dH2O.NegLispCup.LampEnergy10.LIBS07252019_HRD10591_18-23-42-573.txt Node
Date: Thu Jul 25 18:23:42 EDT 2019
User: cochatt
Spectrometer: HR+D1059
Trigger mode: 1
Integration Time (sec): 1.000000E-1
Scans to average: 1
Electric dark correction enabled: true
Nonlinearity correction enabled: false
Boxcar width: 0
XAxis mode: Wavelengths
Number of Pixels in Spectrum: 2048
>>>>>Begin Spectral Data<<<<<
223.165	-26.19
223.4	-26.19
223.635	-26.19
223.869	-24.19
224.104	-15.19
224.338	-11.19
224.573	-15.19
224.808	-2.19
225.042	-17.19
225.277	-4.19
225.511	-8.19
225.746	8.81
225.98	0.81
226.215	7.81
226.449	28.81
226.683	23.81
226.918	16.81
227.152	36.81
227.387	27.81
227.621	40.81
227.856	26.81
228.09	35.81
228.324	56.81
228.559	50.81
228.793	72.81
229.027	110.81
229.262	125.81
229.496	127.81
229.73	144.81
229.964	126.81
230.199	152.81
230.433	150.81
230.667	141.81
230.901	138.81
231.136	147.81
231.37	162.81
231.604	149.81
231.838	166.81
232.072	175.81
232.306	168.81
232.541	163.81
232.775	169.81
233.009	154.81
233.243	167.81
233.477	164.81
233.711	175.81
233.945	178.81
234.179	184.81
234.413	172.81
234.647	180.81
234.881	175.81
235.115	156.81
235.349	169.81
235.583	168.81
235.817	176.81
236.051	164.81
236.285	183.81
236.519	178.81
236.753	191.81
236.987	187.81
237.221	197.81
237.455	177.81
237.689	193.81
237.922	200.81
238.156	197.81
238.39	201.81
238.624	191.81
238.858	189.81
239.091	184.81
239.325	193.81
239.559	194.81
239.793	221.81
240.027	200.81
240.26	190.81
240.494	218.81
240.728	216.81
240.961	212.81
241.195	216.81
241.429	218.81
241.662	209.81
241.896	222.81
242.13	244.81
242.363	220.81
242.597	230.81
242.83	229.81
243.064	231.81
243.298	248.81
243.531	220.81
243.765	241.81
243.998	258.81
244.232	258.81
244.465	253.81
244.699	263.81
244.932	253.81
245.166	259.81
245.399	265.81
245.633	259.81
245.866	266.81
246.099	262.81
246.333	261.81
246.566	252.81
246.8	263.81
247.033	277.81
247.266	275.81
247.5	289.81
247.733	286.81
247.966	285.81
248.2	276.81
248.433	292.81
248.666	286.81
248.899	287.81
249.133	295.81
249.366	300.81
249.599	285.81
249.832	304.81
250.066	318.81
250.299	305.81
250.532	326.81
250.765	296.81
250.998	303.81
251.231	325.81
251.465	315.81
251.698	306.81
251.931	312.81
252.164	328.81
252.397	324.81
252.63	338.81
252.863	350.81
253.096	327.81
253.329	325.81
253.562	345.81
253.795	346.81
254.028	345.81
254.261	331.81
254.494	362.81
254.727	357.81
254.96	359.81
255.193	358.81
255.426	355.81
255.659	357.81
255.892	365.81
256.124	358.81
256.357	360.81
256.59	339.81
256.823	346.81
257.056	352.81
257.289	360.81
257.521	361.81
257.754	367.81
257.987	366.81
258.22	375.81
258.452	363.81
258.685	374.81
258.918	379.81
259.151	378.81
259.383	381.81
259.616	364.81
259.849	400.81
260.081	394.81
260.314	386.81
260.547	383.81
260.779	389.81
261.012	378.81
261.244	390.81
261.477	385.81
261.71	404.81
261.942	390.81
262.175	406.81
262.407	419.81
262.64	400.81
262.872	407.81
263.105	410.81
263.337	422.81
263.57	400.81
263.802	423.81
264.035	417.81
264.267	422.81
264.499	432.81
264.732	402.81
264.964	417.81
265.197	424.81
265.429	432.81
265.661	421.81
265.894	448.81
266.126	441.81
266.358	433.81
266.591	446.81
266.823	436.81
267.055	455.81
267.287	450.81
267.52	440.81
267.752	454.81
267.984	446.81
268.216	461.81
268.448	472.81
268.681	447.81
268.913	468.81
269.145	444.81
269.377	470.81
269.609	454.81
269.841	474.81
270.073	459.81
270.306	468.81
270.538	492.81
270.77	481.81
271.002	451.81
271.234	453.81
271.466	497.81
271.698	494.81
271.93	493.81
272.162	502.81
272.394	469.81
272.626	490.81
272.858	512.81
273.09	503.81
273.322	492.81
273.553	501.81
273.785	510.81
274.017	509.81
274.249	508.81
274.481	515.81
274.713	505.81
274.945	505.81
275.176	537.81
275.408	485.81
275.64	509.81
275.872	537.81
276.104	538.81
276.335	515.81
276.567	539.81
276.799	535.81
277.031	539.81
277.262	531.81
277.494	534.81
277.726	547.81
277.957	532.81
278.189	530.81
278.421	553.81
278.652	549.81
278.884	549.81
279.115	562.81
279.347	568.81
279.579	543.81
279.81	553.81
280.042	568.81
280.273	579.81
280.505	564.81
280.736	567.81
280.968	594.81
281.199	584.81
281.431	571.81
281.662	596.81
281.894	594.81
282.125	597.81
282.356	613.81
282.588	592.81
282.819	619.81
283.051	607.81
283.282	601.81
283.513	609.81
283.745	615.81
283.976	610.81
284.207	605.81
284.439	604.81
284.67	606.81
284.901	616.81
285.132	621.81
285.364	637.81
285.595	612.81
285.826	594.81
286.057	646.81
286.288	618.81
286.52	629.81
286.751	636.81
286.982	642.81
287.213	641.81
287.444	644.81
287.675	628.81
287.906	625.81
288.138	656.81
288.369	661.81
288.6	654.81
288.831	663.81
289.062	670.81
289.293	634.81
289.524	660.81
289.755	638.81
289.986	647.81
290.217	660.81
290.448	657.81
290.679	644.81
290.91	659.81
291.141	654.81
291.371	671.81
291.602	676.81
291.833	651.81
292.064	672.81
292.295	673.81
292.526	680.81
292.757	647.81
292.987	689.81
293.218	652.81
293.449	687.81
293.68	660.81
293.91	662.81
294.141	641.81
294.372	663.81
294.603	689.81
294.833	694.81
295.064	718.81
295.295	689.81
295.525	678.81
295.756	688.81
295.987	678.81
296.217	672.81
296.448	687.81
296.679	716.81
296.909	690.81
297.14	671.81
297.37	712.81
297.601	702.81
297.831	720.81
298.062	736.81
298.292	709.81
298.523	733.81
298.753	727.81
298.984	732.81
299.214	722.81
299.445	725.81
299.675	711.81
299.905	734.81
300.136	726.81
300.366	739.81
300.597	729.81
300.827	742.81
301.057	773.81
301.288	798.81
301.518	768.81
301.748	780.81
301.979	756.81
302.209	777.81
302.439	768.81
302.669	742.81
302.9	768.81
303.13	754.81
303.36	773.81
303.59	754.81
303.82	758.81
304.051	754.81
304.281	769.81
304.511	769.81
304.741	755.81
304.971	754.81
305.201	752.81
305.431	770.81
305.661	782.81
305.891	752.81
306.121	722.81
306.352	737.81
306.582	735.81
306.812	753.81
307.042	736.81
307.272	768.81
307.502	726.81
307.731	717.81
307.961	749.81
308.191	723.81
308.421	730.81
308.651	721.81
308.881	752.81
309.111	730.81
309.341	734.81
309.571	721.81
309.8	767.81
310.03	772.81
310.26	753.81
310.49	748.81
310.72	736.81
310.949	736.81
311.179	780.81
311.409	769.81
311.639	768.81
311.868	766.81
312.098	784.81
312.328	762.81
312.557	812.81
312.787	758.81
313.017	816.81
313.246	780.81
313.476	780.81
313.706	809.81
313.935	814.81
314.165	816.81
314.394	806.81
314.624	823.81
314.853	813.81
315.083	777.81
315.312	807.81
315.542	807.81
315.771	822.81
316.001	805.81
316.23	801.81
316.46	778.81
316.689	787.81
316.919	793.81
317.148	791.81
317.377	801.81
317.607	773.81
317.836	821.81
318.065	807.81
318.295	781.81
318.524	753.81
318.753	772.81
318.983	797.81
319.212	775.81
319.441	803.81
319.67	759.81
319.9	782.81
320.129	797.81
320.358	778.81
320.587	790.81
320.816	801.81
321.046	781.81
321.275	762.81
321.504	800.81
321.733	809.81
321.962	771.81
322.191	791.81
322.42	802.81
322.649	806.81
322.878	815.81
323.108	802.81
323.337	839.81
323.566	813.81
323.795	810.81
324.024	827.81
324.253	810.81
324.482	804.81
324.71	807.81
324.939	822.81
325.168	831.81
325.397	808.81
325.626	832.81
325.855	861.81
326.084	854.81
326.313	851.81
326.542	876.81
326.77	855.81
326.999	853.81
327.228	867.81
327.457	869.81
327.686	855.81
327.914	858.81
328.143	886.81
328.372	872.81
328.6	890.81
328.829	868.81
329.058	885.81
329.287	869.81
329.515	847.81
329.744	873.81
329.972	895.81
330.201	888.81
330.43	873.81
330.658	889.81
330.887	908.81
331.115	911.81
331.344	918.81
331.572	930.81
331.801	935.81
332.03	966.81
332.258	1006.81
332.486	1038.81
332.715	1033.81
332.943	1038.81
333.172	1096.81
333.4	1178.81
333.629	1182.81
333.857	1207.81
334.085	1190.81
334.314	1156.81
334.542	1144.81
334.771	1144.81
334.999	1118.81
335.227	1108.81
335.455	1063.81
335.684	1080.81
335.912	1054.81
336.14	1032.81
336.369	1053.81
336.597	1055.81
336.825	1059.81
337.053	1031.81
337.281	1034.81
337.51	1006.81
337.738	997.81
337.966	951.81
338.194	965.81
338.422	973.81
338.65	938.81
338.878	952.81
339.106	973.81
339.334	976.81
339.562	933.81
339.79	917.81
340.018	914.81
340.246	894.81
340.474	901.81
340.702	882.81
340.93	872.81
341.158	919.81
341.386	914.81
341.614	914.81
341.842	898.81
342.07	908.81
342.298	880.81
342.526	900.81
342.754	886.81
342.981	910.81
343.209	940.81
343.437	977.81
343.665	1032.81
343.893	1111.81
344.12	1124.81
344.348	1064.81
344.576	1024.81
344.804	1004.81
345.031	960.81
345.259	920.81
345.487	905.81
345.714	864.81
345.942	900.81
346.17	896.81
346.397	898.81
346.625	865.81
346.853	858.81
347.08	869.81
347.308	854.81
347.535	879.81
347.763	888.81
347.99	848.81
348.218	843.81
348.445	879.81
348.673	855.81
348.9	848.81
349.128	857.81
349.355	847.81
349.583	852.81
349.81	852.81
350.037	853.81
350.265	833.81
350.492	824.81
350.72	832.81
350.947	853.81
351.174	841.81
351.402	864.81
351.629	841.81
351.856	815.81
352.083	824.81
352.311	864.81
352.538	824.81
352.765	869.81
352.992	841.81
353.22	800.81
353.447	808.81
353.674	834.81
353.901	798.81
354.128	818.81
354.355	831.81
354.583	809.81
354.81	842.81
355.037	838.81
355.264	816.81
355.491	835.81
355.718	822.81
355.945	817.81
356.172	854.81
356.399	853.81
356.626	839.81
356.853	879.81
357.08	836.81
357.307	827.81
357.534	857.81
357.761	839.81
357.988	861.81
358.215	863.81
358.441	829.81
358.668	845.81
358.895	841.81
359.122	826.81
359.349	854.81
359.576	857.81
359.802	842.81
360.029	839.81
360.256	813.81
360.483	836.81
360.709	857.81
360.936	848.81
361.163	846.81
361.39	848.81
361.616	846.81
361.843	871.81
362.07	859.81
362.296	848.81
362.523	842.81
362.749	832.81
362.976	831.81
363.203	815.81
363.429	823.81
363.656	838.81
363.882	839.81
364.109	813.81
364.335	823.81
364.562	808.81
364.788	838.81
365.015	808.81
365.241	849.81
365.468	818.81
365.694	817.81
365.92	819.81
366.147	826.81
366.373	826.81
366.599	841.81
366.826	817.81
367.052	823.81
367.278	830.81
367.505	826.81
367.731	842.81
367.957	830.81
368.184	846.81
368.41	841.81
368.636	848.81
368.862	854.81
369.089	853.81
369.315	831.81
369.541	860.81
369.767	855.81
369.993	879.81
370.219	865.81
370.445	876.81
370.672	888.81
370.898	878.81
371.124	903.81
371.35	926.81
371.576	890.81
371.802	911.81
372.028	911.81
372.254	932.81
372.48	925.81
372.706	925.81
372.932	953.81
373.158	931.81
373.384	926.81
373.61	930.81
373.835	897.81
374.061	913.81
374.287	916.81
374.513	919.81
374.739	969.81
374.965	983.81
375.191	1018.81
375.416	995.81
375.642	958.81
375.868	936.81
376.094	954.81
376.319	922.81
376.545	923.81
376.771	934.81
376.997	942.81
377.222	899.81
377.448	903.81
377.674	906.81
377.899	883.81
378.125	910.81
378.35	890.81
378.576	871.81
378.802	874.81
379.027	872.81
379.253	900.81
379.478	860.81
379.704	873.81
379.929	854.81
380.155	909.81
380.38	892.81
380.606	882.81
380.831	903.81
381.057	914.81
381.282	919.81
381.507	872.81
381.733	906.81
381.958	905.81
382.184	938.81
382.409	944.81
382.634	983.81
382.86	927.81
383.085	946.81
383.31	978.81
383.535	967.81
383.761	970.81
383.986	1015.81
384.211	1029.81
384.436	1038.81
384.662	1060.81
384.887	1084.81
385.112	1105.81
385.337	1111.81
385.562	1094.81
385.787	1108.81
386.013	1134.81
386.238	1108.81
386.463	1096.81
386.688	1108.81
386.913	1074.81
387.138	1068.81
387.363	1070.81
387.588	1068.81
387.813	1062.81
388.038	1043.81
388.263	1070.81
388.488	1065.81
388.713	1084.81
388.938	1056.81
389.163	1034.81
389.387	1048.81
389.612	1030.81
389.837	1061.81
390.062	1051.81
390.287	1063.81
390.512	1082.81
390.736	1070.81
390.961	1094.81
391.186	1089.81
391.411	1161.81
391.636	1162.81
391.86	1225.81
392.085	1208.81
392.31	1207.81
392.534	1194.81
392.759	1162.81
392.984	1152.81
393.208	1171.81
393.433	1147.81
393.658	1144.81
393.882	1174.81
394.107	1170.81
394.331	1171.81
394.556	1148.81
394.78	1176.81
395.005	1153.81
395.229	1180.81
395.454	1199.81
395.678	1219.81
395.903	1231.81
396.127	1180.81
396.352	1160.81
396.576	1147.81
396.801	1155.81
397.025	1175.81
397.249	1173.81
397.474	1230.81
397.698	1237.81
397.922	1222.81
398.147	1212.81
398.371	1259.81
398.595	1305.81
398.82	1342.81
399.044	1424.81
399.268	1618.81
399.492	1883.81
399.717	2083.81
399.941	2139.81
400.165	1862.81
400.389	1663.81
400.613	1546.81
400.837	1463.81
401.062	1378.81
401.286	1352.81
401.51	1414.81
401.734	1371.81
401.958	1372.81
402.182	1385.81
402.406	1396.81
402.63	1445.81
402.854	1447.81
403.078	1455.81
403.302	1535.81
403.526	1557.81
403.75	1593.81
403.974	1620.81
404.198	1581.81
404.422	1612.81
404.645	1620.81
404.869	1560.81
405.093	1584.81
405.317	1540.81
405.541	1481.81
405.765	1535.81
405.988	1470.81
406.212	1514.81
406.436	1489.81
406.66	1541.81
406.883	1547.81
407.107	1679.81
407.331	1736.81
407.555	1776.81
407.778	1774.81
408.002	1756.81
408.226	1645.81
408.449	1599.81
408.673	1555.81
408.896	1531.81
409.12	1533.81
409.344	1565.81
409.567	1523.81
409.791	1550.81
410.014	1507.81
410.238	1504.81
410.461	1497.81
410.685	1501.81
410.908	1469.81
411.132	1441.81
411.355	1388.81
411.578	1418.81
411.802	1416.81
412.025	1441.81
412.249	1427.81
412.472	1416.81
412.695	1376.81
412.919	1372.81
413.142	1388.81
413.365	1356.81
413.589	1342.81
413.812	1335.81
414.035	1357.81
414.258	1313.81
414.482	1362.81
414.705	1372.81
414.928	1399.81
415.151	1374.81
415.374	1365.81
415.597	1341.81
415.821	1325.81
416.044	1338.81
416.267	1329.81
416.49	1318.81
416.713	1335.81
416.936	1326.81
417.159	1331.81
417.382	1317.81
417.605	1338.81
417.828	1337.81
418.051	1355.81
418.274	1367.81
418.497	1372.81
418.72	1418.81
418.943	1367.81
419.166	1486.81
419.389	1571.81
419.611	1498.81
419.834	1468.81
420.057	1415.81
420.28	1384.81
420.503	1358.81
420.726	1321.81
420.948	1329.81
421.171	1343.81
421.394	1378.81
421.617	1343.81
421.839	1347.81
422.062	1322.81
422.285	1301.81
422.507	1350.81
422.73	1396.81
422.953	1377.81
423.175	1418.81
423.398	1424.81
423.621	1422.81
423.843	1416.81
424.066	1467.81
424.288	1433.81
424.511	1408.81
424.733	1382.81
424.956	1413.81
425.178	1347.81
425.401	1354.81
425.623	1343.81
425.846	1293.81
426.068	1282.81
426.291	1267.81
426.513	1254.81
426.735	1232.81
426.958	1245.81
427.18	1213.81
427.402	1191.81
427.625	1220.81
427.847	1192.81
428.069	1200.81
428.292	1199.81
428.514	1141.81
428.736	1166.81
428.958	1193.81
429.181	1185.81
429.403	1157.81
429.625	1124.81
429.847	1137.81
430.069	1152.81
430.292	1154.81
430.514	1108.81
430.736	1156.81
430.958	1174.81
431.18	1165.81
431.402	1161.81
431.624	1171.81
431.846	1184.81
432.068	1200.81
432.29	1175.81
432.512	1179.81
432.734	1172.81
432.956	1161.81
433.178	1172.81
433.4	1176.81
433.622	1175.81
433.844	1207.81
434.066	1189.81
434.287	1207.81
434.509	1230.81
434.731	1309.81
434.953	1344.81
435.175	1336.81
435.397	1329.81
435.618	1265.81
435.84	1198.81
436.062	1206.81
436.284	1166.81
436.505	1161.81
436.727	1201.81
436.949	1201.81
437.17	1169.81
437.392	1143.81
437.614	1157.81
437.835	1125.81
438.057	1104.81
438.278	1108.81
438.5	1123.81
438.721	1090.81
438.943	1121.81
439.165	1114.81
439.386	1126.81
439.608	1135.81
439.829	1160.81
440.05	1185.81
440.272	1194.81
440.493	1177.81
440.715	1231.81
440.936	1187.81
441.158	1217.81
441.379	1281.81
441.6	1337.81
441.822	1350.81
442.043	1369.81
442.264	1332.81
442.486	1288.81
442.707	1304.81
442.928	1308.81
443.149	1289.81
443.371	1301.81
443.592	1312.81
443.813	1351.81
444.034	1348.81
444.255	1359.81
444.476	1440.81
444.698	1518.81
444.919	1600.81
445.14	1681.81
445.361	1512.81
445.582	1368.81
445.803	1303.81
446.024	1254.81
446.245	1227.81
446.466	1214.81
446.687	1191.81
446.908	1166.81
447.129	1190.81
447.35	1152.81
447.571	1137.81
447.792	1109.81
448.013	1103.81
448.234	1078.81
448.455	1107.81
448.675	1073.81
448.896	1070.81
449.117	1073.81
449.338	1055.81
449.559	1057.81
449.779	1071.81
450	1018.81
450.221	1048.81
450.442	1091.81
450.662	1070.81
450.883	1087.81
451.104	1091.81
451.324	1086.81
451.545	1095.81
451.766	1090.81
451.986	1065.81
452.207	1081.81
452.428	1098.81
452.648	1062.81
452.869	1041.81
453.089	1039.81
453.31	1061.81
453.53	1052.81
453.751	1000.81
453.971	1017.81
454.192	1036.81
454.412	1042.81
454.633	1010.81
454.853	992.81
455.073	1024.81
455.294	1004.81
455.514	995.81
455.734	1004.81
455.955	954.81
456.175	1009.81
456.395	982.81
456.616	983.81
456.836	975.81
457.056	1007.81
457.276	980.81
457.497	1021.81
457.717	998.81
457.937	1013.81
458.157	1021.81
458.377	1021.81
458.598	1057.81
458.818	1074.81
459.038	1130.81
459.258	1165.81
459.478	1203.81
459.698	1205.81
459.918	1237.81
460.138	1314.81
460.358	1350.81
460.578	1384.81
460.798	1404.81
461.018	1394.81
461.238	1389.81
461.458	1403.81
461.678	1364.81
461.898	1394.81
462.118	1428.81
462.338	1520.81
462.558	1549.81
462.777	1585.81
462.997	1716.81
463.217	1861.81
463.437	1918.81
463.657	1736.81
463.876	1645.81
464.096	1627.81
464.316	1638.81
464.536	1631.81
464.755	1593.81
464.975	1550.81
465.195	1461.81
465.414	1357.81
465.634	1270.81
465.854	1215.81
466.073	1201.81
466.293	1208.81
466.512	1162.81
466.732	1118.81
466.951	1135.81
467.171	1119.81
467.391	1104.81
467.61	1100.81
467.829	1127.81
468.049	1112.81
468.268	1100.81
468.488	1076.81
468.707	1068.81
468.927	1090.81
469.146	1084.81
469.365	1098.81
469.585	1088.81
469.804	1110.81
470.023	1197.81
470.243	1164.81
470.462	1175.81
470.681	1182.81
470.901	1181.81
471.12	1151.81
471.339	1145.81
471.558	1125.81
471.777	1097.81
471.997	1094.81
472.216	1076.81
472.435	1078.81
472.654	1072.81
472.873	1047.81
473.092	1060.81
473.311	1058.81
473.53	1085.81
473.749	1070.81
473.968	1055.81
474.187	1047.81
474.406	1040.81
474.625	1072.81
474.844	1030.81
475.063	1045.81
475.282	1056.81
475.501	1079.81
475.72	1069.81
475.939	1077.81
476.158	1095.81
476.377	1102.81
476.596	1070.81
476.814	1103.81
477.033	1110.81
477.252	1121.81
477.471	1150.81
477.69	1184.81
477.908	1219.81
478.127	1252.81
478.346	1260.81
478.564	1288.81
478.783	1291.81
479.002	1345.81
479.22	1344.81
479.439	1317.81
479.658	1342.81
479.876	1303.81
480.095	1332.81
480.313	1396.81
480.532	1446.81
480.751	1425.81
480.969	1349.81
481.188	1316.81
481.406	1265.81
481.624	1223.81
481.843	1224.81
482.061	1213.81
482.28	1212.81
482.498	1204.81
482.717	1175.81
482.935	1209.81
483.153	1212.81
483.372	1187.81
483.59	1204.81
483.808	1207.81
484.027	1208.81
484.245	1219.81
484.463	1240.81
484.681	1250.81
484.9	1246.81
485.118	1240.81
485.336	1250.81
485.554	1239.81
485.772	1256.81
485.99	1261.81
486.209	1288.81
486.427	1288.81
486.645	1258.81
486.863	1275.81
487.081	1262.81
487.299	1257.81
487.517	1256.81
487.735	1233.81
487.953	1289.81
488.171	1257.81
488.389	1224.81
488.607	1256.81
488.825	1246.81
489.043	1212.81
489.261	1215.81
489.479	1268.81
489.696	1268.81
489.914	1254.81
490.132	1265.81
490.35	1283.81
490.568	1249.81
490.786	1270.81
491.003	1287.81
491.221	1304.81
491.439	1258.81
491.657	1290.81
491.874	1271.81
492.092	1282.81
492.31	1254.81
492.527	1311.81
492.745	1292.81
492.963	1290.81
493.18	1311.81
493.398	1329.81
493.615	1298.81
493.833	1299.81
494.05	1296.81
494.268	1347.81
494.485	1302.81
494.703	1321.81
494.92	1344.81
495.138	1309.81
495.355	1340.81
495.573	1358.81
495.79	1349.81
496.008	1357.81
496.225	1362.81
496.442	1367.81
496.66	1396.81
496.877	1437.81
497.094	1431.81
497.312	1460.81
497.529	1522.81
497.746	1555.81
497.963	1602.81
498.181	1650.81
498.398	1737.81
498.615	1857.81
498.832	1939.81
499.049	2129.81
499.267	2248.81
499.484	2514.81
499.701	2761.81
499.918	3100.81
500.135	3542.81
500.352	4043.81
500.569	4217.81
500.786	4169.81
501.003	3838.81
501.22	3445.81
501.437	3041.81
501.654	2673.81
501.871	2441.81
502.088	2262.81
502.305	2096.81
502.522	2003.81
502.739	1873.81
502.956	1755.81
503.172	1719.81
503.389	1628.81
503.606	1617.81
503.823	1580.81
504.04	1513.81
504.256	1564.81
504.473	1612.81
504.69	1600.81
504.907	1623.81
505.123	1524.81
505.34	1424.81
505.557	1366.81
505.773	1335.81
505.99	1298.81
506.207	1257.81
506.423	1242.81
506.64	1220.81
506.856	1215.81
507.073	1206.81
507.289	1197.81
507.506	1179.81
507.722	1172.81
507.939	1145.81
508.155	1140.81
508.372	1124.81
508.588	1144.81
508.805	1166.81
509.021	1130.81
509.238	1134.81
509.454	1115.81
509.67	1090.81
509.887	1101.81
510.103	1081.81
510.319	1081.81
510.536	1080.81
510.752	1089.81
510.968	1100.81
511.184	1081.81
511.401	1085.81
511.617	1097.81
511.833	1088.81
512.049	1093.81
512.265	1108.81
512.481	1086.81
512.698	1087.81
512.914	1097.81
513.13	1078.81
513.346	1095.81
513.562	1089.81
513.778	1080.81
513.994	1080.81
514.21	1077.81
514.426	1101.81
514.642	1089.81
514.858	1113.81
515.074	1123.81
515.29	1157.81
515.506	1156.81
515.721	1148.81
515.937	1143.81
516.153	1185.81
516.369	1214.81
516.585	1242.81
516.801	1285.81
517.016	1357.81
517.232	1413.81
517.448	1478.81
517.664	1523.81
517.879	1557.81
518.095	1558.81
518.311	1525.81
518.527	1428.81
518.742	1406.81
518.958	1312.81
519.173	1219.81
519.389	1210.81
519.605	1204.81
519.82	1184.81
520.036	1164.81
520.251	1104.81
520.467	1093.81
520.682	1080.81
520.898	1069.81
521.113	1070.81
521.329	1032.81
521.544	1041.81
521.76	1048.81
521.975	1036.81
522.19	1044.81
522.406	1013.81
522.621	1021.81
522.836	1004.81
523.052	1013.81
523.267	998.81
523.482	1017.81
523.698	1005.81
523.913	1004.81
524.128	975.81
524.343	1026.81
524.559	1014.81
524.774	973.81
524.989	995.81
525.204	1014.81
525.419	988.81
525.634	969.81
525.849	985.81
526.064	980.81
526.28	947.81
526.495	952.81
526.71	953.81
526.925	961.81
527.14	972.81
527.355	984.81
527.57	933.81
527.785	982.81
527.999	959.81
528.214	985.81
528.429	974.81
528.644	968.81
528.859	979.81
529.074	1000.81
529.289	964.81
529.503	976.81
529.718	968.81
529.933	949.81
530.148	970.81
530.363	961.81
530.577	950.81
530.792	934.81
531.007	953.81
531.221	973.81
531.436	961.81
531.651	965.81
531.865	964.81
532.08	962.81
532.295	998.81
532.509	956.81
532.724	930.81
532.938	962.81
533.153	959.81
533.367	964.81
533.582	938.81
533.796	937.81
534.011	986.81
534.225	935.81
534.44	944.81
534.654	928.81
534.868	953.81
535.083	942.81
535.297	923.81
535.511	902.81
535.726	917.81
535.94	901.81
536.154	894.81
536.369	894.81
536.583	907.81
536.797	896.81
537.011	889.81
537.225	892.81
537.44	898.81
537.654	886.81
537.868	857.81
538.082	866.81
538.296	883.81
538.51	907.81
538.724	875.81
538.938	894.81
539.153	902.81
539.367	885.81
539.581	878.81
539.795	881.81
540.009	867.81
540.222	871.81
540.436	866.81
540.65	837.81
540.864	861.81
541.078	864.81
541.292	890.81
541.506	892.81
541.72	844.81
541.934	873.81
542.147	908.81
542.361	856.81
542.575	847.81
542.789	850.81
543.002	836.81
543.216	848.81
543.43	830.81
543.644	845.81
543.857	865.81
544.071	840.81
544.285	829.81
544.498	840.81
544.712	861.81
544.925	877.81
545.139	871.81
545.352	883.81
545.566	882.81
545.779	903.81
545.993	874.81
546.206	899.81
546.42	870.81
546.633	889.81
546.847	888.81
547.06	926.81
547.274	889.81
547.487	886.81
547.7	884.81
547.914	895.81
548.127	926.81
548.34	900.81
548.554	868.81
548.767	883.81
548.98	892.81
549.193	893.81
549.407	912.81
549.62	910.81
549.833	935.81
550.046	907.81
550.259	894.81
550.473	863.81
550.686	863.81
550.899	872.81
551.112	858.81
551.325	840.81
551.538	837.81
551.751	854.81
551.964	882.81
552.177	880.81
552.39	895.81
552.603	903.81
552.816	945.81
553.029	940.81
553.242	953.81
553.455	975.81
553.667	990.81
553.88	949.81
554.093	927.81
554.306	932.81
554.519	897.81
554.732	891.81
554.944	864.81
555.157	833.81
555.37	836.81
555.583	821.81
555.795	809.81
556.008	774.81
556.221	774.81
556.433	766.81
556.646	793.81
556.859	770.81
557.071	764.81
557.284	738.81
557.496	766.81
557.709	768.81
557.921	739.81
558.134	733.81
558.346	742.81
558.559	741.81
558.771	718.81
558.984	744.81
559.196	735.81
559.409	745.81
559.621	713.81
559.833	695.81
560.046	690.81
560.258	707.81
560.47	718.81
560.683	703.81
560.895	714.81
561.107	709.81
561.32	715.81
561.532	700.81
561.744	712.81
561.956	722.81
562.168	738.81
562.381	730.81
562.593	712.81
562.805	701.81
563.017	711.81
563.229	699.81
563.441	717.81
563.653	723.81
563.865	702.81
564.077	734.81
564.289	739.81
564.501	724.81
564.713	778.81
564.925	755.81
565.137	802.81
565.349	812.81
565.561	848.81
565.773	887.81
565.985	930.81
566.197	988.81
566.408	1010.81
566.62	1108.81
566.832	1190.81
567.044	1214.81
567.255	1223.81
567.467	1265.81
567.679	1326.81
567.891	1416.81
568.102	1454.81
568.314	1396.81
568.526	1244.81
568.737	1142.81
568.949	1062.81
569.161	919.81
569.372	885.81
569.584	832.81
569.795	810.81
570.007	780.81
570.218	751.81
570.43	742.81
570.641	722.81
570.853	733.81
571.064	763.81
571.276	762.81
571.487	745.81
571.698	708.81
571.91	671.81
572.121	650.81
572.333	645.81
572.544	617.81
572.755	619.81
572.966	630.81
573.178	636.81
573.389	620.81
573.6	572.81
573.811	593.81
574.023	602.81
574.234	603.81
574.445	584.81
574.656	582.81
574.867	604.81
575.078	583.81
575.289	590.81
575.501	583.81
575.712	586.81
575.923	570.81
576.134	578.81
576.345	559.81
576.556	556.81
576.767	550.81
576.978	563.81
577.188	548.81
577.399	554.81
577.61	547.81
577.821	530.81
578.032	537.81
578.243	528.81
578.454	517.81
578.665	543.81
578.875	515.81
579.086	512.81
579.297	538.81
579.508	540.81
579.718	512.81
579.929	527.81
580.14	511.81
580.35	505.81
580.561	509.81
580.772	501.81
580.982	497.81
581.193	497.81
581.403	507.81
581.614	496.81
581.825	494.81
582.035	510.81
582.246	507.81
582.456	475.81
582.667	490.81
582.877	488.81
583.087	487.81
583.298	487.81
583.508	477.81
583.719	497.81
583.929	515.81
584.139	477.81
584.35	486.81
584.56	494.81
584.77	476.81
584.981	476.81
585.191	480.81
585.401	476.81
585.611	492.81
585.821	473.81
586.032	462.81
586.242	485.81
586.452	475.81
586.662	444.81
586.872	445.81
587.082	469.81
587.292	460.81
587.502	466.81
587.713	478.81
587.923	450.81
588.133	456.81
588.343	457.81
588.553	460.81
588.762	485.81
588.972	485.81
589.182	491.81
589.392	498.81
589.602	480.81
589.812	508.81
590.022	506.81
590.232	475.81
590.441	465.81
590.651	452.81
590.861	456.81
591.071	495.81
591.281	472.81
591.49	478.81
591.7	495.81
591.91	506.81
592.119	508.81
592.329	530.81
592.539	556.81
592.748	560.81
592.958	576.81
593.167	573.81
593.377	586.81
593.587	615.81
593.796	623.81
594.006	604.81
594.215	604.81
594.424	639.81
594.634	600.81
594.843	565.81
595.053	546.81
595.262	527.81
595.472	526.81
595.681	489.81
595.89	483.81
596.1	488.81
596.309	477.81
596.518	446.81
596.727	437.81
596.937	426.81
597.146	433.81
597.355	428.81
597.564	431.81
597.774	423.81
597.983	424.81
598.192	414.81
598.401	396.81
598.61	400.81
598.819	419.81
599.028	399.81
599.237	389.81
599.446	412.81
599.655	385.81
599.864	394.81
600.073	399.81
600.282	381.81
600.491	397.81
600.7	395.81
600.909	405.81
601.118	376.81
601.327	381.81
601.536	372.81
601.745	371.81
601.953	374.81
602.162	364.81
602.371	389.81
602.58	376.81
602.789	380.81
602.997	378.81
603.206	388.81
603.415	368.81
603.623	368.81
603.832	382.81
604.041	367.81
604.249	365.81
604.458	358.81
604.666	368.81
604.875	354.81
605.084	366.81
605.292	367.81
605.501	353.81
605.709	352.81
605.918	372.81
606.126	353.81
606.334	360.81
606.543	352.81
606.751	369.81
606.96	355.81
607.168	337.81
607.376	349.81
607.585	328.81
607.793	352.81
608.001	344.81
608.21	319.81
608.418	334.81
608.626	352.81
608.834	348.81
609.043	354.81
609.251	346.81
609.459	330.81
609.667	335.81
609.875	343.81
610.083	347.81
610.291	339.81
610.499	350.81
610.707	324.81
610.916	355.81
611.124	339.81
611.332	325.81
611.54	330.81
611.748	338.81
611.955	311.81
612.163	333.81
612.371	343.81
612.579	336.81
612.787	323.81
612.995	344.81
613.203	353.81
613.411	313.81
613.618	341.81
613.826	328.81
614.034	330.81
614.242	325.81
614.449	322.81
614.657	321.81
614.865	329.81
615.072	326.81
615.28	328.81
615.488	329.81
615.695	325.81
615.903	314.81
616.111	313.81
616.318	329.81
616.526	330.81
616.733	331.81
616.941	328.81
617.148	318.81
617.356	310.81
617.563	324.81
617.771	336.81
617.978	315.81
618.185	340.81
618.393	323.81
618.6	326.81
618.807	319.81
619.015	316.81
619.222	339.81
619.429	302.81
619.637	308.81
619.844	323.81
620.051	314.81
620.258	295.81
620.466	307.81
620.673	328.81
620.88	291.81
621.087	294.81
621.294	310.81
621.501	302.81
621.708	305.81
621.915	311.81
622.122	301.81
622.329	316.81
622.536	300.81
622.743	302.81
622.95	293.81
623.157	286.81
623.364	302.81
623.571	289.81
623.778	303.81
623.985	285.81
624.192	304.81
624.399	289.81
624.606	284.81
624.812	288.81
625.019	287.81
625.226	292.81
625.433	281.81
625.639	279.81
625.846	280.81
626.053	296.81
626.259	273.81
626.466	268.81
626.673	276.81
626.879	261.81
627.086	273.81
627.293	263.81
627.499	259.81
627.706	279.81
627.912	305.81
628.119	274.81
628.325	280.81
628.532	265.81
628.738	276.81
628.945	275.81
629.151	267.81
629.357	254.81
629.564	247.81
629.77	258.81
629.976	261.81
630.183	250.81
630.389	248.81
630.595	245.81
630.802	261.81
631.008	258.81
631.214	241.81
631.42	244.81
631.627	250.81
631.833	259.81
632.039	259.81
632.245	239.81
632.451	246.81
632.657	260.81
632.863	248.81
633.069	233.81
633.275	254.81
633.481	237.81
633.688	239.81
633.893	259.81
634.099	224.81
634.305	254.81
634.511	256.81
634.717	245.81
634.923	228.81
635.129	240.81
635.335	241.81
635.541	231.81
635.747	245.81
635.952	237.81
636.158	233.81
636.364	229.81
636.57	250.81
636.775	224.81
636.981	226.81
637.187	206.81
637.392	217.81
637.598	228.81
637.804	231.81
638.009	214.81
638.215	240.81
638.421	239.81
638.626	240.81
638.832	233.81
639.037	223.81
639.243	223.81
639.448	210.81
639.654	216.81
639.859	230.81
640.065	226.81
640.27	229.81
640.475	233.81
640.681	226.81
640.886	222.81
641.091	216.81
641.297	214.81
641.502	228.81
641.707	213.81
641.913	219.81
642.118	215.81
642.323	220.81
642.528	205.81
642.733	196.81
642.939	228.81
643.144	216.81
643.349	213.81
643.554	213.81
643.759	209.81
643.964	215.81
644.169	199.81
644.374	217.81
644.579	212.81
644.784	194.81
644.989	198.81
645.194	211.81
645.399	204.81
645.604	208.81
645.809	190.81
646.014	202.81
646.219	209.81
646.423	204.81
646.628	194.81
646.833	212.81
647.038	208.81
647.243	217.81
647.447	211.81
647.652	240.81
647.857	221.81
648.062	217.81
648.266	227.81
648.471	225.81
648.676	223.81
648.88	219.81
649.085	217.81
649.289	215.81
649.494	199.81
649.698	200.81
649.903	199.81
650.107	192.81
650.312	197.81
650.516	186.81
650.721	189.81
650.925	195.81
651.13	186.81
651.334	167.81
651.539	160.81
651.743	169.81
651.947	170.81
652.152	178.81
652.356	156.81
652.56	170.81
652.764	161.81
652.969	157.81
653.173	163.81
653.377	176.81
653.581	153.81
653.785	157.81
653.99	152.81
654.194	157.81
654.398	158.81
654.602	149.81
654.806	156.81
655.01	146.81
655.214	151.81
655.418	153.81
655.622	128.81
655.826	142.81
656.03	135.81
656.234	149.81
656.438	163.81
656.642	153.81
656.846	152.81
657.049	134.81
657.253	122.81
657.457	137.81
657.661	129.81
657.865	133.81
658.068	137.81
658.272	110.81
658.476	108.81
658.68	118.81
658.883	114.81
659.087	109.81
659.291	90.81
659.494	90.81
659.698	99.81
659.901	97.81
660.105	98.81
660.309	103.81
660.512	103.81
660.716	104.81
660.919	103.81
661.123	97.81
661.326	120.81
661.53	95.81
661.733	94.81
661.936	85.81
662.14	86.81
662.343	93.81
662.546	81.81
662.75	80.81
662.953	81.81
663.156	74.81
663.36	73.81
663.563	89.81
663.766	84.81
663.969	74.81
664.173	84.81
664.376	83.81
664.579	81.81
664.782	80.81
664.985	84.81
665.188	97.81
665.391	88.81
665.594	81.81
665.797	71.81
666	82.81
666.203	81.81
666.406	77.81
666.609	69.81
666.812	86.81
667.015	77.81
667.218	70.81
667.421	82.81
667.624	71.81
667.827	85.81
668.03	80.81
668.232	68.81
668.435	90.81
668.638	85.81
668.841	76.81
669.043	81.81
669.246	83.81
669.449	75.81
669.651	73.81
669.854	82.81
670.057	78.81
670.259	69.81
670.462	82.81
670.665	66.81
670.867	85.81
671.07	78.81
671.272	73.81
671.475	93.81
671.677	70.81
671.88	86.81
672.082	73.81
672.284	86.81
672.487	80.81
672.689	73.81
672.892	81.81
