Data from NiCl2@0.0625M.TitratingCurve.Agarose3%dH2O.NegLispCup.LampEnergy10.LIBS07252019_HRD10591_18-34-52-577.txt Node
Date: Thu Jul 25 18:34:52 EDT 2019
User: cochatt
Spectrometer: HR+D1059
Trigger mode: 1
Integration Time (sec): 1.000000E-1
Scans to average: 1
Electric dark correction enabled: true
Nonlinearity correction enabled: false
Boxcar width: 0
XAxis mode: Wavelengths
Number of Pixels in Spectrum: 2048
>>>>>Begin Spectral Data<<<<<
223.165	-13.06
223.4	-13.06
223.635	-13.06
223.869	-27.06
224.104	-16.06
224.338	-17.06
224.573	-13.06
224.808	-4.06
225.042	-8.06
225.277	-6.06
225.511	-2.06
225.746	4.94
225.98	15.94
226.215	8.94
226.449	8.94
226.683	19.94
226.918	31.94
227.152	15.94
227.387	31.94
227.621	48.94
227.856	32.94
228.09	46.94
228.324	48.94
228.559	44.94
228.793	79.94
229.027	126.94
229.262	127.94
229.496	126.94
229.73	151.94
229.964	160.94
230.199	159.94
230.433	179.94
230.667	153.94
230.901	154.94
231.136	170.94
231.37	182.94
231.604	184.94
231.838	184.94
232.072	173.94
232.306	172.94
232.541	186.94
232.775	174.94
233.009	176.94
233.243	188.94
233.477	175.94
233.711	196.94
233.945	213.94
234.179	186.94
234.413	206.94
234.647	190.94
234.881	185.94
235.115	194.94
235.349	190.94
235.583	202.94
235.817	202.94
236.051	207.94
236.285	214.94
236.519	199.94
236.753	189.94
236.987	215.94
237.221	206.94
237.455	215.94
237.689	205.94
237.922	208.94
238.156	224.94
238.39	211.94
238.624	216.94
238.858	207.94
239.091	228.94
239.325	213.94
239.559	232.94
239.793	245.94
240.027	221.94
240.26	232.94
240.494	224.94
240.728	236.94
240.961	236.94
241.195	241.94
241.429	259.94
241.662	271.94
241.896	249.94
242.13	262.94
242.363	278.94
242.597	270.94
242.83	268.94
243.064	286.94
243.298	286.94
243.531	278.94
243.765	273.94
243.998	293.94
244.232	282.94
244.465	292.94
244.699	304.94
244.932	304.94
245.166	307.94
245.399	298.94
245.633	294.94
245.866	309.94
246.099	331.94
246.333	301.94
246.566	303.94
246.8	290.94
247.033	303.94
247.266	324.94
247.5	317.94
247.733	336.94
247.966	316.94
248.2	336.94
248.433	323.94
248.666	341.94
248.899	344.94
249.133	330.94
249.366	363.94
249.599	360.94
249.832	336.94
250.066	359.94
250.299	332.94
250.532	348.94
250.765	359.94
250.998	353.94
251.231	350.94
251.465	351.94
251.698	357.94
251.931	370.94
252.164	359.94
252.397	378.94
252.63	362.94
252.863	384.94
253.096	386.94
253.329	383.94
253.562	377.94
253.795	390.94
254.028	404.94
254.261	367.94
254.494	404.94
254.727	397.94
254.96	418.94
255.193	398.94
255.426	384.94
255.659	387.94
255.892	427.94
256.124	427.94
256.357	407.94
256.59	421.94
256.823	406.94
257.056	411.94
257.289	418.94
257.521	413.94
257.754	422.94
257.987	423.94
258.22	419.94
258.452	432.94
258.685	427.94
258.918	426.94
259.151	441.94
259.383	435.94
259.616	431.94
259.849	456.94
260.081	446.94
260.314	457.94
260.547	443.94
260.779	453.94
261.012	436.94
261.244	461.94
261.477	460.94
261.71	477.94
261.942	456.94
262.175	464.94
262.407	456.94
262.64	468.94
262.872	459.94
263.105	480.94
263.337	483.94
263.57	486.94
263.802	475.94
264.035	464.94
264.267	498.94
264.499	466.94
264.732	484.94
264.964	492.94
265.197	518.94
265.429	499.94
265.661	522.94
265.894	508.94
266.126	489.94
266.358	512.94
266.591	493.94
266.823	510.94
267.055	518.94
267.287	501.94
267.52	514.94
267.752	516.94
267.984	519.94
268.216	527.94
268.448	544.94
268.681	535.94
268.913	518.94
269.145	538.94
269.377	527.94
269.609	541.94
269.841	544.94
270.073	534.94
270.306	547.94
270.538	535.94
270.77	574.94
271.002	576.94
271.234	562.94
271.466	562.94
271.698	576.94
271.93	557.94
272.162	537.94
272.394	580.94
272.626	569.94
272.858	567.94
273.09	567.94
273.322	584.94
273.553	590.94
273.785	595.94
274.017	591.94
274.249	580.94
274.481	586.94
274.713	580.94
274.945	593.94
275.176	603.94
275.408	608.94
275.64	586.94
275.872	603.94
276.104	618.94
276.335	584.94
276.567	611.94
276.799	602.94
277.031	600.94
277.262	623.94
277.494	612.94
277.726	635.94
277.957	647.94
278.189	647.94
278.421	644.94
278.652	631.94
278.884	630.94
279.115	629.94
279.347	633.94
279.579	650.94
279.81	638.94
280.042	643.94
280.273	642.94
280.505	646.94
280.736	657.94
280.968	669.94
281.199	669.94
281.431	668.94
281.662	660.94
281.894	679.94
282.125	686.94
282.356	707.94
282.588	700.94
282.819	702.94
283.051	681.94
283.282	704.94
283.513	688.94
283.745	694.94
283.976	692.94
284.207	680.94
284.439	695.94
284.67	704.94
284.901	704.94
285.132	708.94
285.364	711.94
285.595	701.94
285.826	688.94
286.057	712.94
286.288	714.94
286.52	715.94
286.751	719.94
286.982	736.94
287.213	724.94
287.444	724.94
287.675	738.94
287.906	753.94
288.138	747.94
288.369	725.94
288.6	750.94
288.831	751.94
289.062	759.94
289.293	739.94
289.524	741.94
289.755	760.94
289.986	754.94
290.217	746.94
290.448	743.94
290.679	739.94
290.91	766.94
291.141	746.94
291.371	765.94
291.602	773.94
291.833	766.94
292.064	745.94
292.295	754.94
292.526	754.94
292.757	759.94
292.987	741.94
293.218	758.94
293.449	777.94
293.68	791.94
293.91	759.94
294.141	748.94
294.372	799.94
294.603	752.94
294.833	807.94
295.064	761.94
295.295	779.94
295.525	756.94
295.756	756.94
295.987	739.94
296.217	784.94
296.448	800.94
296.679	795.94
296.909	770.94
297.14	818.94
297.37	821.94
297.601	822.94
297.831	812.94
298.062	833.94
298.292	819.94
298.523	838.94
298.753	841.94
298.984	843.94
299.214	830.94
299.445	839.94
299.675	824.94
299.905	831.94
300.136	837.94
300.366	824.94
300.597	850.94
300.827	861.94
301.057	844.94
301.288	858.94
301.518	853.94
301.748	871.94
301.979	898.94
302.209	898.94
302.439	888.94
302.669	872.94
302.9	853.94
303.13	851.94
303.36	855.94
303.59	838.94
303.82	846.94
304.051	847.94
304.281	858.94
304.511	863.94
304.741	870.94
304.971	850.94
305.201	875.94
305.431	869.94
305.661	856.94
305.891	868.94
306.121	839.94
306.352	869.94
306.582	846.94
306.812	860.94
307.042	839.94
307.272	871.94
307.502	843.94
307.731	855.94
307.961	875.94
308.191	823.94
308.421	860.94
308.651	863.94
308.881	858.94
309.111	856.94
309.341	834.94
309.571	848.94
309.8	859.94
310.03	850.94
310.26	883.94
310.49	885.94
310.72	859.94
310.949	874.94
311.179	858.94
311.409	866.94
311.639	870.94
311.868	903.94
312.098	896.94
312.328	924.94
312.557	919.94
312.787	908.94
313.017	906.94
313.246	902.94
313.476	903.94
313.706	932.94
313.935	925.94
314.165	933.94
314.394	940.94
314.624	924.94
314.853	904.94
315.083	914.94
315.312	911.94
315.542	925.94
315.771	948.94
316.001	916.94
316.23	922.94
316.46	914.94
316.689	912.94
316.919	936.94
317.148	902.94
317.377	924.94
317.607	912.94
317.836	908.94
318.065	900.94
318.295	918.94
318.524	902.94
318.753	929.94
318.983	931.94
319.212	915.94
319.441	919.94
319.67	929.94
319.9	916.94
320.129	904.94
320.358	914.94
320.587	914.94
320.816	927.94
321.046	926.94
321.275	922.94
321.504	919.94
321.733	916.94
321.962	919.94
322.191	941.94
322.42	927.94
322.649	945.94
322.878	924.94
323.108	920.94
323.337	934.94
323.566	934.94
323.795	942.94
324.024	962.94
324.253	956.94
324.482	921.94
324.71	940.94
324.939	982.94
325.168	964.94
325.397	980.94
325.626	991.94
325.855	962.94
326.084	976.94
326.313	1010.94
326.542	1000.94
326.77	1030.94
326.999	991.94
327.228	980.94
327.457	991.94
327.686	979.94
327.914	995.94
328.143	993.94
328.372	989.94
328.6	985.94
328.829	996.94
329.058	1007.94
329.287	1004.94
329.515	1030.94
329.744	998.94
329.972	1013.94
330.201	1014.94
330.43	1051.94
330.658	1030.94
330.887	1030.94
331.115	1040.94
331.344	1055.94
331.572	1036.94
331.801	1048.94
332.03	1095.94
332.258	1082.94
332.486	1112.94
332.715	1136.94
332.943	1136.94
333.172	1194.94
333.4	1224.94
333.629	1271.94
333.857	1281.94
334.085	1275.94
334.314	1291.94
334.542	1284.94
334.771	1271.94
334.999	1224.94
335.227	1223.94
335.455	1236.94
335.684	1221.94
335.912	1220.94
336.14	1220.94
336.369	1206.94
336.597	1198.94
336.825	1169.94
337.053	1187.94
337.281	1163.94
337.51	1157.94
337.738	1151.94
337.966	1100.94
338.194	1127.94
338.422	1130.94
338.65	1082.94
338.878	1103.94
339.106	1107.94
339.334	1094.94
339.562	1068.94
339.79	1055.94
340.018	1041.94
340.246	1020.94
340.474	1070.94
340.702	1067.94
340.93	1054.94
341.158	1052.94
341.386	1059.94
341.614	1064.94
341.842	1062.94
342.07	1056.94
342.298	1060.94
342.526	1050.94
342.754	1055.94
342.981	1035.94
343.209	1064.94
343.437	1103.94
343.665	1159.94
343.893	1192.94
344.12	1220.94
344.348	1182.94
344.576	1145.94
344.804	1115.94
345.031	1067.94
345.259	1114.94
345.487	1051.94
345.714	1046.94
345.942	1034.94
346.17	1028.94
346.397	1028.94
346.625	994.94
346.853	1012.94
347.08	995.94
347.308	1001.94
347.535	1015.94
347.763	995.94
347.99	997.94
348.218	1013.94
348.445	984.94
348.673	1008.94
348.9	998.94
349.128	971.94
349.355	997.94
349.583	987.94
349.81	995.94
350.037	966.94
350.265	980.94
350.492	961.94
350.72	983.94
350.947	963.94
351.174	956.94
351.402	968.94
351.629	987.94
351.856	948.94
352.083	963.94
352.311	957.94
352.538	981.94
352.765	992.94
352.992	939.94
353.22	956.94
353.447	968.94
353.674	967.94
353.901	980.94
354.128	957.94
354.355	954.94
354.583	949.94
354.81	984.94
355.037	940.94
355.264	956.94
355.491	982.94
355.718	939.94
355.945	957.94
356.172	984.94
356.399	956.94
356.626	999.94
356.853	988.94
357.08	970.94
357.307	987.94
357.534	978.94
357.761	976.94
357.988	954.94
358.215	976.94
358.441	972.94
358.668	980.94
358.895	984.94
359.122	990.94
359.349	981.94
359.576	950.94
359.802	964.94
360.029	967.94
360.256	971.94
360.483	994.94
360.709	974.94
360.936	956.94
361.163	966.94
361.39	933.94
361.616	950.94
361.843	955.94
362.07	972.94
362.296	957.94
362.523	993.94
362.749	980.94
362.976	964.94
363.203	971.94
363.429	930.94
363.656	982.94
363.882	974.94
364.109	970.94
364.335	944.94
364.562	952.94
364.788	999.94
365.015	980.94
365.241	958.94
365.468	940.94
365.694	950.94
365.92	968.94
366.147	966.94
366.373	976.94
366.599	961.94
366.826	987.94
367.052	976.94
367.278	977.94
367.505	983.94
367.731	985.94
367.957	962.94
368.184	968.94
368.41	1014.94
368.636	987.94
368.862	982.94
369.089	991.94
369.315	1001.94
369.541	1030.94
369.767	991.94
369.993	1013.94
370.219	1019.94
370.445	1048.94
370.672	1045.94
370.898	1027.94
371.124	1054.94
371.35	1046.94
371.576	1037.94
371.802	1069.94
372.028	1062.94
372.254	1029.94
372.48	1068.94
372.706	1085.94
372.932	1052.94
373.158	1101.94
373.384	1100.94
373.61	1061.94
373.835	1089.94
374.061	1077.94
374.287	1105.94
374.513	1082.94
374.739	1102.94
374.965	1113.94
375.191	1168.94
375.416	1152.94
375.642	1126.94
375.868	1097.94
376.094	1050.94
376.319	1068.94
376.545	1064.94
376.771	1084.94
376.997	1070.94
377.222	1060.94
377.448	1066.94
377.674	1055.94
377.899	1067.94
378.125	1032.94
378.35	1051.94
378.576	1042.94
378.802	1054.94
379.027	1068.94
379.253	1060.94
379.478	1016.94
379.704	1069.94
379.929	1034.94
380.155	1030.94
380.38	1037.94
380.606	1026.94
380.831	1051.94
381.057	1022.94
381.282	1020.94
381.507	1041.94
381.733	1095.94
381.958	1078.94
382.184	1053.94
382.409	1080.94
382.634	1087.94
382.86	1069.94
383.085	1121.94
383.31	1100.94
383.535	1128.94
383.761	1117.94
383.986	1146.94
384.211	1165.94
384.436	1177.94
384.662	1220.94
384.887	1244.94
385.112	1204.94
385.337	1235.94
385.562	1206.94
385.787	1244.94
386.013	1255.94
386.238	1267.94
386.463	1280.94
386.688	1280.94
386.913	1240.94
387.138	1237.94
387.363	1255.94
387.588	1238.94
387.813	1222.94
388.038	1240.94
388.263	1203.94
388.488	1254.94
388.713	1226.94
388.938	1253.94
389.163	1226.94
389.387	1227.94
389.612	1230.94
389.837	1251.94
390.062	1220.94
390.287	1229.94
390.512	1231.94
390.736	1259.94
390.961	1294.94
391.186	1261.94
391.411	1286.94
391.636	1351.94
391.86	1333.94
392.085	1347.94
392.31	1387.94
392.534	1366.94
392.759	1341.94
392.984	1309.94
393.208	1338.94
393.433	1355.94
393.658	1344.94
393.882	1305.94
394.107	1326.94
394.331	1301.94
394.556	1316.94
394.78	1332.94
395.005	1338.94
395.229	1364.94
395.454	1389.94
395.678	1407.94
395.903	1382.94
396.127	1384.94
396.352	1350.94
396.576	1332.94
396.801	1348.94
397.025	1349.94
397.249	1389.94
397.474	1404.94
397.698	1394.94
397.922	1412.94
398.147	1395.94
398.371	1447.94
398.595	1500.94
398.82	1532.94
399.044	1674.94
399.268	1757.94
399.492	1977.94
399.717	2112.94
399.941	2112.94
400.165	1993.94
400.389	1851.94
400.613	1692.94
400.837	1658.94
401.062	1599.94
401.286	1566.94
401.51	1563.94
401.734	1551.94
401.958	1566.94
402.182	1562.94
402.406	1599.94
402.63	1560.94
402.854	1598.94
403.078	1640.94
403.302	1640.94
403.526	1650.94
403.75	1654.94
403.974	1702.94
404.198	1699.94
404.422	1693.94
404.645	1668.94
404.869	1652.94
405.093	1681.94
405.317	1658.94
405.541	1695.94
405.765	1668.94
405.988	1658.94
406.212	1672.94
406.436	1670.94
406.66	1711.94
406.883	1717.94
407.107	1782.94
407.331	1870.94
407.555	1974.94
407.778	1966.94
408.002	1918.94
408.226	1828.94
408.449	1904.94
408.673	1773.94
408.896	1739.94
409.12	1709.94
409.344	1730.94
409.567	1722.94
409.791	1732.94
410.014	1681.94
410.238	1664.94
410.461	1677.94
410.685	1651.94
410.908	1661.94
411.132	1647.94
411.355	1603.94
411.578	1631.94
411.802	1638.94
412.025	1632.94
412.249	1635.94
412.472	1677.94
412.695	1586.94
412.919	1588.94
413.142	1586.94
413.365	1583.94
413.589	1599.94
413.812	1544.94
414.035	1552.94
414.258	1538.94
414.482	1577.94
414.705	1547.94
414.928	1548.94
415.151	1559.94
415.374	1535.94
415.597	1540.94
415.821	1500.94
416.044	1483.94
416.267	1492.94
416.49	1510.94
416.713	1533.94
416.936	1489.94
417.159	1466.94
417.382	1481.94
417.605	1456.94
417.828	1484.94
418.051	1496.94
418.274	1489.94
418.497	1505.94
418.72	1535.94
418.943	1514.94
419.166	1635.94
419.389	1753.94
419.611	1660.94
419.834	1617.94
420.057	1582.94
420.28	1556.94
420.503	1480.94
420.726	1462.94
420.948	1472.94
421.171	1493.94
421.394	1479.94
421.617	1469.94
421.839	1498.94
422.062	1498.94
422.285	1486.94
422.507	1513.94
422.73	1519.94
422.953	1505.94
423.175	1540.94
423.398	1539.94
423.621	1521.94
423.843	1535.94
424.066	1566.94
424.288	1548.94
424.511	1537.94
424.733	1500.94
424.956	1515.94
425.178	1550.94
425.401	1475.94
425.623	1480.94
425.846	1439.94
426.068	1448.94
426.291	1421.94
426.513	1423.94
426.735	1438.94
426.958	1433.94
427.18	1394.94
427.402	1400.94
427.625	1375.94
427.847	1357.94
428.069	1384.94
428.292	1360.94
428.514	1359.94
428.736	1349.94
428.958	1339.94
429.181	1350.94
429.403	1348.94
429.625	1319.94
429.847	1320.94
430.069	1316.94
430.292	1349.94
430.514	1368.94
430.736	1350.94
430.958	1352.94
431.18	1345.94
431.402	1357.94
431.624	1335.94
431.846	1362.94
432.068	1386.94
432.29	1394.94
432.512	1360.94
432.734	1430.94
432.956	1348.94
433.178	1405.94
433.4	1366.94
433.622	1372.94
433.844	1408.94
434.066	1394.94
434.287	1404.94
434.509	1453.94
434.731	1498.94
434.953	1504.94
435.175	1504.94
435.397	1531.94
435.618	1441.94
435.84	1404.94
436.062	1399.94
436.284	1350.94
436.505	1397.94
436.727	1367.94
436.949	1383.94
437.17	1356.94
437.392	1350.94
437.614	1317.94
437.835	1305.94
438.057	1339.94
438.278	1295.94
438.5	1302.94
438.721	1309.94
438.943	1330.94
439.165	1332.94
439.386	1330.94
439.608	1328.94
439.829	1321.94
440.05	1303.94
440.272	1318.94
440.493	1357.94
440.715	1359.94
440.936	1370.94
441.158	1380.94
441.379	1413.94
441.6	1476.94
441.822	1522.94
442.043	1464.94
442.264	1446.94
442.486	1435.94
442.707	1468.94
442.928	1440.94
443.149	1466.94
443.371	1448.94
443.592	1483.94
443.813	1489.94
444.034	1466.94
444.255	1541.94
444.476	1577.94
444.698	1621.94
444.919	1688.94
445.14	1736.94
445.361	1619.94
445.582	1562.94
445.803	1467.94
446.024	1465.94
446.245	1420.94
446.466	1419.94
446.687	1312.94
446.908	1348.94
447.129	1302.94
447.35	1319.94
447.571	1316.94
447.792	1268.94
448.013	1285.94
448.234	1232.94
448.455	1238.94
448.675	1231.94
448.896	1256.94
449.117	1215.94
449.338	1212.94
449.559	1225.94
449.779	1208.94
450	1189.94
450.221	1214.94
450.442	1230.94
450.662	1226.94
450.883	1204.94
451.104	1231.94
451.324	1249.94
451.545	1242.94
451.766	1214.94
451.986	1225.94
452.207	1237.94
452.428	1210.94
452.648	1178.94
452.869	1164.94
453.089	1164.94
453.31	1194.94
453.53	1143.94
453.751	1178.94
453.971	1154.94
454.192	1167.94
454.412	1167.94
454.633	1175.94
454.853	1176.94
455.073	1135.94
455.294	1188.94
455.514	1151.94
455.734	1138.94
455.955	1127.94
456.175	1158.94
456.395	1147.94
456.616	1124.94
456.836	1135.94
457.056	1172.94
457.276	1125.94
457.497	1155.94
457.717	1126.94
457.937	1204.94
458.157	1215.94
458.377	1188.94
458.598	1224.94
458.818	1245.94
459.038	1278.94
459.258	1349.94
459.478	1334.94
459.698	1390.94
459.918	1404.94
460.138	1410.94
460.358	1508.94
460.578	1491.94
460.798	1537.94
461.018	1572.94
461.238	1527.94
461.458	1546.94
461.678	1533.94
461.898	1562.94
462.118	1545.94
462.338	1616.94
462.558	1684.94
462.777	1740.94
462.997	1835.94
463.217	1942.94
463.437	1940.94
463.657	1847.94
463.876	1786.94
464.096	1773.94
464.316	1748.94
464.536	1761.94
464.755	1726.94
464.975	1620.94
465.195	1588.94
465.414	1526.94
465.634	1436.94
465.854	1421.94
466.073	1383.94
466.293	1332.94
466.512	1310.94
466.732	1282.94
466.951	1277.94
467.171	1294.94
467.391	1331.94
467.61	1273.94
467.829	1246.94
468.049	1284.94
468.268	1239.94
468.488	1242.94
468.707	1262.94
468.927	1242.94
469.146	1235.94
469.365	1247.94
469.585	1224.94
469.804	1299.94
470.023	1328.94
470.243	1277.94
470.462	1294.94
470.681	1284.94
470.901	1279.94
471.12	1250.94
471.339	1276.94
471.558	1240.94
471.777	1274.94
471.997	1268.94
472.216	1274.94
472.435	1214.94
472.654	1254.94
472.873	1207.94
473.092	1219.94
473.311	1223.94
473.53	1224.94
473.749	1204.94
473.968	1197.94
474.187	1236.94
474.406	1175.94
474.625	1214.94
474.844	1206.94
475.063	1235.94
475.282	1219.94
475.501	1216.94
475.72	1268.94
475.939	1229.94
476.158	1264.94
476.377	1280.94
476.596	1275.94
476.814	1292.94
477.033	1305.94
477.252	1320.94
477.471	1366.94
477.69	1376.94
477.908	1387.94
478.127	1395.94
478.346	1436.94
478.564	1453.94
478.783	1477.94
479.002	1519.94
479.22	1513.94
479.439	1495.94
479.658	1485.94
479.876	1539.94
480.095	1556.94
480.313	1597.94
480.532	1641.94
480.751	1620.94
480.969	1586.94
481.188	1528.94
481.406	1538.94
481.624	1481.94
481.843	1478.94
482.061	1469.94
482.28	1474.94
482.498	1462.94
482.717	1470.94
482.935	1452.94
483.153	1500.94
483.372	1489.94
483.59	1518.94
483.808	1512.94
484.027	1539.94
484.245	1496.94
484.463	1541.94
484.681	1543.94
484.9	1593.94
485.118	1563.94
485.336	1572.94
485.554	1608.94
485.772	1623.94
485.99	1575.94
486.209	1590.94
486.427	1588.94
486.645	1591.94
486.863	1603.94
487.081	1592.94
487.299	1552.94
487.517	1579.94
487.735	1575.94
487.953	1564.94
488.171	1580.94
488.389	1546.94
488.607	1539.94
488.825	1522.94
489.043	1532.94
489.261	1515.94
489.479	1538.94
489.696	1546.94
489.914	1498.94
490.132	1523.94
490.35	1530.94
490.568	1508.94
490.786	1535.94
491.003	1522.94
491.221	1523.94
491.439	1543.94
491.657	1546.94
491.874	1512.94
492.092	1521.94
492.31	1502.94
492.527	1506.94
492.745	1567.94
492.963	1542.94
493.18	1527.94
493.398	1545.94
493.615	1551.94
493.833	1563.94
494.05	1567.94
494.268	1510.94
494.485	1579.94
494.703	1581.94
494.92	1561.94
495.138	1543.94
495.355	1551.94
495.573	1584.94
495.79	1564.94
496.008	1601.94
496.225	1578.94
496.442	1597.94
496.66	1621.94
496.877	1630.94
497.094	1649.94
497.312	1666.94
497.529	1723.94
497.746	1772.94
497.963	1809.94
498.181	1899.94
498.398	1916.94
498.615	2050.94
498.832	2134.94
499.049	2276.94
499.267	2445.94
499.484	2659.94
499.701	2863.94
499.918	3115.94
500.135	3444.94
500.352	3717.94
500.569	3879.94
500.786	3831.94
501.003	3704.94
501.22	3413.94
501.437	3137.94
501.654	2792.94
501.871	2619.94
502.088	2472.94
502.305	2306.94
502.522	2152.94
502.739	2094.94
502.956	2016.94
503.172	1920.94
503.389	1831.94
503.606	1776.94
503.823	1742.94
504.04	1753.94
504.256	1759.94
504.473	1744.94
504.69	1757.94
504.907	1721.94
505.123	1635.94
505.34	1576.94
505.557	1514.94
505.773	1492.94
505.99	1466.94
506.207	1419.94
506.423	1400.94
506.64	1378.94
506.856	1383.94
507.073	1392.94
507.289	1331.94
507.506	1337.94
507.722	1319.94
507.939	1334.94
508.155	1325.94
508.372	1310.94
508.588	1326.94
508.805	1260.94
509.021	1245.94
509.238	1261.94
509.454	1272.94
509.67	1262.94
509.887	1250.94
510.103	1230.94
510.319	1227.94
510.536	1227.94
510.752	1216.94
510.968	1220.94
511.184	1216.94
511.401	1206.94
511.617	1215.94
511.833	1206.94
512.049	1198.94
512.265	1224.94
512.481	1225.94
512.698	1184.94
512.914	1204.94
513.13	1230.94
513.346	1227.94
513.562	1220.94
513.778	1218.94
513.994	1210.94
514.21	1228.94
514.426	1207.94
514.642	1226.94
514.858	1234.94
515.074	1255.94
515.29	1255.94
515.506	1268.94
515.721	1261.94
515.937	1329.94
516.153	1334.94
516.369	1386.94
516.585	1385.94
516.801	1431.94
517.016	1447.94
517.232	1529.94
517.448	1562.94
517.664	1590.94
517.879	1589.94
518.095	1565.94
518.311	1581.94
518.527	1542.94
518.742	1499.94
518.958	1443.94
519.173	1368.94
519.389	1377.94
519.605	1332.94
519.82	1307.94
520.036	1308.94
520.251	1259.94
520.467	1214.94
520.682	1236.94
520.898	1179.94
521.113	1213.94
521.329	1167.94
521.544	1187.94
521.76	1179.94
521.975	1161.94
522.19	1142.94
522.406	1123.94
522.621	1132.94
522.836	1138.94
523.052	1152.94
523.267	1150.94
523.482	1110.94
523.698	1134.94
523.913	1106.94
524.128	1120.94
524.343	1128.94
524.559	1114.94
524.774	1090.94
524.989	1127.94
525.204	1098.94
525.419	1090.94
525.634	1094.94
525.849	1117.94
526.064	1080.94
526.28	1049.94
526.495	1060.94
526.71	1074.94
526.925	1076.94
527.14	1076.94
527.355	1081.94
527.57	1082.94
527.785	1087.94
527.999	1070.94
528.214	1087.94
528.429	1074.94
528.644	1070.94
528.859	1067.94
529.074	1091.94
529.289	1090.94
529.503	1068.94
529.718	1062.94
529.933	1046.94
530.148	1069.94
530.363	1063.94
530.577	1078.94
530.792	1051.94
531.007	1060.94
531.221	1068.94
531.436	1087.94
531.651	1077.94
531.865	1036.94
532.08	1083.94
532.295	1074.94
532.509	1058.94
532.724	1038.94
532.938	1062.94
533.153	1067.94
533.367	1045.94
533.582	1068.94
533.796	1061.94
534.011	1071.94
534.225	1053.94
534.44	1043.94
534.654	1055.94
534.868	1057.94
535.083	1026.94
535.297	992.94
535.511	1023.94
535.726	1004.94
535.94	1034.94
536.154	1012.94
536.369	1028.94
536.583	1008.94
536.797	1000.94
537.011	1008.94
537.225	974.94
537.44	972.94
537.654	995.94
537.868	986.94
538.082	967.94
538.296	969.94
538.51	948.94
538.724	991.94
538.938	970.94
539.153	963.94
539.367	991.94
539.581	988.94
539.795	944.94
540.009	951.94
540.222	952.94
540.436	929.94
540.65	918.94
540.864	975.94
541.078	956.94
541.292	935.94
541.506	939.94
541.72	961.94
541.934	971.94
542.147	964.94
542.361	958.94
542.575	903.94
542.789	930.94
543.002	929.94
543.216	919.94
543.43	962.94
543.644	936.94
543.857	937.94
544.071	906.94
544.285	925.94
544.498	948.94
544.712	946.94
544.925	948.94
545.139	974.94
545.352	967.94
545.566	932.94
545.779	948.94
545.993	944.94
546.206	941.94
546.42	943.94
546.633	945.94
546.847	952.94
547.06	937.94
547.274	936.94
547.487	926.94
547.7	956.94
547.914	991.94
548.127	974.94
548.34	988.94
548.554	965.94
548.767	976.94
548.98	973.94
549.193	959.94
549.407	936.94
549.62	942.94
549.833	974.94
550.046	976.94
550.259	974.94
550.473	946.94
550.686	927.94
550.899	926.94
551.112	923.94
551.325	930.94
551.538	917.94
551.751	942.94
551.964	960.94
552.177	974.94
552.39	967.94
552.603	975.94
552.816	1012.94
553.029	994.94
553.242	1012.94
553.455	1079.94
553.667	1050.94
553.88	996.94
554.093	989.94
554.306	938.94
554.519	945.94
554.732	904.94
554.944	902.94
555.157	917.94
555.37	915.94
555.583	892.94
555.795	892.94
556.008	857.94
556.221	864.94
556.433	848.94
556.646	845.94
556.859	847.94
557.071	845.94
557.284	805.94
557.496	840.94
557.709	848.94
557.921	821.94
558.134	796.94
558.346	798.94
558.559	819.94
558.771	825.94
558.984	792.94
559.196	758.94
559.409	772.94
559.621	818.94
559.833	788.94
560.046	784.94
560.258	776.94
560.47	782.94
560.683	792.94
560.895	778.94
561.107	779.94
561.32	773.94
561.532	764.94
561.744	818.94
561.956	781.94
562.168	799.94
562.381	784.94
562.593	822.94
562.805	801.94
563.017	797.94
563.229	800.94
563.441	819.94
563.653	816.94
563.865	825.94
564.077	822.94
564.289	822.94
564.501	843.94
564.713	867.94
564.925	874.94
565.137	845.94
565.349	884.94
565.561	902.94
565.773	918.94
565.985	983.94
566.197	1010.94
566.408	1063.94
566.62	1131.94
566.832	1189.94
567.044	1231.94
567.255	1239.94
567.467	1231.94
567.679	1302.94
567.891	1337.94
568.102	1368.94
568.314	1318.94
568.526	1196.94
568.737	1126.94
568.949	1070.94
569.161	975.94
569.372	916.94
569.584	908.94
569.795	881.94
570.007	855.94
570.218	829.94
570.43	829.94
570.641	825.94
570.853	823.94
571.064	799.94
571.276	819.94
571.487	791.94
571.698	766.94
571.91	741.94
572.121	727.94
572.333	692.94
572.544	714.94
572.755	698.94
572.966	669.94
573.178	692.94
573.389	694.94
573.6	661.94
573.811	672.94
574.023	667.94
574.234	643.94
574.445	645.94
574.656	644.94
574.867	663.94
575.078	638.94
575.289	652.94
575.501	657.94
575.712	614.94
575.923	635.94
576.134	615.94
576.345	609.94
576.556	627.94
576.767	601.94
576.978	606.94
577.188	607.94
577.399	604.94
577.61	601.94
577.821	593.94
578.032	597.94
578.243	592.94
578.454	608.94
578.665	575.94
578.875	599.94
579.086	571.94
579.297	569.94
579.508	582.94
579.718	575.94
579.929	570.94
580.14	568.94
580.35	549.94
580.561	553.94
580.772	552.94
580.982	558.94
581.193	527.94
581.403	571.94
581.614	569.94
581.825	549.94
582.035	557.94
582.246	538.94
582.456	550.94
582.667	552.94
582.877	541.94
583.087	516.94
583.298	534.94
583.508	534.94
583.719	542.94
583.929	554.94
584.139	555.94
584.35	516.94
584.56	511.94
584.77	534.94
584.981	527.94
585.191	522.94
585.401	540.94
585.611	532.94
585.821	554.94
586.032	514.94
586.242	518.94
586.452	490.94
586.662	525.94
586.872	496.94
587.082	521.94
587.292	526.94
587.502	505.94
587.713	500.94
587.923	504.94
588.133	547.94
588.343	514.94
588.553	490.94
588.762	516.94
588.972	530.94
589.182	532.94
589.392	526.94
589.602	506.94
589.812	533.94
590.022	494.94
590.232	523.94
590.441	527.94
590.651	542.94
590.861	539.94
591.071	563.94
591.281	536.94
591.49	545.94
591.7	549.94
591.91	555.94
592.119	548.94
592.329	568.94
592.539	581.94
592.748	566.94
592.958	599.94
593.167	611.94
593.377	598.94
593.587	613.94
593.796	621.94
594.006	613.94
594.215	610.94
594.424	637.94
594.634	621.94
594.843	614.94
595.053	580.94
595.262	582.94
595.472	561.94
595.681	557.94
595.89	527.94
596.1	533.94
596.309	501.94
596.518	507.94
596.727	509.94
596.937	500.94
597.146	487.94
597.355	489.94
597.564	475.94
597.774	448.94
597.983	444.94
598.192	462.94
598.401	444.94
598.61	460.94
598.819	469.94
599.028	434.94
599.237	429.94
599.446	440.94
599.655	447.94
599.864	440.94
600.073	446.94
600.282	435.94
600.491	436.94
600.7	439.94
600.909	437.94
601.118	446.94
601.327	422.94
601.536	420.94
601.745	410.94
601.953	418.94
602.162	441.94
602.371	432.94
602.58	416.94
602.789	420.94
602.997	407.94
603.206	406.94
603.415	403.94
603.623	413.94
603.832	407.94
604.041	412.94
604.249	405.94
604.458	387.94
604.666	403.94
604.875	403.94
605.084	385.94
605.292	399.94
605.501	414.94
605.709	379.94
605.918	390.94
606.126	386.94
606.334	380.94
606.543	403.94
606.751	398.94
606.96	378.94
607.168	392.94
607.376	384.94
607.585	398.94
607.793	397.94
608.001	404.94
608.21	375.94
608.418	394.94
608.626	382.94
608.834	387.94
609.043	379.94
609.251	382.94
609.459	384.94
609.667	392.94
609.875	355.94
610.083	380.94
610.291	368.94
610.499	380.94
610.707	378.94
610.916	373.94
611.124	378.94
611.332	371.94
611.54	381.94
611.748	374.94
611.955	365.94
612.163	359.94
612.371	360.94
612.579	370.94
612.787	359.94
612.995	371.94
613.203	382.94
613.411	372.94
613.618	359.94
613.826	360.94
614.034	352.94
614.242	386.94
614.449	359.94
614.657	386.94
614.865	376.94
615.072	362.94
615.28	358.94
615.488	375.94
615.695	386.94
615.903	362.94
616.111	376.94
616.318	374.94
616.526	374.94
616.733	370.94
616.941	364.94
617.148	355.94
617.356	371.94
617.563	378.94
617.771	357.94
617.978	351.94
618.185	346.94
618.393	350.94
618.6	361.94
618.807	347.94
619.015	360.94
619.222	366.94
619.429	370.94
619.637	324.94
619.844	342.94
620.051	346.94
620.258	341.94
620.466	342.94
620.673	331.94
620.88	341.94
621.087	352.94
621.294	321.94
621.501	332.94
621.708	335.94
621.915	334.94
622.122	308.94
622.329	330.94
622.536	337.94
622.743	344.94
622.95	339.94
623.157	323.94
623.364	324.94
623.571	332.94
623.778	341.94
623.985	316.94
624.192	311.94
624.399	312.94
624.606	299.94
624.812	312.94
625.019	313.94
625.226	323.94
625.433	300.94
625.639	295.94
625.846	303.94
626.053	309.94
626.259	308.94
626.466	314.94
626.673	303.94
626.879	306.94
627.086	315.94
627.293	295.94
627.499	326.94
627.706	303.94
627.912	296.94
628.119	309.94
628.325	308.94
628.532	296.94
628.738	287.94
628.945	294.94
629.151	275.94
629.357	311.94
629.564	315.94
629.77	309.94
629.976	317.94
630.183	300.94
630.389	274.94
630.595	282.94
630.802	295.94
631.008	275.94
631.214	288.94
631.42	292.94
631.627	285.94
631.833	289.94
632.039	287.94
632.245	258.94
632.451	280.94
632.657	283.94
632.863	265.94
633.069	301.94
633.275	273.94
633.481	281.94
633.688	255.94
633.893	288.94
634.099	252.94
634.305	284.94
634.511	270.94
634.717	290.94
634.923	261.94
635.129	280.94
635.335	252.94
635.541	276.94
635.747	262.94
635.952	268.94
636.158	272.94
636.364	264.94
636.57	273.94
636.775	296.94
636.981	274.94
637.187	264.94
637.392	266.94
637.598	264.94
637.804	261.94
638.009	270.94
638.215	256.94
638.421	271.94
638.626	249.94
638.832	256.94
639.037	237.94
639.243	250.94
639.448	265.94
639.654	260.94
639.859	262.94
640.065	250.94
640.27	252.94
640.475	248.94
640.681	264.94
640.886	252.94
641.091	255.94
641.297	273.94
641.502	246.94
641.707	238.94
641.913	252.94
642.118	261.94
642.323	239.94
642.528	273.94
642.733	229.94
642.939	242.94
643.144	225.94
643.349	235.94
643.554	230.94
643.759	255.94
643.964	269.94
644.169	252.94
644.374	252.94
644.579	236.94
644.784	244.94
644.989	230.94
645.194	235.94
645.399	242.94
645.604	230.94
645.809	246.94
646.014	268.94
646.219	245.94
646.423	242.94
646.628	270.94
646.833	258.94
647.038	271.94
647.243	258.94
647.447	248.94
647.652	246.94
647.857	250.94
648.062	253.94
648.266	275.94
648.471	265.94
648.676	258.94
648.88	276.94
649.085	286.94
649.289	259.94
649.494	251.94
649.698	267.94
649.903	266.94
650.107	255.94
650.312	243.94
650.516	244.94
650.721	248.94
650.925	244.94
651.13	237.94
651.334	237.94
651.539	266.94
651.743	257.94
651.947	242.94
652.152	251.94
652.356	231.94
652.56	227.94
652.764	235.94
652.969	231.94
653.173	249.94
653.377	227.94
653.581	244.94
653.785	243.94
653.99	243.94
654.194	251.94
654.398	257.94
654.602	237.94
654.806	278.94
655.01	262.94
655.214	248.94
655.418	258.94
655.622	261.94
655.826	284.94
656.03	279.94
656.234	317.94
656.438	326.94
656.642	303.94
656.846	300.94
657.049	258.94
657.253	231.94
657.457	214.94
657.661	218.94
657.865	199.94
658.068	193.94
658.272	176.94
658.476	170.94
658.68	169.94
658.883	160.94
659.087	148.94
659.291	134.94
659.494	152.94
659.698	133.94
659.901	135.94
660.105	132.94
660.309	108.94
660.512	117.94
660.716	112.94
660.919	99.94
661.123	104.94
661.326	111.94
661.53	116.94
661.733	110.94
661.936	91.94
662.14	100.94
662.343	97.94
662.546	98.94
662.75	93.94
662.953	93.94
663.156	75.94
663.36	90.94
663.563	89.94
663.766	77.94
663.969	84.94
664.173	82.94
664.376	89.94
664.579	87.94
664.782	84.94
664.985	86.94
665.188	79.94
665.391	83.94
665.594	82.94
665.797	77.94
666	90.94
666.203	68.94
666.406	83.94
666.609	84.94
666.812	79.94
667.015	75.94
667.218	85.94
667.421	93.94
667.624	92.94
667.827	90.94
668.03	84.94
668.232	76.94
668.435	83.94
668.638	76.94
668.841	88.94
669.043	90.94
669.246	83.94
669.449	82.94
669.651	95.94
669.854	86.94
670.057	75.94
670.259	85.94
670.462	77.94
670.665	85.94
670.867	90.94
671.07	92.94
671.272	93.94
671.475	74.94
671.677	77.94
671.88	86.94
672.082	77.94
672.284	77.94
672.487	94.94
672.689	97.94
672.892	74.94
