Data from NiCl2@0.0625M.TitratingCurve.Agarose3%dH2O.NegLispCup.LampEnergy10.LIBS07252019_HRD10591_18-35-36-576.txt Node
Date: Thu Jul 25 18:35:36 EDT 2019
User: cochatt
Spectrometer: HR+D1059
Trigger mode: 1
Integration Time (sec): 1.000000E-1
Scans to average: 1
Electric dark correction enabled: true
Nonlinearity correction enabled: false
Boxcar width: 0
XAxis mode: Wavelengths
Number of Pixels in Spectrum: 2048
>>>>>Begin Spectral Data<<<<<
223.165	-26.25
223.4	-26.25
223.635	-26.25
223.869	-21.25
224.104	-34.25
224.338	-1.25
224.573	-13.25
224.808	0.75
225.042	-14.25
225.277	-2.25
225.511	8.75
225.746	-0.25
225.98	1.75
226.215	10.75
226.449	18.75
226.683	22.75
226.918	22.75
227.152	26.75
227.387	37.75
227.621	41.75
227.856	41.75
228.09	43.75
228.324	41.75
228.559	60.75
228.793	67.75
229.027	118.75
229.262	128.75
229.496	143.75
229.73	154.75
229.964	170.75
230.199	169.75
230.433	169.75
230.667	168.75
230.901	170.75
231.136	177.75
231.37	166.75
231.604	177.75
231.838	181.75
232.072	199.75
232.306	186.75
232.541	187.75
232.775	187.75
233.009	185.75
233.243	185.75
233.477	172.75
233.711	191.75
233.945	176.75
234.179	197.75
234.413	195.75
234.647	211.75
234.881	200.75
235.115	198.75
235.349	189.75
235.583	195.75
235.817	195.75
236.051	200.75
236.285	207.75
236.519	206.75
236.753	206.75
236.987	213.75
237.221	206.75
237.455	218.75
237.689	217.75
237.922	213.75
238.156	207.75
238.39	232.75
238.624	213.75
238.858	234.75
239.091	246.75
239.325	234.75
239.559	227.75
239.793	249.75
240.027	243.75
240.26	266.75
240.494	262.75
240.728	244.75
240.961	255.75
241.195	265.75
241.429	241.75
241.662	259.75
241.896	256.75
242.13	260.75
242.363	259.75
242.597	269.75
242.83	282.75
243.064	270.75
243.298	288.75
243.531	262.75
243.765	267.75
243.998	296.75
244.232	306.75
244.465	286.75
244.699	306.75
244.932	301.75
245.166	329.75
245.399	310.75
245.633	314.75
245.866	335.75
246.099	309.75
246.333	327.75
246.566	313.75
246.8	318.75
247.033	315.75
247.266	315.75
247.5	313.75
247.733	325.75
247.966	347.75
248.2	339.75
248.433	343.75
248.666	350.75
248.899	346.75
249.133	338.75
249.366	368.75
249.599	351.75
249.832	358.75
250.066	357.75
250.299	378.75
250.532	369.75
250.765	362.75
250.998	365.75
251.231	387.75
251.465	386.75
251.698	363.75
251.931	398.75
252.164	390.75
252.397	393.75
252.63	385.75
252.863	403.75
253.096	393.75
253.329	422.75
253.562	395.75
253.795	410.75
254.028	425.75
254.261	403.75
254.494	381.75
254.727	395.75
254.96	420.75
255.193	417.75
255.426	409.75
255.659	407.75
255.892	410.75
256.124	409.75
256.357	436.75
256.59	432.75
256.823	448.75
257.056	435.75
257.289	443.75
257.521	428.75
257.754	447.75
257.987	428.75
258.22	456.75
258.452	440.75
258.685	450.75
258.918	463.75
259.151	448.75
259.383	458.75
259.616	453.75
259.849	457.75
260.081	464.75
260.314	466.75
260.547	494.75
260.779	463.75
261.012	478.75
261.244	500.75
261.477	471.75
261.71	475.75
261.942	483.75
262.175	485.75
262.407	505.75
262.64	487.75
262.872	483.75
263.105	492.75
263.337	523.75
263.57	511.75
263.802	534.75
264.035	518.75
264.267	499.75
264.499	515.75
264.732	534.75
264.964	538.75
265.197	510.75
265.429	520.75
265.661	536.75
265.894	546.75
266.126	528.75
266.358	529.75
266.591	538.75
266.823	549.75
267.055	533.75
267.287	525.75
267.52	535.75
267.752	549.75
267.984	554.75
268.216	559.75
268.448	577.75
268.681	546.75
268.913	563.75
269.145	570.75
269.377	581.75
269.609	576.75
269.841	585.75
270.073	580.75
270.306	567.75
270.538	566.75
270.77	597.75
271.002	581.75
271.234	604.75
271.466	578.75
271.698	583.75
271.93	584.75
272.162	605.75
272.394	604.75
272.626	587.75
272.858	592.75
273.09	615.75
273.322	637.75
273.553	598.75
273.785	593.75
274.017	602.75
274.249	620.75
274.481	622.75
274.713	629.75
274.945	617.75
275.176	618.75
275.408	639.75
275.64	633.75
275.872	623.75
276.104	661.75
276.335	637.75
276.567	651.75
276.799	625.75
277.031	659.75
277.262	663.75
277.494	656.75
277.726	662.75
277.957	667.75
278.189	668.75
278.421	674.75
278.652	659.75
278.884	670.75
279.115	663.75
279.347	671.75
279.579	695.75
279.81	686.75
280.042	697.75
280.273	705.75
280.505	683.75
280.736	686.75
280.968	682.75
281.199	703.75
281.431	707.75
281.662	713.75
281.894	728.75
282.125	713.75
282.356	718.75
282.588	742.75
282.819	713.75
283.051	709.75
283.282	730.75
283.513	719.75
283.745	750.75
283.976	753.75
284.207	743.75
284.439	735.75
284.67	769.75
284.901	747.75
285.132	753.75
285.364	763.75
285.595	758.75
285.826	752.75
286.057	748.75
286.288	767.75
286.52	757.75
286.751	774.75
286.982	772.75
287.213	778.75
287.444	776.75
287.675	795.75
287.906	785.75
288.138	806.75
288.369	795.75
288.6	773.75
288.831	790.75
289.062	807.75
289.293	789.75
289.524	765.75
289.755	783.75
289.986	780.75
290.217	806.75
290.448	782.75
290.679	793.75
290.91	775.75
291.141	794.75
291.371	812.75
291.602	836.75
291.833	784.75
292.064	826.75
292.295	814.75
292.526	801.75
292.757	807.75
292.987	807.75
293.218	809.75
293.449	836.75
293.68	813.75
293.91	810.75
294.141	813.75
294.372	835.75
294.603	837.75
294.833	830.75
295.064	841.75
295.295	820.75
295.525	823.75
295.756	858.75
295.987	848.75
296.217	832.75
296.448	859.75
296.679	851.75
296.909	835.75
297.14	833.75
297.37	857.75
297.601	874.75
297.831	859.75
298.062	867.75
298.292	868.75
298.523	883.75
298.753	903.75
298.984	863.75
299.214	886.75
299.445	863.75
299.675	882.75
299.905	847.75
300.136	887.75
300.366	908.75
300.597	882.75
300.827	901.75
301.057	889.75
301.288	935.75
301.518	913.75
301.748	950.75
301.979	943.75
302.209	920.75
302.439	949.75
302.669	935.75
302.9	919.75
303.13	922.75
303.36	939.75
303.59	933.75
303.82	941.75
304.051	957.75
304.281	923.75
304.511	893.75
304.741	915.75
304.971	924.75
305.201	919.75
305.431	929.75
305.661	899.75
305.891	930.75
306.121	916.75
306.352	921.75
306.582	919.75
306.812	889.75
307.042	906.75
307.272	901.75
307.502	908.75
307.731	888.75
307.961	936.75
308.191	930.75
308.421	912.75
308.651	903.75
308.881	891.75
309.111	883.75
309.341	932.75
309.571	936.75
309.8	918.75
310.03	933.75
310.26	924.75
310.49	950.75
310.72	905.75
310.949	912.75
311.179	927.75
311.409	935.75
311.639	950.75
311.868	922.75
312.098	965.75
312.328	957.75
312.557	954.75
312.787	945.75
313.017	957.75
313.246	970.75
313.476	946.75
313.706	979.75
313.935	981.75
314.165	974.75
314.394	988.75
314.624	982.75
314.853	975.75
315.083	960.75
315.312	973.75
315.542	959.75
315.771	994.75
316.001	968.75
316.23	997.75
316.46	943.75
316.689	987.75
316.919	973.75
317.148	995.75
317.377	980.75
317.607	967.75
317.836	941.75
318.065	978.75
318.295	981.75
318.524	1011.75
318.753	961.75
318.983	997.75
319.212	950.75
319.441	944.75
319.67	982.75
319.9	980.75
320.129	953.75
320.358	983.75
320.587	973.75
320.816	972.75
321.046	990.75
321.275	973.75
321.504	969.75
321.733	986.75
321.962	984.75
322.191	1002.75
322.42	984.75
322.649	1006.75
322.878	1001.75
323.108	1005.75
323.337	979.75
323.566	1041.75
323.795	999.75
324.024	1009.75
324.253	1007.75
324.482	990.75
324.71	1016.75
324.939	1029.75
325.168	1041.75
325.397	1009.75
325.626	995.75
325.855	1064.75
326.084	1058.75
326.313	1071.75
326.542	1045.75
326.77	1071.75
326.999	1081.75
327.228	1052.75
327.457	1076.75
327.686	1073.75
327.914	1078.75
328.143	1093.75
328.372	1075.75
328.6	1066.75
328.829	1061.75
329.058	1062.75
329.287	1074.75
329.515	1068.75
329.744	1105.75
329.972	1122.75
330.201	1088.75
330.43	1095.75
330.658	1067.75
330.887	1098.75
331.115	1117.75
331.344	1120.75
331.572	1118.75
331.801	1140.75
332.03	1161.75
332.258	1170.75
332.486	1182.75
332.715	1189.75
332.943	1234.75
333.172	1285.75
333.4	1319.75
333.629	1353.75
333.857	1335.75
334.085	1373.75
334.314	1360.75
334.542	1386.75
334.771	1350.75
334.999	1315.75
335.227	1327.75
335.455	1351.75
335.684	1344.75
335.912	1292.75
336.14	1273.75
336.369	1284.75
336.597	1270.75
336.825	1291.75
337.053	1281.75
337.281	1262.75
337.51	1223.75
337.738	1203.75
337.966	1223.75
338.194	1166.75
338.422	1196.75
338.65	1176.75
338.878	1142.75
339.106	1173.75
339.334	1187.75
339.562	1159.75
339.79	1124.75
340.018	1087.75
340.246	1110.75
340.474	1120.75
340.702	1117.75
340.93	1145.75
341.158	1138.75
341.386	1136.75
341.614	1135.75
341.842	1109.75
342.07	1103.75
342.298	1091.75
342.526	1118.75
342.754	1141.75
342.981	1127.75
343.209	1137.75
343.437	1171.75
343.665	1236.75
343.893	1287.75
344.12	1343.75
344.348	1281.75
344.576	1215.75
344.804	1219.75
345.031	1165.75
345.259	1152.75
345.487	1120.75
345.714	1111.75
345.942	1083.75
346.17	1120.75
346.397	1062.75
346.625	1101.75
346.853	1073.75
347.08	1034.75
347.308	1077.75
347.535	1048.75
347.763	1064.75
347.99	1079.75
348.218	1069.75
348.445	1059.75
348.673	1053.75
348.9	1061.75
349.128	1047.75
349.355	1056.75
349.583	1053.75
349.81	1053.75
350.037	1030.75
350.265	1023.75
350.492	1048.75
350.72	1039.75
350.947	1067.75
351.174	1045.75
351.402	1049.75
351.629	1039.75
351.856	1051.75
352.083	1021.75
352.311	1005.75
352.538	1054.75
352.765	1057.75
352.992	999.75
353.22	1018.75
353.447	1021.75
353.674	1010.75
353.901	1025.75
354.128	1010.75
354.355	1009.75
354.583	1030.75
354.81	1018.75
355.037	1035.75
355.264	1031.75
355.491	1015.75
355.718	1039.75
355.945	1020.75
356.172	1047.75
356.399	1063.75
356.626	1049.75
356.853	1075.75
357.08	1046.75
357.307	1064.75
357.534	1036.75
357.761	1035.75
357.988	1045.75
358.215	1025.75
358.441	1027.75
358.668	1036.75
358.895	1045.75
359.122	1024.75
359.349	1015.75
359.576	1039.75
359.802	1033.75
360.029	1031.75
360.256	1033.75
360.483	1061.75
360.709	1020.75
360.936	1045.75
361.163	1030.75
361.39	1057.75
361.616	1011.75
361.843	1056.75
362.07	1046.75
362.296	1075.75
362.523	1039.75
362.749	1047.75
362.976	1041.75
363.203	1041.75
363.429	1047.75
363.656	1059.75
363.882	1040.75
364.109	1049.75
364.335	1037.75
364.562	1040.75
364.788	1031.75
365.015	1033.75
365.241	1062.75
365.468	1012.75
365.694	1039.75
365.92	1047.75
366.147	1055.75
366.373	1070.75
366.599	1038.75
366.826	1034.75
367.052	1045.75
367.278	1039.75
367.505	1034.75
367.731	1047.75
367.957	1020.75
368.184	1046.75
368.41	1039.75
368.636	1057.75
368.862	1053.75
369.089	1073.75
369.315	1075.75
369.541	1075.75
369.767	1103.75
369.993	1096.75
370.219	1086.75
370.445	1084.75
370.672	1115.75
370.898	1080.75
371.124	1090.75
371.35	1116.75
371.576	1099.75
371.802	1100.75
372.028	1109.75
372.254	1135.75
372.48	1133.75
372.706	1164.75
372.932	1178.75
373.158	1151.75
373.384	1139.75
373.61	1114.75
373.835	1135.75
374.061	1136.75
374.287	1157.75
374.513	1181.75
374.739	1224.75
374.965	1212.75
375.191	1246.75
375.416	1244.75
375.642	1180.75
375.868	1180.75
376.094	1187.75
376.319	1158.75
376.545	1129.75
376.771	1127.75
376.997	1137.75
377.222	1126.75
377.448	1125.75
377.674	1121.75
377.899	1130.75
378.125	1099.75
378.35	1113.75
378.576	1093.75
378.802	1111.75
379.027	1112.75
379.253	1096.75
379.478	1082.75
379.704	1100.75
379.929	1150.75
380.155	1110.75
380.38	1111.75
380.606	1099.75
380.831	1078.75
381.057	1119.75
381.282	1107.75
381.507	1113.75
381.733	1137.75
381.958	1110.75
382.184	1143.75
382.409	1135.75
382.634	1137.75
382.86	1159.75
383.085	1166.75
383.31	1185.75
383.535	1187.75
383.761	1165.75
383.986	1205.75
384.211	1232.75
384.436	1251.75
384.662	1288.75
384.887	1314.75
385.112	1320.75
385.337	1329.75
385.562	1327.75
385.787	1306.75
386.013	1330.75
386.238	1332.75
386.463	1307.75
386.688	1341.75
386.913	1339.75
387.138	1362.75
387.363	1310.75
387.588	1347.75
387.813	1326.75
388.038	1330.75
388.263	1299.75
388.488	1351.75
388.713	1341.75
388.938	1342.75
389.163	1298.75
389.387	1289.75
389.612	1321.75
389.837	1330.75
390.062	1318.75
390.287	1278.75
390.512	1327.75
390.736	1323.75
390.961	1356.75
391.186	1367.75
391.411	1380.75
391.636	1414.75
391.86	1464.75
392.085	1488.75
392.31	1442.75
392.534	1462.75
392.759	1401.75
392.984	1413.75
393.208	1408.75
393.433	1417.75
393.658	1437.75
393.882	1350.75
394.107	1407.75
394.331	1427.75
394.556	1413.75
394.78	1431.75
395.005	1423.75
395.229	1466.75
395.454	1486.75
395.678	1471.75
395.903	1495.75
396.127	1482.75
396.352	1413.75
396.576	1432.75
396.801	1425.75
397.025	1442.75
397.249	1496.75
397.474	1469.75
397.698	1498.75
397.922	1569.75
398.147	1500.75
398.371	1553.75
398.595	1619.75
398.82	1633.75
399.044	1726.75
399.268	1832.75
399.492	2078.75
399.717	2278.75
399.941	2317.75
400.165	2168.75
400.389	2014.75
400.613	1839.75
400.837	1761.75
401.062	1718.75
401.286	1678.75
401.51	1671.75
401.734	1659.75
401.958	1672.75
402.182	1673.75
402.406	1719.75
402.63	1706.75
402.854	1687.75
403.078	1683.75
403.302	1725.75
403.526	1766.75
403.75	1777.75
403.974	1780.75
404.198	1807.75
404.422	1830.75
404.645	1778.75
404.869	1769.75
405.093	1792.75
405.317	1765.75
405.541	1818.75
405.765	1814.75
405.988	1817.75
406.212	1850.75
406.436	1807.75
406.66	1881.75
406.883	1855.75
407.107	1958.75
407.331	2026.75
407.555	2101.75
407.778	2061.75
408.002	2014.75
408.226	1988.75
408.449	1978.75
408.673	1903.75
408.896	1876.75
409.12	1835.75
409.344	1850.75
409.567	1808.75
409.791	1858.75
410.014	1833.75
410.238	1750.75
410.461	1794.75
410.685	1801.75
410.908	1796.75
411.132	1795.75
411.355	1751.75
411.578	1723.75
411.802	1742.75
412.025	1746.75
412.249	1774.75
412.472	1741.75
412.695	1722.75
412.919	1737.75
413.142	1664.75
413.365	1647.75
413.589	1685.75
413.812	1657.75
414.035	1576.75
414.258	1635.75
414.482	1636.75
414.705	1715.75
414.928	1645.75
415.151	1651.75
415.374	1647.75
415.597	1631.75
415.821	1653.75
416.044	1608.75
416.267	1585.75
416.49	1598.75
416.713	1572.75
416.936	1610.75
417.159	1577.75
417.382	1567.75
417.605	1571.75
417.828	1574.75
418.051	1606.75
418.274	1649.75
418.497	1591.75
418.72	1626.75
418.943	1637.75
419.166	1732.75
419.389	1840.75
419.611	1808.75
419.834	1730.75
420.057	1651.75
420.28	1625.75
420.503	1586.75
420.726	1581.75
420.948	1587.75
421.171	1597.75
421.394	1605.75
421.617	1631.75
421.839	1576.75
422.062	1600.75
422.285	1581.75
422.507	1607.75
422.73	1613.75
422.953	1617.75
423.175	1610.75
423.398	1622.75
423.621	1639.75
423.843	1615.75
424.066	1641.75
424.288	1639.75
424.511	1650.75
424.733	1589.75
424.956	1642.75
425.178	1588.75
425.401	1560.75
425.623	1602.75
425.846	1557.75
426.068	1568.75
426.291	1541.75
426.513	1558.75
426.735	1554.75
426.958	1516.75
427.18	1489.75
427.402	1483.75
427.625	1493.75
427.847	1506.75
428.069	1487.75
428.292	1481.75
428.514	1482.75
428.736	1457.75
428.958	1491.75
429.181	1439.75
429.403	1462.75
429.625	1433.75
429.847	1414.75
430.069	1420.75
430.292	1444.75
430.514	1419.75
430.736	1458.75
430.958	1422.75
431.18	1485.75
431.402	1423.75
431.624	1440.75
431.846	1465.75
432.068	1471.75
432.29	1525.75
432.512	1480.75
432.734	1522.75
432.956	1486.75
433.178	1491.75
433.4	1484.75
433.622	1489.75
433.844	1519.75
434.066	1543.75
434.287	1532.75
434.509	1563.75
434.731	1622.75
434.953	1630.75
435.175	1631.75
435.397	1629.75
435.618	1533.75
435.84	1536.75
436.062	1520.75
436.284	1482.75
436.505	1445.75
436.727	1471.75
436.949	1502.75
437.17	1466.75
437.392	1443.75
437.614	1431.75
437.835	1390.75
438.057	1406.75
438.278	1386.75
438.5	1379.75
438.721	1421.75
438.943	1439.75
439.165	1380.75
439.386	1397.75
439.608	1433.75
439.829	1433.75
440.05	1446.75
440.272	1449.75
440.493	1430.75
440.715	1448.75
440.936	1479.75
441.158	1515.75
441.379	1531.75
441.6	1570.75
441.822	1598.75
442.043	1588.75
442.264	1536.75
442.486	1504.75
442.707	1581.75
442.928	1530.75
443.149	1545.75
443.371	1535.75
443.592	1550.75
443.813	1547.75
444.034	1596.75
444.255	1626.75
444.476	1665.75
444.698	1765.75
444.919	1793.75
445.14	1922.75
445.361	1740.75
445.582	1659.75
445.803	1514.75
446.024	1527.75
446.245	1471.75
446.466	1470.75
446.687	1406.75
446.908	1452.75
447.129	1408.75
447.35	1429.75
447.571	1381.75
447.792	1334.75
448.013	1350.75
448.234	1326.75
448.455	1346.75
448.675	1328.75
448.896	1296.75
449.117	1273.75
449.338	1309.75
449.559	1310.75
449.779	1279.75
450	1321.75
450.221	1286.75
450.442	1305.75
450.662	1317.75
450.883	1300.75
451.104	1327.75
451.324	1326.75
451.545	1298.75
451.766	1281.75
451.986	1291.75
452.207	1304.75
452.428	1305.75
452.648	1265.75
452.869	1267.75
453.089	1274.75
453.31	1279.75
453.53	1260.75
453.751	1261.75
453.971	1242.75
454.192	1246.75
454.412	1229.75
454.633	1238.75
454.853	1220.75
455.073	1216.75
455.294	1207.75
455.514	1203.75
455.734	1243.75
455.955	1236.75
456.175	1236.75
456.395	1194.75
456.616	1199.75
456.836	1219.75
457.056	1206.75
457.276	1237.75
457.497	1223.75
457.717	1229.75
457.937	1217.75
458.157	1248.75
458.377	1266.75
458.598	1309.75
458.818	1331.75
459.038	1352.75
459.258	1379.75
459.478	1440.75
459.698	1488.75
459.918	1501.75
460.138	1544.75
460.358	1603.75
460.578	1599.75
460.798	1645.75
461.018	1647.75
461.238	1633.75
461.458	1629.75
461.678	1603.75
461.898	1669.75
462.118	1638.75
462.338	1736.75
462.558	1763.75
462.777	1851.75
462.997	1988.75
463.217	2080.75
463.437	2100.75
463.657	1941.75
463.876	1885.75
464.096	1901.75
464.316	1923.75
464.536	1913.75
464.755	1827.75
464.975	1774.75
465.195	1719.75
465.414	1575.75
465.634	1536.75
465.854	1492.75
466.073	1443.75
466.293	1429.75
466.512	1393.75
466.732	1385.75
466.951	1341.75
467.171	1391.75
467.391	1342.75
467.61	1364.75
467.829	1395.75
468.049	1355.75
468.268	1321.75
468.488	1339.75
468.707	1318.75
468.927	1304.75
469.146	1326.75
469.365	1312.75
469.585	1349.75
469.804	1358.75
470.023	1373.75
470.243	1408.75
470.462	1434.75
470.681	1401.75
470.901	1378.75
471.12	1403.75
471.339	1397.75
471.558	1353.75
471.777	1346.75
471.997	1358.75
472.216	1318.75
472.435	1291.75
472.654	1262.75
472.873	1323.75
473.092	1339.75
473.311	1314.75
473.53	1302.75
473.749	1317.75
473.968	1330.75
474.187	1305.75
474.406	1287.75
474.625	1310.75
474.844	1313.75
475.063	1321.75
475.282	1323.75
475.501	1352.75
475.72	1332.75
475.939	1362.75
476.158	1357.75
476.377	1342.75
476.596	1352.75
476.814	1383.75
477.033	1400.75
477.252	1420.75
477.471	1428.75
477.69	1456.75
477.908	1478.75
478.127	1544.75
478.346	1553.75
478.564	1546.75
478.783	1581.75
479.002	1630.75
479.22	1632.75
479.439	1654.75
479.658	1648.75
479.876	1670.75
480.095	1659.75
480.313	1704.75
480.532	1729.75
480.751	1719.75
480.969	1692.75
481.188	1645.75
481.406	1607.75
481.624	1611.75
481.843	1621.75
482.061	1562.75
482.28	1574.75
482.498	1569.75
482.717	1594.75
482.935	1559.75
483.153	1602.75
483.372	1605.75
483.59	1597.75
483.808	1625.75
484.027	1635.75
484.245	1661.75
484.463	1674.75
484.681	1668.75
484.9	1669.75
485.118	1693.75
485.336	1668.75
485.554	1718.75
485.772	1762.75
485.99	1713.75
486.209	1731.75
486.427	1712.75
486.645	1690.75
486.863	1733.75
487.081	1724.75
487.299	1706.75
487.517	1706.75
487.735	1680.75
487.953	1729.75
488.171	1687.75
488.389	1710.75
488.607	1686.75
488.825	1642.75
489.043	1615.75
489.261	1631.75
489.479	1629.75
489.696	1644.75
489.914	1665.75
490.132	1638.75
490.35	1668.75
490.568	1641.75
490.786	1636.75
491.003	1630.75
491.221	1639.75
491.439	1639.75
491.657	1651.75
491.874	1606.75
492.092	1634.75
492.31	1614.75
492.527	1647.75
492.745	1671.75
492.963	1637.75
493.18	1673.75
493.398	1641.75
493.615	1711.75
493.833	1642.75
494.05	1645.75
494.268	1686.75
494.485	1666.75
494.703	1672.75
494.92	1718.75
495.138	1685.75
495.355	1690.75
495.573	1702.75
495.79	1678.75
496.008	1711.75
496.225	1711.75
496.442	1714.75
496.66	1762.75
496.877	1789.75
497.094	1796.75
497.312	1825.75
497.529	1826.75
497.746	1882.75
497.963	1991.75
498.181	2032.75
498.398	2101.75
498.615	2176.75
498.832	2299.75
499.049	2443.75
499.267	2662.75
499.484	2870.75
499.701	3087.75
499.918	3357.75
500.135	3679.75
500.352	4005.75
500.569	4203.75
500.786	4110.75
501.003	3990.75
501.22	3646.75
501.437	3376.75
501.654	3018.75
501.871	2817.75
502.088	2627.75
502.305	2431.75
502.522	2321.75
502.739	2257.75
502.956	2169.75
503.172	2039.75
503.389	1989.75
503.606	1945.75
503.823	1898.75
504.04	1880.75
504.256	1896.75
504.473	1874.75
504.69	1888.75
504.907	1883.75
505.123	1825.75
505.34	1708.75
505.557	1621.75
505.773	1592.75
505.99	1546.75
506.207	1522.75
506.423	1485.75
506.64	1491.75
506.856	1502.75
507.073	1470.75
507.289	1473.75
507.506	1456.75
507.722	1444.75
507.939	1415.75
508.155	1380.75
508.372	1399.75
508.588	1395.75
508.805	1391.75
509.021	1371.75
509.238	1379.75
509.454	1325.75
509.67	1316.75
509.887	1335.75
510.103	1337.75
510.319	1320.75
510.536	1326.75
510.752	1299.75
510.968	1343.75
511.184	1322.75
511.401	1306.75
511.617	1288.75
511.833	1333.75
512.049	1329.75
512.265	1334.75
512.481	1306.75
512.698	1317.75
512.914	1289.75
513.13	1302.75
513.346	1301.75
513.562	1286.75
513.778	1313.75
513.994	1282.75
514.21	1286.75
514.426	1302.75
514.642	1331.75
514.858	1339.75
515.074	1330.75
515.29	1351.75
515.506	1365.75
515.721	1387.75
515.937	1378.75
516.153	1448.75
516.369	1490.75
516.585	1502.75
516.801	1530.75
517.016	1565.75
517.232	1627.75
517.448	1646.75
517.664	1721.75
517.879	1713.75
518.095	1721.75
518.311	1676.75
518.527	1636.75
518.742	1584.75
518.958	1538.75
519.173	1486.75
519.389	1450.75
519.605	1407.75
519.82	1381.75
520.036	1374.75
520.251	1323.75
520.467	1339.75
520.682	1303.75
520.898	1289.75
521.113	1277.75
521.329	1261.75
521.544	1273.75
521.76	1254.75
521.975	1263.75
522.19	1244.75
522.406	1238.75
522.621	1216.75
522.836	1233.75
523.052	1225.75
523.267	1168.75
523.482	1199.75
523.698	1195.75
523.913	1186.75
524.128	1162.75
524.343	1184.75
524.559	1146.75
524.774	1197.75
524.989	1157.75
525.204	1201.75
525.419	1173.75
525.634	1189.75
525.849	1165.75
526.064	1167.75
526.28	1175.75
526.495	1150.75
526.71	1146.75
526.925	1160.75
527.14	1155.75
527.355	1154.75
527.57	1129.75
527.785	1153.75
527.999	1181.75
528.214	1169.75
528.429	1184.75
528.644	1152.75
528.859	1133.75
529.074	1109.75
529.289	1095.75
529.503	1141.75
529.718	1127.75
529.933	1151.75
530.148	1163.75
530.363	1127.75
530.577	1152.75
530.792	1151.75
531.007	1099.75
531.221	1150.75
531.436	1161.75
531.651	1135.75
531.865	1156.75
532.08	1143.75
532.295	1126.75
532.509	1119.75
532.724	1108.75
532.938	1123.75
533.153	1149.75
533.367	1139.75
533.582	1122.75
533.796	1139.75
534.011	1143.75
534.225	1126.75
534.44	1112.75
534.654	1119.75
534.868	1102.75
535.083	1101.75
535.297	1079.75
535.511	1091.75
535.726	1110.75
535.94	1076.75
536.154	1035.75
536.369	1072.75
536.583	1081.75
536.797	1081.75
537.011	1061.75
537.225	1034.75
537.44	1073.75
537.654	1088.75
537.868	1031.75
538.082	1017.75
538.296	1041.75
538.51	1053.75
538.724	1031.75
538.938	1032.75
539.153	1042.75
539.367	1036.75
539.581	1018.75
539.795	1006.75
540.009	1009.75
540.222	1010.75
540.436	1041.75
540.65	1029.75
540.864	1015.75
541.078	1033.75
541.292	997.75
541.506	1012.75
541.72	1002.75
541.934	1004.75
542.147	1030.75
542.361	1012.75
542.575	1027.75
542.789	1007.75
543.002	981.75
543.216	998.75
543.43	995.75
543.644	1003.75
543.857	996.75
544.071	991.75
544.285	1030.75
544.498	1025.75
544.712	1021.75
544.925	1001.75
545.139	1003.75
545.352	1030.75
545.566	1011.75
545.779	1055.75
545.993	1021.75
546.206	1029.75
546.42	993.75
546.633	1011.75
546.847	1001.75
547.06	1039.75
547.274	1035.75
547.487	1010.75
547.7	1006.75
547.914	1029.75
548.127	1025.75
548.34	1026.75
548.554	1018.75
548.767	1048.75
548.98	1053.75
549.193	1011.75
549.407	1023.75
549.62	1038.75
549.833	1033.75
550.046	1053.75
550.259	1029.75
550.473	1018.75
550.686	1038.75
550.899	995.75
551.112	1017.75
551.325	999.75
551.538	989.75
551.751	999.75
551.964	1002.75
552.177	1017.75
552.39	1033.75
552.603	1070.75
552.816	1061.75
553.029	1058.75
553.242	1098.75
553.455	1077.75
553.667	1091.75
553.88	1074.75
554.093	1061.75
554.306	1029.75
554.519	1001.75
554.732	1015.75
554.944	997.75
555.157	955.75
555.37	1006.75
555.583	947.75
555.795	916.75
556.008	904.75
556.221	917.75
556.433	887.75
556.646	888.75
556.859	906.75
557.071	893.75
557.284	860.75
557.496	853.75
557.709	858.75
557.921	855.75
558.134	855.75
558.346	877.75
558.559	877.75
558.771	881.75
558.984	859.75
559.196	870.75
559.409	848.75
559.621	849.75
559.833	830.75
560.046	838.75
560.258	822.75
560.47	885.75
560.683	853.75
560.895	829.75
561.107	832.75
561.32	847.75
561.532	818.75
561.744	835.75
561.956	853.75
562.168	843.75
562.381	829.75
562.593	874.75
562.805	847.75
563.017	847.75
563.229	850.75
563.441	850.75
563.653	863.75
563.865	892.75
564.077	874.75
564.289	889.75
564.501	883.75
564.713	917.75
564.925	911.75
565.137	931.75
565.349	958.75
565.561	961.75
565.773	1006.75
565.985	1046.75
566.197	1103.75
566.408	1146.75
566.62	1182.75
566.832	1277.75
567.044	1344.75
567.255	1331.75
567.467	1359.75
567.679	1401.75
567.891	1457.75
568.102	1454.75
568.314	1366.75
568.526	1298.75
568.737	1240.75
568.949	1122.75
569.161	1049.75
569.372	970.75
569.584	983.75
569.795	927.75
570.007	903.75
570.218	870.75
570.43	880.75
570.641	872.75
570.853	877.75
571.064	873.75
571.276	842.75
571.487	820.75
571.698	826.75
571.91	797.75
572.121	773.75
572.333	732.75
572.544	722.75
572.755	735.75
572.966	727.75
573.178	727.75
573.389	707.75
573.6	718.75
573.811	710.75
574.023	702.75
574.234	690.75
574.445	704.75
574.656	703.75
574.867	669.75
575.078	709.75
575.289	642.75
575.501	678.75
575.712	678.75
575.923	675.75
576.134	645.75
576.345	643.75
576.556	618.75
576.767	658.75
576.978	642.75
577.188	654.75
577.399	633.75
577.61	629.75
577.821	633.75
578.032	637.75
578.243	627.75
578.454	594.75
578.665	624.75
578.875	622.75
579.086	618.75
579.297	607.75
579.508	586.75
579.718	601.75
579.929	594.75
580.14	601.75
580.35	601.75
580.561	590.75
580.772	604.75
580.982	590.75
581.193	564.75
581.403	583.75
581.614	608.75
581.825	589.75
582.035	578.75
582.246	582.75
582.456	576.75
582.667	592.75
582.877	581.75
583.087	600.75
583.298	585.75
583.508	569.75
583.719	570.75
583.929	580.75
584.139	559.75
584.35	564.75
584.56	553.75
584.77	545.75
584.981	554.75
585.191	558.75
585.401	562.75
585.611	565.75
585.821	564.75
586.032	574.75
586.242	550.75
586.452	557.75
586.662	561.75
586.872	560.75
587.082	553.75
587.292	555.75
587.502	533.75
587.713	552.75
587.923	549.75
588.133	541.75
588.343	552.75
588.553	549.75
588.762	557.75
588.972	554.75
589.182	554.75
589.392	558.75
589.602	539.75
589.812	566.75
590.022	549.75
590.232	537.75
590.441	539.75
590.651	561.75
590.861	550.75
591.071	556.75
591.281	572.75
591.49	590.75
591.7	583.75
591.91	583.75
592.119	582.75
592.329	606.75
592.539	625.75
592.748	637.75
592.958	618.75
593.167	661.75
593.377	674.75
593.587	680.75
593.796	656.75
594.006	688.75
594.215	677.75
594.424	664.75
594.634	656.75
594.843	624.75
595.053	608.75
595.262	610.75
595.472	574.75
595.681	567.75
595.89	598.75
596.1	570.75
596.309	542.75
596.518	532.75
596.727	506.75
596.937	517.75
597.146	510.75
597.355	498.75
597.564	502.75
597.774	497.75
597.983	491.75
598.192	487.75
598.401	490.75
598.61	477.75
598.819	506.75
599.028	471.75
599.237	478.75
599.446	452.75
599.655	476.75
599.864	461.75
600.073	472.75
600.282	445.75
600.491	453.75
600.7	431.75
600.909	472.75
601.118	459.75
601.327	465.75
601.536	454.75
601.745	451.75
601.953	439.75
602.162	460.75
602.371	435.75
602.58	438.75
602.789	441.75
602.997	435.75
603.206	430.75
603.415	440.75
603.623	437.75
603.832	431.75
604.041	436.75
604.249	433.75
604.458	426.75
604.666	440.75
604.875	415.75
605.084	422.75
605.292	415.75
605.501	413.75
605.709	417.75
605.918	426.75
606.126	423.75
606.334	411.75
606.543	398.75
606.751	399.75
606.96	409.75
607.168	413.75
607.376	408.75
607.585	404.75
607.793	386.75
608.001	412.75
608.21	407.75
608.418	416.75
608.626	402.75
608.834	394.75
609.043	391.75
609.251	410.75
609.459	401.75
609.667	411.75
609.875	438.75
610.083	402.75
610.291	398.75
610.499	392.75
610.707	378.75
610.916	411.75
611.124	402.75
611.332	420.75
611.54	395.75
611.748	383.75
611.955	385.75
612.163	386.75
612.371	388.75
612.579	393.75
612.787	380.75
612.995	385.75
613.203	388.75
613.411	370.75
613.618	378.75
613.826	383.75
614.034	383.75
614.242	379.75
614.449	384.75
614.657	383.75
614.865	375.75
615.072	414.75
615.28	398.75
615.488	387.75
615.695	392.75
615.903	383.75
616.111	404.75
616.318	393.75
616.526	385.75
616.733	396.75
616.941	370.75
617.148	378.75
617.356	384.75
617.563	378.75
617.771	374.75
617.978	349.75
618.185	374.75
618.393	357.75
618.6	371.75
618.807	389.75
619.015	377.75
619.222	385.75
619.429	365.75
619.637	376.75
619.844	360.75
620.051	379.75
620.258	348.75
620.466	338.75
620.673	361.75
620.88	347.75
621.087	342.75
621.294	355.75
621.501	360.75
621.708	366.75
621.915	367.75
622.122	341.75
622.329	357.75
622.536	356.75
622.743	325.75
622.95	345.75
623.157	346.75
623.364	325.75
623.571	341.75
623.778	355.75
623.985	342.75
624.192	345.75
624.399	333.75
624.606	326.75
624.812	331.75
625.019	346.75
625.226	321.75
625.433	336.75
625.639	322.75
625.846	322.75
626.053	336.75
626.259	329.75
626.466	322.75
626.673	308.75
626.879	323.75
627.086	298.75
627.293	327.75
627.499	326.75
627.706	321.75
627.912	326.75
628.119	311.75
628.325	312.75
628.532	313.75
628.738	317.75
628.945	319.75
629.151	330.75
629.357	311.75
629.564	306.75
629.77	294.75
629.976	295.75
630.183	317.75
630.389	315.75
630.595	311.75
630.802	304.75
631.008	319.75
631.214	290.75
631.42	285.75
631.627	288.75
631.833	299.75
632.039	292.75
632.245	293.75
632.451	303.75
632.657	285.75
632.863	290.75
633.069	289.75
633.275	289.75
633.481	286.75
633.688	277.75
633.893	287.75
634.099	288.75
634.305	286.75
634.511	280.75
634.717	289.75
634.923	288.75
635.129	280.75
635.335	286.75
635.541	266.75
635.747	279.75
635.952	270.75
636.158	289.75
636.364	282.75
636.57	284.75
636.775	278.75
636.981	265.75
637.187	277.75
637.392	278.75
637.598	262.75
637.804	270.75
638.009	275.75
638.215	264.75
638.421	271.75
638.626	283.75
638.832	265.75
639.037	251.75
639.243	256.75
639.448	280.75
639.654	271.75
639.859	281.75
640.065	262.75
640.27	264.75
640.475	275.75
640.681	268.75
640.886	273.75
641.091	249.75
641.297	263.75
641.502	238.75
641.707	258.75
641.913	240.75
642.118	234.75
642.323	263.75
642.528	259.75
642.733	266.75
642.939	248.75
643.144	267.75
643.349	256.75
643.554	269.75
643.759	271.75
643.964	243.75
644.169	265.75
644.374	253.75
644.579	257.75
644.784	266.75
644.989	264.75
645.194	256.75
645.399	257.75
645.604	280.75
645.809	258.75
646.014	245.75
646.219	272.75
646.423	272.75
646.628	262.75
646.833	276.75
647.038	272.75
647.243	256.75
647.447	263.75
647.652	262.75
647.857	285.75
648.062	259.75
648.266	269.75
648.471	296.75
648.676	272.75
648.88	274.75
649.085	267.75
649.289	253.75
649.494	275.75
649.698	259.75
649.903	265.75
650.107	285.75
650.312	261.75
650.516	260.75
650.721	272.75
650.925	263.75
651.13	255.75
651.334	247.75
651.539	240.75
651.743	264.75
651.947	238.75
652.152	264.75
652.356	244.75
652.56	241.75
652.764	250.75
652.969	248.75
653.173	238.75
653.377	245.75
653.581	239.75
653.785	252.75
653.99	255.75
654.194	265.75
654.398	255.75
654.602	256.75
654.806	265.75
655.01	276.75
655.214	259.75
655.418	253.75
655.622	279.75
655.826	295.75
656.03	315.75
656.234	327.75
656.438	360.75
656.642	367.75
656.846	308.75
657.049	298.75
657.253	293.75
657.457	248.75
657.661	241.75
657.865	210.75
658.068	184.75
658.272	187.75
658.476	178.75
658.68	170.75
658.883	171.75
659.087	133.75
659.291	144.75
659.494	129.75
659.698	139.75
659.901	132.75
660.105	122.75
660.309	107.75
660.512	119.75
660.716	115.75
660.919	99.75
661.123	110.75
661.326	99.75
661.53	91.75
661.733	101.75
661.936	96.75
662.14	83.75
662.343	88.75
662.546	81.75
662.75	96.75
662.953	93.75
663.156	107.75
663.36	81.75
663.563	82.75
663.766	84.75
663.969	83.75
664.173	76.75
664.376	91.75
664.579	79.75
664.782	86.75
664.985	85.75
665.188	82.75
665.391	87.75
665.594	80.75
665.797	102.75
666	74.75
666.203	85.75
666.406	87.75
666.609	82.75
666.812	103.75
667.015	91.75
667.218	75.75
667.421	86.75
667.624	83.75
667.827	91.75
668.03	74.75
668.232	82.75
668.435	85.75
668.638	87.75
668.841	71.75
669.043	78.75
669.246	94.75
669.449	79.75
669.651	86.75
669.854	81.75
670.057	80.75
670.259	61.75
670.462	70.75
670.665	70.75
670.867	71.75
671.07	86.75
671.272	90.75
671.475	82.75
671.677	89.75
671.88	71.75
672.082	74.75
672.284	98.75
672.487	80.75
672.689	73.75
672.892	86.75
