Data from NiCl2@0.25M.TitratingCurve.Agarose3%dH2O.NegLispCup.LampEnergy10.LIBS07252019_HRD10591_18-23-22-572.txt Node
Date: Thu Jul 25 18:23:22 EDT 2019
User: cochatt
Spectrometer: HR+D1059
Trigger mode: 1
Integration Time (sec): 1.000000E-1
Scans to average: 1
Electric dark correction enabled: true
Nonlinearity correction enabled: false
Boxcar width: 0
XAxis mode: Wavelengths
Number of Pixels in Spectrum: 2048
>>>>>Begin Spectral Data<<<<<
223.165	-23.94
223.4	-23.94
223.635	-23.94
223.869	-32.94
224.104	-17.94
224.338	-10.94
224.573	-0.94
224.808	-8.94
225.042	3.06
225.277	-0.94
225.511	-0.94
225.746	-4.94
225.98	13.06
226.215	13.06
226.449	17.06
226.683	30.06
226.918	8.06
227.152	18.06
227.387	34.06
227.621	42.06
227.856	51.06
228.09	47.06
228.324	36.06
228.559	37.06
228.793	66.06
229.027	89.06
229.262	91.06
229.496	119.06
229.73	111.06
229.964	121.06
230.199	120.06
230.433	124.06
230.667	134.06
230.901	131.06
231.136	122.06
231.37	125.06
231.604	128.06
231.838	126.06
232.072	131.06
232.306	150.06
232.541	141.06
232.775	133.06
233.009	131.06
233.243	127.06
233.477	132.06
233.711	124.06
233.945	142.06
234.179	125.06
234.413	125.06
234.647	129.06
234.881	140.06
235.115	136.06
235.349	134.06
235.583	125.06
235.817	143.06
236.051	131.06
236.285	138.06
236.519	139.06
236.753	132.06
236.987	149.06
237.221	139.06
237.455	146.06
237.689	151.06
237.922	139.06
238.156	138.06
238.39	148.06
238.624	145.06
238.858	161.06
239.091	135.06
239.325	145.06
239.559	149.06
239.793	157.06
240.027	147.06
240.26	154.06
240.494	165.06
240.728	153.06
240.961	151.06
241.195	147.06
241.429	159.06
241.662	165.06
241.896	164.06
242.13	171.06
242.363	159.06
242.597	179.06
242.83	173.06
243.064	176.06
243.298	174.06
243.531	180.06
243.765	172.06
243.998	170.06
244.232	167.06
244.465	176.06
244.699	179.06
244.932	177.06
245.166	179.06
245.399	183.06
245.633	179.06
245.866	185.06
246.099	187.06
246.333	195.06
246.566	192.06
246.8	193.06
247.033	201.06
247.266	183.06
247.5	193.06
247.733	187.06
247.966	209.06
248.2	187.06
248.433	199.06
248.666	183.06
248.899	186.06
249.133	208.06
249.366	204.06
249.599	214.06
249.832	204.06
250.066	196.06
250.299	218.06
250.532	217.06
250.765	215.06
250.998	219.06
251.231	227.06
251.465	216.06
251.698	233.06
251.931	225.06
252.164	205.06
252.397	226.06
252.63	241.06
252.863	225.06
253.096	233.06
253.329	226.06
253.562	236.06
253.795	234.06
254.028	223.06
254.261	227.06
254.494	232.06
254.727	243.06
254.96	230.06
255.193	234.06
255.426	236.06
255.659	240.06
255.892	239.06
256.124	228.06
256.357	226.06
256.59	233.06
256.823	247.06
257.056	259.06
257.289	240.06
257.521	260.06
257.754	242.06
257.987	259.06
258.22	250.06
258.452	264.06
258.685	260.06
258.918	250.06
259.151	263.06
259.383	239.06
259.616	253.06
259.849	261.06
260.081	270.06
260.314	277.06
260.547	259.06
260.779	259.06
261.012	266.06
261.244	267.06
261.477	285.06
261.71	276.06
261.942	265.06
262.175	282.06
262.407	285.06
262.64	292.06
262.872	268.06
263.105	262.06
263.337	280.06
263.57	292.06
263.802	293.06
264.035	292.06
264.267	289.06
264.499	313.06
264.732	283.06
264.964	296.06
265.197	299.06
265.429	281.06
265.661	290.06
265.894	295.06
266.126	293.06
266.358	276.06
266.591	305.06
266.823	288.06
267.055	297.06
267.287	315.06
267.52	306.06
267.752	304.06
267.984	309.06
268.216	315.06
268.448	318.06
268.681	314.06
268.913	314.06
269.145	296.06
269.377	317.06
269.609	296.06
269.841	308.06
270.073	319.06
270.306	332.06
270.538	330.06
270.77	326.06
271.002	314.06
271.234	308.06
271.466	340.06
271.698	308.06
271.93	313.06
272.162	328.06
272.394	331.06
272.626	333.06
272.858	334.06
273.09	338.06
273.322	316.06
273.553	341.06
273.785	329.06
274.017	345.06
274.249	328.06
274.481	323.06
274.713	343.06
274.945	335.06
275.176	324.06
275.408	325.06
275.64	348.06
275.872	344.06
276.104	344.06
276.335	351.06
276.567	365.06
276.799	330.06
277.031	365.06
277.262	363.06
277.494	340.06
277.726	342.06
277.957	359.06
278.189	356.06
278.421	356.06
278.652	359.06
278.884	360.06
279.115	358.06
279.347	369.06
279.579	364.06
279.81	385.06
280.042	374.06
280.273	386.06
280.505	374.06
280.736	377.06
280.968	375.06
281.199	387.06
281.431	366.06
281.662	373.06
281.894	387.06
282.125	385.06
282.356	380.06
282.588	412.06
282.819	394.06
283.051	388.06
283.282	411.06
283.513	385.06
283.745	377.06
283.976	383.06
284.207	413.06
284.439	397.06
284.67	404.06
284.901	392.06
285.132	398.06
285.364	416.06
285.595	404.06
285.826	408.06
286.057	441.06
286.288	423.06
286.52	431.06
286.751	428.06
286.982	417.06
287.213	419.06
287.444	420.06
287.675	405.06
287.906	424.06
288.138	432.06
288.369	425.06
288.6	434.06
288.831	405.06
289.062	420.06
289.293	439.06
289.524	419.06
289.755	405.06
289.986	423.06
290.217	444.06
290.448	409.06
290.679	436.06
290.91	447.06
291.141	435.06
291.371	412.06
291.602	437.06
291.833	447.06
292.064	445.06
292.295	428.06
292.526	448.06
292.757	421.06
292.987	435.06
293.218	426.06
293.449	438.06
293.68	439.06
293.91	431.06
294.141	441.06
294.372	420.06
294.603	418.06
294.833	462.06
295.064	459.06
295.295	435.06
295.525	430.06
295.756	449.06
295.987	432.06
296.217	460.06
296.448	456.06
296.679	455.06
296.909	453.06
297.14	444.06
297.37	480.06
297.601	495.06
297.831	468.06
298.062	480.06
298.292	486.06
298.523	482.06
298.753	471.06
298.984	496.06
299.214	472.06
299.445	456.06
299.675	472.06
299.905	472.06
300.136	490.06
300.366	475.06
300.597	485.06
300.827	512.06
301.057	488.06
301.288	511.06
301.518	498.06
301.748	492.06
301.979	495.06
302.209	507.06
302.439	492.06
302.669	485.06
302.9	497.06
303.13	475.06
303.36	503.06
303.59	482.06
303.82	518.06
304.051	483.06
304.281	504.06
304.511	473.06
304.741	507.06
304.971	515.06
305.201	517.06
305.431	503.06
305.661	515.06
305.891	487.06
306.121	511.06
306.352	485.06
306.582	488.06
306.812	457.06
307.042	480.06
307.272	469.06
307.502	480.06
307.731	501.06
307.961	481.06
308.191	513.06
308.421	487.06
308.651	479.06
308.881	476.06
309.111	480.06
309.341	487.06
309.571	477.06
309.8	486.06
310.03	495.06
310.26	500.06
310.49	498.06
310.72	521.06
310.949	496.06
311.179	495.06
311.409	513.06
311.639	493.06
311.868	507.06
312.098	486.06
312.328	507.06
312.557	516.06
312.787	501.06
313.017	521.06
313.246	517.06
313.476	513.06
313.706	531.06
313.935	548.06
314.165	534.06
314.394	539.06
314.624	512.06
314.853	504.06
315.083	525.06
315.312	524.06
315.542	526.06
315.771	515.06
316.001	531.06
316.23	520.06
316.46	531.06
316.689	553.06
316.919	515.06
317.148	536.06
317.377	511.06
317.607	500.06
317.836	514.06
318.065	546.06
318.295	537.06
318.524	527.06
318.753	533.06
318.983	526.06
319.212	503.06
319.441	513.06
319.67	517.06
319.9	513.06
320.129	529.06
320.358	523.06
320.587	536.06
320.816	543.06
321.046	518.06
321.275	529.06
321.504	534.06
321.733	555.06
321.962	527.06
322.191	519.06
322.42	547.06
322.649	537.06
322.878	529.06
323.108	514.06
323.337	535.06
323.566	537.06
323.795	535.06
324.024	550.06
324.253	548.06
324.482	541.06
324.71	536.06
324.939	556.06
325.168	554.06
325.397	543.06
325.626	548.06
325.855	566.06
326.084	569.06
326.313	574.06
326.542	564.06
326.77	581.06
326.999	572.06
327.228	568.06
327.457	564.06
327.686	572.06
327.914	557.06
328.143	566.06
328.372	588.06
328.6	537.06
328.829	584.06
329.058	563.06
329.287	579.06
329.515	589.06
329.744	596.06
329.972	563.06
330.201	597.06
330.43	584.06
330.658	575.06
330.887	593.06
331.115	617.06
331.344	607.06
331.572	624.06
331.801	631.06
332.03	636.06
332.258	620.06
332.486	675.06
332.715	664.06
332.943	693.06
333.172	725.06
333.4	769.06
333.629	743.06
333.857	763.06
334.085	755.06
334.314	748.06
334.542	721.06
334.771	708.06
334.999	721.06
335.227	699.06
335.455	715.06
335.684	707.06
335.912	717.06
336.14	696.06
336.369	681.06
336.597	695.06
336.825	684.06
337.053	666.06
337.281	694.06
337.51	671.06
337.738	671.06
337.966	666.06
338.194	643.06
338.422	627.06
338.65	625.06
338.878	615.06
339.106	641.06
339.334	633.06
339.562	621.06
339.79	605.06
340.018	608.06
340.246	592.06
340.474	595.06
340.702	604.06
340.93	617.06
341.158	612.06
341.386	613.06
341.614	631.06
341.842	600.06
342.07	588.06
342.298	599.06
342.526	585.06
342.754	627.06
342.981	589.06
343.209	626.06
343.437	645.06
343.665	672.06
343.893	699.06
344.12	745.06
344.348	697.06
344.576	652.06
344.804	648.06
345.031	630.06
345.259	620.06
345.487	614.06
345.714	629.06
345.942	614.06
346.17	620.06
346.397	576.06
346.625	559.06
346.853	584.06
347.08	581.06
347.308	581.06
347.535	559.06
347.763	555.06
347.99	576.06
348.218	568.06
348.445	577.06
348.673	574.06
348.9	579.06
349.128	577.06
349.355	584.06
349.583	575.06
349.81	565.06
350.037	588.06
350.265	560.06
350.492	552.06
350.72	558.06
350.947	559.06
351.174	563.06
351.402	547.06
351.629	587.06
351.856	577.06
352.083	557.06
352.311	571.06
352.538	576.06
352.765	569.06
352.992	560.06
353.22	572.06
353.447	537.06
353.674	560.06
353.901	559.06
354.128	543.06
354.355	551.06
354.583	542.06
354.81	557.06
355.037	570.06
355.264	587.06
355.491	563.06
355.718	568.06
355.945	570.06
356.172	572.06
356.399	554.06
356.626	568.06
356.853	554.06
357.08	572.06
357.307	570.06
357.534	541.06
357.761	548.06
357.988	568.06
358.215	547.06
358.441	557.06
358.668	546.06
358.895	568.06
359.122	557.06
359.349	575.06
359.576	555.06
359.802	583.06
360.029	568.06
360.256	577.06
360.483	556.06
360.709	569.06
360.936	579.06
361.163	561.06
361.39	555.06
361.616	550.06
361.843	583.06
362.07	567.06
362.296	604.06
362.523	545.06
362.749	584.06
362.976	570.06
363.203	571.06
363.429	554.06
363.656	549.06
363.882	552.06
364.109	564.06
364.335	566.06
364.562	569.06
364.788	554.06
365.015	559.06
365.241	554.06
365.468	571.06
365.694	569.06
365.92	555.06
366.147	563.06
366.373	551.06
366.599	564.06
366.826	559.06
367.052	552.06
367.278	568.06
367.505	563.06
367.731	572.06
367.957	549.06
368.184	577.06
368.41	602.06
368.636	567.06
368.862	598.06
369.089	592.06
369.315	593.06
369.541	574.06
369.767	585.06
369.993	602.06
370.219	576.06
370.445	569.06
370.672	598.06
370.898	599.06
371.124	617.06
371.35	625.06
371.576	601.06
371.802	617.06
372.028	599.06
372.254	617.06
372.48	596.06
372.706	622.06
372.932	627.06
373.158	639.06
373.384	632.06
373.61	613.06
373.835	645.06
374.061	617.06
374.287	609.06
374.513	648.06
374.739	632.06
374.965	671.06
375.191	691.06
375.416	665.06
375.642	648.06
375.868	637.06
376.094	622.06
376.319	639.06
376.545	632.06
376.771	614.06
376.997	595.06
377.222	606.06
377.448	593.06
377.674	606.06
377.899	585.06
378.125	597.06
378.35	613.06
378.576	600.06
378.802	583.06
379.027	584.06
379.253	604.06
379.478	593.06
379.704	587.06
379.929	600.06
380.155	567.06
380.38	593.06
380.606	629.06
380.831	606.06
381.057	597.06
381.282	610.06
381.507	603.06
381.733	611.06
381.958	635.06
382.184	628.06
382.409	607.06
382.634	611.06
382.86	620.06
383.085	645.06
383.31	645.06
383.535	681.06
383.761	657.06
383.986	670.06
384.211	687.06
384.436	695.06
384.662	723.06
384.887	731.06
385.112	718.06
385.337	724.06
385.562	748.06
385.787	751.06
386.013	735.06
386.238	738.06
386.463	717.06
386.688	723.06
386.913	730.06
387.138	740.06
387.363	734.06
387.588	721.06
387.813	710.06
388.038	697.06
388.263	720.06
388.488	736.06
388.713	722.06
388.938	725.06
389.163	706.06
389.387	685.06
389.612	719.06
389.837	733.06
390.062	724.06
390.287	719.06
390.512	695.06
390.736	695.06
390.961	726.06
391.186	724.06
391.411	760.06
391.636	787.06
391.86	815.06
392.085	844.06
392.31	827.06
392.534	799.06
392.759	780.06
392.984	761.06
393.208	764.06
393.433	752.06
393.658	790.06
393.882	756.06
394.107	758.06
394.331	760.06
394.556	767.06
394.78	781.06
395.005	775.06
395.229	767.06
395.454	807.06
395.678	797.06
395.903	803.06
396.127	787.06
396.352	772.06
396.576	752.06
396.801	778.06
397.025	770.06
397.249	795.06
397.474	813.06
397.698	812.06
397.922	804.06
398.147	801.06
398.371	849.06
398.595	864.06
398.82	908.06
399.044	961.06
399.268	1085.06
399.492	1222.06
399.717	1350.06
399.941	1319.06
400.165	1189.06
400.389	1087.06
400.613	1046.06
400.837	968.06
401.062	937.06
401.286	936.06
401.51	915.06
401.734	909.06
401.958	931.06
402.182	933.06
402.406	937.06
402.63	955.06
402.854	968.06
403.078	973.06
403.302	1000.06
403.526	996.06
403.75	1029.06
403.974	1021.06
404.198	1014.06
404.422	1035.06
404.645	1012.06
404.869	1021.06
405.093	1010.06
405.317	980.06
405.541	1015.06
405.765	968.06
405.988	979.06
406.212	972.06
406.436	966.06
406.66	1019.06
406.883	1023.06
407.107	1123.06
407.331	1123.06
407.555	1172.06
407.778	1162.06
408.002	1123.06
408.226	1097.06
408.449	1096.06
408.673	1058.06
408.896	1013.06
409.12	1018.06
409.344	1016.06
409.567	1012.06
409.791	1028.06
410.014	1004.06
410.238	1008.06
410.461	1045.06
410.685	1007.06
410.908	985.06
411.132	946.06
411.355	947.06
411.578	944.06
411.802	921.06
412.025	954.06
412.249	970.06
412.472	948.06
412.695	930.06
412.919	931.06
413.142	925.06
413.365	920.06
413.589	904.06
413.812	895.06
414.035	874.06
414.258	909.06
414.482	938.06
414.705	942.06
414.928	903.06
415.151	918.06
415.374	915.06
415.597	891.06
415.821	897.06
416.044	884.06
416.267	889.06
416.49	884.06
416.713	883.06
416.936	897.06
417.159	896.06
417.382	885.06
417.605	886.06
417.828	889.06
418.051	908.06
418.274	918.06
418.497	896.06
418.72	926.06
418.943	945.06
419.166	991.06
419.389	1037.06
419.611	995.06
419.834	984.06
420.057	951.06
420.28	884.06
420.503	869.06
420.726	883.06
420.948	863.06
421.171	891.06
421.394	908.06
421.617	881.06
421.839	879.06
422.062	929.06
422.285	899.06
422.507	915.06
422.73	911.06
422.953	899.06
423.175	901.06
423.398	910.06
423.621	928.06
423.843	939.06
424.066	943.06
424.288	940.06
424.511	953.06
424.733	935.06
424.956	916.06
425.178	903.06
425.401	887.06
425.623	885.06
425.846	844.06
426.068	887.06
426.291	864.06
426.513	866.06
426.735	844.06
426.958	860.06
427.18	797.06
427.402	828.06
427.625	834.06
427.847	788.06
428.069	820.06
428.292	821.06
428.514	804.06
428.736	800.06
428.958	808.06
429.181	811.06
429.403	806.06
429.625	784.06
429.847	808.06
430.069	785.06
430.292	776.06
430.514	779.06
430.736	777.06
430.958	779.06
431.18	794.06
431.402	788.06
431.624	801.06
431.846	809.06
432.068	808.06
432.29	837.06
432.512	794.06
432.734	808.06
432.956	789.06
433.178	832.06
433.4	805.06
433.622	804.06
433.844	790.06
434.066	834.06
434.287	833.06
434.509	833.06
434.731	882.06
434.953	913.06
435.175	887.06
435.397	895.06
435.618	859.06
435.84	800.06
436.062	827.06
436.284	800.06
436.505	803.06
436.727	821.06
436.949	809.06
437.17	790.06
437.392	797.06
437.614	799.06
437.835	748.06
438.057	741.06
438.278	760.06
438.5	767.06
438.721	745.06
438.943	799.06
439.165	758.06
439.386	774.06
439.608	781.06
439.829	787.06
440.05	788.06
440.272	782.06
440.493	808.06
440.715	829.06
440.936	821.06
441.158	833.06
441.379	866.06
441.6	902.06
441.822	896.06
442.043	892.06
442.264	870.06
442.486	868.06
442.707	875.06
442.928	855.06
443.149	858.06
443.371	861.06
443.592	897.06
443.813	891.06
444.034	909.06
444.255	947.06
444.476	975.06
444.698	999.06
444.919	1044.06
445.14	1134.06
445.361	1025.06
445.582	909.06
445.803	887.06
446.024	837.06
446.245	853.06
446.466	841.06
446.687	833.06
446.908	816.06
447.129	771.06
447.35	788.06
447.571	795.06
447.792	748.06
448.013	756.06
448.234	733.06
448.455	756.06
448.675	734.06
448.896	728.06
449.117	725.06
449.338	741.06
449.559	728.06
449.779	707.06
450	720.06
450.221	714.06
450.442	731.06
450.662	742.06
450.883	742.06
451.104	744.06
451.324	742.06
451.545	750.06
451.766	739.06
451.986	737.06
452.207	750.06
452.428	721.06
452.648	697.06
452.869	713.06
453.089	695.06
453.31	726.06
453.53	705.06
453.751	699.06
453.971	693.06
454.192	716.06
454.412	688.06
454.633	708.06
454.853	703.06
455.073	689.06
455.294	701.06
455.514	681.06
455.734	716.06
455.955	678.06
456.175	684.06
456.395	683.06
456.616	687.06
456.836	707.06
457.056	695.06
457.276	662.06
457.497	679.06
457.717	699.06
457.937	724.06
458.157	714.06
458.377	689.06
458.598	725.06
458.818	744.06
459.038	796.06
459.258	786.06
459.478	807.06
459.698	832.06
459.918	839.06
460.138	884.06
460.358	915.06
460.578	963.06
460.798	973.06
461.018	951.06
461.238	927.06
461.458	949.06
461.678	966.06
461.898	965.06
462.118	955.06
462.338	994.06
462.558	1042.06
462.777	1059.06
462.997	1153.06
463.217	1217.06
463.437	1237.06
463.657	1154.06
463.876	1109.06
464.096	1096.06
464.316	1091.06
464.536	1090.06
464.755	1051.06
464.975	999.06
465.195	971.06
465.414	927.06
465.634	865.06
465.854	838.06
466.073	861.06
466.293	825.06
466.512	784.06
466.732	796.06
466.951	783.06
467.171	780.06
467.391	773.06
467.61	793.06
467.829	731.06
468.049	753.06
468.268	765.06
468.488	735.06
468.707	733.06
468.927	746.06
469.146	741.06
469.365	771.06
469.585	733.06
469.804	792.06
470.023	777.06
470.243	782.06
470.462	810.06
470.681	805.06
470.901	818.06
471.12	780.06
471.339	782.06
471.558	769.06
471.777	784.06
471.997	756.06
472.216	755.06
472.435	738.06
472.654	739.06
472.873	744.06
473.092	737.06
473.311	718.06
473.53	707.06
473.749	705.06
473.968	717.06
474.187	721.06
474.406	712.06
474.625	719.06
474.844	748.06
475.063	728.06
475.282	731.06
475.501	723.06
475.72	743.06
475.939	757.06
476.158	768.06
476.377	783.06
476.596	768.06
476.814	756.06
477.033	771.06
477.252	773.06
477.471	804.06
477.69	832.06
477.908	810.06
478.127	866.06
478.346	857.06
478.564	855.06
478.783	904.06
479.002	901.06
479.22	916.06
479.439	914.06
479.658	921.06
479.876	934.06
480.095	916.06
480.313	950.06
480.532	961.06
480.751	967.06
480.969	943.06
481.188	899.06
481.406	861.06
481.624	865.06
481.843	826.06
482.061	848.06
482.28	831.06
482.498	820.06
482.717	823.06
482.935	828.06
483.153	822.06
483.372	840.06
483.59	845.06
483.808	871.06
484.027	843.06
484.245	857.06
484.463	857.06
484.681	873.06
484.9	845.06
485.118	861.06
485.336	865.06
485.554	874.06
485.772	864.06
485.99	861.06
486.209	907.06
486.427	861.06
486.645	880.06
486.863	874.06
487.081	868.06
487.299	875.06
487.517	872.06
487.735	887.06
487.953	895.06
488.171	879.06
488.389	887.06
488.607	856.06
488.825	833.06
489.043	872.06
489.261	876.06
489.479	872.06
489.696	884.06
489.914	884.06
490.132	892.06
490.35	874.06
490.568	854.06
490.786	853.06
491.003	863.06
491.221	887.06
491.439	903.06
491.657	895.06
491.874	897.06
492.092	892.06
492.31	909.06
492.527	919.06
492.745	901.06
492.963	931.06
493.18	896.06
493.398	919.06
493.615	915.06
493.833	898.06
494.05	928.06
494.268	951.06
494.485	970.06
494.703	937.06
494.92	953.06
495.138	948.06
495.355	938.06
495.573	932.06
495.79	956.06
496.008	927.06
496.225	945.06
496.442	969.06
496.66	984.06
496.877	1007.06
497.094	1027.06
497.312	1013.06
497.529	1077.06
497.746	1063.06
497.963	1092.06
498.181	1137.06
498.398	1195.06
498.615	1265.06
498.832	1333.06
499.049	1443.06
499.267	1568.06
499.484	1713.06
499.701	1859.06
499.918	2093.06
500.135	2335.06
500.352	2588.06
500.569	2703.06
500.786	2685.06
501.003	2512.06
501.22	2282.06
501.437	2038.06
501.654	1822.06
501.871	1671.06
502.088	1502.06
502.305	1435.06
502.522	1347.06
502.739	1306.06
502.956	1265.06
503.172	1195.06
503.389	1139.06
503.606	1111.06
503.823	1096.06
504.04	1095.06
504.256	1101.06
504.473	1108.06
504.69	1149.06
504.907	1106.06
505.123	1010.06
505.34	995.06
505.557	954.06
505.773	914.06
505.99	906.06
506.207	907.06
506.423	842.06
506.64	866.06
506.856	841.06
507.073	868.06
507.289	835.06
507.506	831.06
507.722	808.06
507.939	812.06
508.155	809.06
508.372	787.06
508.588	793.06
508.805	804.06
509.021	785.06
509.238	787.06
509.454	768.06
509.67	813.06
509.887	760.06
510.103	765.06
510.319	751.06
510.536	803.06
510.752	769.06
510.968	788.06
511.184	786.06
511.401	776.06
511.617	752.06
511.833	732.06
512.049	747.06
512.265	746.06
512.481	769.06
512.698	786.06
512.914	773.06
513.13	756.06
513.346	738.06
513.562	764.06
513.778	757.06
513.994	767.06
514.21	762.06
514.426	761.06
514.642	791.06
514.858	791.06
515.074	782.06
515.29	794.06
515.506	791.06
515.721	792.06
515.937	809.06
516.153	824.06
516.369	845.06
516.585	864.06
516.801	901.06
517.016	927.06
517.232	963.06
517.448	1004.06
517.664	1017.06
517.879	1000.06
518.095	1061.06
518.311	996.06
518.527	971.06
518.742	947.06
518.958	891.06
519.173	853.06
519.389	851.06
519.605	836.06
519.82	822.06
520.036	800.06
520.251	789.06
520.467	775.06
520.682	785.06
520.898	757.06
521.113	747.06
521.329	737.06
521.544	735.06
521.76	705.06
521.975	728.06
522.19	705.06
522.406	722.06
522.621	697.06
522.836	728.06
523.052	705.06
523.267	710.06
523.482	688.06
523.698	681.06
523.913	723.06
524.128	694.06
524.343	712.06
524.559	707.06
524.774	680.06
524.989	693.06
525.204	687.06
525.419	699.06
525.634	693.06
525.849	697.06
526.064	683.06
526.28	696.06
526.495	651.06
526.71	653.06
526.925	654.06
527.14	657.06
527.355	672.06
527.57	711.06
527.785	678.06
527.999	692.06
528.214	678.06
528.429	679.06
528.644	661.06
528.859	687.06
529.074	696.06
529.289	682.06
529.503	670.06
529.718	676.06
529.933	676.06
530.148	687.06
530.363	675.06
530.577	662.06
530.792	690.06
531.007	678.06
531.221	704.06
531.436	675.06
531.651	684.06
531.865	685.06
532.08	705.06
532.295	693.06
532.509	680.06
532.724	667.06
532.938	690.06
533.153	703.06
533.367	674.06
533.582	682.06
533.796	675.06
534.011	693.06
534.225	677.06
534.44	657.06
534.654	651.06
534.868	667.06
535.083	635.06
535.297	669.06
535.511	656.06
535.726	644.06
535.94	653.06
536.154	652.06
536.369	637.06
536.583	636.06
536.797	644.06
537.011	625.06
537.225	665.06
537.44	633.06
537.654	634.06
537.868	637.06
538.082	633.06
538.296	621.06
538.51	609.06
538.724	637.06
538.938	639.06
539.153	611.06
539.367	639.06
539.581	613.06
539.795	612.06
540.009	604.06
540.222	616.06
540.436	591.06
540.65	625.06
540.864	619.06
541.078	589.06
541.292	609.06
541.506	612.06
541.72	603.06
541.934	632.06
542.147	631.06
542.361	632.06
542.575	613.06
542.789	590.06
543.002	618.06
543.216	598.06
543.43	608.06
543.644	588.06
543.857	616.06
544.071	615.06
544.285	599.06
544.498	604.06
544.712	604.06
544.925	647.06
545.139	647.06
545.352	601.06
545.566	604.06
545.779	615.06
545.993	621.06
546.206	637.06
546.42	623.06
546.633	605.06
546.847	608.06
547.06	607.06
547.274	613.06
547.487	626.06
547.7	620.06
547.914	641.06
548.127	629.06
548.34	614.06
548.554	639.06
548.767	637.06
548.98	637.06
549.193	627.06
549.407	608.06
549.62	648.06
549.833	657.06
550.046	642.06
550.259	636.06
550.473	615.06
550.686	647.06
550.899	612.06
551.112	601.06
551.325	633.06
551.538	627.06
551.751	600.06
551.964	617.06
552.177	623.06
552.39	628.06
552.603	651.06
552.816	657.06
553.029	668.06
553.242	682.06
553.455	672.06
553.667	651.06
553.88	666.06
554.093	661.06
554.306	641.06
554.519	639.06
554.732	617.06
554.944	605.06
555.157	611.06
555.37	580.06
555.583	579.06
555.795	571.06
556.008	575.06
556.221	568.06
556.433	586.06
556.646	570.06
556.859	550.06
557.071	547.06
557.284	523.06
557.496	542.06
557.709	542.06
557.921	532.06
558.134	523.06
558.346	513.06
558.559	524.06
558.771	521.06
558.984	518.06
559.196	538.06
559.409	530.06
559.621	511.06
559.833	529.06
560.046	517.06
560.258	527.06
560.47	506.06
560.683	489.06
560.895	523.06
561.107	497.06
561.32	520.06
561.532	510.06
561.744	544.06
561.956	512.06
562.168	497.06
562.381	533.06
562.593	520.06
562.805	531.06
563.017	507.06
563.229	528.06
563.441	511.06
563.653	516.06
563.865	517.06
564.077	536.06
564.289	544.06
564.501	534.06
564.713	548.06
564.925	572.06
565.137	579.06
565.349	586.06
565.561	593.06
565.773	634.06
565.985	631.06
566.197	644.06
566.408	699.06
566.62	758.06
566.832	798.06
567.044	827.06
567.255	834.06
567.467	855.06
567.679	913.06
567.891	952.06
568.102	921.06
568.314	891.06
568.526	821.06
568.737	741.06
568.949	688.06
569.161	664.06
569.372	609.06
569.584	588.06
569.795	580.06
570.007	557.06
570.218	524.06
570.43	515.06
570.641	520.06
570.853	529.06
571.064	529.06
571.276	550.06
571.487	545.06
571.698	498.06
571.91	481.06
572.121	461.06
572.333	468.06
572.544	470.06
572.755	447.06
572.966	445.06
573.178	447.06
573.389	433.06
573.6	431.06
573.811	416.06
574.023	424.06
574.234	416.06
574.445	438.06
574.656	421.06
574.867	439.06
575.078	422.06
575.289	441.06
575.501	412.06
575.712	403.06
575.923	416.06
576.134	412.06
576.345	394.06
576.556	415.06
576.767	405.06
576.978	396.06
577.188	405.06
577.399	403.06
577.61	386.06
577.821	378.06
578.032	393.06
578.243	415.06
578.454	397.06
578.665	373.06
578.875	396.06
579.086	375.06
579.297	361.06
579.508	390.06
579.718	371.06
579.929	375.06
580.14	375.06
580.35	369.06
580.561	365.06
580.772	379.06
580.982	377.06
581.193	360.06
581.403	378.06
581.614	367.06
581.825	349.06
582.035	359.06
582.246	359.06
582.456	358.06
582.667	362.06
582.877	350.06
583.087	359.06
583.298	361.06
583.508	354.06
583.719	345.06
583.929	356.06
584.139	339.06
584.35	361.06
584.56	383.06
584.77	367.06
584.981	356.06
585.191	347.06
585.401	325.06
585.611	337.06
585.821	358.06
586.032	350.06
586.242	357.06
586.452	345.06
586.662	354.06
586.872	346.06
587.082	327.06
587.292	350.06
587.502	351.06
587.713	348.06
587.923	342.06
588.133	345.06
588.343	339.06
588.553	345.06
588.762	371.06
588.972	347.06
589.182	357.06
589.392	363.06
589.602	356.06
589.812	363.06
590.022	374.06
590.232	353.06
590.441	358.06
590.651	350.06
590.861	354.06
591.071	364.06
591.281	355.06
591.49	373.06
591.7	368.06
591.91	372.06
592.119	376.06
592.329	381.06
592.539	396.06
592.748	387.06
592.958	412.06
593.167	407.06
593.377	405.06
593.587	425.06
593.796	441.06
594.006	423.06
594.215	429.06
594.424	424.06
594.634	427.06
594.843	416.06
595.053	396.06
595.262	399.06
595.472	372.06
595.681	374.06
595.89	342.06
596.1	360.06
596.309	344.06
596.518	337.06
596.727	329.06
596.937	338.06
597.146	329.06
597.355	323.06
597.564	301.06
597.774	315.06
597.983	297.06
598.192	311.06
598.401	306.06
598.61	301.06
598.819	312.06
599.028	301.06
599.237	303.06
599.446	296.06
599.655	308.06
599.864	303.06
600.073	302.06
600.282	313.06
600.491	283.06
600.7	296.06
600.909	300.06
601.118	296.06
601.327	275.06
601.536	287.06
601.745	279.06
601.953	276.06
602.162	291.06
602.371	295.06
602.58	286.06
602.789	293.06
602.997	282.06
603.206	275.06
603.415	288.06
603.623	277.06
603.832	279.06
604.041	286.06
604.249	264.06
604.458	281.06
604.666	270.06
604.875	284.06
605.084	258.06
605.292	267.06
605.501	278.06
605.709	268.06
605.918	289.06
606.126	266.06
606.334	266.06
606.543	288.06
606.751	261.06
606.96	244.06
607.168	270.06
607.376	267.06
607.585	283.06
607.793	274.06
608.001	280.06
608.21	269.06
608.418	269.06
608.626	264.06
608.834	266.06
609.043	267.06
609.251	269.06
609.459	256.06
609.667	250.06
609.875	257.06
610.083	258.06
610.291	262.06
610.499	255.06
610.707	247.06
610.916	258.06
611.124	277.06
611.332	270.06
611.54	262.06
611.748	255.06
611.955	252.06
612.163	260.06
612.371	255.06
612.579	259.06
612.787	254.06
612.995	263.06
613.203	243.06
613.411	242.06
613.618	264.06
613.826	261.06
614.034	269.06
614.242	257.06
614.449	267.06
614.657	264.06
614.865	247.06
615.072	239.06
615.28	256.06
615.488	246.06
615.695	245.06
615.903	241.06
616.111	252.06
616.318	281.06
616.526	239.06
616.733	232.06
616.941	251.06
617.148	250.06
617.356	239.06
617.563	253.06
617.771	258.06
617.978	256.06
618.185	248.06
618.393	250.06
618.6	259.06
618.807	245.06
619.015	245.06
619.222	253.06
619.429	260.06
619.637	244.06
619.844	247.06
620.051	242.06
620.258	255.06
620.466	236.06
620.673	224.06
620.88	247.06
621.087	257.06
621.294	230.06
621.501	251.06
621.708	237.06
621.915	246.06
622.122	248.06
622.329	229.06
622.536	212.06
622.743	239.06
622.95	228.06
623.157	225.06
623.364	222.06
623.571	216.06
623.778	228.06
623.985	235.06
624.192	231.06
624.399	226.06
624.606	240.06
624.812	205.06
625.019	232.06
625.226	209.06
625.433	235.06
625.639	215.06
625.846	212.06
626.053	233.06
626.259	213.06
626.466	213.06
626.673	217.06
626.879	214.06
627.086	216.06
627.293	210.06
627.499	225.06
627.706	228.06
627.912	238.06
628.119	213.06
628.325	224.06
628.532	204.06
628.738	205.06
628.945	210.06
629.151	212.06
629.357	215.06
629.564	220.06
629.77	221.06
629.976	210.06
630.183	228.06
630.389	210.06
630.595	219.06
630.802	197.06
631.008	189.06
631.214	200.06
631.42	189.06
631.627	215.06
631.833	195.06
632.039	194.06
632.245	198.06
632.451	193.06
632.657	194.06
632.863	188.06
633.069	201.06
633.275	196.06
633.481	185.06
633.688	199.06
633.893	211.06
634.099	205.06
634.305	190.06
634.511	184.06
634.717	202.06
634.923	201.06
635.129	173.06
635.335	178.06
635.541	181.06
635.747	191.06
635.952	201.06
636.158	185.06
636.364	190.06
636.57	201.06
636.775	168.06
636.981	204.06
637.187	170.06
637.392	175.06
637.598	188.06
637.804	170.06
638.009	186.06
638.215	178.06
638.421	190.06
638.626	174.06
638.832	173.06
639.037	184.06
639.243	184.06
639.448	178.06
639.654	186.06
639.859	182.06
640.065	189.06
640.27	200.06
640.475	188.06
640.681	172.06
640.886	185.06
641.091	177.06
641.297	186.06
641.502	182.06
641.707	170.06
641.913	187.06
642.118	176.06
642.323	184.06
642.528	176.06
642.733	183.06
642.939	178.06
643.144	177.06
643.349	185.06
643.554	165.06
643.759	171.06
643.964	171.06
644.169	172.06
644.374	162.06
644.579	188.06
644.784	179.06
644.989	164.06
645.194	176.06
645.399	187.06
645.604	167.06
645.809	156.06
646.014	173.06
646.219	181.06
646.423	176.06
646.628	175.06
646.833	168.06
647.038	163.06
647.243	184.06
647.447	155.06
647.652	191.06
647.857	182.06
648.062	192.06
648.266	184.06
648.471	165.06
648.676	191.06
648.88	168.06
649.085	182.06
649.289	184.06
649.494	163.06
649.698	177.06
649.903	157.06
650.107	179.06
650.312	170.06
650.516	166.06
650.721	181.06
650.925	162.06
651.13	155.06
651.334	145.06
651.539	148.06
651.743	147.06
651.947	157.06
652.152	163.06
652.356	150.06
652.56	159.06
652.764	163.06
652.969	142.06
653.173	159.06
653.377	151.06
653.581	137.06
653.785	141.06
653.99	145.06
654.194	141.06
654.398	151.06
654.602	138.06
654.806	160.06
655.01	150.06
655.214	156.06
655.418	139.06
655.622	137.06
655.826	135.06
656.03	130.06
656.234	136.06
656.438	138.06
656.642	124.06
656.846	136.06
657.049	123.06
657.253	142.06
657.457	132.06
657.661	136.06
657.865	121.06
658.068	108.06
658.272	113.06
658.476	102.06
658.68	102.06
658.883	108.06
659.087	100.06
659.291	104.06
659.494	120.06
659.698	119.06
659.901	99.06
660.105	98.06
660.309	100.06
660.512	98.06
660.716	100.06
660.919	100.06
661.123	100.06
661.326	107.06
661.53	106.06
661.733	79.06
661.936	87.06
662.14	85.06
662.343	84.06
662.546	78.06
662.75	81.06
662.953	95.06
663.156	103.06
663.36	87.06
663.563	89.06
663.766	89.06
663.969	82.06
664.173	81.06
664.376	77.06
664.579	86.06
664.782	81.06
664.985	77.06
665.188	70.06
665.391	83.06
665.594	75.06
665.797	80.06
666	79.06
666.203	71.06
666.406	87.06
666.609	84.06
666.812	82.06
667.015	85.06
667.218	102.06
667.421	78.06
667.624	91.06
667.827	76.06
668.03	77.06
668.232	77.06
668.435	98.06
668.638	81.06
668.841	76.06
669.043	88.06
669.246	82.06
669.449	73.06
669.651	87.06
669.854	81.06
670.057	77.06
670.259	82.06
670.462	78.06
670.665	88.06
670.867	81.06
671.07	77.06
671.272	98.06
671.475	77.06
671.677	85.06
671.88	75.06
672.082	83.06
672.284	89.06
672.487	72.06
672.689	80.06
672.892	90.06
