Data from NiCl2@0.0625M.TitratingCurve.Agarose3%dH2O.NegLispCup.LampEnergy10.LIBS07252019_HRD10591_18-34-12-576.txt Node
Date: Thu Jul 25 18:34:12 EDT 2019
User: cochatt
Spectrometer: HR+D1059
Trigger mode: 1
Integration Time (sec): 1.000000E-1
Scans to average: 1
Electric dark correction enabled: true
Nonlinearity correction enabled: false
Boxcar width: 0
XAxis mode: Wavelengths
Number of Pixels in Spectrum: 2048
>>>>>Begin Spectral Data<<<<<
223.165	3.81
223.4	3.81
223.635	3.81
223.869	-21.19
224.104	-19.19
224.338	-21.19
224.573	-17.19
224.808	-16.19
225.042	-2.19
225.277	-15.19
225.511	-2.19
225.746	-3.19
225.98	5.81
226.215	14.81
226.449	21.81
226.683	19.81
226.918	15.81
227.152	35.81
227.387	24.81
227.621	27.81
227.856	41.81
228.09	45.81
228.324	55.81
228.559	63.81
228.793	76.81
229.027	133.81
229.262	145.81
229.496	154.81
229.73	165.81
229.964	168.81
230.199	165.81
230.433	166.81
230.667	175.81
230.901	187.81
231.136	180.81
231.37	186.81
231.604	199.81
231.838	189.81
232.072	186.81
232.306	201.81
232.541	181.81
232.775	191.81
233.009	200.81
233.243	189.81
233.477	195.81
233.711	194.81
233.945	189.81
234.179	202.81
234.413	212.81
234.647	216.81
234.881	212.81
235.115	210.81
235.349	201.81
235.583	192.81
235.817	212.81
236.051	221.81
236.285	214.81
236.519	219.81
236.753	219.81
236.987	230.81
237.221	216.81
237.455	229.81
237.689	222.81
237.922	230.81
238.156	227.81
238.39	227.81
238.624	234.81
238.858	223.81
239.091	245.81
239.325	248.81
239.559	248.81
239.793	245.81
240.027	243.81
240.26	248.81
240.494	259.81
240.728	259.81
240.961	275.81
241.195	282.81
241.429	263.81
241.662	280.81
241.896	284.81
242.13	291.81
242.363	271.81
242.597	275.81
242.83	276.81
243.064	279.81
243.298	307.81
243.531	298.81
243.765	320.81
243.998	308.81
244.232	303.81
244.465	309.81
244.699	319.81
244.932	307.81
245.166	308.81
245.399	311.81
245.633	326.81
245.866	320.81
246.099	340.81
246.333	350.81
246.566	327.81
246.8	313.81
247.033	355.81
247.266	351.81
247.5	336.81
247.733	331.81
247.966	341.81
248.2	359.81
248.433	340.81
248.666	352.81
248.899	382.81
249.133	361.81
249.366	351.81
249.599	369.81
249.832	363.81
250.066	389.81
250.299	405.81
250.532	363.81
250.765	386.81
250.998	375.81
251.231	386.81
251.465	399.81
251.698	409.81
251.931	395.81
252.164	392.81
252.397	394.81
252.63	401.81
252.863	411.81
253.096	416.81
253.329	405.81
253.562	420.81
253.795	407.81
254.028	418.81
254.261	435.81
254.494	427.81
254.727	420.81
254.96	423.81
255.193	448.81
255.426	423.81
255.659	422.81
255.892	443.81
256.124	451.81
256.357	454.81
256.59	449.81
256.823	474.81
257.056	455.81
257.289	456.81
257.521	466.81
257.754	457.81
257.987	454.81
258.22	464.81
258.452	459.81
258.685	479.81
258.918	449.81
259.151	472.81
259.383	477.81
259.616	487.81
259.849	484.81
260.081	477.81
260.314	485.81
260.547	497.81
260.779	495.81
261.012	501.81
261.244	498.81
261.477	502.81
261.71	515.81
261.942	511.81
262.175	504.81
262.407	513.81
262.64	523.81
262.872	512.81
263.105	533.81
263.337	523.81
263.57	515.81
263.802	526.81
264.035	522.81
264.267	522.81
264.499	534.81
264.732	545.81
264.964	544.81
265.197	550.81
265.429	565.81
265.661	549.81
265.894	563.81
266.126	557.81
266.358	547.81
266.591	562.81
266.823	561.81
267.055	589.81
267.287	559.81
267.52	596.81
267.752	591.81
267.984	589.81
268.216	599.81
268.448	573.81
268.681	601.81
268.913	574.81
269.145	594.81
269.377	584.81
269.609	588.81
269.841	593.81
270.073	618.81
270.306	606.81
270.538	607.81
270.77	624.81
271.002	603.81
271.234	593.81
271.466	625.81
271.698	627.81
271.93	621.81
272.162	632.81
272.394	629.81
272.626	647.81
272.858	637.81
273.09	645.81
273.322	626.81
273.553	614.81
273.785	643.81
274.017	661.81
274.249	641.81
274.481	637.81
274.713	662.81
274.945	663.81
275.176	682.81
275.408	659.81
275.64	680.81
275.872	678.81
276.104	675.81
276.335	678.81
276.567	691.81
276.799	680.81
277.031	673.81
277.262	680.81
277.494	671.81
277.726	661.81
277.957	701.81
278.189	682.81
278.421	698.81
278.652	697.81
278.884	679.81
279.115	713.81
279.347	714.81
279.579	716.81
279.81	725.81
280.042	719.81
280.273	723.81
280.505	732.81
280.736	705.81
280.968	720.81
281.199	713.81
281.431	744.81
281.662	742.81
281.894	768.81
282.125	748.81
282.356	743.81
282.588	765.81
282.819	736.81
283.051	737.81
283.282	753.81
283.513	752.81
283.745	761.81
283.976	774.81
284.207	775.81
284.439	781.81
284.67	775.81
284.901	811.81
285.132	794.81
285.364	769.81
285.595	811.81
285.826	784.81
286.057	796.81
286.288	775.81
286.52	777.81
286.751	817.81
286.982	795.81
287.213	794.81
287.444	800.81
287.675	825.81
287.906	811.81
288.138	819.81
288.369	804.81
288.6	811.81
288.831	819.81
289.062	803.81
289.293	849.81
289.524	829.81
289.755	820.81
289.986	809.81
290.217	825.81
290.448	828.81
290.679	803.81
290.91	825.81
291.141	824.81
291.371	813.81
291.602	848.81
291.833	831.81
292.064	832.81
292.295	851.81
292.526	874.81
292.757	840.81
292.987	835.81
293.218	835.81
293.449	838.81
293.68	871.81
293.91	839.81
294.141	830.81
294.372	841.81
294.603	849.81
294.833	841.81
295.064	838.81
295.295	851.81
295.525	831.81
295.756	861.81
295.987	856.81
296.217	885.81
296.448	855.81
296.679	856.81
296.909	872.81
297.14	857.81
297.37	900.81
297.601	890.81
297.831	882.81
298.062	902.81
298.292	912.81
298.523	903.81
298.753	921.81
298.984	913.81
299.214	896.81
299.445	902.81
299.675	897.81
299.905	897.81
300.136	909.81
300.366	903.81
300.597	903.81
300.827	944.81
301.057	948.81
301.288	925.81
301.518	927.81
301.748	940.81
301.979	955.81
302.209	969.81
302.439	943.81
302.669	957.81
302.9	949.81
303.13	952.81
303.36	953.81
303.59	967.81
303.82	951.81
304.051	974.81
304.281	948.81
304.511	968.81
304.741	966.81
304.971	977.81
305.201	961.81
305.431	965.81
305.661	972.81
305.891	962.81
306.121	932.81
306.352	976.81
306.582	953.81
306.812	935.81
307.042	959.81
307.272	953.81
307.502	937.81
307.731	933.81
307.961	945.81
308.191	958.81
308.421	951.81
308.651	980.81
308.881	925.81
309.111	943.81
309.341	945.81
309.571	952.81
309.8	957.81
310.03	940.81
310.26	952.81
310.49	946.81
310.72	956.81
310.949	945.81
311.179	951.81
311.409	991.81
311.639	976.81
311.868	979.81
312.098	970.81
312.328	985.81
312.557	985.81
312.787	1011.81
313.017	992.81
313.246	1000.81
313.476	1010.81
313.706	999.81
313.935	1013.81
314.165	1011.81
314.394	1015.81
314.624	1017.81
314.853	1019.81
315.083	1029.81
315.312	1004.81
315.542	1044.81
315.771	1021.81
316.001	995.81
316.23	1005.81
316.46	1000.81
316.689	1018.81
316.919	1046.81
317.148	1023.81
317.377	1032.81
317.607	1015.81
317.836	1020.81
318.065	992.81
318.295	1025.81
318.524	1004.81
318.753	1033.81
318.983	1028.81
319.212	1008.81
319.441	994.81
319.67	1019.81
319.9	1004.81
320.129	1017.81
320.358	1040.81
320.587	1050.81
320.816	1025.81
321.046	1030.81
321.275	1028.81
321.504	1027.81
321.733	1018.81
321.962	1005.81
322.191	1050.81
322.42	1036.81
322.649	1024.81
322.878	1035.81
323.108	1040.81
323.337	1066.81
323.566	1060.81
323.795	1060.81
324.024	1065.81
324.253	1051.81
324.482	1063.81
324.71	1061.81
324.939	1065.81
325.168	1063.81
325.397	1048.81
325.626	1064.81
325.855	1092.81
326.084	1122.81
326.313	1125.81
326.542	1095.81
326.77	1130.81
326.999	1106.81
327.228	1110.81
327.457	1128.81
327.686	1130.81
327.914	1097.81
328.143	1105.81
328.372	1091.81
328.6	1099.81
328.829	1097.81
329.058	1124.81
329.287	1111.81
329.515	1117.81
329.744	1131.81
329.972	1147.81
330.201	1125.81
330.43	1127.81
330.658	1141.81
330.887	1161.81
331.115	1183.81
331.344	1175.81
331.572	1141.81
331.801	1201.81
332.03	1160.81
332.258	1187.81
332.486	1250.81
332.715	1240.81
332.943	1279.81
333.172	1317.81
333.4	1361.81
333.629	1365.81
333.857	1413.81
334.085	1417.81
334.314	1396.81
334.542	1381.81
334.771	1395.81
334.999	1368.81
335.227	1373.81
335.455	1352.81
335.684	1327.81
335.912	1364.81
336.14	1344.81
336.369	1360.81
336.597	1353.81
336.825	1305.81
337.053	1313.81
337.281	1303.81
337.51	1292.81
337.738	1291.81
337.966	1254.81
338.194	1256.81
338.422	1230.81
338.65	1226.81
338.878	1213.81
339.106	1248.81
339.334	1218.81
339.562	1204.81
339.79	1212.81
340.018	1157.81
340.246	1172.81
340.474	1168.81
340.702	1203.81
340.93	1166.81
341.158	1154.81
341.386	1149.81
341.614	1155.81
341.842	1207.81
342.07	1175.81
342.298	1163.81
342.526	1178.81
342.754	1172.81
342.981	1169.81
343.209	1202.81
343.437	1219.81
343.665	1281.81
343.893	1323.81
344.12	1367.81
344.348	1359.81
344.576	1256.81
344.804	1271.81
345.031	1199.81
345.259	1205.81
345.487	1179.81
345.714	1157.81
345.942	1148.81
346.17	1155.81
346.397	1162.81
346.625	1131.81
346.853	1125.81
347.08	1138.81
347.308	1153.81
347.535	1092.81
347.763	1123.81
347.99	1119.81
348.218	1121.81
348.445	1153.81
348.673	1115.81
348.9	1095.81
349.128	1111.81
349.355	1088.81
349.583	1103.81
349.81	1096.81
350.037	1097.81
350.265	1079.81
350.492	1085.81
350.72	1077.81
350.947	1075.81
351.174	1088.81
351.402	1058.81
351.629	1113.81
351.856	1105.81
352.083	1065.81
352.311	1061.81
352.538	1060.81
352.765	1076.81
352.992	1030.81
353.22	1051.81
353.447	1067.81
353.674	1093.81
353.901	1065.81
354.128	1049.81
354.355	1054.81
354.583	1092.81
354.81	1084.81
355.037	1042.81
355.264	1066.81
355.491	1073.81
355.718	1045.81
355.945	1119.81
356.172	1075.81
356.399	1089.81
356.626	1102.81
356.853	1083.81
357.08	1050.81
357.307	1092.81
357.534	1071.81
357.761	1084.81
357.988	1047.81
358.215	1067.81
358.441	1072.81
358.668	1038.81
358.895	1056.81
359.122	1060.81
359.349	1065.81
359.576	1053.81
359.802	1087.81
360.029	1088.81
360.256	1111.81
360.483	1088.81
360.709	1079.81
360.936	1113.81
361.163	1085.81
361.39	1093.81
361.616	1085.81
361.843	1086.81
362.07	1097.81
362.296	1088.81
362.523	1066.81
362.749	1070.81
362.976	1077.81
363.203	1087.81
363.429	1079.81
363.656	1074.81
363.882	1092.81
364.109	1099.81
364.335	1093.81
364.562	1101.81
364.788	1068.81
365.015	1097.81
365.241	1107.81
365.468	1074.81
365.694	1098.81
365.92	1099.81
366.147	1087.81
366.373	1077.81
366.599	1096.81
366.826	1101.81
367.052	1110.81
367.278	1113.81
367.505	1099.81
367.731	1143.81
367.957	1068.81
368.184	1117.81
368.41	1104.81
368.636	1108.81
368.862	1105.81
369.089	1125.81
369.315	1153.81
369.541	1127.81
369.767	1143.81
369.993	1126.81
370.219	1151.81
370.445	1153.81
370.672	1174.81
370.898	1171.81
371.124	1165.81
371.35	1171.81
371.576	1173.81
371.802	1167.81
372.028	1174.81
372.254	1189.81
372.48	1187.81
372.706	1187.81
372.932	1215.81
373.158	1207.81
373.384	1203.81
373.61	1171.81
373.835	1173.81
374.061	1171.81
374.287	1180.81
374.513	1213.81
374.739	1222.81
374.965	1244.81
375.191	1256.81
375.416	1257.81
375.642	1254.81
375.868	1241.81
376.094	1212.81
376.319	1183.81
376.545	1167.81
376.771	1189.81
376.997	1176.81
377.222	1173.81
377.448	1159.81
377.674	1147.81
377.899	1168.81
378.125	1157.81
378.35	1131.81
378.576	1155.81
378.802	1165.81
379.027	1185.81
379.253	1144.81
379.478	1140.81
379.704	1159.81
379.929	1161.81
380.155	1146.81
380.38	1157.81
380.606	1178.81
380.831	1157.81
381.057	1187.81
381.282	1128.81
381.507	1189.81
381.733	1189.81
381.958	1174.81
382.184	1189.81
382.409	1205.81
382.634	1195.81
382.86	1209.81
383.085	1219.81
383.31	1219.81
383.535	1251.81
383.761	1232.81
383.986	1266.81
384.211	1319.81
384.436	1341.81
384.662	1329.81
384.887	1354.81
385.112	1335.81
385.337	1378.81
385.562	1369.81
385.787	1317.81
386.013	1403.81
386.238	1387.81
386.463	1397.81
386.688	1395.81
386.913	1382.81
387.138	1357.81
387.363	1388.81
387.588	1354.81
387.813	1376.81
388.038	1395.81
388.263	1405.81
388.488	1416.81
388.713	1397.81
388.938	1393.81
389.163	1344.81
389.387	1352.81
389.612	1374.81
389.837	1367.81
390.062	1346.81
390.287	1361.81
390.512	1356.81
390.736	1367.81
390.961	1414.81
391.186	1414.81
391.411	1466.81
391.636	1484.81
391.86	1505.81
392.085	1507.81
392.31	1529.81
392.534	1496.81
392.759	1501.81
392.984	1471.81
393.208	1467.81
393.433	1459.81
393.658	1436.81
393.882	1433.81
394.107	1455.81
394.331	1458.81
394.556	1457.81
394.78	1464.81
395.005	1486.81
395.229	1468.81
395.454	1523.81
395.678	1558.81
395.903	1548.81
396.127	1553.81
396.352	1504.81
396.576	1427.81
396.801	1472.81
397.025	1521.81
397.249	1555.81
397.474	1580.81
397.698	1589.81
397.922	1550.81
398.147	1589.81
398.371	1603.81
398.595	1662.81
398.82	1700.81
399.044	1788.81
399.268	1927.81
399.492	2114.81
399.717	2278.81
399.941	2311.81
400.165	2214.81
400.389	2016.81
400.613	1861.81
400.837	1783.81
401.062	1764.81
401.286	1731.81
401.51	1705.81
401.734	1716.81
401.958	1717.81
402.182	1730.81
402.406	1722.81
402.63	1729.81
402.854	1747.81
403.078	1804.81
403.302	1762.81
403.526	1781.81
403.75	1818.81
403.974	1836.81
404.198	1819.81
404.422	1863.81
404.645	1867.81
404.869	1845.81
405.093	1869.81
405.317	1852.81
405.541	1851.81
405.765	1836.81
405.988	1827.81
406.212	1826.81
406.436	1819.81
406.66	1892.81
406.883	1871.81
407.107	1991.81
407.331	2031.81
407.555	2172.81
407.778	2129.81
408.002	2055.81
408.226	2041.81
408.449	2016.81
408.673	1957.81
408.896	1935.81
409.12	1925.81
409.344	1910.81
409.567	1877.81
409.791	1928.81
410.014	1911.81
410.238	1862.81
410.461	1870.81
410.685	1864.81
410.908	1846.81
411.132	1823.81
411.355	1812.81
411.578	1788.81
411.802	1845.81
412.025	1766.81
412.249	1785.81
412.472	1818.81
412.695	1725.81
412.919	1722.81
413.142	1706.81
413.365	1713.81
413.589	1703.81
413.812	1684.81
414.035	1699.81
414.258	1679.81
414.482	1729.81
414.705	1736.81
414.928	1711.81
415.151	1697.81
415.374	1716.81
415.597	1682.81
415.821	1667.81
416.044	1615.81
416.267	1624.81
416.49	1617.81
416.713	1629.81
416.936	1692.81
417.159	1638.81
417.382	1638.81
417.605	1629.81
417.828	1644.81
418.051	1602.81
418.274	1654.81
418.497	1651.81
418.72	1684.81
418.943	1665.81
419.166	1761.81
419.389	1896.81
419.611	1808.81
419.834	1781.81
420.057	1721.81
420.28	1635.81
420.503	1617.81
420.726	1655.81
420.948	1570.81
421.171	1612.81
421.394	1625.81
421.617	1636.81
421.839	1615.81
422.062	1639.81
422.285	1630.81
422.507	1624.81
422.73	1617.81
422.953	1617.81
423.175	1675.81
423.398	1697.81
423.621	1664.81
423.843	1702.81
424.066	1679.81
424.288	1661.81
424.511	1657.81
424.733	1669.81
424.956	1667.81
425.178	1649.81
425.401	1612.81
425.623	1688.81
425.846	1611.81
426.068	1595.81
426.291	1586.81
426.513	1558.81
426.735	1553.81
426.958	1587.81
427.18	1541.81
427.402	1539.81
427.625	1555.81
427.847	1482.81
428.069	1496.81
428.292	1548.81
428.514	1480.81
428.736	1488.81
428.958	1512.81
429.181	1460.81
429.403	1475.81
429.625	1527.81
429.847	1474.81
430.069	1494.81
430.292	1500.81
430.514	1478.81
430.736	1498.81
430.958	1494.81
431.18	1496.81
431.402	1557.81
431.624	1487.81
431.846	1522.81
432.068	1539.81
432.29	1576.81
432.512	1516.81
432.734	1523.81
432.956	1518.81
433.178	1525.81
433.4	1538.81
433.622	1528.81
433.844	1530.81
434.066	1543.81
434.287	1577.81
434.509	1623.81
434.731	1620.81
434.953	1688.81
435.175	1639.81
435.397	1677.81
435.618	1642.81
435.84	1576.81
436.062	1540.81
436.284	1551.81
436.505	1526.81
436.727	1513.81
436.949	1553.81
437.17	1536.81
437.392	1488.81
437.614	1461.81
437.835	1417.81
438.057	1450.81
438.278	1421.81
438.5	1466.81
438.721	1429.81
438.943	1413.81
439.165	1432.81
439.386	1445.81
439.608	1482.81
439.829	1503.81
440.05	1442.81
440.272	1471.81
440.493	1498.81
440.715	1489.81
440.936	1539.81
441.158	1548.81
441.379	1567.81
441.6	1603.81
441.822	1606.81
442.043	1619.81
442.264	1569.81
442.486	1570.81
442.707	1595.81
442.928	1567.81
443.149	1548.81
443.371	1588.81
443.592	1628.81
443.813	1642.81
444.034	1628.81
444.255	1657.81
444.476	1668.81
444.698	1760.81
444.919	1799.81
445.14	1917.81
445.361	1776.81
445.582	1673.81
445.803	1584.81
446.024	1547.81
446.245	1541.81
446.466	1509.81
446.687	1484.81
446.908	1491.81
447.129	1433.81
447.35	1427.81
447.571	1425.81
447.792	1382.81
448.013	1384.81
448.234	1379.81
448.455	1351.81
448.675	1364.81
448.896	1345.81
449.117	1312.81
449.338	1376.81
449.559	1324.81
449.779	1324.81
450	1330.81
450.221	1348.81
450.442	1379.81
450.662	1363.81
450.883	1339.81
451.104	1367.81
451.324	1372.81
451.545	1336.81
451.766	1333.81
451.986	1329.81
452.207	1337.81
452.428	1304.81
452.648	1301.81
452.869	1311.81
453.089	1296.81
453.31	1322.81
453.53	1292.81
453.751	1275.81
453.971	1286.81
454.192	1289.81
454.412	1255.81
454.633	1255.81
454.853	1277.81
455.073	1256.81
455.294	1270.81
455.514	1235.81
455.734	1275.81
455.955	1224.81
456.175	1260.81
456.395	1265.81
456.616	1260.81
456.836	1260.81
457.056	1260.81
457.276	1231.81
457.497	1282.81
457.717	1319.81
457.937	1308.81
458.157	1307.81
458.377	1303.81
458.598	1356.81
458.818	1378.81
459.038	1383.81
459.258	1431.81
459.478	1463.81
459.698	1489.81
459.918	1519.81
460.138	1595.81
460.358	1618.81
460.578	1637.81
460.798	1634.81
461.018	1662.81
461.238	1671.81
461.458	1667.81
461.678	1674.81
461.898	1707.81
462.118	1682.81
462.338	1779.81
462.558	1814.81
462.777	1877.81
462.997	1939.81
463.217	2063.81
463.437	2067.81
463.657	1967.81
463.876	1924.81
464.096	1951.81
464.316	1891.81
464.536	1863.81
464.755	1842.81
464.975	1801.81
465.195	1740.81
465.414	1640.81
465.634	1590.81
465.854	1538.81
466.073	1531.81
466.293	1468.81
466.512	1447.81
466.732	1427.81
466.951	1431.81
467.171	1417.81
467.391	1424.81
467.61	1388.81
467.829	1401.81
468.049	1401.81
468.268	1369.81
468.488	1366.81
468.707	1333.81
468.927	1386.81
469.146	1344.81
469.365	1387.81
469.585	1376.81
469.804	1396.81
470.023	1464.81
470.243	1414.81
470.462	1452.81
470.681	1431.81
470.901	1467.81
471.12	1434.81
471.339	1383.81
471.558	1397.81
471.777	1388.81
471.997	1370.81
472.216	1363.81
472.435	1365.81
472.654	1345.81
472.873	1356.81
473.092	1338.81
473.311	1370.81
473.53	1364.81
473.749	1341.81
473.968	1318.81
474.187	1354.81
474.406	1348.81
474.625	1324.81
474.844	1371.81
475.063	1390.81
475.282	1371.81
475.501	1380.81
475.72	1388.81
475.939	1379.81
476.158	1403.81
476.377	1425.81
476.596	1425.81
476.814	1453.81
477.033	1453.81
477.252	1480.81
477.471	1500.81
477.69	1540.81
477.908	1566.81
478.127	1591.81
478.346	1609.81
478.564	1642.81
478.783	1657.81
479.002	1685.81
479.22	1674.81
479.439	1713.81
479.658	1695.81
479.876	1733.81
480.095	1735.81
480.313	1745.81
480.532	1761.81
480.751	1760.81
480.969	1734.81
481.188	1728.81
481.406	1677.81
481.624	1699.81
481.843	1669.81
482.061	1680.81
482.28	1644.81
482.498	1635.81
482.717	1662.81
482.935	1657.81
483.153	1675.81
483.372	1702.81
483.59	1699.81
483.808	1669.81
484.027	1686.81
484.245	1728.81
484.463	1757.81
484.681	1735.81
484.9	1767.81
485.118	1797.81
485.336	1802.81
485.554	1869.81
485.772	1835.81
485.99	1823.81
486.209	1843.81
486.427	1837.81
486.645	1818.81
486.863	1760.81
487.081	1809.81
487.299	1785.81
487.517	1803.81
487.735	1787.81
487.953	1785.81
488.171	1733.81
488.389	1766.81
488.607	1753.81
488.825	1747.81
489.043	1727.81
489.261	1728.81
489.479	1785.81
489.696	1744.81
489.914	1701.81
490.132	1754.81
490.35	1755.81
490.568	1714.81
490.786	1712.81
491.003	1670.81
491.221	1736.81
491.439	1714.81
491.657	1750.81
491.874	1723.81
492.092	1689.81
492.31	1700.81
492.527	1708.81
492.745	1727.81
492.963	1715.81
493.18	1753.81
493.398	1733.81
493.615	1702.81
493.833	1731.81
494.05	1702.81
494.268	1747.81
494.485	1703.81
494.703	1725.81
494.92	1764.81
495.138	1687.81
495.355	1759.81
495.573	1733.81
495.79	1739.81
496.008	1759.81
496.225	1724.81
496.442	1791.81
496.66	1795.81
496.877	1825.81
497.094	1877.81
497.312	1873.81
497.529	1918.81
497.746	1973.81
497.963	2000.81
498.181	2055.81
498.398	2150.81
498.615	2275.81
498.832	2375.81
499.049	2527.81
499.267	2723.81
499.484	2875.81
499.701	3160.81
499.918	3432.81
500.135	3681.81
500.352	4036.81
500.569	4137.81
500.786	4148.81
501.003	3852.81
501.22	3670.81
501.437	3309.81
501.654	3067.81
501.871	2838.81
502.088	2612.81
502.305	2447.81
502.522	2381.81
502.739	2273.81
502.956	2200.81
503.172	2116.81
503.389	2051.81
503.606	1992.81
503.823	1924.81
504.04	1924.81
504.256	1919.81
504.473	1945.81
504.69	1933.81
504.907	1906.81
505.123	1814.81
505.34	1750.81
505.557	1687.81
505.773	1669.81
505.99	1625.81
506.207	1616.81
506.423	1577.81
506.64	1521.81
506.856	1528.81
507.073	1531.81
507.289	1524.81
507.506	1483.81
507.722	1491.81
507.939	1473.81
508.155	1444.81
508.372	1411.81
508.588	1434.81
508.805	1416.81
509.021	1417.81
509.238	1407.81
509.454	1383.81
509.67	1413.81
509.887	1397.81
510.103	1402.81
510.319	1377.81
510.536	1348.81
510.752	1334.81
510.968	1352.81
511.184	1319.81
511.401	1358.81
511.617	1336.81
511.833	1319.81
512.049	1352.81
512.265	1346.81
512.481	1347.81
512.698	1322.81
512.914	1302.81
513.13	1352.81
513.346	1344.81
513.562	1339.81
513.778	1331.81
513.994	1342.81
514.21	1339.81
514.426	1332.81
514.642	1376.81
514.858	1366.81
515.074	1412.81
515.29	1396.81
515.506	1424.81
515.721	1416.81
515.937	1448.81
516.153	1417.81
516.369	1500.81
516.585	1461.81
516.801	1563.81
517.016	1565.81
517.232	1644.81
517.448	1734.81
517.664	1727.81
517.879	1733.81
518.095	1713.81
518.311	1686.81
518.527	1642.81
518.742	1628.81
518.958	1568.81
519.173	1514.81
519.389	1474.81
519.605	1449.81
519.82	1449.81
520.036	1418.81
520.251	1372.81
520.467	1375.81
520.682	1331.81
520.898	1333.81
521.113	1306.81
521.329	1303.81
521.544	1294.81
521.76	1309.81
521.975	1280.81
522.19	1293.81
522.406	1267.81
522.621	1281.81
522.836	1266.81
523.052	1266.81
523.267	1233.81
523.482	1252.81
523.698	1221.81
523.913	1218.81
524.128	1227.81
524.343	1210.81
524.559	1212.81
524.774	1212.81
524.989	1216.81
525.204	1202.81
525.419	1187.81
525.634	1209.81
525.849	1193.81
526.064	1206.81
526.28	1194.81
526.495	1192.81
526.71	1178.81
526.925	1193.81
527.14	1186.81
527.355	1165.81
527.57	1168.81
527.785	1171.81
527.999	1171.81
528.214	1184.81
528.429	1208.81
528.644	1186.81
528.859	1175.81
529.074	1158.81
529.289	1191.81
529.503	1177.81
529.718	1177.81
529.933	1156.81
530.148	1167.81
530.363	1182.81
530.577	1183.81
530.792	1163.81
531.007	1162.81
531.221	1160.81
531.436	1168.81
531.651	1179.81
531.865	1159.81
532.08	1174.81
532.295	1217.81
532.509	1171.81
532.724	1181.81
532.938	1168.81
533.153	1164.81
533.367	1160.81
533.582	1163.81
533.796	1167.81
534.011	1195.81
534.225	1160.81
534.44	1147.81
534.654	1163.81
534.868	1147.81
535.083	1162.81
535.297	1121.81
535.511	1137.81
535.726	1111.81
535.94	1110.81
536.154	1083.81
536.369	1064.81
536.583	1067.81
536.797	1114.81
537.011	1098.81
537.225	1092.81
537.44	1114.81
537.654	1116.81
537.868	1085.81
538.082	1050.81
538.296	1064.81
538.51	1065.81
538.724	1077.81
538.938	1075.81
539.153	1057.81
539.367	1076.81
539.581	1084.81
539.795	1045.81
540.009	1031.81
540.222	1037.81
540.436	1046.81
540.65	1041.81
540.864	1030.81
541.078	1056.81
541.292	1037.81
541.506	1043.81
541.72	1029.81
541.934	1053.81
542.147	1056.81
542.361	1035.81
542.575	1035.81
542.789	1049.81
543.002	1015.81
543.216	1011.81
543.43	1032.81
543.644	1020.81
543.857	1047.81
544.071	1045.81
544.285	1023.81
544.498	1002.81
544.712	1031.81
544.925	1009.81
545.139	1031.81
545.352	1071.81
545.566	1033.81
545.779	1059.81
545.993	1050.81
546.206	1051.81
546.42	1043.81
546.633	1059.81
546.847	1047.81
547.06	1023.81
547.274	1041.81
547.487	1039.81
547.7	1062.81
547.914	1049.81
548.127	1063.81
548.34	1053.81
548.554	1043.81
548.767	1071.81
548.98	1089.81
549.193	1053.81
549.407	1067.81
549.62	1066.81
549.833	1079.81
550.046	1037.81
550.259	1063.81
550.473	1047.81
550.686	1015.81
550.899	1049.81
551.112	1001.81
551.325	1029.81
551.538	1036.81
551.751	1030.81
551.964	1043.81
552.177	1011.81
552.39	1067.81
552.603	1094.81
552.816	1095.81
553.029	1102.81
553.242	1101.81
553.455	1099.81
553.667	1114.81
553.88	1098.81
554.093	1072.81
554.306	1073.81
554.519	1047.81
554.732	1031.81
554.944	1016.81
555.157	1012.81
555.37	1023.81
555.583	1009.81
555.795	935.81
556.008	912.81
556.221	951.81
556.433	911.81
556.646	935.81
556.859	919.81
557.071	930.81
557.284	891.81
557.496	909.81
557.709	894.81
557.921	923.81
558.134	883.81
558.346	875.81
558.559	899.81
558.771	884.81
558.984	861.81
559.196	871.81
559.409	876.81
559.621	882.81
559.833	851.81
560.046	863.81
560.258	859.81
560.47	861.81
560.683	857.81
560.895	871.81
561.107	865.81
561.32	844.81
561.532	841.81
561.744	850.81
561.956	862.81
562.168	862.81
562.381	851.81
562.593	861.81
562.805	866.81
563.017	899.81
563.229	876.81
563.441	879.81
563.653	892.81
563.865	875.81
564.077	895.81
564.289	908.81
564.501	927.81
564.713	951.81
564.925	960.81
565.137	947.81
565.349	977.81
565.561	1006.81
565.773	1059.81
565.985	1088.81
566.197	1100.81
566.408	1140.81
566.62	1209.81
566.832	1247.81
567.044	1342.81
567.255	1319.81
567.467	1346.81
567.679	1380.81
567.891	1431.81
568.102	1443.81
568.314	1382.81
568.526	1291.81
568.737	1198.81
568.949	1151.81
569.161	1061.81
569.372	1011.81
569.584	982.81
569.795	942.81
570.007	928.81
570.218	888.81
570.43	866.81
570.641	882.81
570.853	886.81
571.064	879.81
571.276	863.81
571.487	842.81
571.698	833.81
571.91	823.81
572.121	818.81
572.333	763.81
572.544	773.81
572.755	746.81
572.966	738.81
573.178	746.81
573.389	737.81
573.6	729.81
573.811	728.81
574.023	714.81
574.234	710.81
574.445	700.81
574.656	699.81
574.867	717.81
575.078	687.81
575.289	727.81
575.501	712.81
575.712	666.81
575.923	660.81
576.134	691.81
576.345	669.81
576.556	677.81
576.767	667.81
576.978	670.81
577.188	643.81
577.399	664.81
577.61	645.81
577.821	640.81
578.032	638.81
578.243	597.81
578.454	635.81
578.665	642.81
578.875	639.81
579.086	623.81
579.297	635.81
579.508	613.81
579.718	635.81
579.929	610.81
580.14	620.81
580.35	632.81
580.561	612.81
580.772	592.81
580.982	611.81
581.193	599.81
581.403	613.81
581.614	623.81
581.825	608.81
582.035	611.81
582.246	573.81
582.456	589.81
582.667	605.81
582.877	605.81
583.087	597.81
583.298	588.81
583.508	592.81
583.719	590.81
583.929	602.81
584.139	592.81
584.35	585.81
584.56	578.81
584.77	571.81
584.981	587.81
585.191	568.81
585.401	588.81
585.611	587.81
585.821	571.81
586.032	575.81
586.242	573.81
586.452	579.81
586.662	564.81
586.872	571.81
587.082	565.81
587.292	561.81
587.502	571.81
587.713	577.81
587.923	563.81
588.133	546.81
588.343	576.81
588.553	552.81
588.762	588.81
588.972	556.81
589.182	569.81
589.392	566.81
589.602	554.81
589.812	548.81
590.022	584.81
590.232	572.81
590.441	583.81
590.651	573.81
590.861	559.81
591.071	564.81
591.281	565.81
591.49	595.81
591.7	583.81
591.91	586.81
592.119	612.81
592.329	620.81
592.539	641.81
592.748	647.81
592.958	654.81
593.167	661.81
593.377	669.81
593.587	666.81
593.796	674.81
594.006	671.81
594.215	680.81
594.424	660.81
594.634	641.81
594.843	618.81
595.053	595.81
595.262	609.81
595.472	588.81
595.681	571.81
595.89	585.81
596.1	571.81
596.309	546.81
596.518	527.81
596.727	532.81
596.937	549.81
597.146	518.81
597.355	514.81
597.564	522.81
597.774	520.81
597.983	497.81
598.192	473.81
598.401	507.81
598.61	492.81
598.819	497.81
599.028	490.81
599.237	491.81
599.446	461.81
599.655	483.81
599.864	460.81
600.073	457.81
600.282	454.81
600.491	482.81
600.7	471.81
600.909	456.81
601.118	486.81
601.327	477.81
601.536	474.81
601.745	468.81
601.953	470.81
602.162	456.81
602.371	449.81
602.58	441.81
602.789	467.81
602.997	457.81
603.206	436.81
603.415	445.81
603.623	428.81
603.832	440.81
604.041	427.81
604.249	422.81
604.458	450.81
604.666	434.81
604.875	434.81
605.084	452.81
605.292	438.81
605.501	419.81
605.709	435.81
605.918	425.81
606.126	414.81
606.334	420.81
606.543	423.81
606.751	428.81
606.96	410.81
607.168	422.81
607.376	413.81
607.585	421.81
607.793	412.81
608.001	424.81
608.21	425.81
608.418	394.81
608.626	434.81
608.834	420.81
609.043	420.81
609.251	413.81
609.459	413.81
609.667	405.81
609.875	410.81
610.083	417.81
610.291	401.81
610.499	410.81
610.707	387.81
610.916	401.81
611.124	402.81
611.332	400.81
611.54	400.81
611.748	400.81
611.955	398.81
612.163	381.81
612.371	389.81
612.579	386.81
612.787	386.81
612.995	389.81
613.203	408.81
613.411	412.81
613.618	398.81
613.826	403.81
614.034	399.81
614.242	385.81
614.449	393.81
614.657	382.81
614.865	377.81
615.072	388.81
615.28	384.81
615.488	390.81
615.695	395.81
615.903	396.81
616.111	389.81
616.318	383.81
616.526	397.81
616.733	404.81
616.941	384.81
617.148	396.81
617.356	405.81
617.563	385.81
617.771	391.81
617.978	383.81
618.185	396.81
618.393	376.81
618.6	388.81
618.807	367.81
619.015	381.81
619.222	401.81
619.429	375.81
619.637	377.81
619.844	362.81
620.051	363.81
620.258	373.81
620.466	383.81
620.673	353.81
620.88	353.81
621.087	359.81
621.294	356.81
621.501	373.81
621.708	370.81
621.915	347.81
622.122	356.81
622.329	378.81
622.536	348.81
622.743	367.81
622.95	366.81
623.157	340.81
623.364	344.81
623.571	346.81
623.778	358.81
623.985	354.81
624.192	349.81
624.399	333.81
624.606	332.81
624.812	359.81
625.019	344.81
625.226	355.81
625.433	341.81
625.639	333.81
625.846	336.81
626.053	332.81
626.259	339.81
626.466	338.81
626.673	329.81
626.879	322.81
627.086	320.81
627.293	332.81
627.499	340.81
627.706	309.81
627.912	319.81
628.119	332.81
628.325	330.81
628.532	323.81
628.738	316.81
628.945	332.81
629.151	313.81
629.357	310.81
629.564	302.81
629.77	308.81
629.976	293.81
630.183	303.81
630.389	300.81
630.595	317.81
630.802	300.81
631.008	312.81
631.214	297.81
631.42	306.81
631.627	305.81
631.833	297.81
632.039	290.81
632.245	297.81
632.451	290.81
632.657	296.81
632.863	303.81
633.069	305.81
633.275	298.81
633.481	279.81
633.688	290.81
633.893	295.81
634.099	284.81
634.305	298.81
634.511	276.81
634.717	280.81
634.923	298.81
635.129	284.81
635.335	276.81
635.541	276.81
635.747	285.81
635.952	279.81
636.158	287.81
636.364	281.81
636.57	290.81
636.775	287.81
636.981	287.81
637.187	282.81
637.392	286.81
637.598	271.81
637.804	264.81
638.009	277.81
638.215	263.81
638.421	273.81
638.626	286.81
638.832	290.81
639.037	278.81
639.243	274.81
639.448	266.81
639.654	267.81
639.859	274.81
640.065	274.81
640.27	267.81
640.475	264.81
640.681	279.81
640.886	267.81
641.091	268.81
641.297	291.81
641.502	289.81
641.707	269.81
641.913	275.81
642.118	249.81
642.323	275.81
642.528	257.81
642.733	277.81
642.939	258.81
643.144	269.81
643.349	269.81
643.554	260.81
643.759	245.81
643.964	270.81
644.169	262.81
644.374	253.81
644.579	279.81
644.784	257.81
644.989	257.81
645.194	274.81
645.399	277.81
645.604	256.81
645.809	285.81
646.014	291.81
646.219	279.81
646.423	271.81
646.628	284.81
646.833	258.81
647.038	291.81
647.243	276.81
647.447	291.81
647.652	278.81
647.857	283.81
648.062	293.81
648.266	309.81
648.471	313.81
648.676	309.81
648.88	310.81
649.085	285.81
649.289	296.81
649.494	298.81
649.698	290.81
649.903	279.81
650.107	285.81
650.312	290.81
650.516	275.81
650.721	281.81
650.925	264.81
651.13	261.81
651.334	278.81
651.539	263.81
651.743	263.81
651.947	269.81
652.152	250.81
652.356	247.81
652.56	268.81
652.764	270.81
652.969	256.81
653.173	267.81
653.377	266.81
653.581	260.81
653.785	268.81
653.99	270.81
654.194	272.81
654.398	269.81
654.602	292.81
654.806	289.81
655.01	304.81
655.214	286.81
655.418	301.81
655.622	316.81
655.826	331.81
656.03	322.81
656.234	375.81
656.438	409.81
656.642	405.81
656.846	358.81
657.049	329.81
657.253	297.81
657.457	273.81
657.661	251.81
657.865	228.81
658.068	205.81
658.272	192.81
658.476	175.81
658.68	162.81
658.883	164.81
659.087	144.81
659.291	154.81
659.494	150.81
659.698	147.81
659.901	141.81
660.105	140.81
660.309	118.81
660.512	125.81
660.716	121.81
660.919	124.81
661.123	106.81
661.326	114.81
661.53	120.81
661.733	97.81
661.936	92.81
662.14	89.81
662.343	88.81
662.546	96.81
662.75	104.81
662.953	94.81
663.156	99.81
663.36	98.81
663.563	106.81
663.766	89.81
663.969	98.81
664.173	85.81
664.376	94.81
664.579	82.81
664.782	71.81
664.985	83.81
665.188	72.81
665.391	90.81
665.594	68.81
665.797	74.81
666	74.81
666.203	84.81
666.406	82.81
666.609	95.81
666.812	89.81
667.015	78.81
667.218	89.81
667.421	99.81
667.624	86.81
667.827	90.81
668.03	84.81
668.232	89.81
668.435	85.81
668.638	72.81
668.841	77.81
669.043	84.81
669.246	80.81
669.449	87.81
669.651	78.81
669.854	73.81
670.057	69.81
670.259	88.81
670.462	84.81
670.665	77.81
670.867	83.81
671.07	77.81
671.272	81.81
671.475	85.81
671.677	67.81
671.88	72.81
672.082	68.81
672.284	76.81
672.487	85.81
672.689	70.81
672.892	98.81
