Data from NiCl2@0.0625M.TitratingCurve.Agarose3%dH2O.NegLispCup.LampEnergy10.LIBS07252019_HRD10591_18-34-34-577.txt Node
Date: Thu Jul 25 18:34:34 EDT 2019
User: cochatt
Spectrometer: HR+D1059
Trigger mode: 1
Integration Time (sec): 1.000000E-1
Scans to average: 1
Electric dark correction enabled: true
Nonlinearity correction enabled: false
Boxcar width: 0
XAxis mode: Wavelengths
Number of Pixels in Spectrum: 2048
>>>>>Begin Spectral Data<<<<<
223.165	-19.75
223.4	-19.75
223.635	-19.75
223.869	-12.75
224.104	-17.75
224.338	-9.75
224.573	-5.75
224.808	-19.75
225.042	-11.75
225.277	-8.75
225.511	-4.75
225.746	2.25
225.98	-2.75
226.215	20.25
226.449	12.25
226.683	29.25
226.918	21.25
227.152	28.25
227.387	29.25
227.621	32.25
227.856	50.25
228.09	49.25
228.324	54.25
228.559	54.25
228.793	73.25
229.027	123.25
229.262	140.25
229.496	149.25
229.73	166.25
229.964	168.25
230.199	190.25
230.433	180.25
230.667	173.25
230.901	191.25
231.136	176.25
231.37	173.25
231.604	205.25
231.838	190.25
232.072	182.25
232.306	193.25
232.541	187.25
232.775	186.25
233.009	203.25
233.243	200.25
233.477	182.25
233.711	204.25
233.945	208.25
234.179	226.25
234.413	227.25
234.647	216.25
234.881	219.25
235.115	225.25
235.349	205.25
235.583	205.25
235.817	208.25
236.051	219.25
236.285	234.25
236.519	216.25
236.753	213.25
236.987	229.25
237.221	221.25
237.455	228.25
237.689	232.25
237.922	233.25
238.156	242.25
238.39	225.25
238.624	248.25
238.858	252.25
239.091	244.25
239.325	244.25
239.559	241.25
239.793	268.25
240.027	275.25
240.26	262.25
240.494	255.25
240.728	268.25
240.961	269.25
241.195	266.25
241.429	272.25
241.662	279.25
241.896	288.25
242.13	292.25
242.363	300.25
242.597	297.25
242.83	296.25
243.064	298.25
243.298	282.25
243.531	311.25
243.765	314.25
243.998	305.25
244.232	323.25
244.465	309.25
244.699	313.25
244.932	341.25
245.166	310.25
245.399	316.25
245.633	314.25
245.866	340.25
246.099	329.25
246.333	331.25
246.566	339.25
246.8	332.25
247.033	336.25
247.266	357.25
247.5	353.25
247.733	360.25
247.966	363.25
248.2	374.25
248.433	363.25
248.666	363.25
248.899	373.25
249.133	365.25
249.366	356.25
249.599	381.25
249.832	351.25
250.066	384.25
250.299	388.25
250.532	395.25
250.765	411.25
250.998	382.25
251.231	370.25
251.465	419.25
251.698	409.25
251.931	392.25
252.164	384.25
252.397	424.25
252.63	441.25
252.863	407.25
253.096	421.25
253.329	442.25
253.562	440.25
253.795	435.25
254.028	442.25
254.261	419.25
254.494	462.25
254.727	434.25
254.96	451.25
255.193	436.25
255.426	435.25
255.659	445.25
255.892	445.25
256.124	462.25
256.357	454.25
256.59	455.25
256.823	463.25
257.056	459.25
257.289	467.25
257.521	459.25
257.754	451.25
257.987	476.25
258.22	461.25
258.452	471.25
258.685	476.25
258.918	473.25
259.151	483.25
259.383	504.25
259.616	484.25
259.849	484.25
260.081	493.25
260.314	499.25
260.547	505.25
260.779	528.25
261.012	534.25
261.244	521.25
261.477	516.25
261.71	499.25
261.942	546.25
262.175	525.25
262.407	522.25
262.64	498.25
262.872	539.25
263.105	536.25
263.337	526.25
263.57	537.25
263.802	536.25
264.035	530.25
264.267	537.25
264.499	557.25
264.732	558.25
264.964	560.25
265.197	562.25
265.429	573.25
265.661	552.25
265.894	552.25
266.126	563.25
266.358	566.25
266.591	584.25
266.823	562.25
267.055	571.25
267.287	586.25
267.52	580.25
267.752	596.25
267.984	570.25
268.216	596.25
268.448	614.25
268.681	616.25
268.913	603.25
269.145	597.25
269.377	629.25
269.609	615.25
269.841	624.25
270.073	624.25
270.306	613.25
270.538	609.25
270.77	614.25
271.002	588.25
271.234	628.25
271.466	616.25
271.698	612.25
271.93	606.25
272.162	619.25
272.394	626.25
272.626	644.25
272.858	660.25
273.09	630.25
273.322	634.25
273.553	636.25
273.785	653.25
274.017	657.25
274.249	668.25
274.481	671.25
274.713	664.25
274.945	666.25
275.176	669.25
275.408	655.25
275.64	676.25
275.872	666.25
276.104	692.25
276.335	667.25
276.567	680.25
276.799	680.25
277.031	713.25
277.262	703.25
277.494	699.25
277.726	689.25
277.957	709.25
278.189	704.25
278.421	708.25
278.652	736.25
278.884	712.25
279.115	698.25
279.347	741.25
279.579	726.25
279.81	729.25
280.042	707.25
280.273	727.25
280.505	746.25
280.736	757.25
280.968	745.25
281.199	766.25
281.431	768.25
281.662	756.25
281.894	765.25
282.125	768.25
282.356	790.25
282.588	770.25
282.819	785.25
283.051	769.25
283.282	800.25
283.513	766.25
283.745	776.25
283.976	768.25
284.207	810.25
284.439	805.25
284.67	781.25
284.901	790.25
285.132	793.25
285.364	778.25
285.595	792.25
285.826	809.25
286.057	816.25
286.288	801.25
286.52	813.25
286.751	845.25
286.982	816.25
287.213	824.25
287.444	804.25
287.675	829.25
287.906	813.25
288.138	847.25
288.369	830.25
288.6	848.25
288.831	820.25
289.062	826.25
289.293	828.25
289.524	824.25
289.755	828.25
289.986	833.25
290.217	872.25
290.448	840.25
290.679	849.25
290.91	868.25
291.141	830.25
291.371	856.25
291.602	866.25
291.833	876.25
292.064	871.25
292.295	855.25
292.526	862.25
292.757	860.25
292.987	874.25
293.218	845.25
293.449	888.25
293.68	870.25
293.91	864.25
294.141	870.25
294.372	888.25
294.603	877.25
294.833	871.25
295.064	882.25
295.295	885.25
295.525	883.25
295.756	876.25
295.987	872.25
296.217	907.25
296.448	899.25
296.679	886.25
296.909	892.25
297.14	872.25
297.37	888.25
297.601	928.25
297.831	911.25
298.062	920.25
298.292	952.25
298.523	965.25
298.753	966.25
298.984	935.25
299.214	933.25
299.445	934.25
299.675	957.25
299.905	960.25
300.136	968.25
300.366	933.25
300.597	938.25
300.827	973.25
301.057	994.25
301.288	986.25
301.518	953.25
301.748	970.25
301.979	1004.25
302.209	1009.25
302.439	992.25
302.669	1004.25
302.9	999.25
303.13	968.25
303.36	977.25
303.59	994.25
303.82	939.25
304.051	970.25
304.281	970.25
304.511	961.25
304.741	980.25
304.971	1005.25
305.201	1011.25
305.431	975.25
305.661	993.25
305.891	977.25
306.121	985.25
306.352	957.25
306.582	977.25
306.812	948.25
307.042	985.25
307.272	985.25
307.502	974.25
307.731	940.25
307.961	991.25
308.191	963.25
308.421	971.25
308.651	996.25
308.881	972.25
309.111	982.25
309.341	950.25
309.571	971.25
309.8	954.25
310.03	1014.25
310.26	973.25
310.49	971.25
310.72	996.25
310.949	966.25
311.179	1022.25
311.409	963.25
311.639	979.25
311.868	993.25
312.098	1022.25
312.328	999.25
312.557	1044.25
312.787	1018.25
313.017	1020.25
313.246	1056.25
313.476	1036.25
313.706	1040.25
313.935	1047.25
314.165	1078.25
314.394	1058.25
314.624	1033.25
314.853	1035.25
315.083	1038.25
315.312	1056.25
315.542	1037.25
315.771	1036.25
316.001	1079.25
316.23	1036.25
316.46	1032.25
316.689	1030.25
316.919	1006.25
317.148	1017.25
317.377	1015.25
317.607	1049.25
317.836	1042.25
318.065	1022.25
318.295	1041.25
318.524	1048.25
318.753	1059.25
318.983	1026.25
319.212	1041.25
319.441	1016.25
319.67	1014.25
319.9	1041.25
320.129	1048.25
320.358	1051.25
320.587	1038.25
320.816	1062.25
321.046	1052.25
321.275	1041.25
321.504	1058.25
321.733	1035.25
321.962	1051.25
322.191	1066.25
322.42	1067.25
322.649	1044.25
322.878	1058.25
323.108	1028.25
323.337	1073.25
323.566	1084.25
323.795	1092.25
324.024	1075.25
324.253	1086.25
324.482	1060.25
324.71	1072.25
324.939	1092.25
325.168	1096.25
325.397	1081.25
325.626	1096.25
325.855	1123.25
326.084	1142.25
326.313	1161.25
326.542	1106.25
326.77	1122.25
326.999	1136.25
327.228	1123.25
327.457	1158.25
327.686	1127.25
327.914	1132.25
328.143	1141.25
328.372	1171.25
328.6	1123.25
328.829	1140.25
329.058	1145.25
329.287	1120.25
329.515	1152.25
329.744	1166.25
329.972	1165.25
330.201	1131.25
330.43	1175.25
330.658	1184.25
330.887	1177.25
331.115	1165.25
331.344	1208.25
331.572	1171.25
331.801	1222.25
332.03	1234.25
332.258	1223.25
332.486	1313.25
332.715	1280.25
332.943	1340.25
333.172	1393.25
333.4	1424.25
333.629	1427.25
333.857	1462.25
334.085	1484.25
334.314	1430.25
334.542	1437.25
334.771	1427.25
334.999	1412.25
335.227	1395.25
335.455	1393.25
335.684	1393.25
335.912	1422.25
336.14	1393.25
336.369	1407.25
336.597	1374.25
336.825	1340.25
337.053	1379.25
337.281	1350.25
337.51	1320.25
337.738	1294.25
337.966	1286.25
338.194	1233.25
338.422	1315.25
338.65	1244.25
338.878	1239.25
339.106	1237.25
339.334	1264.25
339.562	1238.25
339.79	1249.25
340.018	1223.25
340.246	1191.25
340.474	1225.25
340.702	1202.25
340.93	1208.25
341.158	1204.25
341.386	1189.25
341.614	1215.25
341.842	1203.25
342.07	1181.25
342.298	1221.25
342.526	1186.25
342.754	1170.25
342.981	1178.25
343.209	1213.25
343.437	1287.25
343.665	1268.25
343.893	1371.25
344.12	1405.25
344.348	1353.25
344.576	1360.25
344.804	1258.25
345.031	1234.25
345.259	1192.25
345.487	1208.25
345.714	1193.25
345.942	1204.25
346.17	1186.25
346.397	1189.25
346.625	1194.25
346.853	1147.25
347.08	1157.25
347.308	1157.25
347.535	1140.25
347.763	1148.25
347.99	1144.25
348.218	1152.25
348.445	1140.25
348.673	1142.25
348.9	1142.25
349.128	1130.25
349.355	1142.25
349.583	1140.25
349.81	1099.25
350.037	1120.25
350.265	1103.25
350.492	1111.25
350.72	1097.25
350.947	1096.25
351.174	1087.25
351.402	1104.25
351.629	1097.25
351.856	1074.25
352.083	1103.25
352.311	1111.25
352.538	1077.25
352.765	1115.25
352.992	1109.25
353.22	1101.25
353.447	1088.25
353.674	1054.25
353.901	1079.25
354.128	1104.25
354.355	1091.25
354.583	1097.25
354.81	1134.25
355.037	1087.25
355.264	1069.25
355.491	1090.25
355.718	1109.25
355.945	1097.25
356.172	1105.25
356.399	1101.25
356.626	1101.25
356.853	1102.25
357.08	1110.25
357.307	1108.25
357.534	1119.25
357.761	1117.25
357.988	1088.25
358.215	1101.25
358.441	1104.25
358.668	1106.25
358.895	1094.25
359.122	1099.25
359.349	1098.25
359.576	1099.25
359.802	1121.25
360.029	1127.25
360.256	1081.25
360.483	1120.25
360.709	1099.25
360.936	1085.25
361.163	1106.25
361.39	1117.25
361.616	1108.25
361.843	1112.25
362.07	1098.25
362.296	1128.25
362.523	1085.25
362.749	1092.25
362.976	1086.25
363.203	1097.25
363.429	1125.25
363.656	1130.25
363.882	1069.25
364.109	1096.25
364.335	1105.25
364.562	1100.25
364.788	1101.25
365.015	1067.25
365.241	1111.25
365.468	1126.25
365.694	1110.25
365.92	1112.25
366.147	1145.25
366.373	1132.25
366.599	1092.25
366.826	1107.25
367.052	1082.25
367.278	1082.25
367.505	1125.25
367.731	1139.25
367.957	1104.25
368.184	1125.25
368.41	1121.25
368.636	1127.25
368.862	1112.25
369.089	1161.25
369.315	1151.25
369.541	1142.25
369.767	1163.25
369.993	1159.25
370.219	1164.25
370.445	1187.25
370.672	1149.25
370.898	1170.25
371.124	1194.25
371.35	1173.25
371.576	1189.25
371.802	1217.25
372.028	1195.25
372.254	1196.25
372.48	1175.25
372.706	1235.25
372.932	1269.25
373.158	1204.25
373.384	1219.25
373.61	1211.25
373.835	1192.25
374.061	1205.25
374.287	1221.25
374.513	1229.25
374.739	1264.25
374.965	1290.25
375.191	1305.25
375.416	1314.25
375.642	1276.25
375.868	1244.25
376.094	1230.25
376.319	1232.25
376.545	1224.25
376.771	1220.25
376.997	1210.25
377.222	1193.25
377.448	1214.25
377.674	1194.25
377.899	1197.25
378.125	1210.25
378.35	1177.25
378.576	1197.25
378.802	1191.25
379.027	1209.25
379.253	1200.25
379.478	1180.25
379.704	1181.25
379.929	1184.25
380.155	1177.25
380.38	1203.25
380.606	1147.25
380.831	1188.25
381.057	1227.25
381.282	1170.25
381.507	1186.25
381.733	1241.25
381.958	1214.25
382.184	1184.25
382.409	1222.25
382.634	1241.25
382.86	1218.25
383.085	1242.25
383.31	1252.25
383.535	1293.25
383.761	1296.25
383.986	1318.25
384.211	1326.25
384.436	1337.25
384.662	1340.25
384.887	1408.25
385.112	1390.25
385.337	1408.25
385.562	1386.25
385.787	1419.25
386.013	1437.25
386.238	1432.25
386.463	1405.25
386.688	1420.25
386.913	1396.25
387.138	1440.25
387.363	1420.25
387.588	1413.25
387.813	1448.25
388.038	1429.25
388.263	1432.25
388.488	1422.25
388.713	1435.25
388.938	1380.25
389.163	1416.25
389.387	1441.25
389.612	1439.25
389.837	1421.25
390.062	1403.25
390.287	1450.25
390.512	1428.25
390.736	1440.25
390.961	1429.25
391.186	1481.25
391.411	1485.25
391.636	1544.25
391.86	1553.25
392.085	1582.25
392.31	1588.25
392.534	1550.25
392.759	1547.25
392.984	1505.25
393.208	1482.25
393.433	1480.25
393.658	1476.25
393.882	1507.25
394.107	1510.25
394.331	1518.25
394.556	1516.25
394.78	1507.25
395.005	1556.25
395.229	1531.25
395.454	1567.25
395.678	1605.25
395.903	1592.25
396.127	1580.25
396.352	1531.25
396.576	1539.25
396.801	1512.25
397.025	1539.25
397.249	1565.25
397.474	1607.25
397.698	1561.25
397.922	1613.25
398.147	1589.25
398.371	1627.25
398.595	1706.25
398.82	1781.25
399.044	1880.25
399.268	2014.25
399.492	2200.25
399.717	2405.25
399.941	2458.25
400.165	2252.25
400.389	2150.25
400.613	2004.25
400.837	1900.25
401.062	1865.25
401.286	1800.25
401.51	1777.25
401.734	1788.25
401.958	1801.25
402.182	1779.25
402.406	1824.25
402.63	1802.25
402.854	1802.25
403.078	1888.25
403.302	1871.25
403.526	1898.25
403.75	1918.25
403.974	1953.25
404.198	1934.25
404.422	1952.25
404.645	1939.25
404.869	1898.25
405.093	1932.25
405.317	1881.25
405.541	1922.25
405.765	1885.25
405.988	1889.25
406.212	1934.25
406.436	1955.25
406.66	1972.25
406.883	1995.25
407.107	2135.25
407.331	2168.25
407.555	2237.25
407.778	2224.25
408.002	2171.25
408.226	2162.25
408.449	2100.25
408.673	2025.25
408.896	2012.25
409.12	1969.25
409.344	1949.25
409.567	1933.25
409.791	1951.25
410.014	1956.25
410.238	1957.25
410.461	1928.25
410.685	1928.25
410.908	1920.25
411.132	1902.25
411.355	1837.25
411.578	1862.25
411.802	1817.25
412.025	1826.25
412.249	1899.25
412.472	1892.25
412.695	1798.25
412.919	1773.25
413.142	1778.25
413.365	1781.25
413.589	1810.25
413.812	1772.25
414.035	1773.25
414.258	1779.25
414.482	1773.25
414.705	1766.25
414.928	1779.25
415.151	1800.25
415.374	1780.25
415.597	1730.25
415.821	1707.25
416.044	1704.25
416.267	1698.25
416.49	1696.25
416.713	1710.25
416.936	1724.25
417.159	1700.25
417.382	1692.25
417.605	1673.25
417.828	1685.25
418.051	1694.25
418.274	1698.25
418.497	1683.25
418.72	1711.25
418.943	1709.25
419.166	1884.25
419.389	1966.25
419.611	1920.25
419.834	1876.25
420.057	1792.25
420.28	1742.25
420.503	1689.25
420.726	1643.25
420.948	1682.25
421.171	1742.25
421.394	1689.25
421.617	1672.25
421.839	1720.25
422.062	1734.25
422.285	1682.25
422.507	1741.25
422.73	1725.25
422.953	1727.25
423.175	1731.25
423.398	1754.25
423.621	1734.25
423.843	1762.25
424.066	1789.25
424.288	1768.25
424.511	1754.25
424.733	1734.25
424.956	1681.25
425.178	1751.25
425.401	1726.25
425.623	1694.25
425.846	1660.25
426.068	1666.25
426.291	1663.25
426.513	1651.25
426.735	1663.25
426.958	1611.25
427.18	1621.25
427.402	1587.25
427.625	1584.25
427.847	1561.25
428.069	1568.25
428.292	1596.25
428.514	1568.25
428.736	1552.25
428.958	1590.25
429.181	1522.25
429.403	1499.25
429.625	1496.25
429.847	1515.25
430.069	1528.25
430.292	1527.25
430.514	1524.25
430.736	1521.25
430.958	1536.25
431.18	1531.25
431.402	1574.25
431.624	1505.25
431.846	1549.25
432.068	1564.25
432.29	1590.25
432.512	1543.25
432.734	1567.25
432.956	1579.25
433.178	1614.25
433.4	1607.25
433.622	1578.25
433.844	1633.25
434.066	1615.25
434.287	1623.25
434.509	1654.25
434.731	1721.25
434.953	1722.25
435.175	1721.25
435.397	1691.25
435.618	1667.25
435.84	1653.25
436.062	1602.25
436.284	1592.25
436.505	1547.25
436.727	1588.25
436.949	1581.25
437.17	1579.25
437.392	1520.25
437.614	1530.25
437.835	1508.25
438.057	1502.25
438.278	1476.25
438.5	1469.25
438.721	1468.25
438.943	1501.25
439.165	1494.25
439.386	1477.25
439.608	1533.25
439.829	1517.25
440.05	1538.25
440.272	1524.25
440.493	1558.25
440.715	1552.25
440.936	1571.25
441.158	1616.25
441.379	1635.25
441.6	1708.25
441.822	1666.25
442.043	1685.25
442.264	1653.25
442.486	1598.25
442.707	1641.25
442.928	1637.25
443.149	1645.25
443.371	1654.25
443.592	1639.25
443.813	1702.25
444.034	1675.25
444.255	1752.25
444.476	1796.25
444.698	1866.25
444.919	1888.25
445.14	2009.25
445.361	1840.25
445.582	1759.25
445.803	1673.25
446.024	1645.25
446.245	1585.25
446.466	1574.25
446.687	1553.25
446.908	1497.25
447.129	1509.25
447.35	1547.25
447.571	1484.25
447.792	1449.25
448.013	1446.25
448.234	1412.25
448.455	1387.25
448.675	1379.25
448.896	1378.25
449.117	1359.25
449.338	1401.25
449.559	1377.25
449.779	1396.25
450	1398.25
450.221	1393.25
450.442	1398.25
450.662	1366.25
450.883	1414.25
451.104	1410.25
451.324	1379.25
451.545	1394.25
451.766	1381.25
451.986	1387.25
452.207	1368.25
452.428	1342.25
452.648	1389.25
452.869	1353.25
453.089	1337.25
453.31	1350.25
453.53	1319.25
453.751	1344.25
453.971	1313.25
454.192	1321.25
454.412	1309.25
454.633	1306.25
454.853	1332.25
455.073	1289.25
455.294	1322.25
455.514	1284.25
455.734	1312.25
455.955	1291.25
456.175	1267.25
456.395	1291.25
456.616	1313.25
456.836	1310.25
457.056	1291.25
457.276	1282.25
457.497	1326.25
457.717	1342.25
457.937	1311.25
458.157	1323.25
458.377	1340.25
458.598	1398.25
458.818	1432.25
459.038	1436.25
459.258	1497.25
459.478	1490.25
459.698	1524.25
459.918	1608.25
460.138	1637.25
460.358	1685.25
460.578	1733.25
460.798	1730.25
461.018	1755.25
461.238	1706.25
461.458	1717.25
461.678	1755.25
461.898	1792.25
462.118	1779.25
462.338	1870.25
462.558	1898.25
462.777	1965.25
462.997	2089.25
463.217	2191.25
463.437	2228.25
463.657	2101.25
463.876	2054.25
464.096	2039.25
464.316	1956.25
464.536	2029.25
464.755	1912.25
464.975	1861.25
465.195	1791.25
465.414	1774.25
465.634	1625.25
465.854	1586.25
466.073	1576.25
466.293	1548.25
466.512	1507.25
466.732	1472.25
466.951	1499.25
467.171	1492.25
467.391	1432.25
467.61	1458.25
467.829	1426.25
468.049	1437.25
468.268	1384.25
468.488	1411.25
468.707	1408.25
468.927	1418.25
469.146	1379.25
469.365	1432.25
469.585	1416.25
469.804	1463.25
470.023	1464.25
470.243	1493.25
470.462	1501.25
470.681	1508.25
470.901	1483.25
471.12	1478.25
471.339	1439.25
471.558	1437.25
471.777	1422.25
471.997	1418.25
472.216	1381.25
472.435	1418.25
472.654	1369.25
472.873	1356.25
473.092	1379.25
473.311	1377.25
473.53	1383.25
473.749	1393.25
473.968	1408.25
474.187	1370.25
474.406	1385.25
474.625	1361.25
474.844	1384.25
475.063	1403.25
475.282	1420.25
475.501	1427.25
475.72	1408.25
475.939	1445.25
476.158	1437.25
476.377	1435.25
476.596	1445.25
476.814	1477.25
477.033	1472.25
477.252	1512.25
477.471	1540.25
477.69	1574.25
477.908	1572.25
478.127	1585.25
478.346	1627.25
478.564	1706.25
478.783	1690.25
479.002	1757.25
479.22	1753.25
479.439	1762.25
479.658	1753.25
479.876	1762.25
480.095	1729.25
480.313	1860.25
480.532	1831.25
480.751	1848.25
480.969	1823.25
481.188	1760.25
481.406	1738.25
481.624	1699.25
481.843	1666.25
482.061	1687.25
482.28	1691.25
482.498	1668.25
482.717	1653.25
482.935	1712.25
483.153	1682.25
483.372	1697.25
483.59	1714.25
483.808	1720.25
484.027	1739.25
484.245	1758.25
484.463	1763.25
484.681	1806.25
484.9	1805.25
485.118	1804.25
485.336	1816.25
485.554	1854.25
485.772	1847.25
485.99	1852.25
486.209	1857.25
486.427	1862.25
486.645	1857.25
486.863	1841.25
487.081	1873.25
487.299	1823.25
487.517	1816.25
487.735	1816.25
487.953	1812.25
488.171	1810.25
488.389	1781.25
488.607	1765.25
488.825	1776.25
489.043	1761.25
489.261	1768.25
489.479	1742.25
489.696	1768.25
489.914	1758.25
490.132	1754.25
490.35	1740.25
490.568	1753.25
490.786	1754.25
491.003	1727.25
491.221	1744.25
491.439	1758.25
491.657	1737.25
491.874	1735.25
492.092	1747.25
492.31	1717.25
492.527	1710.25
492.745	1760.25
492.963	1763.25
493.18	1753.25
493.398	1792.25
493.615	1792.25
493.833	1758.25
494.05	1761.25
494.268	1785.25
494.485	1806.25
494.703	1765.25
494.92	1819.25
495.138	1813.25
495.355	1801.25
495.573	1741.25
495.79	1779.25
496.008	1834.25
496.225	1829.25
496.442	1843.25
496.66	1886.25
496.877	1885.25
497.094	1892.25
497.312	1940.25
497.529	1924.25
497.746	2016.25
497.963	2061.25
498.181	2190.25
498.398	2224.25
498.615	2389.25
498.832	2508.25
499.049	2597.25
499.267	2784.25
499.484	3099.25
499.701	3315.25
499.918	3568.25
500.135	3964.25
500.352	4330.25
500.569	4492.25
500.786	4517.25
501.003	4242.25
501.22	3901.25
501.437	3568.25
501.654	3238.25
501.871	3004.25
502.088	2826.25
502.305	2644.25
502.522	2533.25
502.739	2383.25
502.956	2254.25
503.172	2185.25
503.389	2125.25
503.606	2020.25
503.823	1991.25
504.04	2015.25
504.256	2011.25
504.473	1996.25
504.69	2022.25
504.907	2012.25
505.123	1890.25
505.34	1803.25
505.557	1733.25
505.773	1712.25
505.99	1712.25
506.207	1643.25
506.423	1602.25
506.64	1628.25
506.856	1563.25
507.073	1560.25
507.289	1547.25
507.506	1505.25
507.722	1500.25
507.939	1522.25
508.155	1477.25
508.372	1462.25
508.588	1451.25
508.805	1455.25
509.021	1449.25
509.238	1430.25
509.454	1449.25
509.67	1440.25
509.887	1414.25
510.103	1445.25
510.319	1410.25
510.536	1394.25
510.752	1388.25
510.968	1404.25
511.184	1393.25
511.401	1374.25
511.617	1376.25
511.833	1370.25
512.049	1373.25
512.265	1375.25
512.481	1376.25
512.698	1396.25
512.914	1371.25
513.13	1355.25
513.346	1391.25
513.562	1382.25
513.778	1394.25
513.994	1372.25
514.21	1421.25
514.426	1393.25
514.642	1382.25
514.858	1421.25
515.074	1410.25
515.29	1452.25
515.506	1461.25
515.721	1480.25
515.937	1461.25
516.153	1507.25
516.369	1528.25
516.585	1581.25
516.801	1612.25
517.016	1653.25
517.232	1744.25
517.448	1763.25
517.664	1812.25
517.879	1854.25
518.095	1835.25
518.311	1776.25
518.527	1720.25
518.742	1678.25
518.958	1626.25
519.173	1582.25
519.389	1546.25
519.605	1488.25
519.82	1474.25
520.036	1450.25
520.251	1397.25
520.467	1405.25
520.682	1368.25
520.898	1340.25
521.113	1382.25
521.329	1364.25
521.544	1312.25
521.76	1328.25
521.975	1328.25
522.19	1306.25
522.406	1270.25
522.621	1316.25
522.836	1320.25
523.052	1300.25
523.267	1275.25
523.482	1301.25
523.698	1275.25
523.913	1284.25
524.128	1269.25
524.343	1265.25
524.559	1271.25
524.774	1269.25
524.989	1226.25
525.204	1268.25
525.419	1234.25
525.634	1241.25
525.849	1257.25
526.064	1248.25
526.28	1231.25
526.495	1223.25
526.71	1252.25
526.925	1237.25
527.14	1221.25
527.355	1176.25
527.57	1198.25
527.785	1219.25
527.999	1180.25
528.214	1226.25
528.429	1248.25
528.644	1213.25
528.859	1232.25
529.074	1186.25
529.289	1235.25
529.503	1208.25
529.718	1205.25
529.933	1171.25
530.148	1200.25
530.363	1232.25
530.577	1208.25
530.792	1191.25
531.007	1165.25
531.221	1199.25
531.436	1200.25
531.651	1204.25
531.865	1218.25
532.08	1212.25
532.295	1209.25
532.509	1233.25
532.724	1191.25
532.938	1233.25
533.153	1242.25
533.367	1224.25
533.582	1206.25
533.796	1209.25
534.011	1203.25
534.225	1175.25
534.44	1189.25
534.654	1172.25
534.868	1162.25
535.083	1202.25
535.297	1181.25
535.511	1168.25
535.726	1140.25
535.94	1128.25
536.154	1167.25
536.369	1128.25
536.583	1129.25
536.797	1124.25
537.011	1129.25
537.225	1102.25
537.44	1100.25
537.654	1115.25
537.868	1117.25
538.082	1065.25
538.296	1090.25
538.51	1061.25
538.724	1092.25
538.938	1109.25
539.153	1099.25
539.367	1073.25
539.581	1067.25
539.795	1087.25
540.009	1069.25
540.222	1080.25
540.436	1110.25
540.65	1076.25
540.864	1078.25
541.078	1065.25
541.292	1065.25
541.506	1037.25
541.72	1081.25
541.934	1064.25
542.147	1062.25
542.361	1074.25
542.575	1074.25
542.789	1088.25
543.002	1076.25
543.216	1062.25
543.43	1068.25
543.644	1057.25
543.857	1073.25
544.071	1030.25
544.285	1063.25
544.498	1045.25
544.712	1046.25
544.925	1067.25
545.139	1049.25
545.352	1069.25
545.566	1097.25
545.779	1097.25
545.993	1095.25
546.206	1096.25
546.42	1087.25
546.633	1072.25
546.847	1110.25
547.06	1065.25
547.274	1067.25
547.487	1089.25
547.7	1073.25
547.914	1056.25
548.127	1083.25
548.34	1091.25
548.554	1079.25
548.767	1069.25
548.98	1123.25
549.193	1078.25
549.407	1098.25
549.62	1098.25
549.833	1061.25
550.046	1125.25
550.259	1063.25
550.473	1097.25
550.686	1092.25
550.899	1074.25
551.112	1082.25
551.325	1067.25
551.538	1074.25
551.751	1060.25
551.964	1066.25
552.177	1096.25
552.39	1096.25
552.603	1102.25
552.816	1125.25
553.029	1149.25
553.242	1135.25
553.455	1180.25
553.667	1154.25
553.88	1150.25
554.093	1133.25
554.306	1109.25
554.519	1077.25
554.732	1034.25
554.944	1054.25
555.157	1077.25
555.37	1036.25
555.583	1008.25
555.795	1020.25
556.008	978.25
556.221	928.25
556.433	968.25
556.646	995.25
556.859	977.25
557.071	942.25
557.284	924.25
557.496	919.25
557.709	900.25
557.921	935.25
558.134	909.25
558.346	882.25
558.559	922.25
558.771	919.25
558.984	891.25
559.196	898.25
559.409	909.25
559.621	920.25
559.833	917.25
560.046	884.25
560.258	928.25
560.47	894.25
560.683	899.25
560.895	908.25
561.107	910.25
561.32	899.25
561.532	858.25
561.744	879.25
561.956	878.25
562.168	904.25
562.381	900.25
562.593	899.25
562.805	902.25
563.017	896.25
563.229	888.25
563.441	901.25
563.653	907.25
563.865	920.25
564.077	941.25
564.289	918.25
564.501	949.25
564.713	944.25
564.925	992.25
565.137	986.25
565.349	1017.25
565.561	1039.25
565.773	1086.25
565.985	1098.25
566.197	1175.25
566.408	1222.25
566.62	1281.25
566.832	1357.25
567.044	1421.25
567.255	1374.25
567.467	1420.25
567.679	1486.25
567.891	1580.25
568.102	1560.25
568.314	1491.25
568.526	1356.25
568.737	1307.25
568.949	1217.25
569.161	1121.25
569.372	1046.25
569.584	1014.25
569.795	979.25
570.007	973.25
570.218	943.25
570.43	918.25
570.641	896.25
570.853	900.25
571.064	929.25
571.276	925.25
571.487	884.25
571.698	855.25
571.91	841.25
572.121	829.25
572.333	804.25
572.544	788.25
572.755	743.25
572.966	762.25
573.178	744.25
573.389	775.25
573.6	735.25
573.811	740.25
574.023	759.25
574.234	733.25
574.445	750.25
574.656	736.25
574.867	710.25
575.078	734.25
575.289	696.25
575.501	705.25
575.712	710.25
575.923	697.25
576.134	698.25
576.345	700.25
576.556	707.25
576.767	681.25
576.978	696.25
577.188	668.25
577.399	676.25
577.61	680.25
577.821	661.25
578.032	660.25
578.243	644.25
578.454	632.25
578.665	662.25
578.875	654.25
579.086	645.25
579.297	657.25
579.508	640.25
579.718	645.25
579.929	650.25
580.14	629.25
580.35	629.25
580.561	626.25
580.772	642.25
580.982	634.25
581.193	607.25
581.403	625.25
581.614	600.25
581.825	613.25
582.035	629.25
582.246	619.25
582.456	618.25
582.667	624.25
582.877	587.25
583.087	611.25
583.298	636.25
583.508	598.25
583.719	609.25
583.929	635.25
584.139	611.25
584.35	575.25
584.56	586.25
584.77	587.25
584.981	575.25
585.191	594.25
585.401	603.25
585.611	578.25
585.821	581.25
586.032	574.25
586.242	599.25
586.452	606.25
586.662	602.25
586.872	572.25
587.082	580.25
587.292	568.25
587.502	566.25
587.713	586.25
587.923	594.25
588.133	587.25
588.343	572.25
588.553	570.25
588.762	591.25
588.972	592.25
589.182	605.25
589.392	597.25
589.602	589.25
589.812	581.25
590.022	603.25
590.232	600.25
590.441	572.25
590.651	592.25
590.861	586.25
591.071	568.25
591.281	608.25
591.49	610.25
591.7	602.25
591.91	628.25
592.119	630.25
592.329	617.25
592.539	653.25
592.748	653.25
592.958	681.25
593.167	680.25
593.377	689.25
593.587	694.25
593.796	704.25
594.006	702.25
594.215	733.25
594.424	710.25
594.634	689.25
594.843	669.25
595.053	696.25
595.262	632.25
595.472	626.25
595.681	592.25
595.89	597.25
596.1	590.25
596.309	575.25
596.518	539.25
596.727	545.25
596.937	537.25
597.146	550.25
597.355	545.25
597.564	525.25
597.774	536.25
597.983	502.25
598.192	502.25
598.401	501.25
598.61	517.25
598.819	517.25
599.028	510.25
599.237	497.25
599.446	499.25
599.655	485.25
599.864	493.25
600.073	476.25
600.282	476.25
600.491	477.25
600.7	483.25
600.909	506.25
601.118	482.25
601.327	476.25
601.536	476.25
601.745	474.25
601.953	456.25
602.162	470.25
602.371	473.25
602.58	459.25
602.789	460.25
602.997	472.25
603.206	453.25
603.415	459.25
603.623	441.25
603.832	442.25
604.041	456.25
604.249	452.25
604.458	453.25
604.666	458.25
604.875	471.25
605.084	444.25
605.292	439.25
605.501	429.25
605.709	416.25
605.918	438.25
606.126	437.25
606.334	437.25
606.543	445.25
606.751	459.25
606.96	446.25
607.168	438.25
607.376	402.25
607.585	414.25
607.793	420.25
608.001	448.25
608.21	428.25
608.418	446.25
608.626	413.25
608.834	426.25
609.043	405.25
609.251	418.25
609.459	412.25
609.667	422.25
609.875	428.25
610.083	410.25
610.291	411.25
610.499	424.25
610.707	435.25
610.916	413.25
611.124	419.25
611.332	429.25
611.54	410.25
611.748	419.25
611.955	395.25
612.163	421.25
612.371	409.25
612.579	400.25
612.787	398.25
612.995	385.25
613.203	410.25
613.411	408.25
613.618	399.25
613.826	394.25
614.034	404.25
614.242	404.25
614.449	424.25
614.657	395.25
614.865	385.25
615.072	398.25
615.28	402.25
615.488	397.25
615.695	412.25
615.903	397.25
616.111	403.25
616.318	407.25
616.526	417.25
616.733	416.25
616.941	407.25
617.148	398.25
617.356	392.25
617.563	396.25
617.771	394.25
617.978	386.25
618.185	410.25
618.393	416.25
618.6	401.25
618.807	406.25
619.015	411.25
619.222	397.25
619.429	381.25
619.637	380.25
619.844	387.25
620.051	386.25
620.258	374.25
620.466	364.25
620.673	375.25
620.88	352.25
621.087	357.25
621.294	362.25
621.501	364.25
621.708	358.25
621.915	352.25
622.122	363.25
622.329	369.25
622.536	388.25
622.743	354.25
622.95	358.25
623.157	358.25
623.364	370.25
623.571	340.25
623.778	388.25
623.985	359.25
624.192	349.25
624.399	340.25
624.606	365.25
624.812	372.25
625.019	344.25
625.226	331.25
625.433	345.25
625.639	346.25
625.846	342.25
626.053	346.25
626.259	345.25
626.466	334.25
626.673	335.25
626.879	323.25
627.086	329.25
627.293	347.25
627.499	330.25
627.706	333.25
627.912	341.25
628.119	318.25
628.325	323.25
628.532	336.25
628.738	337.25
628.945	322.25
629.151	327.25
629.357	310.25
629.564	311.25
629.77	316.25
629.976	317.25
630.183	280.25
630.389	310.25
630.595	314.25
630.802	310.25
631.008	299.25
631.214	308.25
631.42	311.25
631.627	304.25
631.833	320.25
632.039	314.25
632.245	297.25
632.451	310.25
632.657	288.25
632.863	298.25
633.069	300.25
633.275	319.25
633.481	300.25
633.688	288.25
633.893	324.25
634.099	292.25
634.305	292.25
634.511	296.25
634.717	285.25
634.923	287.25
635.129	307.25
635.335	288.25
635.541	282.25
635.747	286.25
635.952	299.25
636.158	307.25
636.364	280.25
636.57	297.25
636.775	274.25
636.981	288.25
637.187	294.25
637.392	295.25
637.598	258.25
637.804	293.25
638.009	283.25
638.215	296.25
638.421	292.25
638.626	310.25
638.832	265.25
639.037	267.25
639.243	267.25
639.448	292.25
639.654	278.25
639.859	275.25
640.065	279.25
640.27	291.25
640.475	277.25
640.681	280.25
640.886	278.25
641.091	281.25
641.297	280.25
641.502	269.25
641.707	280.25
641.913	271.25
642.118	246.25
642.323	266.25
642.528	285.25
642.733	262.25
642.939	275.25
643.144	272.25
643.349	266.25
643.554	286.25
643.759	271.25
643.964	276.25
644.169	263.25
644.374	275.25
644.579	275.25
644.784	266.25
644.989	282.25
645.194	283.25
645.399	272.25
645.604	270.25
645.809	279.25
646.014	280.25
646.219	267.25
646.423	277.25
646.628	286.25
646.833	290.25
647.038	262.25
647.243	263.25
647.447	280.25
647.652	298.25
647.857	279.25
648.062	284.25
648.266	287.25
648.471	300.25
648.676	297.25
648.88	284.25
649.085	298.25
649.289	279.25
649.494	270.25
649.698	282.25
649.903	289.25
650.107	276.25
650.312	292.25
650.516	293.25
650.721	280.25
650.925	277.25
651.13	264.25
651.334	251.25
651.539	268.25
651.743	248.25
651.947	245.25
652.152	268.25
652.356	256.25
652.56	260.25
652.764	252.25
652.969	265.25
653.173	262.25
653.377	253.25
653.581	264.25
653.785	252.25
653.99	244.25
654.194	269.25
654.398	250.25
654.602	258.25
654.806	296.25
655.01	290.25
655.214	290.25
655.418	293.25
655.622	294.25
655.826	317.25
656.03	328.25
656.234	352.25
656.438	381.25
656.642	378.25
656.846	377.25
657.049	325.25
657.253	292.25
657.457	267.25
657.661	256.25
657.865	219.25
658.068	204.25
658.272	180.25
658.476	188.25
658.68	181.25
658.883	164.25
659.087	146.25
659.291	144.25
659.494	153.25
659.698	119.25
659.901	141.25
660.105	143.25
660.309	131.25
660.512	119.25
660.716	129.25
660.919	102.25
661.123	114.25
661.326	102.25
661.53	97.25
661.733	92.25
661.936	91.25
662.14	106.25
662.343	87.25
662.546	92.25
662.75	88.25
662.953	97.25
663.156	94.25
663.36	84.25
663.563	86.25
663.766	97.25
663.969	92.25
664.173	94.25
664.376	81.25
664.579	86.25
664.782	91.25
664.985	75.25
665.188	104.25
665.391	83.25
665.594	77.25
665.797	87.25
666	70.25
666.203	80.25
666.406	73.25
666.609	83.25
666.812	94.25
667.015	96.25
667.218	96.25
667.421	102.25
667.624	93.25
667.827	82.25
668.03	77.25
668.232	80.25
668.435	84.25
668.638	85.25
668.841	83.25
669.043	84.25
669.246	86.25
669.449	102.25
669.651	79.25
669.854	85.25
670.057	95.25
670.259	65.25
670.462	85.25
670.665	76.25
670.867	73.25
671.07	72.25
671.272	80.25
671.475	77.25
671.677	76.25
671.88	72.25
672.082	69.25
672.284	88.25
672.487	60.25
672.689	74.25
672.892	84.25
