Data from NiCl2@0.0625M.TitratingCurve.Agarose3%dH2O.NegLispCup.LampEnergy10.LIBS07252019_HRD10591_18-35-07-577.txt Node
Date: Thu Jul 25 18:35:07 EDT 2019
User: cochatt
Spectrometer: HR+D1059
Trigger mode: 1
Integration Time (sec): 1.000000E-1
Scans to average: 1
Electric dark correction enabled: true
Nonlinearity correction enabled: false
Boxcar width: 0
XAxis mode: Wavelengths
Number of Pixels in Spectrum: 2048
>>>>>Begin Spectral Data<<<<<
223.165	-25.94
223.4	-25.94
223.635	-25.94
223.869	-18.94
224.104	-16.94
224.338	-10.94
224.573	-10.94
224.808	-20.94
225.042	-6.94
225.277	6.06
225.511	-0.94
225.746	-4.94
225.98	15.06
226.215	11.06
226.449	7.06
226.683	19.06
226.918	20.06
227.152	39.06
227.387	48.06
227.621	41.06
227.856	43.06
228.09	39.06
228.324	50.06
228.559	44.06
228.793	87.06
229.027	133.06
229.262	138.06
229.496	148.06
229.73	159.06
229.964	165.06
230.199	163.06
230.433	171.06
230.667	164.06
230.901	177.06
231.136	194.06
231.37	183.06
231.604	183.06
231.838	197.06
232.072	185.06
232.306	198.06
232.541	190.06
232.775	195.06
233.009	203.06
233.243	192.06
233.477	190.06
233.711	201.06
233.945	214.06
234.179	192.06
234.413	205.06
234.647	191.06
234.881	195.06
235.115	211.06
235.349	218.06
235.583	191.06
235.817	218.06
236.051	218.06
236.285	215.06
236.519	220.06
236.753	219.06
236.987	216.06
237.221	218.06
237.455	214.06
237.689	219.06
237.922	246.06
238.156	230.06
238.39	228.06
238.624	239.06
238.858	225.06
239.091	237.06
239.325	240.06
239.559	260.06
239.793	251.06
240.027	255.06
240.26	229.06
240.494	249.06
240.728	268.06
240.961	249.06
241.195	256.06
241.429	267.06
241.662	282.06
241.896	286.06
242.13	293.06
242.363	280.06
242.597	283.06
242.83	294.06
243.064	274.06
243.298	314.06
243.531	301.06
243.765	292.06
243.998	290.06
244.232	318.06
244.465	329.06
244.699	310.06
244.932	320.06
245.166	339.06
245.399	332.06
245.633	336.06
245.866	323.06
246.099	339.06
246.333	333.06
246.566	336.06
246.8	319.06
247.033	349.06
247.266	334.06
247.5	334.06
247.733	336.06
247.966	338.06
248.2	350.06
248.433	352.06
248.666	354.06
248.899	366.06
249.133	351.06
249.366	378.06
249.599	358.06
249.832	349.06
250.066	360.06
250.299	366.06
250.532	378.06
250.765	361.06
250.998	404.06
251.231	396.06
251.465	394.06
251.698	392.06
251.931	396.06
252.164	411.06
252.397	390.06
252.63	399.06
252.863	410.06
253.096	413.06
253.329	431.06
253.562	414.06
253.795	430.06
254.028	440.06
254.261	440.06
254.494	435.06
254.727	408.06
254.96	436.06
255.193	442.06
255.426	438.06
255.659	412.06
255.892	448.06
256.124	433.06
256.357	454.06
256.59	444.06
256.823	443.06
257.056	456.06
257.289	445.06
257.521	484.06
257.754	442.06
257.987	475.06
258.22	470.06
258.452	462.06
258.685	474.06
258.918	459.06
259.151	467.06
259.383	479.06
259.616	469.06
259.849	484.06
260.081	482.06
260.314	483.06
260.547	503.06
260.779	498.06
261.012	493.06
261.244	487.06
261.477	494.06
261.71	512.06
261.942	528.06
262.175	490.06
262.407	520.06
262.64	523.06
262.872	523.06
263.105	530.06
263.337	543.06
263.57	530.06
263.802	543.06
264.035	521.06
264.267	534.06
264.499	526.06
264.732	563.06
264.964	552.06
265.197	564.06
265.429	557.06
265.661	554.06
265.894	553.06
266.126	544.06
266.358	554.06
266.591	585.06
266.823	560.06
267.055	559.06
267.287	573.06
267.52	549.06
267.752	572.06
267.984	556.06
268.216	571.06
268.448	583.06
268.681	580.06
268.913	578.06
269.145	579.06
269.377	594.06
269.609	569.06
269.841	579.06
270.073	568.06
270.306	582.06
270.538	595.06
270.77	606.06
271.002	630.06
271.234	603.06
271.466	632.06
271.698	590.06
271.93	612.06
272.162	638.06
272.394	637.06
272.626	619.06
272.858	638.06
273.09	630.06
273.322	618.06
273.553	626.06
273.785	634.06
274.017	638.06
274.249	672.06
274.481	642.06
274.713	640.06
274.945	640.06
275.176	649.06
275.408	655.06
275.64	661.06
275.872	663.06
276.104	694.06
276.335	687.06
276.567	662.06
276.799	679.06
277.031	692.06
277.262	686.06
277.494	680.06
277.726	675.06
277.957	708.06
278.189	683.06
278.421	695.06
278.652	701.06
278.884	699.06
279.115	697.06
279.347	715.06
279.579	693.06
279.81	734.06
280.042	716.06
280.273	718.06
280.505	706.06
280.736	735.06
280.968	728.06
281.199	720.06
281.431	759.06
281.662	735.06
281.894	755.06
282.125	730.06
282.356	764.06
282.588	763.06
282.819	723.06
283.051	737.06
283.282	760.06
283.513	759.06
283.745	768.06
283.976	766.06
284.207	768.06
284.439	756.06
284.67	794.06
284.901	779.06
285.132	797.06
285.364	774.06
285.595	791.06
285.826	794.06
286.057	788.06
286.288	782.06
286.52	802.06
286.751	825.06
286.982	810.06
287.213	807.06
287.444	800.06
287.675	792.06
287.906	811.06
288.138	817.06
288.369	827.06
288.6	827.06
288.831	788.06
289.062	819.06
289.293	806.06
289.524	829.06
289.755	821.06
289.986	844.06
290.217	843.06
290.448	838.06
290.679	830.06
290.91	837.06
291.141	823.06
291.371	847.06
291.602	856.06
291.833	848.06
292.064	831.06
292.295	820.06
292.526	836.06
292.757	828.06
292.987	842.06
293.218	844.06
293.449	844.06
293.68	832.06
293.91	848.06
294.141	856.06
294.372	839.06
294.603	858.06
294.833	859.06
295.064	859.06
295.295	868.06
295.525	856.06
295.756	860.06
295.987	848.06
296.217	857.06
296.448	871.06
296.679	871.06
296.909	844.06
297.14	881.06
297.37	875.06
297.601	874.06
297.831	878.06
298.062	892.06
298.292	890.06
298.523	910.06
298.753	927.06
298.984	892.06
299.214	899.06
299.445	878.06
299.675	900.06
299.905	898.06
300.136	887.06
300.366	908.06
300.597	891.06
300.827	948.06
301.057	935.06
301.288	940.06
301.518	962.06
301.748	962.06
301.979	973.06
302.209	975.06
302.439	982.06
302.669	947.06
302.9	944.06
303.13	950.06
303.36	962.06
303.59	960.06
303.82	946.06
304.051	948.06
304.281	956.06
304.511	963.06
304.741	919.06
304.971	954.06
305.201	958.06
305.431	955.06
305.661	931.06
305.891	954.06
306.121	948.06
306.352	965.06
306.582	936.06
306.812	949.06
307.042	948.06
307.272	946.06
307.502	952.06
307.731	957.06
307.961	919.06
308.191	921.06
308.421	942.06
308.651	939.06
308.881	931.06
309.111	944.06
309.341	941.06
309.571	949.06
309.8	968.06
310.03	959.06
310.26	940.06
310.49	957.06
310.72	973.06
310.949	962.06
311.179	963.06
311.409	955.06
311.639	979.06
311.868	975.06
312.098	971.06
312.328	1020.06
312.557	992.06
312.787	996.06
313.017	994.06
313.246	1026.06
313.476	1007.06
313.706	1009.06
313.935	1016.06
314.165	1012.06
314.394	995.06
314.624	1042.06
314.853	1029.06
315.083	1022.06
315.312	1034.06
315.542	1048.06
315.771	1028.06
316.001	1004.06
316.23	1017.06
316.46	1007.06
316.689	1038.06
316.919	1024.06
317.148	1031.06
317.377	982.06
317.607	1018.06
317.836	999.06
318.065	1010.06
318.295	991.06
318.524	994.06
318.753	984.06
318.983	1045.06
319.212	999.06
319.441	1054.06
319.67	987.06
319.9	1028.06
320.129	1016.06
320.358	990.06
320.587	1008.06
320.816	1040.06
321.046	1021.06
321.275	1040.06
321.504	1034.06
321.733	1033.06
321.962	1050.06
322.191	1043.06
322.42	1036.06
322.649	1037.06
322.878	1029.06
323.108	1049.06
323.337	1059.06
323.566	1069.06
323.795	1084.06
324.024	1074.06
324.253	1066.06
324.482	1051.06
324.71	1062.06
324.939	1049.06
325.168	1035.06
325.397	1079.06
325.626	1077.06
325.855	1070.06
326.084	1103.06
326.313	1111.06
326.542	1084.06
326.77	1088.06
326.999	1108.06
327.228	1058.06
327.457	1071.06
327.686	1066.06
327.914	1094.06
328.143	1118.06
328.372	1091.06
328.6	1120.06
328.829	1098.06
329.058	1115.06
329.287	1109.06
329.515	1092.06
329.744	1127.06
329.972	1109.06
330.201	1119.06
330.43	1133.06
330.658	1126.06
330.887	1133.06
331.115	1150.06
331.344	1180.06
331.572	1188.06
331.801	1184.06
332.03	1182.06
332.258	1175.06
332.486	1273.06
332.715	1254.06
332.943	1288.06
333.172	1342.06
333.4	1342.06
333.629	1396.06
333.857	1423.06
334.085	1407.06
334.314	1399.06
334.542	1396.06
334.771	1390.06
334.999	1348.06
335.227	1371.06
335.455	1368.06
335.684	1359.06
335.912	1346.06
336.14	1330.06
336.369	1331.06
336.597	1360.06
336.825	1357.06
337.053	1364.06
337.281	1300.06
337.51	1264.06
337.738	1260.06
337.966	1215.06
338.194	1236.06
338.422	1199.06
338.65	1210.06
338.878	1223.06
339.106	1194.06
339.334	1211.06
339.562	1194.06
339.79	1174.06
340.018	1132.06
340.246	1156.06
340.474	1165.06
340.702	1159.06
340.93	1165.06
341.158	1152.06
341.386	1157.06
341.614	1185.06
341.842	1163.06
342.07	1134.06
342.298	1144.06
342.526	1146.06
342.754	1168.06
342.981	1147.06
343.209	1178.06
343.437	1213.06
343.665	1276.06
343.893	1350.06
344.12	1364.06
344.348	1307.06
344.576	1310.06
344.804	1230.06
345.031	1181.06
345.259	1194.06
345.487	1180.06
345.714	1166.06
345.942	1156.06
346.17	1152.06
346.397	1110.06
346.625	1130.06
346.853	1110.06
347.08	1117.06
347.308	1102.06
347.535	1125.06
347.763	1088.06
347.99	1150.06
348.218	1125.06
348.445	1092.06
348.673	1104.06
348.9	1108.06
349.128	1128.06
349.355	1088.06
349.583	1089.06
349.81	1108.06
350.037	1110.06
350.265	1098.06
350.492	1085.06
350.72	1067.06
350.947	1056.06
351.174	1086.06
351.402	1058.06
351.629	1069.06
351.856	1065.06
352.083	1059.06
352.311	1072.06
352.538	1060.06
352.765	1079.06
352.992	1059.06
353.22	1078.06
353.447	1050.06
353.674	1079.06
353.901	1068.06
354.128	1054.06
354.355	1078.06
354.583	1065.06
354.81	1093.06
355.037	1066.06
355.264	1094.06
355.491	1069.06
355.718	1065.06
355.945	1055.06
356.172	1050.06
356.399	1048.06
356.626	1086.06
356.853	1099.06
357.08	1060.06
357.307	1062.06
357.534	1045.06
357.761	1067.06
357.988	1072.06
358.215	1078.06
358.441	1069.06
358.668	1076.06
358.895	1072.06
359.122	1084.06
359.349	1087.06
359.576	1065.06
359.802	1067.06
360.029	1055.06
360.256	1075.06
360.483	1050.06
360.709	1064.06
360.936	1071.06
361.163	1096.06
361.39	1109.06
361.616	1082.06
361.843	1079.06
362.07	1110.06
362.296	1081.06
362.523	1086.06
362.749	1106.06
362.976	1060.06
363.203	1078.06
363.429	1080.06
363.656	1092.06
363.882	1070.06
364.109	1114.06
364.335	1080.06
364.562	1068.06
364.788	1068.06
365.015	1066.06
365.241	1088.06
365.468	1059.06
365.694	1085.06
365.92	1062.06
366.147	1085.06
366.373	1066.06
366.599	1075.06
366.826	1100.06
367.052	1068.06
367.278	1094.06
367.505	1088.06
367.731	1114.06
367.957	1096.06
368.184	1065.06
368.41	1089.06
368.636	1109.06
368.862	1116.06
369.089	1107.06
369.315	1128.06
369.541	1112.06
369.767	1142.06
369.993	1129.06
370.219	1152.06
370.445	1146.06
370.672	1135.06
370.898	1134.06
371.124	1143.06
371.35	1172.06
371.576	1158.06
371.802	1164.06
372.028	1167.06
372.254	1174.06
372.48	1170.06
372.706	1206.06
372.932	1206.06
373.158	1221.06
373.384	1183.06
373.61	1208.06
373.835	1172.06
374.061	1169.06
374.287	1183.06
374.513	1194.06
374.739	1224.06
374.965	1256.06
375.191	1304.06
375.416	1260.06
375.642	1243.06
375.868	1255.06
376.094	1234.06
376.319	1190.06
376.545	1174.06
376.771	1170.06
376.997	1177.06
377.222	1161.06
377.448	1178.06
377.674	1155.06
377.899	1167.06
378.125	1157.06
378.35	1139.06
378.576	1158.06
378.802	1140.06
379.027	1157.06
379.253	1162.06
379.478	1136.06
379.704	1154.06
379.929	1156.06
380.155	1143.06
380.38	1157.06
380.606	1148.06
380.831	1172.06
381.057	1174.06
381.282	1167.06
381.507	1167.06
381.733	1204.06
381.958	1176.06
382.184	1166.06
382.409	1198.06
382.634	1197.06
382.86	1206.06
383.085	1194.06
383.31	1214.06
383.535	1267.06
383.761	1266.06
383.986	1299.06
384.211	1298.06
384.436	1287.06
384.662	1346.06
384.887	1330.06
385.112	1354.06
385.337	1370.06
385.562	1365.06
385.787	1370.06
386.013	1407.06
386.238	1400.06
386.463	1404.06
386.688	1401.06
386.913	1373.06
387.138	1370.06
387.363	1404.06
387.588	1386.06
387.813	1365.06
388.038	1386.06
388.263	1375.06
388.488	1383.06
388.713	1375.06
388.938	1397.06
389.163	1350.06
389.387	1387.06
389.612	1391.06
389.837	1343.06
390.062	1364.06
390.287	1375.06
390.512	1360.06
390.736	1360.06
390.961	1395.06
391.186	1387.06
391.411	1453.06
391.636	1482.06
391.86	1487.06
392.085	1535.06
392.31	1548.06
392.534	1484.06
392.759	1498.06
392.984	1462.06
393.208	1466.06
393.433	1454.06
393.658	1428.06
393.882	1439.06
394.107	1464.06
394.331	1431.06
394.556	1443.06
394.78	1499.06
395.005	1495.06
395.229	1527.06
395.454	1533.06
395.678	1552.06
395.903	1555.06
396.127	1518.06
396.352	1492.06
396.576	1493.06
396.801	1495.06
397.025	1536.06
397.249	1546.06
397.474	1544.06
397.698	1554.06
397.922	1555.06
398.147	1573.06
398.371	1615.06
398.595	1628.06
398.82	1722.06
399.044	1838.06
399.268	1900.06
399.492	2125.06
399.717	2314.06
399.941	2354.06
400.165	2166.06
400.389	2047.06
400.613	1916.06
400.837	1820.06
401.062	1853.06
401.286	1767.06
401.51	1764.06
401.734	1702.06
401.958	1680.06
402.182	1717.06
402.406	1773.06
402.63	1763.06
402.854	1744.06
403.078	1778.06
403.302	1783.06
403.526	1813.06
403.75	1815.06
403.974	1897.06
404.198	1878.06
404.422	1875.06
404.645	1876.06
404.869	1815.06
405.093	1847.06
405.317	1812.06
405.541	1872.06
405.765	1861.06
405.988	1836.06
406.212	1884.06
406.436	1861.06
406.66	1879.06
406.883	1884.06
407.107	2010.06
407.331	2079.06
407.555	2144.06
407.778	2152.06
408.002	2074.06
408.226	2088.06
408.449	2070.06
408.673	1973.06
408.896	1936.06
409.12	1913.06
409.344	1949.06
409.567	1921.06
409.791	1979.06
410.014	1870.06
410.238	1874.06
410.461	1878.06
410.685	1889.06
410.908	1835.06
411.132	1823.06
411.355	1768.06
411.578	1764.06
411.802	1746.06
412.025	1772.06
412.249	1824.06
412.472	1808.06
412.695	1757.06
412.919	1778.06
413.142	1733.06
413.365	1741.06
413.589	1748.06
413.812	1738.06
414.035	1683.06
414.258	1708.06
414.482	1749.06
414.705	1760.06
414.928	1756.06
415.151	1739.06
415.374	1707.06
415.597	1673.06
415.821	1637.06
416.044	1701.06
416.267	1616.06
416.49	1640.06
416.713	1614.06
416.936	1664.06
417.159	1659.06
417.382	1635.06
417.605	1631.06
417.828	1651.06
418.051	1667.06
418.274	1667.06
418.497	1650.06
418.72	1694.06
418.943	1698.06
419.166	1775.06
419.389	1894.06
419.611	1872.06
419.834	1818.06
420.057	1742.06
420.28	1689.06
420.503	1618.06
420.726	1600.06
420.948	1622.06
421.171	1639.06
421.394	1662.06
421.617	1662.06
421.839	1622.06
422.062	1665.06
422.285	1610.06
422.507	1694.06
422.73	1654.06
422.953	1663.06
423.175	1671.06
423.398	1692.06
423.621	1662.06
423.843	1696.06
424.066	1756.06
424.288	1669.06
424.511	1681.06
424.733	1684.06
424.956	1646.06
425.178	1645.06
425.401	1634.06
425.623	1658.06
425.846	1604.06
426.068	1581.06
426.291	1614.06
426.513	1598.06
426.735	1543.06
426.958	1576.06
427.18	1574.06
427.402	1527.06
427.625	1524.06
427.847	1547.06
428.069	1550.06
428.292	1544.06
428.514	1517.06
428.736	1511.06
428.958	1526.06
429.181	1496.06
429.403	1473.06
429.625	1494.06
429.847	1435.06
430.069	1476.06
430.292	1491.06
430.514	1467.06
430.736	1501.06
430.958	1509.06
431.18	1513.06
431.402	1505.06
431.624	1513.06
431.846	1519.06
432.068	1518.06
432.29	1545.06
432.512	1504.06
432.734	1537.06
432.956	1490.06
433.178	1578.06
433.4	1558.06
433.622	1553.06
433.844	1582.06
434.066	1529.06
434.287	1599.06
434.509	1586.06
434.731	1651.06
434.953	1647.06
435.175	1664.06
435.397	1675.06
435.618	1586.06
435.84	1576.06
436.062	1557.06
436.284	1542.06
436.505	1526.06
436.727	1539.06
436.949	1534.06
437.17	1500.06
437.392	1502.06
437.614	1483.06
437.835	1419.06
438.057	1446.06
438.278	1417.06
438.5	1383.06
438.721	1441.06
438.943	1438.06
439.165	1476.06
439.386	1462.06
439.608	1480.06
439.829	1477.06
440.05	1475.06
440.272	1497.06
440.493	1478.06
440.715	1499.06
440.936	1510.06
441.158	1533.06
441.379	1575.06
441.6	1630.06
441.822	1650.06
442.043	1615.06
442.264	1599.06
442.486	1595.06
442.707	1611.06
442.928	1635.06
443.149	1590.06
443.371	1626.06
443.592	1606.06
443.813	1654.06
444.034	1642.06
444.255	1696.06
444.476	1733.06
444.698	1790.06
444.919	1822.06
445.14	1939.06
445.361	1767.06
445.582	1701.06
445.803	1621.06
446.024	1563.06
446.245	1539.06
446.466	1492.06
446.687	1466.06
446.908	1488.06
447.129	1459.06
447.35	1452.06
447.571	1418.06
447.792	1399.06
448.013	1421.06
448.234	1365.06
448.455	1370.06
448.675	1355.06
448.896	1359.06
449.117	1350.06
449.338	1358.06
449.559	1342.06
449.779	1335.06
450	1322.06
450.221	1366.06
450.442	1383.06
450.662	1336.06
450.883	1346.06
451.104	1368.06
451.324	1348.06
451.545	1346.06
451.766	1362.06
451.986	1332.06
452.207	1330.06
452.428	1335.06
452.648	1341.06
452.869	1303.06
453.089	1260.06
453.31	1336.06
453.53	1284.06
453.751	1286.06
453.971	1325.06
454.192	1313.06
454.412	1278.06
454.633	1255.06
454.853	1263.06
455.073	1282.06
455.294	1240.06
455.514	1267.06
455.734	1255.06
455.955	1270.06
456.175	1267.06
456.395	1283.06
456.616	1230.06
456.836	1241.06
457.056	1243.06
457.276	1250.06
457.497	1266.06
457.717	1284.06
457.937	1284.06
458.157	1301.06
458.377	1323.06
458.598	1371.06
458.818	1385.06
459.038	1404.06
459.258	1454.06
459.478	1441.06
459.698	1508.06
459.918	1539.06
460.138	1576.06
460.358	1650.06
460.578	1615.06
460.798	1679.06
461.018	1698.06
461.238	1670.06
461.458	1682.06
461.678	1699.06
461.898	1705.06
462.118	1704.06
462.338	1788.06
462.558	1832.06
462.777	1896.06
462.997	1961.06
463.217	2129.06
463.437	2098.06
463.657	2037.06
463.876	1954.06
464.096	1950.06
464.316	1919.06
464.536	1901.06
464.755	1875.06
464.975	1827.06
465.195	1754.06
465.414	1706.06
465.634	1581.06
465.854	1507.06
466.073	1502.06
466.293	1466.06
466.512	1420.06
466.732	1428.06
466.951	1437.06
467.171	1406.06
467.391	1427.06
467.61	1418.06
467.829	1383.06
468.049	1359.06
468.268	1375.06
468.488	1375.06
468.707	1369.06
468.927	1385.06
469.146	1370.06
469.365	1366.06
469.585	1380.06
469.804	1425.06
470.023	1466.06
470.243	1434.06
470.462	1441.06
470.681	1465.06
470.901	1465.06
471.12	1433.06
471.339	1380.06
471.558	1398.06
471.777	1410.06
471.997	1373.06
472.216	1375.06
472.435	1373.06
472.654	1359.06
472.873	1326.06
473.092	1334.06
473.311	1348.06
473.53	1338.06
473.749	1316.06
473.968	1335.06
474.187	1333.06
474.406	1316.06
474.625	1364.06
474.844	1341.06
475.063	1330.06
475.282	1369.06
475.501	1336.06
475.72	1388.06
475.939	1450.06
476.158	1398.06
476.377	1451.06
476.596	1410.06
476.814	1427.06
477.033	1444.06
477.252	1450.06
477.471	1498.06
477.69	1488.06
477.908	1578.06
478.127	1573.06
478.346	1626.06
478.564	1643.06
478.783	1653.06
479.002	1663.06
479.22	1696.06
479.439	1669.06
479.658	1684.06
479.876	1714.06
480.095	1730.06
480.313	1803.06
480.532	1814.06
480.751	1795.06
480.969	1763.06
481.188	1724.06
481.406	1720.06
481.624	1648.06
481.843	1631.06
482.061	1644.06
482.28	1634.06
482.498	1604.06
482.717	1627.06
482.935	1651.06
483.153	1663.06
483.372	1670.06
483.59	1663.06
483.808	1668.06
484.027	1710.06
484.245	1706.06
484.463	1781.06
484.681	1765.06
484.9	1743.06
485.118	1782.06
485.336	1750.06
485.554	1803.06
485.772	1827.06
485.99	1798.06
486.209	1793.06
486.427	1827.06
486.645	1798.06
486.863	1812.06
487.081	1773.06
487.299	1800.06
487.517	1770.06
487.735	1783.06
487.953	1776.06
488.171	1809.06
488.389	1794.06
488.607	1725.06
488.825	1733.06
489.043	1677.06
489.261	1693.06
489.479	1727.06
489.696	1728.06
489.914	1702.06
490.132	1686.06
490.35	1728.06
490.568	1711.06
490.786	1738.06
491.003	1667.06
491.221	1659.06
491.439	1692.06
491.657	1699.06
491.874	1686.06
492.092	1720.06
492.31	1646.06
492.527	1726.06
492.745	1698.06
492.963	1719.06
493.18	1702.06
493.398	1703.06
493.615	1743.06
493.833	1750.06
494.05	1718.06
494.268	1703.06
494.485	1762.06
494.703	1781.06
494.92	1727.06
495.138	1727.06
495.355	1739.06
495.573	1734.06
495.79	1739.06
496.008	1757.06
496.225	1749.06
496.442	1787.06
496.66	1825.06
496.877	1838.06
497.094	1846.06
497.312	1884.06
497.529	1923.06
497.746	1964.06
497.963	2015.06
498.181	2056.06
498.398	2177.06
498.615	2273.06
498.832	2387.06
499.049	2538.06
499.267	2735.06
499.484	2923.06
499.701	3160.06
499.918	3471.06
500.135	3768.06
500.352	4101.06
500.569	4297.06
500.786	4274.06
501.003	4083.06
501.22	3725.06
501.437	3427.06
501.654	3058.06
501.871	2908.06
502.088	2671.06
502.305	2510.06
502.522	2406.06
502.739	2312.06
502.956	2150.06
503.172	2111.06
503.389	2044.06
503.606	1942.06
503.823	1941.06
504.04	1922.06
504.256	1931.06
504.473	1995.06
504.69	1920.06
504.907	1892.06
505.123	1814.06
505.34	1746.06
505.557	1704.06
505.773	1670.06
505.99	1651.06
506.207	1565.06
506.423	1573.06
506.64	1535.06
506.856	1492.06
507.073	1536.06
507.289	1528.06
507.506	1509.06
507.722	1503.06
507.939	1462.06
508.155	1420.06
508.372	1463.06
508.588	1448.06
508.805	1390.06
509.021	1402.06
509.238	1416.06
509.454	1387.06
509.67	1397.06
509.887	1358.06
510.103	1380.06
510.319	1387.06
510.536	1343.06
510.752	1352.06
510.968	1355.06
511.184	1353.06
511.401	1377.06
511.617	1339.06
511.833	1360.06
512.049	1327.06
512.265	1335.06
512.481	1338.06
512.698	1354.06
512.914	1367.06
513.13	1342.06
513.346	1306.06
513.562	1363.06
513.778	1356.06
513.994	1346.06
514.21	1346.06
514.426	1367.06
514.642	1380.06
514.858	1368.06
515.074	1403.06
515.29	1384.06
515.506	1404.06
515.721	1385.06
515.937	1446.06
516.153	1477.06
516.369	1499.06
516.585	1516.06
516.801	1559.06
517.016	1580.06
517.232	1659.06
517.448	1704.06
517.664	1767.06
517.879	1775.06
518.095	1768.06
518.311	1754.06
518.527	1666.06
518.742	1659.06
518.958	1622.06
519.173	1538.06
519.389	1468.06
519.605	1455.06
519.82	1441.06
520.036	1391.06
520.251	1378.06
520.467	1369.06
520.682	1353.06
520.898	1293.06
521.113	1347.06
521.329	1348.06
521.544	1277.06
521.76	1284.06
521.975	1286.06
522.19	1288.06
522.406	1271.06
522.621	1294.06
522.836	1276.06
523.052	1271.06
523.267	1248.06
523.482	1264.06
523.698	1218.06
523.913	1243.06
524.128	1235.06
524.343	1236.06
524.559	1207.06
524.774	1199.06
524.989	1227.06
525.204	1244.06
525.419	1232.06
525.634	1216.06
525.849	1235.06
526.064	1212.06
526.28	1181.06
526.495	1186.06
526.71	1192.06
526.925	1192.06
527.14	1178.06
527.355	1212.06
527.57	1174.06
527.785	1186.06
527.999	1188.06
528.214	1167.06
528.429	1216.06
528.644	1207.06
528.859	1216.06
529.074	1165.06
529.289	1175.06
529.503	1166.06
529.718	1172.06
529.933	1168.06
530.148	1150.06
530.363	1166.06
530.577	1167.06
530.792	1156.06
531.007	1172.06
531.221	1202.06
531.436	1189.06
531.651	1191.06
531.865	1219.06
532.08	1184.06
532.295	1193.06
532.509	1147.06
532.724	1176.06
532.938	1178.06
533.153	1174.06
533.367	1165.06
533.582	1175.06
533.796	1169.06
534.011	1131.06
534.225	1140.06
534.44	1151.06
534.654	1163.06
534.868	1132.06
535.083	1136.06
535.297	1142.06
535.511	1137.06
535.726	1109.06
535.94	1146.06
536.154	1120.06
536.369	1100.06
536.583	1102.06
536.797	1116.06
537.011	1099.06
537.225	1091.06
537.44	1128.06
537.654	1116.06
537.868	1080.06
538.082	1055.06
538.296	1084.06
538.51	1071.06
538.724	1079.06
538.938	1063.06
539.153	1066.06
539.367	1057.06
539.581	1054.06
539.795	1071.06
540.009	1084.06
540.222	1065.06
540.436	1056.06
540.65	1040.06
540.864	1030.06
541.078	1070.06
541.292	1058.06
541.506	1054.06
541.72	1028.06
541.934	1029.06
542.147	1062.06
542.361	1026.06
542.575	1021.06
542.789	1016.06
543.002	1039.06
543.216	1032.06
543.43	1026.06
543.644	1005.06
543.857	1038.06
544.071	1017.06
544.285	1034.06
544.498	1036.06
544.712	1049.06
544.925	1053.06
545.139	1036.06
545.352	1057.06
545.566	1030.06
545.779	1064.06
545.993	1038.06
546.206	1083.06
546.42	1028.06
546.633	1053.06
546.847	1060.06
547.06	1038.06
547.274	1024.06
547.487	1044.06
547.7	1077.06
547.914	1056.06
548.127	1034.06
548.34	1046.06
548.554	1048.06
548.767	1079.06
548.98	1056.06
549.193	1036.06
549.407	1055.06
549.62	1095.06
549.833	1091.06
550.046	1078.06
550.259	1074.06
550.473	1055.06
550.686	1040.06
550.899	1071.06
551.112	1038.06
551.325	1031.06
551.538	1038.06
551.751	1040.06
551.964	1043.06
552.177	1047.06
552.39	1061.06
552.603	1076.06
552.816	1117.06
553.029	1116.06
553.242	1132.06
553.455	1122.06
553.667	1133.06
553.88	1103.06
554.093	1060.06
554.306	1071.06
554.519	1060.06
554.732	1063.06
554.944	1017.06
555.157	1003.06
555.37	975.06
555.583	972.06
555.795	968.06
556.008	955.06
556.221	922.06
556.433	942.06
556.646	910.06
556.859	920.06
557.071	937.06
557.284	920.06
557.496	904.06
557.709	898.06
557.921	910.06
558.134	887.06
558.346	870.06
558.559	903.06
558.771	894.06
558.984	887.06
559.196	887.06
559.409	869.06
559.621	855.06
559.833	877.06
560.046	842.06
560.258	884.06
560.47	875.06
560.683	848.06
560.895	874.06
561.107	873.06
561.32	850.06
561.532	875.06
561.744	859.06
561.956	886.06
562.168	877.06
562.381	872.06
562.593	887.06
562.805	904.06
563.017	854.06
563.229	866.06
563.441	889.06
563.653	874.06
563.865	902.06
564.077	900.06
564.289	902.06
564.501	936.06
564.713	957.06
564.925	942.06
565.137	962.06
565.349	968.06
565.561	972.06
565.773	1039.06
565.985	1071.06
566.197	1118.06
566.408	1181.06
566.62	1230.06
566.832	1332.06
567.044	1337.06
567.255	1330.06
567.467	1417.06
567.679	1406.06
567.891	1447.06
568.102	1454.06
568.314	1374.06
568.526	1327.06
568.737	1239.06
568.949	1152.06
569.161	1086.06
569.372	1050.06
569.584	980.06
569.795	964.06
570.007	942.06
570.218	897.06
570.43	899.06
570.641	892.06
570.853	900.06
571.064	904.06
571.276	866.06
571.487	851.06
571.698	811.06
571.91	818.06
572.121	787.06
572.333	758.06
572.544	764.06
572.755	756.06
572.966	751.06
573.178	745.06
573.389	733.06
573.6	712.06
573.811	724.06
574.023	721.06
574.234	724.06
574.445	727.06
574.656	727.06
574.867	723.06
575.078	703.06
575.289	708.06
575.501	694.06
575.712	687.06
575.923	667.06
576.134	682.06
576.345	702.06
576.556	674.06
576.767	676.06
576.978	645.06
577.188	643.06
577.399	665.06
577.61	676.06
577.821	664.06
578.032	639.06
578.243	623.06
578.454	668.06
578.665	652.06
578.875	657.06
579.086	644.06
579.297	628.06
579.508	626.06
579.718	633.06
579.929	640.06
580.14	631.06
580.35	629.06
580.561	611.06
580.772	593.06
580.982	608.06
581.193	601.06
581.403	604.06
581.614	616.06
581.825	604.06
582.035	594.06
582.246	610.06
582.456	598.06
582.667	613.06
582.877	600.06
583.087	603.06
583.298	599.06
583.508	600.06
583.719	601.06
583.929	615.06
584.139	621.06
584.35	576.06
584.56	600.06
584.77	598.06
584.981	595.06
585.191	596.06
585.401	580.06
585.611	581.06
585.821	583.06
586.032	565.06
586.242	584.06
586.452	554.06
586.662	562.06
586.872	568.06
587.082	582.06
587.292	548.06
587.502	563.06
587.713	564.06
587.923	573.06
588.133	582.06
588.343	552.06
588.553	574.06
588.762	557.06
588.972	564.06
589.182	590.06
589.392	579.06
589.602	586.06
589.812	567.06
590.022	578.06
590.232	561.06
590.441	572.06
590.651	591.06
590.861	616.06
591.071	581.06
591.281	592.06
591.49	610.06
591.7	629.06
591.91	610.06
592.119	580.06
592.329	627.06
592.539	615.06
592.748	644.06
592.958	654.06
593.167	686.06
593.377	669.06
593.587	705.06
593.796	674.06
594.006	667.06
594.215	687.06
594.424	679.06
594.634	682.06
594.843	646.06
595.053	644.06
595.262	631.06
595.472	622.06
595.681	606.06
595.89	555.06
596.1	567.06
596.309	552.06
596.518	563.06
596.727	526.06
596.937	532.06
597.146	526.06
597.355	502.06
597.564	499.06
597.774	498.06
597.983	505.06
598.192	498.06
598.401	482.06
598.61	500.06
598.819	474.06
599.028	479.06
599.237	483.06
599.446	480.06
599.655	503.06
599.864	479.06
600.073	458.06
600.282	486.06
600.491	472.06
600.7	478.06
600.909	495.06
601.118	493.06
601.327	458.06
601.536	453.06
601.745	453.06
601.953	463.06
602.162	462.06
602.371	460.06
602.58	469.06
602.789	460.06
602.997	448.06
603.206	459.06
603.415	425.06
603.623	426.06
603.832	459.06
604.041	427.06
604.249	426.06
604.458	435.06
604.666	416.06
604.875	454.06
605.084	428.06
605.292	438.06
605.501	424.06
605.709	422.06
605.918	424.06
606.126	412.06
606.334	419.06
606.543	416.06
606.751	427.06
606.96	414.06
607.168	431.06
607.376	418.06
607.585	422.06
607.793	417.06
608.001	421.06
608.21	416.06
608.418	431.06
608.626	423.06
608.834	428.06
609.043	418.06
609.251	416.06
609.459	416.06
609.667	410.06
609.875	421.06
610.083	406.06
610.291	425.06
610.499	427.06
610.707	422.06
610.916	399.06
611.124	400.06
611.332	418.06
611.54	405.06
611.748	416.06
611.955	401.06
612.163	400.06
612.371	416.06
612.579	406.06
612.787	384.06
612.995	387.06
613.203	385.06
613.411	400.06
613.618	395.06
613.826	387.06
614.034	396.06
614.242	395.06
614.449	400.06
614.657	385.06
614.865	382.06
615.072	404.06
615.28	390.06
615.488	391.06
615.695	384.06
615.903	394.06
616.111	396.06
616.318	400.06
616.526	407.06
616.733	404.06
616.941	389.06
617.148	411.06
617.356	386.06
617.563	414.06
617.771	386.06
617.978	402.06
618.185	396.06
618.393	397.06
618.6	381.06
618.807	384.06
619.015	384.06
619.222	387.06
619.429	373.06
619.637	395.06
619.844	378.06
620.051	372.06
620.258	366.06
620.466	372.06
620.673	359.06
620.88	375.06
621.087	356.06
621.294	366.06
621.501	354.06
621.708	360.06
621.915	389.06
622.122	362.06
622.329	372.06
622.536	362.06
622.743	350.06
622.95	360.06
623.157	343.06
623.364	378.06
623.571	348.06
623.778	362.06
623.985	339.06
624.192	351.06
624.399	356.06
624.606	342.06
624.812	348.06
625.019	352.06
625.226	347.06
625.433	359.06
625.639	320.06
625.846	330.06
626.053	322.06
626.259	333.06
626.466	347.06
626.673	329.06
626.879	313.06
627.086	334.06
627.293	350.06
627.499	331.06
627.706	334.06
627.912	327.06
628.119	334.06
628.325	322.06
628.532	307.06
628.738	329.06
628.945	315.06
629.151	320.06
629.357	325.06
629.564	334.06
629.77	313.06
629.976	302.06
630.183	323.06
630.389	325.06
630.595	312.06
630.802	318.06
631.008	328.06
631.214	290.06
631.42	315.06
631.627	318.06
631.833	297.06
632.039	313.06
632.245	286.06
632.451	281.06
632.657	283.06
632.863	299.06
633.069	296.06
633.275	290.06
633.481	303.06
633.688	300.06
633.893	303.06
634.099	303.06
634.305	293.06
634.511	286.06
634.717	294.06
634.923	280.06
635.129	308.06
635.335	271.06
635.541	292.06
635.747	288.06
635.952	285.06
636.158	266.06
636.364	277.06
636.57	280.06
636.775	314.06
636.981	277.06
637.187	284.06
637.392	286.06
637.598	272.06
637.804	289.06
638.009	283.06
638.215	297.06
638.421	273.06
638.626	287.06
638.832	278.06
639.037	267.06
639.243	280.06
639.448	268.06
639.654	293.06
639.859	274.06
640.065	281.06
640.27	300.06
640.475	257.06
640.681	276.06
640.886	286.06
641.091	271.06
641.297	267.06
641.502	264.06
641.707	264.06
641.913	272.06
642.118	288.06
642.323	272.06
642.528	271.06
642.733	286.06
642.939	262.06
643.144	254.06
643.349	246.06
643.554	262.06
643.759	275.06
643.964	260.06
644.169	276.06
644.374	273.06
644.579	268.06
644.784	281.06
644.989	257.06
645.194	269.06
645.399	275.06
645.604	262.06
645.809	270.06
646.014	270.06
646.219	267.06
646.423	282.06
646.628	287.06
646.833	279.06
647.038	256.06
647.243	267.06
647.447	272.06
647.652	272.06
647.857	276.06
648.062	285.06
648.266	303.06
648.471	300.06
648.676	288.06
648.88	296.06
649.085	291.06
649.289	281.06
649.494	283.06
649.698	291.06
649.903	283.06
650.107	292.06
650.312	289.06
650.516	285.06
650.721	267.06
650.925	272.06
651.13	276.06
651.334	264.06
651.539	274.06
651.743	263.06
651.947	277.06
652.152	282.06
652.356	243.06
652.56	239.06
652.764	251.06
652.969	261.06
653.173	267.06
653.377	258.06
653.581	253.06
653.785	268.06
653.99	268.06
654.194	232.06
654.398	278.06
654.602	284.06
654.806	270.06
655.01	287.06
655.214	293.06
655.418	283.06
655.622	300.06
655.826	304.06
656.03	322.06
656.234	362.06
656.438	370.06
656.642	394.06
656.846	360.06
657.049	319.06
657.253	281.06
657.457	264.06
657.661	240.06
657.865	221.06
658.068	206.06
658.272	191.06
658.476	173.06
658.68	170.06
658.883	152.06
659.087	170.06
659.291	144.06
659.494	142.06
659.698	131.06
659.901	123.06
660.105	120.06
660.309	128.06
660.512	121.06
660.716	102.06
660.919	120.06
661.123	101.06
661.326	114.06
661.53	102.06
661.733	106.06
661.936	112.06
662.14	80.06
662.343	101.06
662.546	104.06
662.75	92.06
662.953	91.06
663.156	87.06
663.36	98.06
663.563	97.06
663.766	84.06
663.969	88.06
664.173	87.06
664.376	84.06
664.579	78.06
664.782	102.06
664.985	92.06
665.188	107.06
665.391	81.06
665.594	77.06
665.797	89.06
666	92.06
666.203	84.06
666.406	87.06
666.609	76.06
666.812	83.06
667.015	93.06
667.218	93.06
667.421	84.06
667.624	97.06
667.827	84.06
668.03	70.06
668.232	82.06
668.435	84.06
668.638	71.06
668.841	86.06
669.043	82.06
669.246	92.06
669.449	89.06
669.651	84.06
669.854	82.06
670.057	76.06
670.259	85.06
670.462	77.06
670.665	86.06
670.867	87.06
671.07	87.06
671.272	102.06
671.475	81.06
671.677	74.06
671.88	92.06
672.082	86.06
672.284	79.06
672.487	71.06
672.689	83.06
672.892	82.06
