Data from NiCl2@0.5M.TitratingCurve.Agarose3%dH2O.NegLispCup.LampEnergy10.LIBS07252019_HRD10591_18-19-25-573.txt Node
Date: Thu Jul 25 18:19:25 EDT 2019
User: cochatt
Spectrometer: HR+D1059
Trigger mode: 1
Integration Time (sec): 1.000000E-1
Scans to average: 1
Electric dark correction enabled: true
Nonlinearity correction enabled: false
Boxcar width: 0
XAxis mode: Wavelengths
Number of Pixels in Spectrum: 2048
>>>>>Begin Spectral Data<<<<<
223.165	-14.75
223.4	-14.75
223.635	-14.75
223.869	-14.75
224.104	-26.75
224.338	-16.75
224.573	-14.75
224.808	-12.75
225.042	-11.75
225.277	-2.75
225.511	7.25
225.746	7.25
225.98	6.25
226.215	10.25
226.449	17.25
226.683	24.25
226.918	22.25
227.152	20.25
227.387	41.25
227.621	53.25
227.856	32.25
228.09	36.25
228.324	46.25
228.559	64.25
228.793	75.25
229.027	106.25
229.262	106.25
229.496	105.25
229.73	118.25
229.964	115.25
230.199	116.25
230.433	130.25
230.667	128.25
230.901	131.25
231.136	114.25
231.37	142.25
231.604	133.25
231.838	142.25
232.072	142.25
232.306	153.25
232.541	155.25
232.775	126.25
233.009	146.25
233.243	142.25
233.477	133.25
233.711	150.25
233.945	144.25
234.179	165.25
234.413	138.25
234.647	136.25
234.881	159.25
235.115	157.25
235.349	135.25
235.583	137.25
235.817	128.25
236.051	140.25
236.285	142.25
236.519	144.25
236.753	156.25
236.987	150.25
237.221	148.25
237.455	146.25
237.689	140.25
237.922	145.25
238.156	156.25
238.39	158.25
238.624	186.25
238.858	167.25
239.091	156.25
239.325	170.25
239.559	180.25
239.793	166.25
240.027	164.25
240.26	177.25
240.494	174.25
240.728	192.25
240.961	182.25
241.195	168.25
241.429	178.25
241.662	199.25
241.896	184.25
242.13	186.25
242.363	197.25
242.597	189.25
242.83	179.25
243.064	190.25
243.298	192.25
243.531	171.25
243.765	189.25
243.998	195.25
244.232	194.25
244.465	193.25
244.699	195.25
244.932	215.25
245.166	214.25
245.399	205.25
245.633	210.25
245.866	228.25
246.099	203.25
246.333	217.25
246.566	213.25
246.8	207.25
247.033	209.25
247.266	221.25
247.5	204.25
247.733	221.25
247.966	221.25
248.2	236.25
248.433	223.25
248.666	224.25
248.899	212.25
249.133	225.25
249.366	230.25
249.599	241.25
249.832	225.25
250.066	226.25
250.299	229.25
250.532	226.25
250.765	251.25
250.998	232.25
251.231	230.25
251.465	260.25
251.698	245.25
251.931	253.25
252.164	251.25
252.397	256.25
252.63	240.25
252.863	246.25
253.096	261.25
253.329	244.25
253.562	254.25
253.795	241.25
254.028	244.25
254.261	266.25
254.494	275.25
254.727	266.25
254.96	261.25
255.193	266.25
255.426	257.25
255.659	260.25
255.892	291.25
256.124	275.25
256.357	270.25
256.59	280.25
256.823	291.25
257.056	288.25
257.289	282.25
257.521	284.25
257.754	292.25
257.987	279.25
258.22	277.25
258.452	282.25
258.685	290.25
258.918	276.25
259.151	289.25
259.383	277.25
259.616	297.25
259.849	302.25
260.081	284.25
260.314	285.25
260.547	289.25
260.779	292.25
261.012	305.25
261.244	300.25
261.477	289.25
261.71	293.25
261.942	324.25
262.175	312.25
262.407	288.25
262.64	328.25
262.872	317.25
263.105	299.25
263.337	318.25
263.57	335.25
263.802	318.25
264.035	317.25
264.267	321.25
264.499	313.25
264.732	340.25
264.964	321.25
265.197	319.25
265.429	299.25
265.661	334.25
265.894	322.25
266.126	347.25
266.358	337.25
266.591	332.25
266.823	342.25
267.055	338.25
267.287	342.25
267.52	356.25
267.752	348.25
267.984	350.25
268.216	354.25
268.448	327.25
268.681	347.25
268.913	330.25
269.145	341.25
269.377	351.25
269.609	347.25
269.841	353.25
270.073	334.25
270.306	363.25
270.538	352.25
270.77	350.25
271.002	358.25
271.234	350.25
271.466	366.25
271.698	372.25
271.93	372.25
272.162	361.25
272.394	360.25
272.626	372.25
272.858	374.25
273.09	387.25
273.322	384.25
273.553	372.25
273.785	389.25
274.017	382.25
274.249	393.25
274.481	399.25
274.713	400.25
274.945	404.25
275.176	389.25
275.408	384.25
275.64	394.25
275.872	402.25
276.104	391.25
276.335	392.25
276.567	395.25
276.799	395.25
277.031	411.25
277.262	407.25
277.494	393.25
277.726	422.25
277.957	412.25
278.189	417.25
278.421	404.25
278.652	425.25
278.884	409.25
279.115	390.25
279.347	394.25
279.579	393.25
279.81	437.25
280.042	420.25
280.273	425.25
280.505	421.25
280.736	411.25
280.968	429.25
281.199	434.25
281.431	434.25
281.662	421.25
281.894	448.25
282.125	433.25
282.356	435.25
282.588	433.25
282.819	432.25
283.051	448.25
283.282	452.25
283.513	456.25
283.745	454.25
283.976	436.25
284.207	452.25
284.439	437.25
284.67	452.25
284.901	444.25
285.132	460.25
285.364	465.25
285.595	456.25
285.826	456.25
286.057	453.25
286.288	478.25
286.52	454.25
286.751	469.25
286.982	465.25
287.213	468.25
287.444	488.25
287.675	467.25
287.906	493.25
288.138	472.25
288.369	489.25
288.6	487.25
288.831	480.25
289.062	496.25
289.293	476.25
289.524	492.25
289.755	469.25
289.986	491.25
290.217	492.25
290.448	483.25
290.679	491.25
290.91	494.25
291.141	502.25
291.371	483.25
291.602	511.25
291.833	508.25
292.064	465.25
292.295	484.25
292.526	489.25
292.757	491.25
292.987	499.25
293.218	499.25
293.449	479.25
293.68	489.25
293.91	499.25
294.141	477.25
294.372	491.25
294.603	522.25
294.833	502.25
295.064	510.25
295.295	532.25
295.525	513.25
295.756	500.25
295.987	526.25
296.217	500.25
296.448	517.25
296.679	510.25
296.909	548.25
297.14	530.25
297.37	539.25
297.601	525.25
297.831	532.25
298.062	553.25
298.292	549.25
298.523	544.25
298.753	549.25
298.984	544.25
299.214	546.25
299.445	558.25
299.675	539.25
299.905	550.25
300.136	564.25
300.366	564.25
300.597	583.25
300.827	579.25
301.057	549.25
301.288	566.25
301.518	590.25
301.748	573.25
301.979	561.25
302.209	566.25
302.439	577.25
302.669	561.25
302.9	568.25
303.13	573.25
303.36	575.25
303.59	560.25
303.82	571.25
304.051	573.25
304.281	571.25
304.511	599.25
304.741	553.25
304.971	572.25
305.201	594.25
305.431	569.25
305.661	562.25
305.891	590.25
306.121	581.25
306.352	557.25
306.582	576.25
306.812	573.25
307.042	566.25
307.272	546.25
307.502	571.25
307.731	569.25
307.961	552.25
308.191	552.25
308.421	558.25
308.651	586.25
308.881	548.25
309.111	557.25
309.341	565.25
309.571	554.25
309.8	584.25
310.03	566.25
310.26	577.25
310.49	579.25
310.72	571.25
310.949	572.25
311.179	563.25
311.409	579.25
311.639	598.25
311.868	585.25
312.098	578.25
312.328	587.25
312.557	594.25
312.787	594.25
313.017	604.25
313.246	591.25
313.476	619.25
313.706	617.25
313.935	627.25
314.165	606.25
314.394	619.25
314.624	603.25
314.853	611.25
315.083	626.25
315.312	599.25
315.542	611.25
315.771	609.25
316.001	567.25
316.23	593.25
316.46	610.25
316.689	600.25
316.919	619.25
317.148	605.25
317.377	613.25
317.607	630.25
317.836	597.25
318.065	605.25
318.295	603.25
318.524	605.25
318.753	589.25
318.983	608.25
319.212	593.25
319.441	600.25
319.67	581.25
319.9	600.25
320.129	616.25
320.358	603.25
320.587	625.25
320.816	602.25
321.046	609.25
321.275	609.25
321.504	608.25
321.733	606.25
321.962	610.25
322.191	620.25
322.42	611.25
322.649	612.25
322.878	603.25
323.108	626.25
323.337	605.25
323.566	642.25
323.795	625.25
324.024	637.25
324.253	627.25
324.482	624.25
324.71	628.25
324.939	640.25
325.168	611.25
325.397	618.25
325.626	629.25
325.855	642.25
326.084	676.25
326.313	656.25
326.542	656.25
326.77	681.25
326.999	664.25
327.228	668.25
327.457	651.25
327.686	654.25
327.914	645.25
328.143	650.25
328.372	651.25
328.6	650.25
328.829	670.25
329.058	662.25
329.287	668.25
329.515	679.25
329.744	664.25
329.972	681.25
330.201	654.25
330.43	648.25
330.658	692.25
330.887	672.25
331.115	680.25
331.344	705.25
331.572	716.25
331.801	728.25
332.03	705.25
332.258	733.25
332.486	728.25
332.715	751.25
332.943	788.25
333.172	788.25
333.4	834.25
333.629	844.25
333.857	842.25
334.085	847.25
334.314	826.25
334.542	822.25
334.771	809.25
334.999	815.25
335.227	825.25
335.455	821.25
335.684	824.25
335.912	823.25
336.14	822.25
336.369	774.25
336.597	775.25
336.825	806.25
337.053	798.25
337.281	800.25
337.51	770.25
337.738	769.25
337.966	737.25
338.194	727.25
338.422	733.25
338.65	713.25
338.878	756.25
339.106	712.25
339.334	732.25
339.562	729.25
339.79	706.25
340.018	685.25
340.246	707.25
340.474	705.25
340.702	688.25
340.93	681.25
341.158	692.25
341.386	704.25
341.614	744.25
341.842	728.25
342.07	696.25
342.298	692.25
342.526	706.25
342.754	718.25
342.981	707.25
343.209	681.25
343.437	715.25
343.665	780.25
343.893	795.25
344.12	791.25
344.348	794.25
344.576	747.25
344.804	749.25
345.031	728.25
345.259	704.25
345.487	708.25
345.714	722.25
345.942	730.25
346.17	722.25
346.397	706.25
346.625	678.25
346.853	710.25
347.08	649.25
347.308	670.25
347.535	698.25
347.763	658.25
347.99	673.25
348.218	686.25
348.445	681.25
348.673	659.25
348.9	636.25
349.128	658.25
349.355	690.25
349.583	689.25
349.81	646.25
350.037	644.25
350.265	650.25
350.492	632.25
350.72	672.25
350.947	647.25
351.174	658.25
351.402	668.25
351.629	666.25
351.856	656.25
352.083	621.25
352.311	663.25
352.538	670.25
352.765	646.25
352.992	648.25
353.22	624.25
353.447	624.25
353.674	612.25
353.901	618.25
354.128	632.25
354.355	620.25
354.583	614.25
354.81	635.25
355.037	620.25
355.264	646.25
355.491	622.25
355.718	635.25
355.945	640.25
356.172	638.25
356.399	646.25
356.626	652.25
356.853	663.25
357.08	665.25
357.307	654.25
357.534	642.25
357.761	651.25
357.988	660.25
358.215	651.25
358.441	616.25
358.668	600.25
358.895	630.25
359.122	637.25
359.349	627.25
359.576	656.25
359.802	654.25
360.029	665.25
360.256	643.25
360.483	640.25
360.709	631.25
360.936	646.25
361.163	630.25
361.39	603.25
361.616	629.25
361.843	673.25
362.07	666.25
362.296	666.25
362.523	629.25
362.749	644.25
362.976	630.25
363.203	619.25
363.429	632.25
363.656	635.25
363.882	621.25
364.109	596.25
364.335	610.25
364.562	625.25
364.788	629.25
365.015	626.25
365.241	621.25
365.468	644.25
365.694	619.25
365.92	632.25
366.147	615.25
366.373	630.25
366.599	592.25
366.826	591.25
367.052	599.25
367.278	637.25
367.505	634.25
367.731	630.25
367.957	627.25
368.184	641.25
368.41	635.25
368.636	626.25
368.862	652.25
369.089	643.25
369.315	642.25
369.541	643.25
369.767	647.25
369.993	656.25
370.219	634.25
370.445	662.25
370.672	663.25
370.898	664.25
371.124	642.25
371.35	654.25
371.576	651.25
371.802	679.25
372.028	677.25
372.254	680.25
372.48	679.25
372.706	694.25
372.932	700.25
373.158	695.25
373.384	673.25
373.61	672.25
373.835	686.25
374.061	658.25
374.287	666.25
374.513	670.25
374.739	694.25
374.965	716.25
375.191	705.25
375.416	760.25
375.642	690.25
375.868	722.25
376.094	696.25
376.319	708.25
376.545	669.25
376.771	674.25
376.997	648.25
377.222	664.25
377.448	659.25
377.674	668.25
377.899	642.25
378.125	654.25
378.35	672.25
378.576	656.25
378.802	652.25
379.027	650.25
379.253	655.25
379.478	651.25
379.704	678.25
379.929	652.25
380.155	646.25
380.38	642.25
380.606	673.25
380.831	649.25
381.057	669.25
381.282	653.25
381.507	672.25
381.733	661.25
381.958	638.25
382.184	685.25
382.409	680.25
382.634	681.25
382.86	675.25
383.085	694.25
383.31	678.25
383.535	723.25
383.761	704.25
383.986	709.25
384.211	716.25
384.436	722.25
384.662	730.25
384.887	755.25
385.112	776.25
385.337	778.25
385.562	774.25
385.787	755.25
386.013	773.25
386.238	788.25
386.463	779.25
386.688	760.25
386.913	762.25
387.138	775.25
387.363	750.25
387.588	762.25
387.813	756.25
388.038	758.25
388.263	741.25
388.488	740.25
388.713	758.25
388.938	746.25
389.163	764.25
389.387	802.25
389.612	778.25
389.837	779.25
390.062	762.25
390.287	796.25
390.512	743.25
390.736	741.25
390.961	774.25
391.186	816.25
391.411	813.25
391.636	819.25
391.86	837.25
392.085	875.25
392.31	843.25
392.534	846.25
392.759	839.25
392.984	816.25
393.208	793.25
393.433	824.25
393.658	822.25
393.882	822.25
394.107	834.25
394.331	844.25
394.556	829.25
394.78	837.25
395.005	847.25
395.229	820.25
395.454	862.25
395.678	884.25
395.903	862.25
396.127	838.25
396.352	842.25
396.576	820.25
396.801	832.25
397.025	846.25
397.249	843.25
397.474	868.25
397.698	862.25
397.922	880.25
398.147	888.25
398.371	919.25
398.595	898.25
398.82	916.25
399.044	964.25
399.268	1101.25
399.492	1205.25
399.717	1282.25
399.941	1305.25
400.165	1204.25
400.389	1138.25
400.613	1081.25
400.837	996.25
401.062	998.25
401.286	963.25
401.51	970.25
401.734	943.25
401.958	970.25
402.182	974.25
402.406	980.25
402.63	962.25
402.854	990.25
403.078	1024.25
403.302	1040.25
403.526	1028.25
403.75	1049.25
403.974	1062.25
404.198	1066.25
404.422	1079.25
404.645	1060.25
404.869	1032.25
405.093	1027.25
405.317	1021.25
405.541	1034.25
405.765	1045.25
405.988	1027.25
406.212	1016.25
406.436	1066.25
406.66	1074.25
406.883	1104.25
407.107	1167.25
407.331	1178.25
407.555	1190.25
407.778	1178.25
408.002	1163.25
408.226	1140.25
408.449	1156.25
408.673	1110.25
408.896	1076.25
409.12	1090.25
409.344	1112.25
409.567	1094.25
409.791	1108.25
410.014	1092.25
410.238	1053.25
410.461	1082.25
410.685	1052.25
410.908	1042.25
411.132	1026.25
411.355	997.25
411.578	1026.25
411.802	1012.25
412.025	997.25
412.249	1022.25
412.472	1028.25
412.695	993.25
412.919	982.25
413.142	984.25
413.365	979.25
413.589	1021.25
413.812	962.25
414.035	960.25
414.258	948.25
414.482	957.25
414.705	963.25
414.928	961.25
415.151	967.25
415.374	973.25
415.597	968.25
415.821	951.25
416.044	951.25
416.267	958.25
416.49	937.25
416.713	966.25
416.936	964.25
417.159	956.25
417.382	940.25
417.605	930.25
417.828	953.25
418.051	973.25
418.274	955.25
418.497	965.25
418.72	931.25
418.943	977.25
419.166	1029.25
419.389	1083.25
419.611	1090.25
419.834	1029.25
420.057	1034.25
420.28	976.25
420.503	953.25
420.726	952.25
420.948	965.25
421.171	952.25
421.394	930.25
421.617	949.25
421.839	961.25
422.062	982.25
422.285	949.25
422.507	984.25
422.73	987.25
422.953	994.25
423.175	967.25
423.398	995.25
423.621	982.25
423.843	1003.25
424.066	994.25
424.288	1040.25
424.511	1006.25
424.733	1007.25
424.956	992.25
425.178	952.25
425.401	958.25
425.623	973.25
425.846	971.25
426.068	934.25
426.291	967.25
426.513	938.25
426.735	931.25
426.958	929.25
427.18	905.25
427.402	901.25
427.625	922.25
427.847	893.25
428.069	888.25
428.292	896.25
428.514	896.25
428.736	888.25
428.958	904.25
429.181	853.25
429.403	886.25
429.625	889.25
429.847	898.25
430.069	880.25
430.292	876.25
430.514	878.25
430.736	896.25
430.958	894.25
431.18	883.25
431.402	902.25
431.624	892.25
431.846	904.25
432.068	920.25
432.29	924.25
432.512	904.25
432.734	918.25
432.956	904.25
433.178	910.25
433.4	931.25
433.622	886.25
433.844	896.25
434.066	922.25
434.287	919.25
434.509	948.25
434.731	993.25
434.953	934.25
435.175	972.25
435.397	986.25
435.618	943.25
435.84	932.25
436.062	936.25
436.284	917.25
436.505	891.25
436.727	914.25
436.949	926.25
437.17	902.25
437.392	892.25
437.614	880.25
437.835	878.25
438.057	877.25
438.278	872.25
438.5	872.25
438.721	893.25
438.943	882.25
439.165	861.25
439.386	860.25
439.608	901.25
439.829	933.25
440.05	920.25
440.272	926.25
440.493	910.25
440.715	934.25
440.936	974.25
441.158	922.25
441.379	958.25
441.6	1000.25
441.822	992.25
442.043	990.25
442.264	963.25
442.486	959.25
442.707	972.25
442.928	963.25
443.149	996.25
443.371	978.25
443.592	1018.25
443.813	995.25
444.034	1024.25
444.255	1049.25
444.476	1070.25
444.698	1127.25
444.919	1136.25
445.14	1241.25
445.361	1141.25
445.582	1051.25
445.803	1018.25
446.024	970.25
446.245	965.25
446.466	939.25
446.687	908.25
446.908	915.25
447.129	904.25
447.35	902.25
447.571	889.25
447.792	895.25
448.013	893.25
448.234	868.25
448.455	882.25
448.675	856.25
448.896	867.25
449.117	857.25
449.338	837.25
449.559	856.25
449.779	852.25
450	844.25
450.221	867.25
450.442	869.25
450.662	832.25
450.883	860.25
451.104	874.25
451.324	865.25
451.545	874.25
451.766	873.25
451.986	846.25
452.207	861.25
452.428	873.25
452.648	826.25
452.869	844.25
453.089	809.25
453.31	846.25
453.53	813.25
453.751	834.25
453.971	824.25
454.192	830.25
454.412	824.25
454.633	788.25
454.853	792.25
455.073	808.25
455.294	816.25
455.514	786.25
455.734	791.25
455.955	793.25
456.175	806.25
456.395	809.25
456.616	799.25
456.836	788.25
457.056	796.25
457.276	787.25
457.497	791.25
457.717	818.25
457.937	820.25
458.157	809.25
458.377	862.25
458.598	833.25
458.818	881.25
459.038	871.25
459.258	887.25
459.478	894.25
459.698	985.25
459.918	958.25
460.138	985.25
460.358	1056.25
460.578	1056.25
460.798	1057.25
461.018	1061.25
461.238	1061.25
461.458	1063.25
461.678	1061.25
461.898	1070.25
462.118	1046.25
462.338	1139.25
462.558	1142.25
462.777	1196.25
462.997	1268.25
463.217	1342.25
463.437	1337.25
463.657	1273.25
463.876	1226.25
464.096	1197.25
464.316	1193.25
464.536	1177.25
464.755	1161.25
464.975	1094.25
465.195	1104.25
465.414	1051.25
465.634	985.25
465.854	958.25
466.073	928.25
466.293	948.25
466.512	899.25
466.732	900.25
466.951	891.25
467.171	890.25
467.391	903.25
467.61	895.25
467.829	892.25
468.049	852.25
468.268	874.25
468.488	873.25
468.707	849.25
468.927	859.25
469.146	888.25
469.365	902.25
469.585	891.25
469.804	892.25
470.023	921.25
470.243	896.25
470.462	922.25
470.681	918.25
470.901	933.25
471.12	902.25
471.339	902.25
471.558	901.25
471.777	897.25
471.997	880.25
472.216	895.25
472.435	876.25
472.654	866.25
472.873	854.25
473.092	840.25
473.311	876.25
473.53	838.25
473.749	862.25
473.968	860.25
474.187	844.25
474.406	865.25
474.625	858.25
474.844	858.25
475.063	884.25
475.282	884.25
475.501	874.25
475.72	864.25
475.939	876.25
476.158	889.25
476.377	939.25
476.596	926.25
476.814	894.25
477.033	894.25
477.252	929.25
477.471	934.25
477.69	957.25
477.908	982.25
478.127	1001.25
478.346	997.25
478.564	999.25
478.783	1015.25
479.002	1025.25
479.22	1105.25
479.439	1044.25
479.658	1069.25
479.876	1042.25
480.095	1067.25
480.313	1072.25
480.532	1081.25
480.751	1101.25
480.969	1067.25
481.188	1026.25
481.406	1006.25
481.624	1006.25
481.843	991.25
482.061	982.25
482.28	987.25
482.498	988.25
482.717	983.25
482.935	984.25
483.153	1001.25
483.372	995.25
483.59	987.25
483.808	973.25
484.027	973.25
484.245	1003.25
484.463	984.25
484.681	1015.25
484.9	1026.25
485.118	1025.25
485.336	1005.25
485.554	1042.25
485.772	996.25
485.99	1032.25
486.209	1025.25
486.427	1024.25
486.645	1051.25
486.863	1034.25
487.081	1025.25
487.299	1024.25
487.517	1045.25
487.735	1017.25
487.953	1052.25
488.171	1041.25
488.389	1052.25
488.607	1032.25
488.825	1005.25
489.043	995.25
489.261	1026.25
489.479	1021.25
489.696	1025.25
489.914	1035.25
490.132	1015.25
490.35	1027.25
490.568	1038.25
490.786	1045.25
491.003	1062.25
491.221	1024.25
491.439	1048.25
491.657	1060.25
491.874	1063.25
492.092	1084.25
492.31	1089.25
492.527	1102.25
492.745	1094.25
492.963	1075.25
493.18	1073.25
493.398	1081.25
493.615	1091.25
493.833	1057.25
494.05	1077.25
494.268	1108.25
494.485	1111.25
494.703	1150.25
494.92	1116.25
495.138	1107.25
495.355	1099.25
495.573	1125.25
495.79	1124.25
496.008	1125.25
496.225	1118.25
496.442	1146.25
496.66	1151.25
496.877	1182.25
497.094	1191.25
497.312	1202.25
497.529	1242.25
497.746	1245.25
497.963	1297.25
498.181	1341.25
498.398	1356.25
498.615	1443.25
498.832	1487.25
499.049	1626.25
499.267	1721.25
499.484	1828.25
499.701	1996.25
499.918	2164.25
500.135	2395.25
500.352	2656.25
500.569	2698.25
500.786	2642.25
501.003	2531.25
501.22	2344.25
501.437	2158.25
501.654	1913.25
501.871	1776.25
502.088	1706.25
502.305	1617.25
502.522	1501.25
502.739	1482.25
502.956	1436.25
503.172	1360.25
503.389	1303.25
503.606	1277.25
503.823	1240.25
504.04	1216.25
504.256	1249.25
504.473	1250.25
504.69	1255.25
504.907	1222.25
505.123	1176.25
505.34	1150.25
505.557	1127.25
505.773	1052.25
505.99	1082.25
506.207	1023.25
506.423	1021.25
506.64	1016.25
506.856	1003.25
507.073	984.25
507.289	998.25
507.506	973.25
507.722	964.25
507.939	969.25
508.155	965.25
508.372	935.25
508.588	957.25
508.805	952.25
509.021	939.25
509.238	902.25
509.454	908.25
509.67	896.25
509.887	888.25
510.103	909.25
510.319	911.25
510.536	886.25
510.752	855.25
510.968	880.25
511.184	892.25
511.401	888.25
511.617	873.25
511.833	870.25
512.049	889.25
512.265	877.25
512.481	863.25
512.698	859.25
512.914	859.25
513.13	891.25
513.346	868.25
513.562	886.25
513.778	869.25
513.994	902.25
514.21	864.25
514.426	910.25
514.642	890.25
514.858	900.25
515.074	932.25
515.29	915.25
515.506	890.25
515.721	924.25
515.937	917.25
516.153	957.25
516.369	962.25
516.585	977.25
516.801	982.25
517.016	1022.25
517.232	1069.25
517.448	1091.25
517.664	1095.25
517.879	1143.25
518.095	1115.25
518.311	1115.25
518.527	1083.25
518.742	1058.25
518.958	1013.25
519.173	1003.25
519.389	972.25
519.605	955.25
519.82	912.25
520.036	938.25
520.251	908.25
520.467	902.25
520.682	872.25
520.898	854.25
521.113	853.25
521.329	855.25
521.544	862.25
521.76	870.25
521.975	845.25
522.19	834.25
522.406	828.25
522.621	812.25
522.836	824.25
523.052	828.25
523.267	829.25
523.482	840.25
523.698	796.25
523.913	804.25
524.128	832.25
524.343	805.25
524.559	813.25
524.774	812.25
524.989	822.25
525.204	830.25
525.419	811.25
525.634	802.25
525.849	818.25
526.064	782.25
526.28	772.25
526.495	776.25
526.71	772.25
526.925	778.25
527.14	779.25
527.355	792.25
527.57	796.25
527.785	786.25
527.999	786.25
528.214	786.25
528.429	758.25
528.644	797.25
528.859	782.25
529.074	801.25
529.289	771.25
529.503	786.25
529.718	794.25
529.933	795.25
530.148	811.25
530.363	790.25
530.577	782.25
530.792	792.25
531.007	768.25
531.221	770.25
531.436	791.25
531.651	782.25
531.865	756.25
532.08	785.25
532.295	770.25
532.509	755.25
532.724	772.25
532.938	803.25
533.153	774.25
533.367	757.25
533.582	772.25
533.796	777.25
534.011	738.25
534.225	758.25
534.44	736.25
534.654	730.25
534.868	725.25
535.083	760.25
535.297	739.25
535.511	754.25
535.726	730.25
535.94	739.25
536.154	737.25
536.369	730.25
536.583	723.25
536.797	733.25
537.011	768.25
537.225	715.25
537.44	709.25
537.654	698.25
537.868	704.25
538.082	714.25
538.296	696.25
538.51	705.25
538.724	713.25
538.938	700.25
539.153	717.25
539.367	703.25
539.581	708.25
539.795	697.25
540.009	700.25
540.222	688.25
540.436	714.25
540.65	701.25
540.864	717.25
541.078	692.25
541.292	703.25
541.506	731.25
541.72	693.25
541.934	727.25
542.147	720.25
542.361	733.25
542.575	718.25
542.789	705.25
543.002	680.25
543.216	696.25
543.43	690.25
543.644	686.25
543.857	684.25
544.071	718.25
544.285	723.25
544.498	714.25
544.712	714.25
544.925	728.25
545.139	691.25
545.352	710.25
545.566	716.25
545.779	724.25
545.993	713.25
546.206	733.25
546.42	735.25
546.633	733.25
546.847	706.25
547.06	740.25
547.274	723.25
547.487	736.25
547.7	745.25
547.914	739.25
548.127	726.25
548.34	720.25
548.554	718.25
548.767	724.25
548.98	717.25
549.193	742.25
549.407	739.25
549.62	713.25
549.833	741.25
550.046	725.25
550.259	722.25
550.473	676.25
550.686	712.25
550.899	712.25
551.112	698.25
551.325	701.25
551.538	698.25
551.751	695.25
551.964	704.25
552.177	721.25
552.39	715.25
552.603	743.25
552.816	745.25
553.029	771.25
553.242	746.25
553.455	772.25
553.667	762.25
553.88	748.25
554.093	754.25
554.306	740.25
554.519	719.25
554.732	686.25
554.944	712.25
555.157	695.25
555.37	682.25
555.583	699.25
555.795	660.25
556.008	647.25
556.221	653.25
556.433	610.25
556.646	620.25
556.859	614.25
557.071	619.25
557.284	649.25
557.496	637.25
557.709	644.25
557.921	627.25
558.134	633.25
558.346	606.25
558.559	609.25
558.771	611.25
558.984	601.25
559.196	605.25
559.409	592.25
559.621	612.25
559.833	621.25
560.046	598.25
560.258	590.25
560.47	610.25
560.683	575.25
560.895	604.25
561.107	608.25
561.32	592.25
561.532	603.25
561.744	610.25
561.956	618.25
562.168	600.25
562.381	577.25
562.593	585.25
562.805	584.25
563.017	616.25
563.229	598.25
563.441	589.25
563.653	615.25
563.865	606.25
564.077	603.25
564.289	600.25
564.501	633.25
564.713	644.25
564.925	638.25
565.137	632.25
565.349	669.25
565.561	689.25
565.773	682.25
565.985	696.25
566.197	763.25
566.408	778.25
566.62	827.25
566.832	844.25
567.044	877.25
567.255	868.25
567.467	884.25
567.679	907.25
567.891	956.25
568.102	955.25
568.314	928.25
568.526	859.25
568.737	835.25
568.949	782.25
569.161	709.25
569.372	660.25
569.584	652.25
569.795	627.25
570.007	611.25
570.218	608.25
570.43	613.25
570.641	588.25
570.853	580.25
571.064	600.25
571.276	611.25
571.487	599.25
571.698	533.25
571.91	562.25
572.121	571.25
572.333	543.25
572.544	522.25
572.755	521.25
572.966	512.25
573.178	498.25
573.389	505.25
573.6	486.25
573.811	504.25
574.023	483.25
574.234	488.25
574.445	475.25
574.656	462.25
574.867	477.25
575.078	468.25
575.289	500.25
575.501	470.25
575.712	452.25
575.923	458.25
576.134	452.25
576.345	468.25
576.556	448.25
576.767	464.25
576.978	436.25
577.188	469.25
577.399	463.25
577.61	454.25
577.821	457.25
578.032	425.25
578.243	455.25
578.454	441.25
578.665	418.25
578.875	411.25
579.086	454.25
579.297	439.25
579.508	426.25
579.718	417.25
579.929	437.25
580.14	420.25
580.35	414.25
580.561	429.25
580.772	422.25
580.982	421.25
581.193	398.25
581.403	405.25
581.614	402.25
581.825	390.25
582.035	424.25
582.246	418.25
582.456	424.25
582.667	400.25
582.877	412.25
583.087	416.25
583.298	404.25
583.508	417.25
583.719	385.25
583.929	413.25
584.139	399.25
584.35	413.25
584.56	407.25
584.77	388.25
584.981	402.25
585.191	397.25
585.401	374.25
585.611	389.25
585.821	388.25
586.032	381.25
586.242	366.25
586.452	380.25
586.662	396.25
586.872	361.25
587.082	378.25
587.292	393.25
587.502	388.25
587.713	392.25
587.923	400.25
588.133	392.25
588.343	393.25
588.553	391.25
588.762	397.25
588.972	404.25
589.182	427.25
589.392	442.25
589.602	389.25
589.812	430.25
590.022	417.25
590.232	364.25
590.441	396.25
590.651	392.25
590.861	385.25
591.071	381.25
591.281	393.25
591.49	393.25
591.7	406.25
591.91	420.25
592.119	409.25
592.329	410.25
592.539	411.25
592.748	445.25
592.958	447.25
593.167	467.25
593.377	461.25
593.587	458.25
593.796	454.25
594.006	456.25
594.215	461.25
594.424	458.25
594.634	435.25
594.843	454.25
595.053	435.25
595.262	418.25
595.472	411.25
595.681	396.25
595.89	380.25
596.1	385.25
596.309	368.25
596.518	371.25
596.727	361.25
596.937	364.25
597.146	365.25
597.355	369.25
597.564	340.25
597.774	369.25
597.983	349.25
598.192	355.25
598.401	337.25
598.61	347.25
598.819	350.25
599.028	356.25
599.237	338.25
599.446	329.25
599.655	332.25
599.864	310.25
600.073	336.25
600.282	321.25
600.491	315.25
600.7	324.25
600.909	329.25
601.118	334.25
601.327	326.25
601.536	332.25
601.745	317.25
601.953	316.25
602.162	315.25
602.371	312.25
602.58	312.25
602.789	295.25
602.997	300.25
603.206	304.25
603.415	308.25
603.623	325.25
603.832	327.25
604.041	308.25
604.249	302.25
604.458	324.25
604.666	299.25
604.875	303.25
605.084	324.25
605.292	297.25
605.501	289.25
605.709	315.25
605.918	308.25
606.126	313.25
606.334	278.25
606.543	293.25
606.751	306.25
606.96	294.25
607.168	302.25
607.376	287.25
607.585	292.25
607.793	307.25
608.001	306.25
608.21	283.25
608.418	278.25
608.626	292.25
608.834	280.25
609.043	300.25
609.251	296.25
609.459	276.25
609.667	294.25
609.875	281.25
610.083	263.25
610.291	299.25
610.499	284.25
610.707	296.25
610.916	307.25
611.124	274.25
611.332	275.25
611.54	287.25
611.748	274.25
611.955	301.25
612.163	291.25
612.371	278.25
612.579	290.25
612.787	289.25
612.995	286.25
613.203	288.25
613.411	284.25
613.618	283.25
613.826	276.25
614.034	283.25
614.242	269.25
614.449	314.25
614.657	270.25
614.865	286.25
615.072	254.25
615.28	279.25
615.488	281.25
615.695	286.25
615.903	279.25
616.111	269.25
616.318	274.25
616.526	272.25
616.733	272.25
616.941	281.25
617.148	277.25
617.356	283.25
617.563	283.25
617.771	268.25
617.978	246.25
618.185	270.25
618.393	271.25
618.6	283.25
618.807	274.25
619.015	268.25
619.222	270.25
619.429	269.25
619.637	256.25
619.844	270.25
620.051	251.25
620.258	269.25
620.466	261.25
620.673	252.25
620.88	256.25
621.087	258.25
621.294	269.25
621.501	263.25
621.708	261.25
621.915	249.25
622.122	268.25
622.329	246.25
622.536	264.25
622.743	264.25
622.95	260.25
623.157	240.25
623.364	251.25
623.571	235.25
623.778	246.25
623.985	253.25
624.192	240.25
624.399	233.25
624.606	225.25
624.812	243.25
625.019	256.25
625.226	249.25
625.433	239.25
625.639	246.25
625.846	237.25
626.053	232.25
626.259	233.25
626.466	244.25
626.673	240.25
626.879	213.25
627.086	238.25
627.293	236.25
627.499	229.25
627.706	232.25
627.912	240.25
628.119	226.25
628.325	232.25
628.532	220.25
628.738	222.25
628.945	223.25
629.151	212.25
629.357	220.25
629.564	233.25
629.77	236.25
629.976	230.25
630.183	215.25
630.389	228.25
630.595	206.25
630.802	230.25
631.008	208.25
631.214	228.25
631.42	224.25
631.627	223.25
631.833	208.25
632.039	219.25
632.245	204.25
632.451	229.25
632.657	226.25
632.863	233.25
633.069	207.25
633.275	206.25
633.481	196.25
633.688	206.25
633.893	205.25
634.099	209.25
634.305	216.25
634.511	193.25
634.717	205.25
634.923	206.25
635.129	207.25
635.335	212.25
635.541	204.25
635.747	208.25
635.952	204.25
636.158	208.25
636.364	216.25
636.57	197.25
636.775	200.25
636.981	212.25
637.187	197.25
637.392	197.25
637.598	198.25
637.804	205.25
638.009	184.25
638.215	204.25
638.421	207.25
638.626	205.25
638.832	201.25
639.037	179.25
639.243	193.25
639.448	197.25
639.654	192.25
639.859	190.25
640.065	199.25
640.27	206.25
640.475	212.25
640.681	178.25
640.886	189.25
641.091	193.25
641.297	197.25
641.502	193.25
641.707	171.25
641.913	193.25
642.118	171.25
642.323	175.25
642.528	176.25
642.733	196.25
642.939	198.25
643.144	178.25
643.349	196.25
643.554	187.25
643.759	186.25
643.964	186.25
644.169	179.25
644.374	180.25
644.579	201.25
644.784	197.25
644.989	169.25
645.194	187.25
645.399	187.25
645.604	190.25
645.809	187.25
646.014	192.25
646.219	196.25
646.423	176.25
646.628	184.25
646.833	172.25
647.038	192.25
647.243	157.25
647.447	204.25
647.652	189.25
647.857	174.25
648.062	190.25
648.266	183.25
648.471	186.25
648.676	188.25
648.88	191.25
649.085	176.25
649.289	178.25
649.494	187.25
649.698	182.25
649.903	161.25
650.107	181.25
650.312	194.25
650.516	167.25
650.721	172.25
650.925	174.25
651.13	164.25
651.334	177.25
651.539	173.25
651.743	171.25
651.947	152.25
652.152	169.25
652.356	156.25
652.56	177.25
652.764	162.25
652.969	150.25
653.173	146.25
653.377	140.25
653.581	159.25
653.785	136.25
653.99	164.25
654.194	156.25
654.398	140.25
654.602	164.25
654.806	133.25
655.01	154.25
655.214	135.25
655.418	143.25
655.622	138.25
655.826	141.25
656.03	139.25
656.234	133.25
656.438	141.25
656.642	145.25
656.846	128.25
657.049	128.25
657.253	139.25
657.457	125.25
657.661	116.25
657.865	126.25
658.068	139.25
658.272	104.25
658.476	114.25
658.68	109.25
658.883	100.25
659.087	109.25
659.291	95.25
659.494	105.25
659.698	110.25
659.901	96.25
660.105	111.25
660.309	102.25
660.512	102.25
660.716	101.25
660.919	100.25
661.123	98.25
661.326	104.25
661.53	83.25
661.733	75.25
661.936	95.25
662.14	92.25
662.343	86.25
662.546	82.25
662.75	84.25
662.953	90.25
663.156	98.25
663.36	77.25
663.563	81.25
663.766	89.25
663.969	62.25
664.173	72.25
664.376	96.25
664.579	86.25
664.782	73.25
664.985	87.25
665.188	76.25
665.391	81.25
665.594	88.25
665.797	90.25
666	74.25
666.203	88.25
666.406	84.25
666.609	75.25
666.812	78.25
667.015	85.25
667.218	92.25
667.421	88.25
667.624	95.25
667.827	83.25
668.03	79.25
668.232	77.25
668.435	76.25
668.638	91.25
668.841	93.25
669.043	89.25
669.246	83.25
669.449	82.25
669.651	108.25
669.854	71.25
670.057	78.25
670.259	79.25
670.462	78.25
670.665	93.25
670.867	94.25
671.07	74.25
671.272	88.25
671.475	78.25
671.677	80.25
671.88	84.25
672.082	81.25
672.284	66.25
672.487	80.25
672.689	88.25
672.892	98.25
