Data from NiCl2@0.5M.TitratingCurve.Agarose3%dH2O.NegLispCup.LampEnergy10.LIBS07252019_HRD10591_18-20-07-573.txt Node
Date: Thu Jul 25 18:20:07 EDT 2019
User: cochatt
Spectrometer: HR+D1059
Trigger mode: 1
Integration Time (sec): 1.000000E-1
Scans to average: 1
Electric dark correction enabled: true
Nonlinearity correction enabled: false
Boxcar width: 0
XAxis mode: Wavelengths
Number of Pixels in Spectrum: 2048
>>>>>Begin Spectral Data<<<<<
223.165	-10.25
223.4	-10.25
223.635	-10.25
223.869	-6.25
224.104	-24.25
224.338	-21.25
224.573	-21.25
224.808	-4.25
225.042	-4.25
225.277	-10.25
225.511	-0.25
225.746	5.75
225.98	10.75
226.215	1.75
226.449	11.75
226.683	14.75
226.918	21.75
227.152	35.75
227.387	16.75
227.621	39.75
227.856	43.75
228.09	47.75
228.324	46.75
228.559	54.75
228.793	63.75
229.027	75.75
229.262	101.75
229.496	120.75
229.73	99.75
229.964	99.75
230.199	118.75
230.433	127.75
230.667	116.75
230.901	137.75
231.136	134.75
231.37	122.75
231.604	146.75
231.838	140.75
232.072	149.75
232.306	141.75
232.541	134.75
232.775	143.75
233.009	135.75
233.243	132.75
233.477	128.75
233.711	136.75
233.945	139.75
234.179	138.75
234.413	141.75
234.647	137.75
234.881	145.75
235.115	149.75
235.349	139.75
235.583	145.75
235.817	147.75
236.051	132.75
236.285	144.75
236.519	152.75
236.753	146.75
236.987	144.75
237.221	152.75
237.455	143.75
237.689	139.75
237.922	153.75
238.156	183.75
238.39	160.75
238.624	146.75
238.858	176.75
239.091	156.75
239.325	155.75
239.559	166.75
239.793	161.75
240.027	171.75
240.26	173.75
240.494	159.75
240.728	152.75
240.961	155.75
241.195	169.75
241.429	177.75
241.662	176.75
241.896	202.75
242.13	186.75
242.363	185.75
242.597	187.75
242.83	173.75
243.064	170.75
243.298	180.75
243.531	191.75
243.765	163.75
243.998	189.75
244.232	179.75
244.465	184.75
244.699	189.75
244.932	183.75
245.166	199.75
245.399	197.75
245.633	185.75
245.866	199.75
246.099	209.75
246.333	195.75
246.566	212.75
246.8	198.75
247.033	204.75
247.266	187.75
247.5	208.75
247.733	208.75
247.966	205.75
248.2	241.75
248.433	218.75
248.666	225.75
248.899	205.75
249.133	212.75
249.366	230.75
249.599	239.75
249.832	230.75
250.066	239.75
250.299	237.75
250.532	234.75
250.765	227.75
250.998	229.75
251.231	237.75
251.465	232.75
251.698	228.75
251.931	223.75
252.164	245.75
252.397	270.75
252.63	258.75
252.863	247.75
253.096	263.75
253.329	246.75
253.562	245.75
253.795	253.75
254.028	247.75
254.261	249.75
254.494	236.75
254.727	267.75
254.96	275.75
255.193	259.75
255.426	255.75
255.659	248.75
255.892	279.75
256.124	259.75
256.357	266.75
256.59	250.75
256.823	266.75
257.056	260.75
257.289	275.75
257.521	279.75
257.754	271.75
257.987	261.75
258.22	293.75
258.452	268.75
258.685	280.75
258.918	282.75
259.151	279.75
259.383	274.75
259.616	270.75
259.849	296.75
260.081	269.75
260.314	296.75
260.547	288.75
260.779	283.75
261.012	291.75
261.244	284.75
261.477	278.75
261.71	300.75
261.942	273.75
262.175	303.75
262.407	285.75
262.64	295.75
262.872	320.75
263.105	317.75
263.337	322.75
263.57	303.75
263.802	297.75
264.035	310.75
264.267	301.75
264.499	333.75
264.732	308.75
264.964	310.75
265.197	316.75
265.429	317.75
265.661	318.75
265.894	317.75
266.126	317.75
266.358	333.75
266.591	310.75
266.823	329.75
267.055	311.75
267.287	339.75
267.52	336.75
267.752	336.75
267.984	324.75
268.216	335.75
268.448	327.75
268.681	330.75
268.913	315.75
269.145	340.75
269.377	349.75
269.609	348.75
269.841	353.75
270.073	337.75
270.306	320.75
270.538	354.75
270.77	333.75
271.002	343.75
271.234	348.75
271.466	337.75
271.698	363.75
271.93	344.75
272.162	346.75
272.394	356.75
272.626	351.75
272.858	360.75
273.09	369.75
273.322	371.75
273.553	360.75
273.785	364.75
274.017	352.75
274.249	368.75
274.481	345.75
274.713	385.75
274.945	363.75
275.176	379.75
275.408	363.75
275.64	372.75
275.872	359.75
276.104	383.75
276.335	379.75
276.567	363.75
276.799	378.75
277.031	383.75
277.262	393.75
277.494	386.75
277.726	383.75
277.957	376.75
278.189	405.75
278.421	391.75
278.652	379.75
278.884	391.75
279.115	393.75
279.347	424.75
279.579	390.75
279.81	392.75
280.042	398.75
280.273	393.75
280.505	411.75
280.736	413.75
280.968	393.75
281.199	415.75
281.431	418.75
281.662	428.75
281.894	416.75
282.125	404.75
282.356	411.75
282.588	417.75
282.819	409.75
283.051	422.75
283.282	417.75
283.513	461.75
283.745	441.75
283.976	439.75
284.207	442.75
284.439	441.75
284.67	463.75
284.901	450.75
285.132	425.75
285.364	444.75
285.595	459.75
285.826	450.75
286.057	453.75
286.288	449.75
286.52	439.75
286.751	459.75
286.982	466.75
287.213	453.75
287.444	463.75
287.675	447.75
287.906	434.75
288.138	449.75
288.369	465.75
288.6	456.75
288.831	427.75
289.062	463.75
289.293	460.75
289.524	465.75
289.755	462.75
289.986	467.75
290.217	479.75
290.448	468.75
290.679	451.75
290.91	470.75
291.141	462.75
291.371	460.75
291.602	466.75
291.833	473.75
292.064	471.75
292.295	480.75
292.526	473.75
292.757	464.75
292.987	466.75
293.218	463.75
293.449	467.75
293.68	478.75
293.91	485.75
294.141	473.75
294.372	484.75
294.603	493.75
294.833	492.75
295.064	491.75
295.295	472.75
295.525	508.75
295.756	508.75
295.987	484.75
296.217	520.75
296.448	492.75
296.679	497.75
296.909	468.75
297.14	514.75
297.37	507.75
297.601	508.75
297.831	516.75
298.062	530.75
298.292	529.75
298.523	551.75
298.753	529.75
298.984	523.75
299.214	519.75
299.445	505.75
299.675	529.75
299.905	533.75
300.136	539.75
300.366	548.75
300.597	533.75
300.827	544.75
301.057	535.75
301.288	530.75
301.518	566.75
301.748	578.75
301.979	563.75
302.209	547.75
302.439	545.75
302.669	559.75
302.9	567.75
303.13	549.75
303.36	547.75
303.59	563.75
303.82	552.75
304.051	538.75
304.281	550.75
304.511	576.75
304.741	565.75
304.971	572.75
305.201	555.75
305.431	568.75
305.661	563.75
305.891	553.75
306.121	545.75
306.352	552.75
306.582	523.75
306.812	530.75
307.042	520.75
307.272	548.75
307.502	527.75
307.731	534.75
307.961	548.75
308.191	540.75
308.421	555.75
308.651	535.75
308.881	530.75
309.111	549.75
309.341	553.75
309.571	522.75
309.8	552.75
310.03	547.75
310.26	574.75
310.49	567.75
310.72	564.75
310.949	544.75
311.179	561.75
311.409	567.75
311.639	549.75
311.868	533.75
312.098	561.75
312.328	569.75
312.557	588.75
312.787	591.75
313.017	571.75
313.246	596.75
313.476	575.75
313.706	579.75
313.935	593.75
314.165	579.75
314.394	575.75
314.624	601.75
314.853	586.75
315.083	578.75
315.312	562.75
315.542	588.75
315.771	569.75
316.001	600.75
316.23	583.75
316.46	565.75
316.689	567.75
316.919	580.75
317.148	542.75
317.377	567.75
317.607	568.75
317.836	588.75
318.065	560.75
318.295	567.75
318.524	597.75
318.753	596.75
318.983	585.75
319.212	589.75
319.441	584.75
319.67	590.75
319.9	567.75
320.129	583.75
320.358	588.75
320.587	553.75
320.816	569.75
321.046	606.75
321.275	572.75
321.504	586.75
321.733	580.75
321.962	581.75
322.191	589.75
322.42	584.75
322.649	577.75
322.878	575.75
323.108	569.75
323.337	575.75
323.566	619.75
323.795	586.75
324.024	599.75
324.253	586.75
324.482	594.75
324.71	610.75
324.939	603.75
325.168	614.75
325.397	599.75
325.626	643.75
325.855	617.75
326.084	631.75
326.313	639.75
326.542	631.75
326.77	625.75
326.999	635.75
327.228	646.75
327.457	630.75
327.686	621.75
327.914	629.75
328.143	623.75
328.372	633.75
328.6	641.75
328.829	637.75
329.058	635.75
329.287	604.75
329.515	640.75
329.744	627.75
329.972	655.75
330.201	640.75
330.43	661.75
330.658	651.75
330.887	647.75
331.115	653.75
331.344	658.75
331.572	667.75
331.801	694.75
332.03	685.75
332.258	699.75
332.486	720.75
332.715	729.75
332.943	791.75
333.172	769.75
333.4	801.75
333.629	814.75
333.857	837.75
334.085	794.75
334.314	800.75
334.542	795.75
334.771	781.75
334.999	770.75
335.227	792.75
335.455	765.75
335.684	788.75
335.912	752.75
336.14	760.75
336.369	739.75
336.597	740.75
336.825	769.75
337.053	773.75
337.281	762.75
337.51	714.75
337.738	747.75
337.966	732.75
338.194	720.75
338.422	704.75
338.65	706.75
338.878	673.75
339.106	698.75
339.334	708.75
339.562	706.75
339.79	667.75
340.018	667.75
340.246	680.75
340.474	666.75
340.702	650.75
340.93	684.75
341.158	696.75
341.386	683.75
341.614	673.75
341.842	679.75
342.07	667.75
342.298	661.75
342.526	672.75
342.754	666.75
342.981	653.75
343.209	672.75
343.437	690.75
343.665	738.75
343.893	785.75
344.12	797.75
344.348	758.75
344.576	719.75
344.804	740.75
345.031	711.75
345.259	660.75
345.487	659.75
345.714	664.75
345.942	655.75
346.17	665.75
346.397	671.75
346.625	637.75
346.853	623.75
347.08	641.75
347.308	632.75
347.535	671.75
347.763	637.75
347.99	643.75
348.218	636.75
348.445	648.75
348.673	656.75
348.9	617.75
349.128	628.75
349.355	642.75
349.583	616.75
349.81	636.75
350.037	635.75
350.265	634.75
350.492	607.75
350.72	614.75
350.947	632.75
351.174	611.75
351.402	625.75
351.629	637.75
351.856	607.75
352.083	588.75
352.311	623.75
352.538	627.75
352.765	643.75
352.992	600.75
353.22	627.75
353.447	616.75
353.674	604.75
353.901	594.75
354.128	613.75
354.355	596.75
354.583	631.75
354.81	619.75
355.037	601.75
355.264	619.75
355.491	619.75
355.718	621.75
355.945	603.75
356.172	626.75
356.399	598.75
356.626	657.75
356.853	627.75
357.08	611.75
357.307	599.75
357.534	610.75
357.761	607.75
357.988	628.75
358.215	636.75
358.441	604.75
358.668	594.75
358.895	627.75
359.122	592.75
359.349	610.75
359.576	616.75
359.802	635.75
360.029	627.75
360.256	592.75
360.483	615.75
360.709	609.75
360.936	617.75
361.163	606.75
361.39	608.75
361.616	628.75
361.843	612.75
362.07	641.75
362.296	640.75
362.523	627.75
362.749	591.75
362.976	574.75
363.203	608.75
363.429	611.75
363.656	604.75
363.882	609.75
364.109	597.75
364.335	594.75
364.562	619.75
364.788	595.75
365.015	590.75
365.241	608.75
365.468	609.75
365.694	600.75
365.92	591.75
366.147	597.75
366.373	609.75
366.599	603.75
366.826	579.75
367.052	605.75
367.278	598.75
367.505	617.75
367.731	593.75
367.957	587.75
368.184	592.75
368.41	603.75
368.636	616.75
368.862	599.75
369.089	624.75
369.315	625.75
369.541	619.75
369.767	611.75
369.993	632.75
370.219	615.75
370.445	639.75
370.672	625.75
370.898	643.75
371.124	647.75
371.35	663.75
371.576	645.75
371.802	639.75
372.028	647.75
372.254	626.75
372.48	660.75
372.706	698.75
372.932	678.75
373.158	688.75
373.384	657.75
373.61	621.75
373.835	643.75
374.061	646.75
374.287	658.75
374.513	655.75
374.739	710.75
374.965	690.75
375.191	711.75
375.416	712.75
375.642	664.75
375.868	692.75
376.094	666.75
376.319	651.75
376.545	681.75
376.771	651.75
376.997	647.75
377.222	658.75
377.448	657.75
377.674	613.75
377.899	635.75
378.125	625.75
378.35	651.75
378.576	645.75
378.802	625.75
379.027	637.75
379.253	628.75
379.478	617.75
379.704	628.75
379.929	653.75
380.155	637.75
380.38	630.75
380.606	644.75
380.831	628.75
381.057	643.75
381.282	660.75
381.507	647.75
381.733	639.75
381.958	650.75
382.184	651.75
382.409	674.75
382.634	681.75
382.86	665.75
383.085	682.75
383.31	695.75
383.535	696.75
383.761	671.75
383.986	707.75
384.211	709.75
384.436	711.75
384.662	714.75
384.887	758.75
385.112	769.75
385.337	768.75
385.562	740.75
385.787	771.75
386.013	775.75
386.238	757.75
386.463	752.75
386.688	739.75
386.913	748.75
387.138	733.75
387.363	746.75
387.588	722.75
387.813	755.75
388.038	738.75
388.263	756.75
388.488	752.75
388.713	753.75
388.938	756.75
389.163	736.75
389.387	730.75
389.612	749.75
389.837	735.75
390.062	708.75
390.287	754.75
390.512	735.75
390.736	745.75
390.961	760.75
391.186	780.75
391.411	791.75
391.636	825.75
391.86	853.75
392.085	850.75
392.31	834.75
392.534	824.75
392.759	836.75
392.984	803.75
393.208	804.75
393.433	795.75
393.658	803.75
393.882	819.75
394.107	807.75
394.331	807.75
394.556	824.75
394.78	828.75
395.005	808.75
395.229	821.75
395.454	833.75
395.678	858.75
395.903	872.75
396.127	840.75
396.352	809.75
396.576	798.75
396.801	794.75
397.025	813.75
397.249	830.75
397.474	823.75
397.698	840.75
397.922	867.75
398.147	864.75
398.371	857.75
398.595	895.75
398.82	941.75
399.044	998.75
399.268	1075.75
399.492	1217.75
399.717	1329.75
399.941	1336.75
400.165	1197.75
400.389	1083.75
400.613	1045.75
400.837	979.75
401.062	984.75
401.286	934.75
401.51	934.75
401.734	936.75
401.958	967.75
402.182	946.75
402.406	949.75
402.63	965.75
402.854	993.75
403.078	990.75
403.302	1041.75
403.526	1058.75
403.75	1066.75
403.974	1071.75
404.198	1052.75
404.422	1047.75
404.645	1032.75
404.869	1036.75
405.093	1049.75
405.317	1039.75
405.541	1056.75
405.765	994.75
405.988	1022.75
406.212	1037.75
406.436	1010.75
406.66	1048.75
406.883	1079.75
407.107	1123.75
407.331	1163.75
407.555	1209.75
407.778	1180.75
408.002	1157.75
408.226	1163.75
408.449	1143.75
408.673	1076.75
408.896	1083.75
409.12	1082.75
409.344	1062.75
409.567	1035.75
409.791	1042.75
410.014	1067.75
410.238	1055.75
410.461	1039.75
410.685	1036.75
410.908	999.75
411.132	988.75
411.355	974.75
411.578	988.75
411.802	980.75
412.025	985.75
412.249	969.75
412.472	989.75
412.695	963.75
412.919	963.75
413.142	920.75
413.365	947.75
413.589	957.75
413.812	915.75
414.035	940.75
414.258	944.75
414.482	977.75
414.705	949.75
414.928	955.75
415.151	961.75
415.374	948.75
415.597	953.75
415.821	923.75
416.044	929.75
416.267	958.75
416.49	933.75
416.713	937.75
416.936	936.75
417.159	903.75
417.382	919.75
417.605	939.75
417.828	966.75
418.051	948.75
418.274	959.75
418.497	953.75
418.72	987.75
418.943	966.75
419.166	991.75
419.389	1047.75
419.611	1036.75
419.834	1037.75
420.057	992.75
420.28	976.75
420.503	939.75
420.726	960.75
420.948	922.75
421.171	938.75
421.394	941.75
421.617	937.75
421.839	936.75
422.062	951.75
422.285	933.75
422.507	959.75
422.73	947.75
422.953	955.75
423.175	979.75
423.398	979.75
423.621	992.75
423.843	1010.75
424.066	1027.75
424.288	980.75
424.511	989.75
424.733	969.75
424.956	936.75
425.178	939.75
425.401	936.75
425.623	947.75
425.846	910.75
426.068	921.75
426.291	906.75
426.513	876.75
426.735	918.75
426.958	915.75
427.18	858.75
427.402	875.75
427.625	864.75
427.847	859.75
428.069	889.75
428.292	901.75
428.514	889.75
428.736	846.75
428.958	847.75
429.181	836.75
429.403	848.75
429.625	833.75
429.847	812.75
430.069	846.75
430.292	851.75
430.514	823.75
430.736	855.75
430.958	845.75
431.18	844.75
431.402	881.75
431.624	837.75
431.846	884.75
432.068	867.75
432.29	892.75
432.512	895.75
432.734	886.75
432.956	873.75
433.178	850.75
433.4	891.75
433.622	848.75
433.844	883.75
434.066	865.75
434.287	897.75
434.509	931.75
434.731	942.75
434.953	957.75
435.175	962.75
435.397	973.75
435.618	910.75
435.84	897.75
436.062	871.75
436.284	892.75
436.505	887.75
436.727	877.75
436.949	844.75
437.17	842.75
437.392	858.75
437.614	858.75
437.835	826.75
438.057	830.75
438.278	827.75
438.5	855.75
438.721	842.75
438.943	830.75
439.165	860.75
439.386	856.75
439.608	889.75
439.829	881.75
440.05	866.75
440.272	910.75
440.493	895.75
440.715	905.75
440.936	896.75
441.158	926.75
441.379	921.75
441.6	973.75
441.822	979.75
442.043	959.75
442.264	968.75
442.486	928.75
442.707	958.75
442.928	939.75
443.149	961.75
443.371	950.75
443.592	960.75
443.813	960.75
444.034	987.75
444.255	1029.75
444.476	1064.75
444.698	1130.75
444.919	1153.75
445.14	1220.75
445.361	1092.75
445.582	1027.75
445.803	940.75
446.024	963.75
446.245	933.75
446.466	906.75
446.687	896.75
446.908	870.75
447.129	866.75
447.35	839.75
447.571	867.75
447.792	810.75
448.013	854.75
448.234	844.75
448.455	798.75
448.675	808.75
448.896	823.75
449.117	771.75
449.338	806.75
449.559	770.75
449.779	793.75
450	795.75
450.221	799.75
450.442	789.75
450.662	819.75
450.883	801.75
451.104	853.75
451.324	825.75
451.545	799.75
451.766	833.75
451.986	799.75
452.207	801.75
452.428	788.75
452.648	793.75
452.869	782.75
453.089	778.75
453.31	769.75
453.53	795.75
453.751	783.75
453.971	788.75
454.192	758.75
454.412	753.75
454.633	755.75
454.853	769.75
455.073	771.75
455.294	771.75
455.514	759.75
455.734	771.75
455.955	726.75
456.175	747.75
456.395	749.75
456.616	764.75
456.836	779.75
457.056	747.75
457.276	739.75
457.497	762.75
457.717	763.75
457.937	791.75
458.157	778.75
458.377	772.75
458.598	790.75
458.818	804.75
459.038	840.75
459.258	861.75
459.478	887.75
459.698	895.75
459.918	906.75
460.138	947.75
460.358	998.75
460.578	981.75
460.798	1021.75
461.018	994.75
461.238	1000.75
461.458	1005.75
461.678	1010.75
461.898	1049.75
462.118	1047.75
462.338	1103.75
462.558	1117.75
462.777	1176.75
462.997	1247.75
463.217	1340.75
463.437	1309.75
463.657	1209.75
463.876	1158.75
464.096	1177.75
464.316	1175.75
464.536	1185.75
464.755	1136.75
464.975	1093.75
465.195	1045.75
465.414	1000.75
465.634	926.75
465.854	925.75
466.073	900.75
466.293	897.75
466.512	860.75
466.732	853.75
466.951	858.75
467.171	816.75
467.391	858.75
467.61	850.75
467.829	821.75
468.049	831.75
468.268	819.75
468.488	831.75
468.707	782.75
468.927	817.75
469.146	818.75
469.365	853.75
469.585	832.75
469.804	834.75
470.023	868.75
470.243	871.75
470.462	912.75
470.681	867.75
470.901	890.75
471.12	865.75
471.339	861.75
471.558	847.75
471.777	839.75
471.997	848.75
472.216	811.75
472.435	811.75
472.654	808.75
472.873	804.75
473.092	809.75
473.311	799.75
473.53	821.75
473.749	823.75
473.968	788.75
474.187	791.75
474.406	801.75
474.625	812.75
474.844	847.75
475.063	819.75
475.282	824.75
475.501	806.75
475.72	820.75
475.939	828.75
476.158	828.75
476.377	820.75
476.596	841.75
476.814	837.75
477.033	852.75
477.252	889.75
477.471	903.75
477.69	903.75
477.908	936.75
478.127	980.75
478.346	941.75
478.564	982.75
478.783	967.75
479.002	1007.75
479.22	1001.75
479.439	1021.75
479.658	987.75
479.876	1001.75
480.095	1031.75
480.313	1028.75
480.532	1074.75
480.751	1076.75
480.969	1010.75
481.188	989.75
481.406	964.75
481.624	968.75
481.843	937.75
482.061	934.75
482.28	931.75
482.498	905.75
482.717	937.75
482.935	913.75
483.153	964.75
483.372	955.75
483.59	955.75
483.808	928.75
484.027	947.75
484.245	954.75
484.463	956.75
484.681	942.75
484.9	925.75
485.118	964.75
485.336	947.75
485.554	993.75
485.772	979.75
485.99	963.75
486.209	989.75
486.427	960.75
486.645	977.75
486.863	1004.75
487.081	983.75
487.299	986.75
487.517	993.75
487.735	971.75
487.953	995.75
488.171	985.75
488.389	983.75
488.607	949.75
488.825	930.75
489.043	963.75
489.261	963.75
489.479	950.75
489.696	977.75
489.914	954.75
490.132	961.75
490.35	995.75
490.568	965.75
490.786	985.75
491.003	1009.75
491.221	994.75
491.439	1012.75
491.657	971.75
491.874	993.75
492.092	1011.75
492.31	994.75
492.527	1024.75
492.745	1025.75
492.963	1007.75
493.18	1007.75
493.398	1028.75
493.615	1032.75
493.833	1008.75
494.05	1028.75
494.268	1031.75
494.485	1043.75
494.703	1041.75
494.92	1049.75
495.138	1044.75
495.355	1032.75
495.573	1020.75
495.79	1033.75
496.008	1068.75
496.225	1049.75
496.442	1073.75
496.66	1052.75
496.877	1108.75
497.094	1112.75
497.312	1125.75
497.529	1155.75
497.746	1169.75
497.963	1221.75
498.181	1253.75
498.398	1364.75
498.615	1384.75
498.832	1441.75
499.049	1551.75
499.267	1674.75
499.484	1798.75
499.701	1962.75
499.918	2138.75
500.135	2400.75
500.352	2725.75
500.569	2832.75
500.786	2751.75
501.003	2613.75
501.22	2385.75
501.437	2132.75
501.654	1952.75
501.871	1730.75
502.088	1606.75
502.305	1499.75
502.522	1424.75
502.739	1405.75
502.956	1326.75
503.172	1279.75
503.389	1220.75
503.606	1187.75
503.823	1156.75
504.04	1193.75
504.256	1149.75
504.473	1174.75
504.69	1199.75
504.907	1189.75
505.123	1098.75
505.34	1079.75
505.557	1009.75
505.773	1010.75
505.99	989.75
506.207	945.75
506.423	943.75
506.64	937.75
506.856	907.75
507.073	907.75
507.289	904.75
507.506	921.75
507.722	885.75
507.939	892.75
508.155	871.75
508.372	895.75
508.588	852.75
508.805	869.75
509.021	860.75
509.238	869.75
509.454	832.75
509.67	817.75
509.887	843.75
510.103	845.75
510.319	844.75
510.536	845.75
510.752	811.75
510.968	812.75
511.184	810.75
511.401	832.75
511.617	823.75
511.833	821.75
512.049	818.75
512.265	809.75
512.481	839.75
512.698	818.75
512.914	821.75
513.13	807.75
513.346	827.75
513.562	799.75
513.778	819.75
513.994	828.75
514.21	854.75
514.426	819.75
514.642	852.75
514.858	827.75
515.074	840.75
515.29	867.75
515.506	836.75
515.721	868.75
515.937	868.75
516.153	861.75
516.369	911.75
516.585	951.75
516.801	970.75
517.016	985.75
517.232	1031.75
517.448	1083.75
517.664	1121.75
517.879	1077.75
518.095	1078.75
518.311	1059.75
518.527	1007.75
518.742	988.75
518.958	940.75
519.173	930.75
519.389	906.75
519.605	876.75
519.82	855.75
520.036	871.75
520.251	838.75
520.467	829.75
520.682	845.75
520.898	796.75
521.113	822.75
521.329	791.75
521.544	791.75
521.76	796.75
521.975	782.75
522.19	783.75
522.406	762.75
522.621	761.75
522.836	755.75
523.052	753.75
523.267	767.75
523.482	772.75
523.698	759.75
523.913	749.75
524.128	778.75
524.343	779.75
524.559	776.75
524.774	758.75
524.989	746.75
525.204	757.75
525.419	746.75
525.634	745.75
525.849	780.75
526.064	738.75
526.28	730.75
526.495	749.75
526.71	731.75
526.925	721.75
527.14	739.75
527.355	737.75
527.57	728.75
527.785	732.75
527.999	727.75
528.214	720.75
528.429	716.75
528.644	752.75
528.859	731.75
529.074	737.75
529.289	743.75
529.503	748.75
529.718	737.75
529.933	738.75
530.148	722.75
530.363	756.75
530.577	748.75
530.792	744.75
531.007	706.75
531.221	695.75
531.436	722.75
531.651	714.75
531.865	696.75
532.08	732.75
532.295	723.75
532.509	728.75
532.724	727.75
532.938	710.75
533.153	710.75
533.367	719.75
533.582	732.75
533.796	751.75
534.011	709.75
534.225	689.75
534.44	688.75
534.654	712.75
534.868	712.75
535.083	695.75
535.297	710.75
535.511	703.75
535.726	711.75
535.94	691.75
536.154	666.75
536.369	680.75
536.583	697.75
536.797	681.75
537.011	697.75
537.225	677.75
537.44	679.75
537.654	684.75
537.868	673.75
538.082	663.75
538.296	671.75
538.51	678.75
538.724	685.75
538.938	663.75
539.153	669.75
539.367	679.75
539.581	652.75
539.795	641.75
540.009	639.75
540.222	633.75
540.436	639.75
540.65	660.75
540.864	666.75
541.078	657.75
541.292	669.75
541.506	685.75
541.72	697.75
541.934	676.75
542.147	681.75
542.361	680.75
542.575	667.75
542.789	682.75
543.002	637.75
543.216	637.75
543.43	628.75
543.644	636.75
543.857	654.75
544.071	672.75
544.285	667.75
544.498	661.75
544.712	670.75
544.925	671.75
545.139	665.75
545.352	659.75
545.566	668.75
545.779	692.75
545.993	696.75
546.206	666.75
546.42	691.75
546.633	688.75
546.847	669.75
547.06	697.75
547.274	681.75
547.487	674.75
547.7	677.75
547.914	693.75
548.127	691.75
548.34	693.75
548.554	682.75
548.767	678.75
548.98	683.75
549.193	683.75
549.407	685.75
549.62	692.75
549.833	707.75
550.046	689.75
550.259	692.75
550.473	657.75
550.686	672.75
550.899	653.75
551.112	667.75
551.325	663.75
551.538	658.75
551.751	639.75
551.964	667.75
552.177	703.75
552.39	680.75
552.603	698.75
552.816	707.75
553.029	711.75
553.242	729.75
553.455	747.75
553.667	736.75
553.88	724.75
554.093	721.75
554.306	687.75
554.519	703.75
554.732	653.75
554.944	649.75
555.157	641.75
555.37	639.75
555.583	615.75
555.795	623.75
556.008	618.75
556.221	621.75
556.433	601.75
556.646	599.75
556.859	599.75
557.071	601.75
557.284	580.75
557.496	569.75
557.709	581.75
557.921	577.75
558.134	579.75
558.346	559.75
558.559	573.75
558.771	573.75
558.984	547.75
559.196	559.75
559.409	571.75
559.621	586.75
559.833	577.75
560.046	540.75
560.258	553.75
560.47	561.75
560.683	549.75
560.895	555.75
561.107	565.75
561.32	554.75
561.532	547.75
561.744	538.75
561.956	573.75
562.168	533.75
562.381	572.75
562.593	559.75
562.805	569.75
563.017	572.75
563.229	536.75
563.441	555.75
563.653	560.75
563.865	575.75
564.077	556.75
564.289	566.75
564.501	589.75
564.713	598.75
564.925	600.75
565.137	621.75
565.349	616.75
565.561	643.75
565.773	647.75
565.985	695.75
566.197	693.75
566.408	769.75
566.62	786.75
566.832	859.75
567.044	863.75
567.255	874.75
567.467	895.75
567.679	930.75
567.891	983.75
568.102	995.75
568.314	947.75
568.526	859.75
568.737	815.75
568.949	753.75
569.161	681.75
569.372	638.75
569.584	627.75
569.795	612.75
570.007	603.75
570.218	571.75
570.43	567.75
570.641	544.75
570.853	562.75
571.064	567.75
571.276	555.75
571.487	549.75
571.698	516.75
571.91	515.75
572.121	502.75
572.333	487.75
572.544	488.75
572.755	499.75
572.966	480.75
573.178	477.75
573.389	475.75
573.6	475.75
573.811	458.75
574.023	491.75
574.234	444.75
574.445	466.75
574.656	474.75
574.867	449.75
575.078	448.75
575.289	440.75
575.501	438.75
575.712	411.75
575.923	432.75
576.134	436.75
576.345	436.75
576.556	420.75
576.767	425.75
576.978	426.75
577.188	428.75
577.399	432.75
577.61	416.75
577.821	387.75
578.032	408.75
578.243	401.75
578.454	404.75
578.665	417.75
578.875	413.75
579.086	405.75
579.297	400.75
579.508	394.75
579.718	399.75
579.929	391.75
580.14	398.75
580.35	401.75
580.561	391.75
580.772	377.75
580.982	392.75
581.193	377.75
581.403	385.75
581.614	379.75
581.825	397.75
582.035	378.75
582.246	405.75
582.456	406.75
582.667	387.75
582.877	392.75
583.087	395.75
583.298	407.75
583.508	387.75
583.719	385.75
583.929	392.75
584.139	367.75
584.35	371.75
584.56	378.75
584.77	379.75
584.981	393.75
585.191	368.75
585.401	375.75
585.611	378.75
585.821	367.75
586.032	380.75
586.242	356.75
586.452	346.75
586.662	361.75
586.872	369.75
587.082	351.75
587.292	381.75
587.502	367.75
587.713	344.75
587.923	367.75
588.133	358.75
588.343	375.75
588.553	353.75
588.762	364.75
588.972	375.75
589.182	444.75
589.392	409.75
589.602	381.75
589.812	426.75
590.022	413.75
590.232	377.75
590.441	348.75
590.651	366.75
590.861	379.75
591.071	377.75
591.281	381.75
591.49	372.75
591.7	397.75
591.91	391.75
592.119	396.75
592.329	400.75
592.539	409.75
592.748	423.75
592.958	398.75
593.167	437.75
593.377	435.75
593.587	451.75
593.796	436.75
594.006	456.75
594.215	450.75
594.424	460.75
594.634	436.75
594.843	413.75
595.053	413.75
595.262	403.75
595.472	390.75
595.681	375.75
595.89	383.75
596.1	380.75
596.309	351.75
596.518	343.75
596.727	327.75
596.937	346.75
597.146	319.75
597.355	331.75
597.564	328.75
597.774	329.75
597.983	337.75
598.192	325.75
598.401	319.75
598.61	315.75
598.819	327.75
599.028	332.75
599.237	315.75
599.446	315.75
599.655	312.75
599.864	309.75
600.073	301.75
600.282	307.75
600.491	301.75
600.7	295.75
600.909	300.75
601.118	282.75
601.327	299.75
601.536	304.75
601.745	305.75
601.953	317.75
602.162	286.75
602.371	287.75
602.58	306.75
602.789	294.75
602.997	293.75
603.206	280.75
603.415	300.75
603.623	281.75
603.832	311.75
604.041	294.75
604.249	266.75
604.458	293.75
604.666	298.75
604.875	265.75
605.084	299.75
605.292	288.75
605.501	289.75
605.709	291.75
605.918	283.75
606.126	269.75
606.334	290.75
606.543	304.75
606.751	273.75
606.96	285.75
607.168	279.75
607.376	256.75
607.585	287.75
607.793	279.75
608.001	281.75
608.21	283.75
608.418	267.75
608.626	280.75
608.834	279.75
609.043	279.75
609.251	278.75
609.459	263.75
609.667	280.75
609.875	261.75
610.083	259.75
610.291	271.75
610.499	271.75
610.707	268.75
610.916	261.75
611.124	274.75
611.332	262.75
611.54	276.75
611.748	265.75
611.955	269.75
612.163	265.75
612.371	262.75
612.579	284.75
612.787	272.75
612.995	273.75
613.203	266.75
613.411	268.75
613.618	266.75
613.826	257.75
614.034	277.75
614.242	271.75
614.449	260.75
614.657	258.75
614.865	265.75
615.072	251.75
615.28	259.75
615.488	259.75
615.695	262.75
615.903	259.75
616.111	267.75
616.318	269.75
616.526	271.75
616.733	266.75
616.941	263.75
617.148	268.75
617.356	268.75
617.563	261.75
617.771	279.75
617.978	232.75
618.185	237.75
618.393	256.75
618.6	245.75
618.807	261.75
619.015	251.75
619.222	244.75
619.429	257.75
619.637	244.75
619.844	255.75
620.051	244.75
620.258	234.75
620.466	249.75
620.673	239.75
620.88	248.75
621.087	235.75
621.294	253.75
621.501	249.75
621.708	251.75
621.915	245.75
622.122	262.75
622.329	259.75
622.536	256.75
622.743	253.75
622.95	232.75
623.157	223.75
623.364	244.75
623.571	249.75
623.778	241.75
623.985	237.75
624.192	233.75
624.399	226.75
624.606	230.75
624.812	231.75
625.019	232.75
625.226	235.75
625.433	220.75
625.639	247.75
625.846	248.75
626.053	221.75
626.259	227.75
626.466	232.75
626.673	228.75
626.879	211.75
627.086	242.75
627.293	216.75
627.499	208.75
627.706	226.75
627.912	210.75
628.119	223.75
628.325	247.75
628.532	212.75
628.738	209.75
628.945	228.75
629.151	225.75
629.357	218.75
629.564	226.75
629.77	209.75
629.976	209.75
630.183	217.75
630.389	219.75
630.595	193.75
630.802	214.75
631.008	194.75
631.214	203.75
631.42	213.75
631.627	216.75
631.833	207.75
632.039	206.75
632.245	207.75
632.451	201.75
632.657	198.75
632.863	216.75
633.069	201.75
633.275	199.75
633.481	200.75
633.688	200.75
633.893	207.75
634.099	194.75
634.305	193.75
634.511	187.75
634.717	202.75
634.923	188.75
635.129	199.75
635.335	200.75
635.541	193.75
635.747	204.75
635.952	192.75
636.158	195.75
636.364	192.75
636.57	185.75
636.775	196.75
636.981	196.75
637.187	197.75
637.392	186.75
637.598	180.75
637.804	192.75
638.009	204.75
638.215	168.75
638.421	179.75
638.626	179.75
638.832	200.75
639.037	204.75
639.243	189.75
639.448	189.75
639.654	187.75
639.859	182.75
640.065	187.75
640.27	211.75
640.475	186.75
640.681	181.75
640.886	179.75
641.091	176.75
641.297	171.75
641.502	185.75
641.707	177.75
641.913	184.75
642.118	181.75
642.323	183.75
642.528	177.75
642.733	180.75
642.939	206.75
643.144	201.75
643.349	190.75
643.554	185.75
643.759	177.75
643.964	180.75
644.169	172.75
644.374	177.75
644.579	177.75
644.784	167.75
644.989	167.75
645.194	172.75
645.399	192.75
645.604	187.75
645.809	176.75
646.014	185.75
646.219	177.75
646.423	187.75
646.628	170.75
646.833	178.75
647.038	175.75
647.243	178.75
647.447	199.75
647.652	192.75
647.857	179.75
648.062	187.75
648.266	180.75
648.471	189.75
648.676	189.75
648.88	196.75
649.085	173.75
649.289	174.75
649.494	181.75
649.698	170.75
649.903	175.75
650.107	186.75
650.312	171.75
650.516	185.75
650.721	185.75
650.925	165.75
651.13	167.75
651.334	168.75
651.539	171.75
651.743	163.75
651.947	162.75
652.152	166.75
652.356	153.75
652.56	145.75
652.764	151.75
652.969	152.75
653.173	156.75
653.377	144.75
653.581	143.75
653.785	148.75
653.99	146.75
654.194	137.75
654.398	137.75
654.602	146.75
654.806	124.75
655.01	168.75
655.214	137.75
655.418	141.75
655.622	147.75
655.826	146.75
656.03	140.75
656.234	155.75
656.438	145.75
656.642	145.75
656.846	127.75
657.049	132.75
657.253	129.75
657.457	128.75
657.661	120.75
657.865	125.75
658.068	133.75
658.272	110.75
658.476	118.75
658.68	102.75
658.883	112.75
659.087	121.75
659.291	100.75
659.494	96.75
659.698	110.75
659.901	104.75
660.105	116.75
660.309	97.75
660.512	70.75
660.716	103.75
660.919	91.75
661.123	101.75
661.326	99.75
661.53	95.75
661.733	95.75
661.936	84.75
662.14	91.75
662.343	78.75
662.546	98.75
662.75	99.75
662.953	73.75
663.156	82.75
663.36	77.75
663.563	83.75
663.766	100.75
663.969	88.75
664.173	77.75
664.376	81.75
664.579	85.75
664.782	87.75
664.985	87.75
665.188	92.75
665.391	84.75
665.594	80.75
665.797	73.75
666	80.75
666.203	76.75
666.406	81.75
666.609	74.75
666.812	89.75
667.015	78.75
667.218	85.75
667.421	87.75
667.624	83.75
667.827	82.75
668.03	80.75
668.232	77.75
668.435	89.75
668.638	82.75
668.841	87.75
669.043	101.75
669.246	82.75
669.449	71.75
669.651	74.75
669.854	90.75
670.057	82.75
670.259	85.75
670.462	85.75
670.665	82.75
670.867	65.75
671.07	84.75
671.272	88.75
671.475	90.75
671.677	83.75
671.88	77.75
672.082	76.75
672.284	75.75
672.487	80.75
672.689	86.75
672.892	82.75
