Data from NiCl2@0.25M.TitratingCurve.Agarose3%dH2O.NegLispCup.LampEnergy10.LIBS07252019_HRD10591_18-23-46-575.txt Node
Date: Thu Jul 25 18:23:46 EDT 2019
User: cochatt
Spectrometer: HR+D1059
Trigger mode: 1
Integration Time (sec): 1.000000E-1
Scans to average: 1
Electric dark correction enabled: true
Nonlinearity correction enabled: false
Boxcar width: 0
XAxis mode: Wavelengths
Number of Pixels in Spectrum: 2048
>>>>>Begin Spectral Data<<<<<
223.165	-23.06
223.4	-23.06
223.635	-23.06
223.869	-18.06
224.104	-16.06
224.338	-30.06
224.573	-0.06
224.808	-7.06
225.042	1.94
225.277	-1.06
225.511	-8.06
225.746	-4.06
225.98	3.94
226.215	12.94
226.449	19.94
226.683	10.94
226.918	19.94
227.152	37.94
227.387	35.94
227.621	31.94
227.856	49.94
228.09	52.94
228.324	51.94
228.559	48.94
228.793	68.94
229.027	111.94
229.262	107.94
229.496	137.94
229.73	121.94
229.964	134.94
230.199	145.94
230.433	149.94
230.667	149.94
230.901	149.94
231.136	145.94
231.37	154.94
231.604	161.94
231.838	164.94
232.072	163.94
232.306	178.94
232.541	166.94
232.775	162.94
233.009	165.94
233.243	186.94
233.477	186.94
233.711	176.94
233.945	182.94
234.179	168.94
234.413	161.94
234.647	184.94
234.881	184.94
235.115	162.94
235.349	165.94
235.583	193.94
235.817	174.94
236.051	178.94
236.285	181.94
236.519	178.94
236.753	182.94
236.987	188.94
237.221	194.94
237.455	182.94
237.689	199.94
237.922	189.94
238.156	199.94
238.39	185.94
238.624	194.94
238.858	196.94
239.091	199.94
239.325	213.94
239.559	215.94
239.793	202.94
240.027	213.94
240.26	215.94
240.494	211.94
240.728	211.94
240.961	206.94
241.195	225.94
241.429	224.94
241.662	219.94
241.896	217.94
242.13	243.94
242.363	228.94
242.597	226.94
242.83	243.94
243.064	232.94
243.298	236.94
243.531	261.94
243.765	248.94
243.998	267.94
244.232	263.94
244.465	248.94
244.699	256.94
244.932	268.94
245.166	260.94
245.399	262.94
245.633	249.94
245.866	285.94
246.099	281.94
246.333	244.94
246.566	253.94
246.8	271.94
247.033	273.94
247.266	273.94
247.5	254.94
247.733	259.94
247.966	289.94
248.2	296.94
248.433	283.94
248.666	279.94
248.899	307.94
249.133	304.94
249.366	300.94
249.599	293.94
249.832	308.94
250.066	296.94
250.299	300.94
250.532	304.94
250.765	313.94
250.998	305.94
251.231	306.94
251.465	319.94
251.698	323.94
251.931	316.94
252.164	326.94
252.397	325.94
252.63	319.94
252.863	317.94
253.096	328.94
253.329	326.94
253.562	343.94
253.795	347.94
254.028	339.94
254.261	333.94
254.494	341.94
254.727	333.94
254.96	349.94
255.193	333.94
255.426	345.94
255.659	353.94
255.892	356.94
256.124	343.94
256.357	367.94
256.59	364.94
256.823	356.94
257.056	362.94
257.289	379.94
257.521	371.94
257.754	369.94
257.987	374.94
258.22	373.94
258.452	364.94
258.685	377.94
258.918	389.94
259.151	370.94
259.383	395.94
259.616	369.94
259.849	379.94
260.081	373.94
260.314	352.94
260.547	379.94
260.779	393.94
261.012	390.94
261.244	403.94
261.477	396.94
261.71	391.94
261.942	395.94
262.175	381.94
262.407	389.94
262.64	410.94
262.872	403.94
263.105	407.94
263.337	410.94
263.57	410.94
263.802	423.94
264.035	431.94
264.267	391.94
264.499	416.94
264.732	401.94
264.964	436.94
265.197	427.94
265.429	413.94
265.661	442.94
265.894	447.94
266.126	421.94
266.358	435.94
266.591	439.94
266.823	437.94
267.055	401.94
267.287	438.94
267.52	452.94
267.752	443.94
267.984	434.94
268.216	444.94
268.448	459.94
268.681	456.94
268.913	468.94
269.145	445.94
269.377	451.94
269.609	461.94
269.841	471.94
270.073	469.94
270.306	467.94
270.538	466.94
270.77	460.94
271.002	461.94
271.234	489.94
271.466	466.94
271.698	490.94
271.93	467.94
272.162	480.94
272.394	479.94
272.626	465.94
272.858	506.94
273.09	505.94
273.322	459.94
273.553	495.94
273.785	493.94
274.017	476.94
274.249	498.94
274.481	494.94
274.713	491.94
274.945	492.94
275.176	509.94
275.408	504.94
275.64	538.94
275.872	517.94
276.104	505.94
276.335	521.94
276.567	517.94
276.799	510.94
277.031	545.94
277.262	515.94
277.494	499.94
277.726	519.94
277.957	528.94
278.189	543.94
278.421	547.94
278.652	537.94
278.884	549.94
279.115	538.94
279.347	547.94
279.579	570.94
279.81	547.94
280.042	553.94
280.273	549.94
280.505	567.94
280.736	586.94
280.968	567.94
281.199	573.94
281.431	556.94
281.662	572.94
281.894	554.94
282.125	577.94
282.356	601.94
282.588	572.94
282.819	580.94
283.051	595.94
283.282	600.94
283.513	597.94
283.745	571.94
283.976	580.94
284.207	578.94
284.439	607.94
284.67	596.94
284.901	619.94
285.132	608.94
285.364	617.94
285.595	611.94
285.826	607.94
286.057	609.94
286.288	602.94
286.52	619.94
286.751	625.94
286.982	639.94
287.213	627.94
287.444	660.94
287.675	639.94
287.906	628.94
288.138	645.94
288.369	642.94
288.6	620.94
288.831	649.94
289.062	637.94
289.293	643.94
289.524	620.94
289.755	641.94
289.986	650.94
290.217	632.94
290.448	639.94
290.679	659.94
290.91	660.94
291.141	618.94
291.371	665.94
291.602	664.94
291.833	635.94
292.064	655.94
292.295	663.94
292.526	664.94
292.757	652.94
292.987	673.94
293.218	652.94
293.449	666.94
293.68	657.94
293.91	682.94
294.141	671.94
294.372	685.94
294.603	674.94
294.833	668.94
295.064	678.94
295.295	671.94
295.525	663.94
295.756	685.94
295.987	649.94
296.217	656.94
296.448	679.94
296.679	697.94
296.909	679.94
297.14	675.94
297.37	695.94
297.601	697.94
297.831	695.94
298.062	718.94
298.292	705.94
298.523	735.94
298.753	723.94
298.984	726.94
299.214	742.94
299.445	715.94
299.675	700.94
299.905	715.94
300.136	712.94
300.366	712.94
300.597	747.94
300.827	732.94
301.057	755.94
301.288	741.94
301.518	757.94
301.748	737.94
301.979	771.94
302.209	775.94
302.439	747.94
302.669	768.94
302.9	745.94
303.13	743.94
303.36	753.94
303.59	751.94
303.82	735.94
304.051	758.94
304.281	742.94
304.511	740.94
304.741	736.94
304.971	770.94
305.201	753.94
305.431	759.94
305.661	763.94
305.891	729.94
306.121	740.94
306.352	744.94
306.582	748.94
306.812	724.94
307.042	735.94
307.272	733.94
307.502	725.94
307.731	730.94
307.961	736.94
308.191	719.94
308.421	711.94
308.651	716.94
308.881	729.94
309.111	723.94
309.341	715.94
309.571	738.94
309.8	736.94
310.03	725.94
310.26	732.94
310.49	738.94
310.72	728.94
310.949	736.94
311.179	744.94
311.409	740.94
311.639	778.94
311.868	757.94
312.098	760.94
312.328	759.94
312.557	734.94
312.787	758.94
313.017	748.94
313.246	763.94
313.476	765.94
313.706	791.94
313.935	824.94
314.165	794.94
314.394	783.94
314.624	804.94
314.853	807.94
315.083	794.94
315.312	809.94
315.542	755.94
315.771	763.94
316.001	773.94
316.23	794.94
316.46	740.94
316.689	804.94
316.919	767.94
317.148	756.94
317.377	767.94
317.607	768.94
317.836	745.94
318.065	756.94
318.295	757.94
318.524	794.94
318.753	764.94
318.983	778.94
319.212	763.94
319.441	764.94
319.67	747.94
319.9	765.94
320.129	763.94
320.358	791.94
320.587	766.94
320.816	747.94
321.046	785.94
321.275	779.94
321.504	777.94
321.733	793.94
321.962	789.94
322.191	782.94
322.42	798.94
322.649	768.94
322.878	766.94
323.108	776.94
323.337	802.94
323.566	808.94
323.795	783.94
324.024	787.94
324.253	808.94
324.482	785.94
324.71	799.94
324.939	818.94
325.168	804.94
325.397	793.94
325.626	824.94
325.855	810.94
326.084	822.94
326.313	851.94
326.542	884.94
326.77	861.94
326.999	828.94
327.228	810.94
327.457	820.94
327.686	849.94
327.914	844.94
328.143	825.94
328.372	834.94
328.6	867.94
328.829	845.94
329.058	840.94
329.287	848.94
329.515	863.94
329.744	857.94
329.972	841.94
330.201	811.94
330.43	851.94
330.658	875.94
330.887	879.94
331.115	869.94
331.344	856.94
331.572	883.94
331.801	913.94
332.03	908.94
332.258	933.94
332.486	979.94
332.715	981.94
332.943	1039.94
333.172	1079.94
333.4	1107.94
333.629	1124.94
333.857	1151.94
334.085	1153.94
334.314	1149.94
334.542	1096.94
334.771	1080.94
334.999	1049.94
335.227	1060.94
335.455	1105.94
335.684	1079.94
335.912	1033.94
336.14	1028.94
336.369	1041.94
336.597	1017.94
336.825	1029.94
337.053	1023.94
337.281	1040.94
337.51	984.94
337.738	993.94
337.966	933.94
338.194	962.94
338.422	935.94
338.65	904.94
338.878	903.94
339.106	924.94
339.334	952.94
339.562	935.94
339.79	908.94
340.018	891.94
340.246	879.94
340.474	868.94
340.702	863.94
340.93	885.94
341.158	919.94
341.386	897.94
341.614	922.94
341.842	889.94
342.07	855.94
342.298	888.94
342.526	862.94
342.754	852.94
342.981	890.94
343.209	879.94
343.437	919.94
343.665	998.94
343.893	1070.94
344.12	1090.94
344.348	1049.94
344.576	981.94
344.804	983.94
345.031	935.94
345.259	968.94
345.487	910.94
345.714	871.94
345.942	850.94
346.17	878.94
346.397	932.94
346.625	857.94
346.853	843.94
347.08	858.94
347.308	855.94
347.535	878.94
347.763	891.94
347.99	867.94
348.218	877.94
348.445	860.94
348.673	838.94
348.9	853.94
349.128	857.94
349.355	854.94
349.583	836.94
349.81	841.94
350.037	819.94
350.265	842.94
350.492	811.94
350.72	824.94
350.947	834.94
351.174	835.94
351.402	811.94
351.629	829.94
351.856	818.94
352.083	842.94
352.311	807.94
352.538	834.94
352.765	840.94
352.992	840.94
353.22	787.94
353.447	820.94
353.674	791.94
353.901	795.94
354.128	823.94
354.355	779.94
354.583	797.94
354.81	826.94
355.037	832.94
355.264	777.94
355.491	805.94
355.718	823.94
355.945	825.94
356.172	801.94
356.399	807.94
356.626	826.94
356.853	857.94
357.08	824.94
357.307	804.94
357.534	807.94
357.761	803.94
357.988	827.94
358.215	827.94
358.441	821.94
358.668	782.94
358.895	798.94
359.122	823.94
359.349	845.94
359.576	852.94
359.802	837.94
360.029	835.94
360.256	827.94
360.483	804.94
360.709	815.94
360.936	803.94
361.163	801.94
361.39	812.94
361.616	817.94
361.843	830.94
362.07	843.94
362.296	811.94
362.523	804.94
362.749	825.94
362.976	812.94
363.203	804.94
363.429	805.94
363.656	803.94
363.882	809.94
364.109	837.94
364.335	795.94
364.562	828.94
364.788	796.94
365.015	819.94
365.241	802.94
365.468	828.94
365.694	812.94
365.92	781.94
366.147	809.94
366.373	799.94
366.599	787.94
366.826	803.94
367.052	824.94
367.278	826.94
367.505	818.94
367.731	801.94
367.957	826.94
368.184	839.94
368.41	843.94
368.636	822.94
368.862	848.94
369.089	829.94
369.315	848.94
369.541	849.94
369.767	844.94
369.993	854.94
370.219	835.94
370.445	851.94
370.672	862.94
370.898	851.94
371.124	885.94
371.35	890.94
371.576	871.94
371.802	915.94
372.028	863.94
372.254	876.94
372.48	910.94
372.706	897.94
372.932	910.94
373.158	942.94
373.384	899.94
373.61	870.94
373.835	897.94
374.061	883.94
374.287	923.94
374.513	930.94
374.739	947.94
374.965	952.94
375.191	984.94
375.416	995.94
375.642	965.94
375.868	955.94
376.094	926.94
376.319	923.94
376.545	901.94
376.771	906.94
376.997	883.94
377.222	885.94
377.448	890.94
377.674	880.94
377.899	899.94
378.125	868.94
378.35	905.94
378.576	873.94
378.802	876.94
379.027	856.94
379.253	876.94
379.478	869.94
379.704	845.94
379.929	867.94
380.155	887.94
380.38	871.94
380.606	871.94
380.831	872.94
381.057	870.94
381.282	857.94
381.507	885.94
381.733	891.94
381.958	878.94
382.184	893.94
382.409	913.94
382.634	914.94
382.86	899.94
383.085	935.94
383.31	942.94
383.535	981.94
383.761	951.94
383.986	996.94
384.211	989.94
384.436	1013.94
384.662	1063.94
384.887	1078.94
385.112	1060.94
385.337	1090.94
385.562	1063.94
385.787	1068.94
386.013	1090.94
386.238	1081.94
386.463	1097.94
386.688	1093.94
386.913	1073.94
387.138	1071.94
387.363	1065.94
387.588	1028.94
387.813	1079.94
388.038	1023.94
388.263	1041.94
388.488	1060.94
388.713	1057.94
388.938	1056.94
389.163	1039.94
389.387	1045.94
389.612	1044.94
389.837	1024.94
390.062	1044.94
390.287	1025.94
390.512	1005.94
390.736	1055.94
390.961	1101.94
391.186	1097.94
391.411	1127.94
391.636	1163.94
391.86	1171.94
392.085	1214.94
392.31	1192.94
392.534	1179.94
392.759	1178.94
392.984	1155.94
393.208	1123.94
393.433	1163.94
393.658	1123.94
393.882	1123.94
394.107	1115.94
394.331	1135.94
394.556	1127.94
394.78	1153.94
395.005	1141.94
395.229	1147.94
395.454	1160.94
395.678	1185.94
395.903	1234.94
396.127	1200.94
396.352	1184.94
396.576	1155.94
396.801	1127.94
397.025	1146.94
397.249	1147.94
397.474	1239.94
397.698	1209.94
397.922	1221.94
398.147	1178.94
398.371	1281.94
398.595	1256.94
398.82	1327.94
399.044	1439.94
399.268	1579.94
399.492	1799.94
399.717	1991.94
399.941	2021.94
400.165	1827.94
400.389	1659.94
400.613	1539.94
400.837	1447.94
401.062	1391.94
401.286	1395.94
401.51	1331.94
401.734	1359.94
401.958	1360.94
402.182	1400.94
402.406	1364.94
402.63	1377.94
402.854	1421.94
403.078	1445.94
403.302	1506.94
403.526	1489.94
403.75	1527.94
403.974	1555.94
404.198	1543.94
404.422	1550.94
404.645	1537.94
404.869	1499.94
405.093	1507.94
405.317	1489.94
405.541	1429.94
405.765	1468.94
405.988	1465.94
406.212	1486.94
406.436	1451.94
406.66	1544.94
406.883	1501.94
407.107	1619.94
407.331	1724.94
407.555	1746.94
407.778	1712.94
408.002	1696.94
408.226	1663.94
408.449	1643.94
408.673	1551.94
408.896	1494.94
409.12	1503.94
409.344	1543.94
409.567	1490.94
409.791	1514.94
410.014	1535.94
410.238	1518.94
410.461	1474.94
410.685	1465.94
410.908	1383.94
411.132	1388.94
411.355	1341.94
411.578	1413.94
411.802	1413.94
412.025	1413.94
412.249	1441.94
412.472	1443.94
412.695	1384.94
412.919	1357.94
413.142	1384.94
413.365	1335.94
413.589	1341.94
413.812	1352.94
414.035	1340.94
414.258	1321.94
414.482	1311.94
414.705	1373.94
414.928	1351.94
415.151	1386.94
415.374	1357.94
415.597	1317.94
415.821	1329.94
416.044	1296.94
416.267	1296.94
416.49	1301.94
416.713	1287.94
416.936	1333.94
417.159	1326.94
417.382	1301.94
417.605	1283.94
417.828	1335.94
418.051	1337.94
418.274	1331.94
418.497	1341.94
418.72	1368.94
418.943	1352.94
419.166	1461.94
419.389	1568.94
419.611	1497.94
419.834	1444.94
420.057	1383.94
420.28	1333.94
420.503	1306.94
420.726	1310.94
420.948	1316.94
421.171	1304.94
421.394	1322.94
421.617	1283.94
421.839	1324.94
422.062	1361.94
422.285	1312.94
422.507	1293.94
422.73	1344.94
422.953	1344.94
423.175	1385.94
423.398	1360.94
423.621	1374.94
423.843	1385.94
424.066	1358.94
424.288	1372.94
424.511	1345.94
424.733	1329.94
424.956	1356.94
425.178	1324.94
425.401	1316.94
425.623	1315.94
425.846	1279.94
426.068	1273.94
426.291	1250.94
426.513	1220.94
426.735	1254.94
426.958	1253.94
427.18	1191.94
427.402	1203.94
427.625	1207.94
427.847	1169.94
428.069	1192.94
428.292	1203.94
428.514	1138.94
428.736	1182.94
428.958	1184.94
429.181	1153.94
429.403	1147.94
429.625	1153.94
429.847	1147.94
430.069	1165.94
430.292	1155.94
430.514	1114.94
430.736	1153.94
430.958	1151.94
431.18	1146.94
431.402	1152.94
431.624	1159.94
431.846	1189.94
432.068	1177.94
432.29	1183.94
432.512	1156.94
432.734	1159.94
432.956	1184.94
433.178	1178.94
433.4	1160.94
433.622	1171.94
433.844	1188.94
434.066	1189.94
434.287	1194.94
434.509	1244.94
434.731	1275.94
434.953	1350.94
435.175	1328.94
435.397	1321.94
435.618	1249.94
435.84	1215.94
436.062	1179.94
436.284	1179.94
436.505	1164.94
436.727	1184.94
436.949	1177.94
437.17	1155.94
437.392	1163.94
437.614	1114.94
437.835	1096.94
438.057	1117.94
438.278	1111.94
438.5	1088.94
438.721	1095.94
438.943	1111.94
439.165	1102.94
439.386	1119.94
439.608	1165.94
439.829	1141.94
440.05	1171.94
440.272	1157.94
440.493	1167.94
440.715	1203.94
440.936	1214.94
441.158	1225.94
441.379	1270.94
441.6	1308.94
441.822	1291.94
442.043	1327.94
442.264	1310.94
442.486	1286.94
442.707	1238.94
442.928	1273.94
443.149	1276.94
443.371	1252.94
443.592	1303.94
443.813	1331.94
444.034	1299.94
444.255	1353.94
444.476	1401.94
444.698	1491.94
444.919	1501.94
445.14	1627.94
445.361	1444.94
445.582	1372.94
445.803	1289.94
446.024	1269.94
446.245	1241.94
446.466	1196.94
446.687	1161.94
446.908	1189.94
447.129	1136.94
447.35	1121.94
447.571	1107.94
447.792	1111.94
448.013	1083.94
448.234	1094.94
448.455	1051.94
448.675	1064.94
448.896	1073.94
449.117	1049.94
449.338	1056.94
449.559	1054.94
449.779	1059.94
450	1059.94
450.221	1044.94
450.442	1063.94
450.662	1056.94
450.883	1061.94
451.104	1084.94
451.324	1080.94
451.545	1075.94
451.766	1077.94
451.986	1087.94
452.207	1045.94
452.428	1063.94
452.648	1045.94
452.869	1023.94
453.089	1011.94
453.31	1028.94
453.53	1037.94
453.751	1026.94
453.971	1038.94
454.192	1018.94
454.412	1007.94
454.633	1023.94
454.853	1009.94
455.073	986.94
455.294	1015.94
455.514	966.94
455.734	1031.94
455.955	968.94
456.175	997.94
456.395	994.94
456.616	978.94
456.836	1009.94
457.056	1001.94
457.276	973.94
457.497	1033.94
457.717	976.94
457.937	1027.94
458.157	983.94
458.377	1037.94
458.598	1043.94
458.818	1103.94
459.038	1107.94
459.258	1130.94
459.478	1161.94
459.698	1188.94
459.918	1252.94
460.138	1291.94
460.358	1307.94
460.578	1365.94
460.798	1384.94
461.018	1391.94
461.238	1375.94
461.458	1390.94
461.678	1359.94
461.898	1403.94
462.118	1403.94
462.338	1489.94
462.558	1529.94
462.777	1574.94
462.997	1691.94
463.217	1795.94
463.437	1829.94
463.657	1724.94
463.876	1664.94
464.096	1673.94
464.316	1578.94
464.536	1614.94
464.755	1512.94
464.975	1496.94
465.195	1416.94
465.414	1370.94
465.634	1285.94
465.854	1219.94
466.073	1188.94
466.293	1145.94
466.512	1126.94
466.732	1094.94
466.951	1121.94
467.171	1106.94
467.391	1128.94
467.61	1102.94
467.829	1116.94
468.049	1101.94
468.268	1053.94
468.488	1060.94
468.707	1077.94
468.927	1064.94
469.146	1076.94
469.365	1063.94
469.585	1112.94
469.804	1129.94
470.023	1137.94
470.243	1160.94
470.462	1165.94
470.681	1182.94
470.901	1168.94
471.12	1145.94
471.339	1109.94
471.558	1103.94
471.777	1086.94
471.997	1086.94
472.216	1081.94
472.435	1035.94
472.654	1057.94
472.873	1062.94
473.092	1022.94
473.311	1053.94
473.53	1045.94
473.749	1042.94
473.968	1049.94
474.187	1058.94
474.406	1031.94
474.625	1053.94
474.844	1063.94
475.063	1041.94
475.282	1039.94
475.501	1071.94
475.72	1080.94
475.939	1088.94
476.158	1080.94
476.377	1116.94
476.596	1082.94
476.814	1115.94
477.033	1107.94
477.252	1112.94
477.471	1125.94
477.69	1177.94
477.908	1188.94
478.127	1234.94
478.346	1275.94
478.564	1283.94
478.783	1284.94
479.002	1347.94
479.22	1323.94
479.439	1336.94
479.658	1303.94
479.876	1311.94
480.095	1321.94
480.313	1374.94
480.532	1391.94
480.751	1413.94
480.969	1370.94
481.188	1287.94
481.406	1307.94
481.624	1240.94
481.843	1216.94
482.061	1203.94
482.28	1223.94
482.498	1203.94
482.717	1190.94
482.935	1183.94
483.153	1195.94
483.372	1186.94
483.59	1219.94
483.808	1158.94
484.027	1195.94
484.245	1196.94
484.463	1193.94
484.681	1207.94
484.9	1236.94
485.118	1228.94
485.336	1202.94
485.554	1239.94
485.772	1234.94
485.99	1282.94
486.209	1283.94
486.427	1267.94
486.645	1267.94
486.863	1287.94
487.081	1230.94
487.299	1271.94
487.517	1277.94
487.735	1236.94
487.953	1253.94
488.171	1236.94
488.389	1251.94
488.607	1215.94
488.825	1265.94
489.043	1219.94
489.261	1226.94
489.479	1261.94
489.696	1248.94
489.914	1229.94
490.132	1261.94
490.35	1269.94
490.568	1284.94
490.786	1287.94
491.003	1260.94
491.221	1290.94
491.439	1293.94
491.657	1260.94
491.874	1263.94
492.092	1261.94
492.31	1300.94
492.527	1304.94
492.745	1301.94
492.963	1299.94
493.18	1292.94
493.398	1319.94
493.615	1302.94
493.833	1305.94
494.05	1315.94
494.268	1340.94
494.485	1335.94
494.703	1347.94
494.92	1366.94
495.138	1330.94
495.355	1355.94
495.573	1336.94
495.79	1367.94
496.008	1360.94
496.225	1395.94
496.442	1364.94
496.66	1400.94
496.877	1387.94
497.094	1443.94
497.312	1497.94
497.529	1494.94
497.746	1551.94
497.963	1614.94
498.181	1655.94
498.398	1746.94
498.615	1868.94
498.832	1984.94
499.049	2179.94
499.267	2314.94
499.484	2546.94
499.701	2754.94
499.918	3091.94
500.135	3455.94
500.352	3800.94
500.569	4035.94
500.786	3960.94
501.003	3737.94
501.22	3363.94
501.437	3029.94
501.654	2733.94
501.871	2379.94
502.088	2267.94
502.305	2132.94
502.522	2015.94
502.739	1911.94
502.956	1800.94
503.172	1708.94
503.389	1658.94
503.606	1593.94
503.823	1563.94
504.04	1568.94
504.256	1561.94
504.473	1611.94
504.69	1612.94
504.907	1611.94
505.123	1491.94
505.34	1393.94
505.557	1355.94
505.773	1334.94
505.99	1308.94
506.207	1266.94
506.423	1233.94
506.64	1210.94
506.856	1219.94
507.073	1170.94
507.289	1182.94
507.506	1211.94
507.722	1162.94
507.939	1183.94
508.155	1151.94
508.372	1159.94
508.588	1120.94
508.805	1145.94
509.021	1114.94
509.238	1117.94
509.454	1108.94
509.67	1106.94
509.887	1107.94
510.103	1089.94
510.319	1108.94
510.536	1089.94
510.752	1049.94
510.968	1059.94
511.184	1070.94
511.401	1066.94
511.617	1071.94
511.833	1067.94
512.049	1087.94
512.265	1080.94
512.481	1079.94
512.698	1045.94
512.914	1075.94
513.13	1062.94
513.346	1043.94
513.562	1051.94
513.778	1068.94
513.994	1080.94
514.21	1099.94
514.426	1060.94
514.642	1112.94
514.858	1119.94
515.074	1109.94
515.29	1121.94
515.506	1116.94
515.721	1130.94
515.937	1157.94
516.153	1160.94
516.369	1183.94
516.585	1231.94
516.801	1274.94
517.016	1329.94
517.232	1417.94
517.448	1478.94
517.664	1527.94
517.879	1529.94
518.095	1513.94
518.311	1489.94
518.527	1423.94
518.742	1362.94
518.958	1306.94
519.173	1293.94
519.389	1226.94
519.605	1161.94
519.82	1163.94
520.036	1147.94
520.251	1127.94
520.467	1117.94
520.682	1112.94
520.898	1060.94
521.113	1087.94
521.329	1049.94
521.544	1031.94
521.76	1048.94
521.975	1030.94
522.19	1009.94
522.406	991.94
522.621	1028.94
522.836	998.94
523.052	1016.94
523.267	1002.94
523.482	996.94
523.698	977.94
523.913	974.94
524.128	1001.94
524.343	977.94
524.559	964.94
524.774	979.94
524.989	1008.94
525.204	995.94
525.419	973.94
525.634	967.94
525.849	949.94
526.064	940.94
526.28	980.94
526.495	965.94
526.71	935.94
526.925	951.94
527.14	963.94
527.355	963.94
527.57	948.94
527.785	966.94
527.999	949.94
528.214	964.94
528.429	981.94
528.644	954.94
528.859	949.94
529.074	945.94
529.289	945.94
529.503	955.94
529.718	957.94
529.933	940.94
530.148	932.94
530.363	948.94
530.577	957.94
530.792	939.94
531.007	925.94
531.221	950.94
531.436	955.94
531.651	958.94
531.865	958.94
532.08	936.94
532.295	969.94
532.509	947.94
532.724	951.94
532.938	923.94
533.153	949.94
533.367	955.94
533.582	954.94
533.796	927.94
534.011	933.94
534.225	943.94
534.44	925.94
534.654	920.94
534.868	962.94
535.083	923.94
535.297	920.94
535.511	905.94
535.726	900.94
535.94	909.94
536.154	891.94
536.369	897.94
536.583	861.94
536.797	888.94
537.011	889.94
537.225	873.94
537.44	899.94
537.654	880.94
537.868	884.94
538.082	845.94
538.296	851.94
538.51	865.94
538.724	872.94
538.938	857.94
539.153	838.94
539.367	873.94
539.581	896.94
539.795	857.94
540.009	842.94
540.222	879.94
540.436	834.94
540.65	839.94
540.864	863.94
541.078	873.94
541.292	847.94
541.506	839.94
541.72	841.94
541.934	864.94
542.147	855.94
542.361	854.94
542.575	851.94
542.789	842.94
543.002	840.94
543.216	824.94
543.43	848.94
543.644	806.94
543.857	833.94
544.071	835.94
544.285	850.94
544.498	880.94
544.712	865.94
544.925	851.94
545.139	859.94
545.352	856.94
545.566	883.94
545.779	876.94
545.993	875.94
546.206	885.94
546.42	898.94
546.633	885.94
546.847	869.94
547.06	882.94
547.274	868.94
547.487	874.94
547.7	884.94
547.914	855.94
548.127	877.94
548.34	897.94
548.554	876.94
548.767	899.94
548.98	893.94
549.193	889.94
549.407	895.94
549.62	895.94
549.833	897.94
550.046	931.94
550.259	895.94
550.473	879.94
550.686	872.94
550.899	869.94
551.112	865.94
551.325	867.94
551.538	855.94
551.751	880.94
551.964	835.94
552.177	850.94
552.39	894.94
552.603	889.94
552.816	924.94
553.029	962.94
553.242	925.94
553.455	944.94
553.667	952.94
553.88	948.94
554.093	928.94
554.306	895.94
554.519	889.94
554.732	873.94
554.944	854.94
555.157	812.94
555.37	796.94
555.583	807.94
555.795	793.94
556.008	783.94
556.221	787.94
556.433	790.94
556.646	767.94
556.859	756.94
557.071	745.94
557.284	740.94
557.496	736.94
557.709	740.94
557.921	733.94
558.134	740.94
558.346	713.94
558.559	732.94
558.771	727.94
558.984	721.94
559.196	735.94
559.409	736.94
559.621	720.94
559.833	709.94
560.046	732.94
560.258	715.94
560.47	699.94
560.683	720.94
560.895	691.94
561.107	691.94
561.32	697.94
561.532	709.94
561.744	706.94
561.956	715.94
562.168	711.94
562.381	703.94
562.593	719.94
562.805	714.94
563.017	733.94
563.229	701.94
563.441	720.94
563.653	714.94
563.865	723.94
564.077	730.94
564.289	741.94
564.501	750.94
564.713	746.94
564.925	782.94
565.137	808.94
565.349	811.94
565.561	820.94
565.773	888.94
565.985	899.94
566.197	951.94
566.408	999.94
566.62	1089.94
566.832	1129.94
567.044	1179.94
567.255	1215.94
567.467	1223.94
567.679	1284.94
567.891	1355.94
568.102	1347.94
568.314	1299.94
568.526	1196.94
568.737	1069.94
568.949	1023.94
569.161	922.94
569.372	875.94
569.584	823.94
569.795	809.94
570.007	767.94
570.218	766.94
570.43	768.94
570.641	732.94
570.853	747.94
571.064	748.94
571.276	740.94
571.487	722.94
571.698	694.94
571.91	689.94
572.121	646.94
572.333	639.94
572.544	643.94
572.755	602.94
572.966	633.94
573.178	610.94
573.389	594.94
573.6	608.94
573.811	593.94
574.023	591.94
574.234	598.94
574.445	593.94
574.656	588.94
574.867	583.94
575.078	567.94
575.289	588.94
575.501	566.94
575.712	567.94
575.923	552.94
576.134	552.94
576.345	571.94
576.556	557.94
576.767	546.94
576.978	525.94
577.188	529.94
577.399	536.94
577.61	526.94
577.821	534.94
578.032	529.94
578.243	510.94
578.454	540.94
578.665	523.94
578.875	504.94
579.086	530.94
579.297	515.94
579.508	512.94
579.718	511.94
579.929	524.94
580.14	512.94
580.35	513.94
580.561	500.94
580.772	492.94
580.982	509.94
581.193	492.94
581.403	521.94
581.614	498.94
581.825	524.94
582.035	483.94
582.246	501.94
582.456	486.94
582.667	482.94
582.877	472.94
583.087	504.94
583.298	490.94
583.508	473.94
583.719	481.94
583.929	482.94
584.139	479.94
584.35	459.94
584.56	465.94
584.77	465.94
584.981	468.94
585.191	456.94
585.401	455.94
585.611	496.94
585.821	467.94
586.032	449.94
586.242	464.94
586.452	466.94
586.662	469.94
586.872	473.94
587.082	458.94
587.292	456.94
587.502	472.94
587.713	473.94
587.923	469.94
588.133	482.94
588.343	473.94
588.553	461.94
588.762	456.94
588.972	466.94
589.182	471.94
589.392	484.94
589.602	455.94
589.812	459.94
590.022	471.94
590.232	449.94
590.441	479.94
590.651	481.94
590.861	464.94
591.071	483.94
591.281	494.94
591.49	488.94
591.7	484.94
591.91	486.94
592.119	508.94
592.329	536.94
592.539	517.94
592.748	567.94
592.958	563.94
593.167	551.94
593.377	583.94
593.587	589.94
593.796	576.94
594.006	583.94
594.215	598.94
594.424	627.94
594.634	584.94
594.843	572.94
595.053	555.94
595.262	528.94
595.472	508.94
595.681	500.94
595.89	479.94
596.1	462.94
596.309	441.94
596.518	456.94
596.727	463.94
596.937	467.94
597.146	443.94
597.355	435.94
597.564	416.94
597.774	433.94
597.983	403.94
598.192	416.94
598.401	419.94
598.61	421.94
598.819	422.94
599.028	397.94
599.237	376.94
599.446	385.94
599.655	402.94
599.864	396.94
600.073	389.94
600.282	378.94
600.491	381.94
600.7	392.94
600.909	400.94
601.118	383.94
601.327	367.94
601.536	359.94
601.745	391.94
601.953	382.94
602.162	385.94
602.371	376.94
602.58	390.94
602.789	395.94
602.997	352.94
603.206	381.94
603.415	371.94
603.623	352.94
603.832	360.94
604.041	363.94
604.249	376.94
604.458	360.94
604.666	371.94
604.875	371.94
605.084	357.94
605.292	363.94
605.501	355.94
605.709	336.94
605.918	365.94
606.126	359.94
606.334	348.94
606.543	363.94
606.751	360.94
606.96	341.94
607.168	352.94
607.376	367.94
607.585	343.94
607.793	340.94
608.001	352.94
608.21	343.94
608.418	332.94
608.626	342.94
608.834	350.94
609.043	350.94
609.251	329.94
609.459	322.94
609.667	331.94
609.875	352.94
610.083	339.94
610.291	331.94
610.499	333.94
610.707	312.94
610.916	330.94
611.124	336.94
611.332	325.94
611.54	326.94
611.748	361.94
611.955	339.94
612.163	339.94
612.371	332.94
612.579	321.94
612.787	330.94
612.995	313.94
613.203	331.94
613.411	323.94
613.618	341.94
613.826	314.94
614.034	338.94
614.242	315.94
614.449	335.94
614.657	335.94
614.865	337.94
615.072	335.94
615.28	336.94
615.488	335.94
615.695	332.94
615.903	310.94
616.111	324.94
616.318	343.94
616.526	328.94
616.733	339.94
616.941	326.94
617.148	348.94
617.356	319.94
617.563	305.94
617.771	324.94
617.978	316.94
618.185	328.94
618.393	301.94
618.6	326.94
618.807	337.94
619.015	327.94
619.222	323.94
619.429	321.94
619.637	322.94
619.844	296.94
620.051	310.94
620.258	323.94
620.466	312.94
620.673	289.94
620.88	285.94
621.087	303.94
621.294	304.94
621.501	297.94
621.708	298.94
621.915	314.94
622.122	314.94
622.329	312.94
622.536	308.94
622.743	297.94
622.95	302.94
623.157	299.94
623.364	293.94
623.571	292.94
623.778	292.94
623.985	312.94
624.192	294.94
624.399	288.94
624.606	280.94
624.812	292.94
625.019	276.94
625.226	292.94
625.433	296.94
625.639	280.94
625.846	287.94
626.053	286.94
626.259	282.94
626.466	285.94
626.673	266.94
626.879	279.94
627.086	272.94
627.293	278.94
627.499	268.94
627.706	277.94
627.912	282.94
628.119	266.94
628.325	264.94
628.532	248.94
628.738	283.94
628.945	282.94
629.151	267.94
629.357	269.94
629.564	256.94
629.77	262.94
629.976	272.94
630.183	260.94
630.389	270.94
630.595	242.94
630.802	262.94
631.008	243.94
631.214	265.94
631.42	257.94
631.627	256.94
631.833	257.94
632.039	231.94
632.245	256.94
632.451	247.94
632.657	250.94
632.863	248.94
633.069	255.94
633.275	246.94
633.481	244.94
633.688	244.94
633.893	221.94
634.099	239.94
634.305	232.94
634.511	234.94
634.717	258.94
634.923	241.94
635.129	240.94
635.335	263.94
635.541	227.94
635.747	254.94
635.952	218.94
636.158	251.94
636.364	243.94
636.57	221.94
636.775	243.94
636.981	228.94
637.187	247.94
637.392	231.94
637.598	237.94
637.804	233.94
638.009	221.94
638.215	231.94
638.421	216.94
638.626	213.94
638.832	212.94
639.037	224.94
639.243	203.94
639.448	207.94
639.654	220.94
639.859	210.94
640.065	219.94
640.27	224.94
640.475	221.94
640.681	224.94
640.886	225.94
641.091	219.94
641.297	209.94
641.502	221.94
641.707	208.94
641.913	211.94
642.118	211.94
642.323	213.94
642.528	223.94
642.733	229.94
642.939	209.94
643.144	223.94
643.349	216.94
643.554	188.94
643.759	216.94
643.964	216.94
644.169	223.94
644.374	215.94
644.579	221.94
644.784	215.94
644.989	221.94
645.194	214.94
645.399	195.94
645.604	212.94
645.809	234.94
646.014	189.94
646.219	214.94
646.423	225.94
646.628	207.94
646.833	210.94
647.038	225.94
647.243	213.94
647.447	212.94
647.652	204.94
647.857	221.94
648.062	213.94
648.266	218.94
648.471	229.94
648.676	218.94
648.88	222.94
649.085	217.94
649.289	225.94
649.494	197.94
649.698	193.94
649.903	209.94
650.107	199.94
650.312	188.94
650.516	175.94
650.721	208.94
650.925	194.94
651.13	184.94
651.334	180.94
651.539	194.94
651.743	183.94
651.947	179.94
652.152	176.94
652.356	192.94
652.56	193.94
652.764	157.94
652.969	167.94
653.173	170.94
653.377	167.94
653.581	170.94
653.785	155.94
653.99	151.94
654.194	156.94
654.398	175.94
654.602	179.94
654.806	159.94
655.01	163.94
655.214	157.94
655.418	153.94
655.622	160.94
655.826	143.94
656.03	154.94
656.234	150.94
656.438	138.94
656.642	154.94
656.846	145.94
657.049	139.94
657.253	143.94
657.457	145.94
657.661	139.94
657.865	126.94
658.068	128.94
658.272	119.94
658.476	126.94
658.68	122.94
658.883	117.94
659.087	106.94
659.291	119.94
659.494	104.94
659.698	95.94
659.901	121.94
660.105	106.94
660.309	94.94
660.512	113.94
660.716	106.94
660.919	100.94
661.123	101.94
661.326	95.94
661.53	82.94
661.733	105.94
661.936	93.94
662.14	93.94
662.343	86.94
662.546	95.94
662.75	87.94
662.953	87.94
663.156	88.94
663.36	100.94
663.563	88.94
663.766	86.94
663.969	96.94
664.173	92.94
664.376	100.94
664.579	82.94
664.782	75.94
664.985	88.94
665.188	86.94
665.391	81.94
665.594	77.94
665.797	81.94
666	88.94
666.203	81.94
666.406	91.94
666.609	84.94
666.812	88.94
667.015	87.94
667.218	87.94
667.421	81.94
667.624	80.94
667.827	82.94
668.03	91.94
668.232	74.94
668.435	73.94
668.638	69.94
668.841	78.94
669.043	73.94
669.246	55.94
669.449	90.94
669.651	84.94
669.854	67.94
670.057	57.94
670.259	84.94
670.462	81.94
670.665	78.94
670.867	81.94
671.07	83.94
671.272	89.94
671.475	84.94
671.677	73.94
671.88	88.94
672.082	79.94
672.284	81.94
672.487	83.94
672.689	88.94
672.892	75.94
