Data from NiCl2@0.125M.TitratingCurve.Agarose3%dH2O.NegLispCup.LampEnergy10.LIBS07252019_HRD10591_18-28-24-575.txt Node
Date: Thu Jul 25 18:28:24 EDT 2019
User: cochatt
Spectrometer: HR+D1059
Trigger mode: 1
Integration Time (sec): 1.000000E-1
Scans to average: 1
Electric dark correction enabled: true
Nonlinearity correction enabled: false
Boxcar width: 0
XAxis mode: Wavelengths
Number of Pixels in Spectrum: 2048
>>>>>Begin Spectral Data<<<<<
223.165	-28.75
223.4	-28.75
223.635	-28.75
223.869	-19.75
224.104	-16.75
224.338	-24.75
224.573	-11.75
224.808	5.25
225.042	3.25
225.277	-5.75
225.511	-5.75
225.746	-2.75
225.98	7.25
226.215	22.25
226.449	12.25
226.683	22.25
226.918	13.25
227.152	30.25
227.387	31.25
227.621	43.25
227.856	59.25
228.09	49.25
228.324	55.25
228.559	53.25
228.793	77.25
229.027	99.25
229.262	116.25
229.496	118.25
229.73	129.25
229.964	138.25
230.199	132.25
230.433	121.25
230.667	144.25
230.901	135.25
231.136	128.25
231.37	142.25
231.604	133.25
231.838	142.25
232.072	156.25
232.306	149.25
232.541	151.25
232.775	176.25
233.009	157.25
233.243	164.25
233.477	165.25
233.711	171.25
233.945	161.25
234.179	169.25
234.413	143.25
234.647	160.25
234.881	157.25
235.115	145.25
235.349	163.25
235.583	159.25
235.817	169.25
236.051	174.25
236.285	153.25
236.519	165.25
236.753	159.25
236.987	168.25
237.221	165.25
237.455	153.25
237.689	180.25
237.922	170.25
238.156	173.25
238.39	182.25
238.624	176.25
238.858	177.25
239.091	175.25
239.325	176.25
239.559	194.25
239.793	176.25
240.027	173.25
240.26	174.25
240.494	191.25
240.728	193.25
240.961	186.25
241.195	203.25
241.429	204.25
241.662	204.25
241.896	210.25
242.13	195.25
242.363	208.25
242.597	199.25
242.83	217.25
243.064	209.25
243.298	214.25
243.531	215.25
243.765	231.25
243.998	224.25
244.232	205.25
244.465	210.25
244.699	200.25
244.932	225.25
245.166	217.25
245.399	219.25
245.633	238.25
245.866	222.25
246.099	231.25
246.333	229.25
246.566	246.25
246.8	246.25
247.033	236.25
247.266	231.25
247.5	241.25
247.733	257.25
247.966	265.25
248.2	259.25
248.433	257.25
248.666	257.25
248.899	254.25
249.133	253.25
249.366	253.25
249.599	268.25
249.832	267.25
250.066	265.25
250.299	253.25
250.532	267.25
250.765	271.25
250.998	258.25
251.231	265.25
251.465	273.25
251.698	265.25
251.931	292.25
252.164	273.25
252.397	287.25
252.63	284.25
252.863	278.25
253.096	284.25
253.329	297.25
253.562	278.25
253.795	314.25
254.028	274.25
254.261	287.25
254.494	290.25
254.727	300.25
254.96	297.25
255.193	308.25
255.426	300.25
255.659	300.25
255.892	310.25
256.124	307.25
256.357	312.25
256.59	299.25
256.823	314.25
257.056	301.25
257.289	317.25
257.521	309.25
257.754	314.25
257.987	309.25
258.22	310.25
258.452	315.25
258.685	313.25
258.918	346.25
259.151	344.25
259.383	333.25
259.616	318.25
259.849	327.25
260.081	328.25
260.314	332.25
260.547	330.25
260.779	329.25
261.012	348.25
261.244	335.25
261.477	345.25
261.71	328.25
261.942	347.25
262.175	348.25
262.407	357.25
262.64	331.25
262.872	345.25
263.105	334.25
263.337	354.25
263.57	356.25
263.802	346.25
264.035	363.25
264.267	345.25
264.499	360.25
264.732	381.25
264.964	358.25
265.197	388.25
265.429	365.25
265.661	376.25
265.894	376.25
266.126	370.25
266.358	366.25
266.591	377.25
266.823	378.25
267.055	384.25
267.287	397.25
267.52	384.25
267.752	393.25
267.984	388.25
268.216	382.25
268.448	402.25
268.681	395.25
268.913	381.25
269.145	380.25
269.377	382.25
269.609	395.25
269.841	389.25
270.073	394.25
270.306	401.25
270.538	406.25
270.77	388.25
271.002	398.25
271.234	400.25
271.466	395.25
271.698	398.25
271.93	410.25
272.162	411.25
272.394	402.25
272.626	396.25
272.858	411.25
273.09	406.25
273.322	422.25
273.553	426.25
273.785	426.25
274.017	426.25
274.249	440.25
274.481	422.25
274.713	431.25
274.945	442.25
275.176	420.25
275.408	439.25
275.64	448.25
275.872	452.25
276.104	436.25
276.335	427.25
276.567	439.25
276.799	456.25
277.031	440.25
277.262	455.25
277.494	453.25
277.726	465.25
277.957	457.25
278.189	461.25
278.421	447.25
278.652	463.25
278.884	441.25
279.115	461.25
279.347	466.25
279.579	473.25
279.81	454.25
280.042	486.25
280.273	476.25
280.505	496.25
280.736	471.25
280.968	474.25
281.199	494.25
281.431	469.25
281.662	484.25
281.894	492.25
282.125	484.25
282.356	494.25
282.588	512.25
282.819	503.25
283.051	502.25
283.282	520.25
283.513	501.25
283.745	477.25
283.976	481.25
284.207	501.25
284.439	530.25
284.67	512.25
284.901	502.25
285.132	495.25
285.364	488.25
285.595	505.25
285.826	523.25
286.057	522.25
286.288	528.25
286.52	531.25
286.751	518.25
286.982	529.25
287.213	505.25
287.444	505.25
287.675	543.25
287.906	559.25
288.138	533.25
288.369	540.25
288.6	554.25
288.831	538.25
289.062	537.25
289.293	549.25
289.524	549.25
289.755	556.25
289.986	543.25
290.217	554.25
290.448	546.25
290.679	551.25
290.91	555.25
291.141	535.25
291.371	550.25
291.602	538.25
291.833	548.25
292.064	560.25
292.295	556.25
292.526	564.25
292.757	537.25
292.987	554.25
293.218	562.25
293.449	533.25
293.68	560.25
293.91	560.25
294.141	557.25
294.372	549.25
294.603	554.25
294.833	564.25
295.064	564.25
295.295	574.25
295.525	580.25
295.756	581.25
295.987	576.25
296.217	587.25
296.448	560.25
296.679	581.25
296.909	591.25
297.14	581.25
297.37	600.25
297.601	582.25
297.831	596.25
298.062	607.25
298.292	612.25
298.523	630.25
298.753	621.25
298.984	598.25
299.214	607.25
299.445	606.25
299.675	592.25
299.905	609.25
300.136	590.25
300.366	611.25
300.597	616.25
300.827	644.25
301.057	624.25
301.288	616.25
301.518	637.25
301.748	626.25
301.979	647.25
302.209	645.25
302.439	656.25
302.669	648.25
302.9	643.25
303.13	651.25
303.36	658.25
303.59	624.25
303.82	628.25
304.051	608.25
304.281	624.25
304.511	634.25
304.741	610.25
304.971	623.25
305.201	619.25
305.431	639.25
305.661	630.25
305.891	637.25
306.121	626.25
306.352	627.25
306.582	605.25
306.812	593.25
307.042	638.25
307.272	595.25
307.502	596.25
307.731	616.25
307.961	597.25
308.191	591.25
308.421	616.25
308.651	591.25
308.881	592.25
309.111	618.25
309.341	609.25
309.571	618.25
309.8	609.25
310.03	615.25
310.26	616.25
310.49	613.25
310.72	615.25
310.949	619.25
311.179	610.25
311.409	611.25
311.639	609.25
311.868	615.25
312.098	640.25
312.328	632.25
312.557	644.25
312.787	645.25
313.017	671.25
313.246	632.25
313.476	645.25
313.706	633.25
313.935	631.25
314.165	674.25
314.394	658.25
314.624	683.25
314.853	659.25
315.083	655.25
315.312	638.25
315.542	669.25
315.771	654.25
316.001	650.25
316.23	633.25
316.46	623.25
316.689	654.25
316.919	634.25
317.148	654.25
317.377	656.25
317.607	637.25
317.836	645.25
318.065	670.25
318.295	664.25
318.524	640.25
318.753	647.25
318.983	624.25
319.212	649.25
319.441	633.25
319.67	623.25
319.9	640.25
320.129	655.25
320.358	644.25
320.587	643.25
320.816	646.25
321.046	649.25
321.275	654.25
321.504	661.25
321.733	626.25
321.962	652.25
322.191	671.25
322.42	640.25
322.649	657.25
322.878	659.25
323.108	633.25
323.337	656.25
323.566	652.25
323.795	658.25
324.024	666.25
324.253	678.25
324.482	636.25
324.71	658.25
324.939	666.25
325.168	689.25
325.397	649.25
325.626	693.25
325.855	680.25
326.084	669.25
326.313	696.25
326.542	724.25
326.77	711.25
326.999	709.25
327.228	688.25
327.457	680.25
327.686	690.25
327.914	712.25
328.143	715.25
328.372	705.25
328.6	718.25
328.829	707.25
329.058	707.25
329.287	720.25
329.515	745.25
329.744	716.25
329.972	689.25
330.201	703.25
330.43	726.25
330.658	726.25
330.887	707.25
331.115	753.25
331.344	730.25
331.572	764.25
331.801	734.25
332.03	760.25
332.258	790.25
332.486	825.25
332.715	849.25
332.943	840.25
333.172	876.25
333.4	920.25
333.629	950.25
333.857	948.25
334.085	957.25
334.314	955.25
334.542	923.25
334.771	925.25
334.999	918.25
335.227	882.25
335.455	894.25
335.684	908.25
335.912	867.25
336.14	870.25
336.369	826.25
336.597	858.25
336.825	839.25
337.053	854.25
337.281	820.25
337.51	820.25
337.738	807.25
337.966	768.25
338.194	780.25
338.422	783.25
338.65	762.25
338.878	758.25
339.106	770.25
339.334	781.25
339.562	753.25
339.79	734.25
340.018	720.25
340.246	719.25
340.474	713.25
340.702	736.25
340.93	752.25
341.158	750.25
341.386	747.25
341.614	754.25
341.842	717.25
342.07	718.25
342.298	740.25
342.526	714.25
342.754	736.25
342.981	737.25
343.209	765.25
343.437	775.25
343.665	836.25
343.893	906.25
344.12	912.25
344.348	900.25
344.576	858.25
344.804	828.25
345.031	797.25
345.259	780.25
345.487	757.25
345.714	725.25
345.942	747.25
346.17	723.25
346.397	759.25
346.625	701.25
346.853	709.25
347.08	726.25
347.308	714.25
347.535	722.25
347.763	728.25
347.99	725.25
348.218	710.25
348.445	720.25
348.673	708.25
348.9	698.25
349.128	717.25
349.355	688.25
349.583	706.25
349.81	713.25
350.037	686.25
350.265	698.25
350.492	670.25
350.72	714.25
350.947	698.25
351.174	689.25
351.402	696.25
351.629	688.25
351.856	676.25
352.083	673.25
352.311	698.25
352.538	697.25
352.765	695.25
352.992	686.25
353.22	658.25
353.447	686.25
353.674	684.25
353.901	676.25
354.128	695.25
354.355	685.25
354.583	681.25
354.81	681.25
355.037	695.25
355.264	703.25
355.491	700.25
355.718	714.25
355.945	675.25
356.172	692.25
356.399	712.25
356.626	704.25
356.853	692.25
357.08	672.25
357.307	698.25
357.534	718.25
357.761	697.25
357.988	702.25
358.215	676.25
358.441	700.25
358.668	694.25
358.895	713.25
359.122	702.25
359.349	697.25
359.576	698.25
359.802	712.25
360.029	685.25
360.256	704.25
360.483	696.25
360.709	708.25
360.936	716.25
361.163	712.25
361.39	700.25
361.616	669.25
361.843	689.25
362.07	707.25
362.296	713.25
362.523	695.25
362.749	685.25
362.976	673.25
363.203	710.25
363.429	675.25
363.656	689.25
363.882	696.25
364.109	683.25
364.335	688.25
364.562	666.25
364.788	674.25
365.015	698.25
365.241	681.25
365.468	695.25
365.694	658.25
365.92	698.25
366.147	664.25
366.373	681.25
366.599	685.25
366.826	701.25
367.052	687.25
367.278	688.25
367.505	688.25
367.731	712.25
367.957	692.25
368.184	687.25
368.41	695.25
368.636	721.25
368.862	690.25
369.089	715.25
369.315	716.25
369.541	725.25
369.767	707.25
369.993	730.25
370.219	726.25
370.445	742.25
370.672	730.25
370.898	736.25
371.124	754.25
371.35	760.25
371.576	753.25
371.802	770.25
372.028	743.25
372.254	751.25
372.48	742.25
372.706	781.25
372.932	781.25
373.158	766.25
373.384	742.25
373.61	758.25
373.835	782.25
374.061	760.25
374.287	775.25
374.513	776.25
374.739	786.25
374.965	814.25
375.191	835.25
375.416	846.25
375.642	827.25
375.868	796.25
376.094	784.25
376.319	767.25
376.545	783.25
376.771	783.25
376.997	770.25
377.222	739.25
377.448	738.25
377.674	732.25
377.899	731.25
378.125	742.25
378.35	741.25
378.576	747.25
378.802	722.25
379.027	760.25
379.253	728.25
379.478	727.25
379.704	750.25
379.929	756.25
380.155	728.25
380.38	741.25
380.606	741.25
380.831	734.25
381.057	738.25
381.282	736.25
381.507	749.25
381.733	788.25
381.958	770.25
382.184	788.25
382.409	796.25
382.634	791.25
382.86	774.25
383.085	797.25
383.31	834.25
383.535	820.25
383.761	827.25
383.986	842.25
384.211	856.25
384.436	894.25
384.662	909.25
384.887	917.25
385.112	895.25
385.337	915.25
385.562	898.25
385.787	894.25
386.013	923.25
386.238	896.25
386.463	929.25
386.688	907.25
386.913	913.25
387.138	936.25
387.363	915.25
387.588	885.25
387.813	896.25
388.038	869.25
388.263	890.25
388.488	910.25
388.713	901.25
388.938	899.25
389.163	889.25
389.387	895.25
389.612	901.25
389.837	888.25
390.062	878.25
390.287	890.25
390.512	912.25
390.736	896.25
390.961	931.25
391.186	957.25
391.411	934.25
391.636	942.25
391.86	1019.25
392.085	1020.25
392.31	1028.25
392.534	1004.25
392.759	988.25
392.984	961.25
393.208	974.25
393.433	960.25
393.658	979.25
393.882	968.25
394.107	946.25
394.331	969.25
394.556	960.25
394.78	975.25
395.005	978.25
395.229	1029.25
395.454	1005.25
395.678	1028.25
395.903	1022.25
396.127	1029.25
396.352	1019.25
396.576	961.25
396.801	965.25
397.025	965.25
397.249	975.25
397.474	1009.25
397.698	1014.25
397.922	1022.25
398.147	1012.25
398.371	1054.25
398.595	1065.25
398.82	1115.25
399.044	1242.25
399.268	1292.25
399.492	1520.25
399.717	1700.25
399.941	1742.25
400.165	1588.25
400.389	1427.25
400.613	1301.25
400.837	1224.25
401.062	1216.25
401.286	1189.25
401.51	1152.25
401.734	1180.25
401.958	1122.25
402.182	1183.25
402.406	1175.25
402.63	1179.25
402.854	1243.25
403.078	1237.25
403.302	1260.25
403.526	1289.25
403.75	1322.25
403.974	1295.25
404.198	1305.25
404.422	1287.25
404.645	1342.25
404.869	1306.25
405.093	1303.25
405.317	1277.25
405.541	1265.25
405.765	1269.25
405.988	1253.25
406.212	1254.25
406.436	1249.25
406.66	1284.25
406.883	1294.25
407.107	1354.25
407.331	1426.25
407.555	1527.25
407.778	1477.25
408.002	1457.25
408.226	1405.25
408.449	1398.25
408.673	1304.25
408.896	1332.25
409.12	1335.25
409.344	1333.25
409.567	1301.25
409.791	1279.25
410.014	1244.25
410.238	1288.25
410.461	1291.25
410.685	1284.25
410.908	1220.25
411.132	1221.25
411.355	1206.25
411.578	1216.25
411.802	1204.25
412.025	1196.25
412.249	1208.25
412.472	1219.25
412.695	1178.25
412.919	1156.25
413.142	1168.25
413.365	1138.25
413.589	1169.25
413.812	1150.25
414.035	1130.25
414.258	1136.25
414.482	1163.25
414.705	1170.25
414.928	1225.25
415.151	1170.25
415.374	1175.25
415.597	1144.25
415.821	1142.25
416.044	1113.25
416.267	1089.25
416.49	1120.25
416.713	1110.25
416.936	1103.25
417.159	1102.25
417.382	1109.25
417.605	1138.25
417.828	1133.25
418.051	1142.25
418.274	1136.25
418.497	1124.25
418.72	1184.25
418.943	1188.25
419.166	1240.25
419.389	1304.25
419.611	1297.25
419.834	1227.25
420.057	1202.25
420.28	1188.25
420.503	1121.25
420.726	1112.25
420.948	1149.25
421.171	1118.25
421.394	1137.25
421.617	1158.25
421.839	1121.25
422.062	1144.25
422.285	1171.25
422.507	1188.25
422.73	1169.25
422.953	1154.25
423.175	1180.25
423.398	1171.25
423.621	1190.25
423.843	1201.25
424.066	1236.25
424.288	1233.25
424.511	1197.25
424.733	1186.25
424.956	1172.25
425.178	1154.25
425.401	1156.25
425.623	1121.25
425.846	1111.25
426.068	1094.25
426.291	1092.25
426.513	1097.25
426.735	1094.25
426.958	1059.25
427.18	1069.25
427.402	1066.25
427.625	1053.25
427.847	1005.25
428.069	1001.25
428.292	1026.25
428.514	989.25
428.736	1050.25
428.958	1003.25
429.181	1011.25
429.403	987.25
429.625	984.25
429.847	994.25
430.069	1006.25
430.292	1002.25
430.514	991.25
430.736	999.25
430.958	1014.25
431.18	1009.25
431.402	994.25
431.624	998.25
431.846	1013.25
432.068	998.25
432.29	1038.25
432.512	1013.25
432.734	1020.25
432.956	1021.25
433.178	1005.25
433.4	1042.25
433.622	1034.25
433.844	1034.25
434.066	1029.25
434.287	1056.25
434.509	1078.25
434.731	1114.25
434.953	1143.25
435.175	1164.25
435.397	1137.25
435.618	1109.25
435.84	1080.25
436.062	1031.25
436.284	1038.25
436.505	1032.25
436.727	1008.25
436.949	988.25
437.17	1034.25
437.392	1005.25
437.614	1016.25
437.835	986.25
438.057	994.25
438.278	964.25
438.5	1005.25
438.721	958.25
438.943	1000.25
439.165	971.25
439.386	1000.25
439.608	998.25
439.829	1012.25
440.05	1019.25
440.272	1040.25
440.493	1022.25
440.715	1064.25
440.936	1046.25
441.158	1053.25
441.379	1097.25
441.6	1165.25
441.822	1169.25
442.043	1177.25
442.264	1139.25
442.486	1124.25
442.707	1099.25
442.928	1131.25
443.149	1130.25
443.371	1104.25
443.592	1162.25
443.813	1127.25
444.034	1168.25
444.255	1207.25
444.476	1259.25
444.698	1314.25
444.919	1376.25
445.14	1421.25
445.361	1336.25
445.582	1210.25
445.803	1190.25
446.024	1076.25
446.245	1111.25
446.466	1052.25
446.687	1029.25
446.908	1060.25
447.129	1005.25
447.35	1001.25
447.571	1014.25
447.792	969.25
448.013	956.25
448.234	972.25
448.455	967.25
448.675	960.25
448.896	952.25
449.117	919.25
449.338	913.25
449.559	925.25
449.779	939.25
450	903.25
450.221	934.25
450.442	954.25
450.662	948.25
450.883	974.25
451.104	960.25
451.324	970.25
451.545	959.25
451.766	977.25
451.986	961.25
452.207	932.25
452.428	932.25
452.648	914.25
452.869	930.25
453.089	914.25
453.31	936.25
453.53	929.25
453.751	911.25
453.971	898.25
454.192	912.25
454.412	878.25
454.633	902.25
454.853	896.25
455.073	874.25
455.294	890.25
455.514	868.25
455.734	902.25
455.955	866.25
456.175	858.25
456.395	882.25
456.616	886.25
456.836	857.25
457.056	878.25
457.276	865.25
457.497	906.25
457.717	867.25
457.937	896.25
458.157	902.25
458.377	916.25
458.598	932.25
458.818	948.25
459.038	968.25
459.258	1013.25
459.478	1039.25
459.698	1070.25
459.918	1079.25
460.138	1148.25
460.358	1195.25
460.578	1197.25
460.798	1204.25
461.018	1244.25
461.238	1225.25
461.458	1217.25
461.678	1222.25
461.898	1227.25
462.118	1260.25
462.338	1309.25
462.558	1322.25
462.777	1377.25
462.997	1506.25
463.217	1617.25
463.437	1657.25
463.657	1541.25
463.876	1454.25
464.096	1472.25
464.316	1424.25
464.536	1449.25
464.755	1426.25
464.975	1327.25
465.195	1290.25
465.414	1190.25
465.634	1114.25
465.854	1106.25
466.073	1072.25
466.293	1048.25
466.512	1030.25
466.732	1008.25
466.951	1036.25
467.171	1021.25
467.391	1019.25
467.61	980.25
467.829	997.25
468.049	961.25
468.268	959.25
468.488	959.25
468.707	932.25
468.927	942.25
469.146	926.25
469.365	944.25
469.585	952.25
469.804	1004.25
470.023	1007.25
470.243	1049.25
470.462	1013.25
470.681	1028.25
470.901	1014.25
471.12	1015.25
471.339	1008.25
471.558	993.25
471.777	959.25
471.997	968.25
472.216	984.25
472.435	927.25
472.654	929.25
472.873	935.25
473.092	922.25
473.311	924.25
473.53	915.25
473.749	908.25
473.968	938.25
474.187	897.25
474.406	940.25
474.625	914.25
474.844	929.25
475.063	911.25
475.282	938.25
475.501	935.25
475.72	933.25
475.939	966.25
476.158	969.25
476.377	963.25
476.596	975.25
476.814	965.25
477.033	973.25
477.252	1008.25
477.471	1060.25
477.69	1047.25
477.908	1059.25
478.127	1054.25
478.346	1098.25
478.564	1089.25
478.783	1131.25
479.002	1168.25
479.22	1157.25
479.439	1180.25
479.658	1169.25
479.876	1152.25
480.095	1161.25
480.313	1222.25
480.532	1260.25
480.751	1268.25
480.969	1197.25
481.188	1142.25
481.406	1117.25
481.624	1082.25
481.843	1094.25
482.061	1059.25
482.28	1054.25
482.498	1047.25
482.717	1079.25
482.935	1066.25
483.153	1065.25
483.372	1073.25
483.59	1007.25
483.808	1082.25
484.027	1052.25
484.245	1054.25
484.463	1087.25
484.681	1112.25
484.9	1084.25
485.118	1093.25
485.336	1076.25
485.554	1133.25
485.772	1112.25
485.99	1118.25
486.209	1153.25
486.427	1092.25
486.645	1104.25
486.863	1129.25
487.081	1121.25
487.299	1116.25
487.517	1124.25
487.735	1105.25
487.953	1131.25
488.171	1121.25
488.389	1086.25
488.607	1085.25
488.825	1116.25
489.043	1100.25
489.261	1083.25
489.479	1114.25
489.696	1132.25
489.914	1115.25
490.132	1102.25
490.35	1094.25
490.568	1109.25
490.786	1112.25
491.003	1122.25
491.221	1138.25
491.439	1120.25
491.657	1140.25
491.874	1144.25
492.092	1131.25
492.31	1173.25
492.527	1141.25
492.745	1178.25
492.963	1148.25
493.18	1164.25
493.398	1156.25
493.615	1176.25
493.833	1146.25
494.05	1184.25
494.268	1172.25
494.485	1201.25
494.703	1191.25
494.92	1188.25
495.138	1172.25
495.355	1163.25
495.573	1183.25
495.79	1198.25
496.008	1205.25
496.225	1196.25
496.442	1228.25
496.66	1241.25
496.877	1254.25
497.094	1292.25
497.312	1282.25
497.529	1316.25
497.746	1306.25
497.963	1387.25
498.181	1428.25
498.398	1512.25
498.615	1626.25
498.832	1704.25
499.049	1822.25
499.267	1952.25
499.484	2120.25
499.701	2437.25
499.918	2664.25
500.135	2943.25
500.352	3321.25
500.569	3573.25
500.786	3538.25
501.003	3380.25
501.22	2936.25
501.437	2637.25
501.654	2316.25
501.871	2142.25
502.088	1957.25
502.305	1853.25
502.522	1748.25
502.739	1661.25
502.956	1565.25
503.172	1516.25
503.389	1444.25
503.606	1413.25
503.823	1359.25
504.04	1380.25
504.256	1416.25
504.473	1405.25
504.69	1412.25
504.907	1439.25
505.123	1305.25
505.34	1270.25
505.557	1192.25
505.773	1199.25
505.99	1151.25
506.207	1117.25
506.423	1116.25
506.64	1087.25
506.856	1058.25
507.073	1073.25
507.289	1065.25
507.506	1049.25
507.722	1060.25
507.939	1055.25
508.155	1043.25
508.372	1023.25
508.588	984.25
508.805	1000.25
509.021	980.25
509.238	997.25
509.454	993.25
509.67	973.25
509.887	973.25
510.103	942.25
510.319	955.25
510.536	970.25
510.752	946.25
510.968	963.25
511.184	948.25
511.401	961.25
511.617	946.25
511.833	933.25
512.049	943.25
512.265	952.25
512.481	936.25
512.698	935.25
512.914	948.25
513.13	980.25
513.346	963.25
513.562	935.25
513.778	956.25
513.994	953.25
514.21	962.25
514.426	944.25
514.642	1001.25
514.858	967.25
515.074	975.25
515.29	975.25
515.506	988.25
515.721	1034.25
515.937	1007.25
516.153	1016.25
516.369	1058.25
516.585	1092.25
516.801	1108.25
517.016	1141.25
517.232	1248.25
517.448	1288.25
517.664	1329.25
517.879	1340.25
518.095	1332.25
518.311	1283.25
518.527	1249.25
518.742	1221.25
518.958	1198.25
519.173	1111.25
519.389	1072.25
519.605	1036.25
519.82	1060.25
520.036	1023.25
520.251	976.25
520.467	980.25
520.682	957.25
520.898	971.25
521.113	943.25
521.329	930.25
521.544	920.25
521.76	931.25
521.975	921.25
522.19	899.25
522.406	886.25
522.621	937.25
522.836	903.25
523.052	898.25
523.267	906.25
523.482	885.25
523.698	872.25
523.913	880.25
524.128	883.25
524.343	876.25
524.559	894.25
524.774	886.25
524.989	858.25
525.204	873.25
525.419	876.25
525.634	858.25
525.849	874.25
526.064	861.25
526.28	866.25
526.495	831.25
526.71	880.25
526.925	879.25
527.14	871.25
527.355	886.25
527.57	841.25
527.785	868.25
527.999	857.25
528.214	863.25
528.429	849.25
528.644	867.25
528.859	884.25
529.074	871.25
529.289	865.25
529.503	886.25
529.718	852.25
529.933	888.25
530.148	841.25
530.363	843.25
530.577	869.25
530.792	870.25
531.007	871.25
531.221	867.25
531.436	848.25
531.651	887.25
531.865	896.25
532.08	869.25
532.295	861.25
532.509	855.25
532.724	876.25
532.938	862.25
533.153	852.25
533.367	843.25
533.582	849.25
533.796	854.25
534.011	861.25
534.225	857.25
534.44	824.25
534.654	858.25
534.868	847.25
535.083	836.25
535.297	811.25
535.511	838.25
535.726	821.25
535.94	838.25
536.154	834.25
536.369	832.25
536.583	815.25
536.797	819.25
537.011	773.25
537.225	811.25
537.44	810.25
537.654	825.25
537.868	792.25
538.082	786.25
538.296	806.25
538.51	814.25
538.724	829.25
538.938	810.25
539.153	784.25
539.367	769.25
539.581	792.25
539.795	806.25
540.009	757.25
540.222	786.25
540.436	776.25
540.65	770.25
540.864	785.25
541.078	741.25
541.292	792.25
541.506	788.25
541.72	762.25
541.934	796.25
542.147	799.25
542.361	793.25
542.575	794.25
542.789	771.25
543.002	766.25
543.216	768.25
543.43	743.25
543.644	776.25
543.857	767.25
544.071	758.25
544.285	786.25
544.498	776.25
544.712	797.25
544.925	799.25
545.139	783.25
545.352	794.25
545.566	802.25
545.779	799.25
545.993	801.25
546.206	787.25
546.42	788.25
546.633	791.25
546.847	790.25
547.06	799.25
547.274	790.25
547.487	785.25
547.7	799.25
547.914	812.25
548.127	792.25
548.34	828.25
548.554	810.25
548.767	790.25
548.98	769.25
549.193	780.25
549.407	816.25
549.62	826.25
549.833	842.25
550.046	846.25
550.259	804.25
550.473	796.25
550.686	772.25
550.899	770.25
551.112	808.25
551.325	794.25
551.538	778.25
551.751	780.25
551.964	802.25
552.177	791.25
552.39	805.25
552.603	796.25
552.816	830.25
553.029	872.25
553.242	843.25
553.455	878.25
553.667	877.25
553.88	841.25
554.093	855.25
554.306	815.25
554.519	795.25
554.732	818.25
554.944	804.25
555.157	793.25
555.37	765.25
555.583	759.25
555.795	746.25
556.008	730.25
556.221	696.25
556.433	718.25
556.646	703.25
556.859	710.25
557.071	684.25
557.284	687.25
557.496	705.25
557.709	704.25
557.921	679.25
558.134	677.25
558.346	669.25
558.559	692.25
558.771	684.25
558.984	673.25
559.196	670.25
559.409	699.25
559.621	688.25
559.833	670.25
560.046	657.25
560.258	662.25
560.47	648.25
560.683	647.25
560.895	657.25
561.107	676.25
561.32	631.25
561.532	678.25
561.744	645.25
561.956	659.25
562.168	673.25
562.381	666.25
562.593	678.25
562.805	671.25
563.017	666.25
563.229	667.25
563.441	676.25
563.653	673.25
563.865	693.25
564.077	678.25
564.289	716.25
564.501	702.25
564.713	716.25
564.925	736.25
565.137	729.25
565.349	759.25
565.561	772.25
565.773	769.25
565.985	817.25
566.197	887.25
566.408	960.25
566.62	995.25
566.832	1058.25
567.044	1095.25
567.255	1107.25
567.467	1113.25
567.679	1187.25
567.891	1296.25
568.102	1258.25
568.314	1229.25
568.526	1110.25
568.737	985.25
568.949	914.25
569.161	864.25
569.372	801.25
569.584	774.25
569.795	719.25
570.007	706.25
570.218	703.25
570.43	699.25
570.641	675.25
570.853	693.25
571.064	699.25
571.276	686.25
571.487	687.25
571.698	656.25
571.91	639.25
572.121	617.25
572.333	607.25
572.544	593.25
572.755	581.25
572.966	598.25
573.178	565.25
573.389	559.25
573.6	545.25
573.811	548.25
574.023	590.25
574.234	570.25
574.445	557.25
574.656	546.25
574.867	537.25
575.078	540.25
575.289	562.25
575.501	556.25
575.712	542.25
575.923	536.25
576.134	545.25
576.345	533.25
576.556	533.25
576.767	536.25
576.978	506.25
577.188	494.25
577.399	504.25
577.61	487.25
577.821	506.25
578.032	497.25
578.243	502.25
578.454	486.25
578.665	507.25
578.875	486.25
579.086	503.25
579.297	476.25
579.508	478.25
579.718	512.25
579.929	472.25
580.14	479.25
580.35	473.25
580.561	459.25
580.772	491.25
580.982	469.25
581.193	478.25
581.403	477.25
581.614	463.25
581.825	466.25
582.035	466.25
582.246	461.25
582.456	437.25
582.667	448.25
582.877	460.25
583.087	475.25
583.298	451.25
583.508	455.25
583.719	466.25
583.929	475.25
584.139	465.25
584.35	446.25
584.56	458.25
584.77	449.25
584.981	462.25
585.191	484.25
585.401	446.25
585.611	468.25
585.821	449.25
586.032	452.25
586.242	436.25
586.452	447.25
586.662	471.25
586.872	443.25
587.082	464.25
587.292	463.25
587.502	445.25
587.713	454.25
587.923	443.25
588.133	460.25
588.343	452.25
588.553	440.25
588.762	459.25
588.972	458.25
589.182	440.25
589.392	462.25
589.602	467.25
589.812	438.25
590.022	454.25
590.232	433.25
590.441	439.25
590.651	466.25
590.861	470.25
591.071	472.25
591.281	474.25
591.49	470.25
591.7	477.25
591.91	489.25
592.119	481.25
592.329	497.25
592.539	538.25
592.748	513.25
592.958	547.25
593.167	542.25
593.377	567.25
593.587	575.25
593.796	572.25
594.006	561.25
594.215	577.25
594.424	576.25
594.634	553.25
594.843	548.25
595.053	529.25
595.262	512.25
595.472	487.25
595.681	484.25
595.89	476.25
596.1	460.25
596.309	442.25
596.518	432.25
596.727	452.25
596.937	441.25
597.146	424.25
597.355	406.25
597.564	396.25
597.774	420.25
597.983	398.25
598.192	413.25
598.401	398.25
598.61	394.25
598.819	390.25
599.028	369.25
599.237	388.25
599.446	390.25
599.655	408.25
599.864	410.25
600.073	376.25
600.282	372.25
600.491	369.25
600.7	378.25
600.909	376.25
601.118	376.25
601.327	375.25
601.536	365.25
601.745	355.25
601.953	379.25
602.162	360.25
602.371	372.25
602.58	367.25
602.789	359.25
602.997	383.25
603.206	374.25
603.415	373.25
603.623	383.25
603.832	356.25
604.041	364.25
604.249	355.25
604.458	361.25
604.666	365.25
604.875	374.25
605.084	342.25
605.292	333.25
605.501	362.25
605.709	352.25
605.918	353.25
606.126	335.25
606.334	332.25
606.543	351.25
606.751	354.25
606.96	346.25
607.168	333.25
607.376	337.25
607.585	346.25
607.793	354.25
608.001	339.25
608.21	333.25
608.418	346.25
608.626	338.25
608.834	330.25
609.043	349.25
609.251	367.25
609.459	341.25
609.667	338.25
609.875	345.25
610.083	340.25
610.291	328.25
610.499	338.25
610.707	332.25
610.916	335.25
611.124	337.25
611.332	338.25
611.54	335.25
611.748	333.25
611.955	333.25
612.163	343.25
612.371	326.25
612.579	341.25
612.787	322.25
612.995	342.25
613.203	331.25
613.411	332.25
613.618	313.25
613.826	333.25
614.034	321.25
614.242	329.25
614.449	328.25
614.657	320.25
614.865	325.25
615.072	319.25
615.28	338.25
615.488	324.25
615.695	352.25
615.903	330.25
616.111	317.25
616.318	345.25
616.526	357.25
616.733	331.25
616.941	314.25
617.148	330.25
617.356	328.25
617.563	317.25
617.771	311.25
617.978	322.25
618.185	347.25
618.393	342.25
618.6	298.25
618.807	318.25
619.015	320.25
619.222	325.25
619.429	306.25
619.637	322.25
619.844	304.25
620.051	316.25
620.258	325.25
620.466	316.25
620.673	296.25
620.88	310.25
621.087	301.25
621.294	294.25
621.501	284.25
621.708	310.25
621.915	296.25
622.122	298.25
622.329	321.25
622.536	290.25
622.743	313.25
622.95	317.25
623.157	287.25
623.364	289.25
623.571	292.25
623.778	301.25
623.985	287.25
624.192	294.25
624.399	282.25
624.606	288.25
624.812	293.25
625.019	289.25
625.226	304.25
625.433	290.25
625.639	277.25
625.846	270.25
626.053	286.25
626.259	293.25
626.466	305.25
626.673	271.25
626.879	259.25
627.086	268.25
627.293	280.25
627.499	265.25
627.706	272.25
627.912	294.25
628.119	275.25
628.325	277.25
628.532	276.25
628.738	267.25
628.945	283.25
629.151	278.25
629.357	262.25
629.564	263.25
629.77	268.25
629.976	254.25
630.183	261.25
630.389	256.25
630.595	252.25
630.802	246.25
631.008	240.25
631.214	245.25
631.42	252.25
631.627	233.25
631.833	249.25
632.039	249.25
632.245	244.25
632.451	243.25
632.657	252.25
632.863	252.25
633.069	249.25
633.275	246.25
633.481	236.25
633.688	260.25
633.893	266.25
634.099	240.25
634.305	240.25
634.511	239.25
634.717	244.25
634.923	244.25
635.129	236.25
635.335	245.25
635.541	231.25
635.747	225.25
635.952	246.25
636.158	240.25
636.364	221.25
636.57	249.25
636.775	235.25
636.981	238.25
637.187	232.25
637.392	246.25
637.598	246.25
637.804	221.25
638.009	228.25
638.215	237.25
638.421	228.25
638.626	233.25
638.832	224.25
639.037	226.25
639.243	236.25
639.448	216.25
639.654	233.25
639.859	209.25
640.065	221.25
640.27	239.25
640.475	211.25
640.681	228.25
640.886	212.25
641.091	225.25
641.297	220.25
641.502	224.25
641.707	220.25
641.913	231.25
642.118	222.25
642.323	222.25
642.528	216.25
642.733	217.25
642.939	217.25
643.144	214.25
643.349	223.25
643.554	231.25
643.759	228.25
643.964	202.25
644.169	233.25
644.374	214.25
644.579	214.25
644.784	197.25
644.989	212.25
645.194	230.25
645.399	225.25
645.604	202.25
645.809	227.25
646.014	220.25
646.219	229.25
646.423	223.25
646.628	232.25
646.833	203.25
647.038	197.25
647.243	225.25
647.447	209.25
647.652	230.25
647.857	234.25
648.062	247.25
648.266	232.25
648.471	220.25
648.676	226.25
648.88	220.25
649.085	221.25
649.289	215.25
649.494	236.25
649.698	224.25
649.903	216.25
650.107	213.25
650.312	208.25
650.516	192.25
650.721	213.25
650.925	197.25
651.13	199.25
651.334	194.25
651.539	187.25
651.743	200.25
651.947	175.25
652.152	182.25
652.356	173.25
652.56	186.25
652.764	179.25
652.969	190.25
653.173	186.25
653.377	181.25
653.581	180.25
653.785	163.25
653.99	180.25
654.194	171.25
654.398	147.25
654.602	167.25
654.806	170.25
655.01	165.25
655.214	165.25
655.418	160.25
655.622	161.25
655.826	138.25
656.03	159.25
656.234	137.25
656.438	175.25
656.642	152.25
656.846	164.25
657.049	166.25
657.253	152.25
657.457	132.25
657.661	132.25
657.865	122.25
658.068	126.25
658.272	132.25
658.476	126.25
658.68	130.25
658.883	128.25
659.087	121.25
659.291	106.25
659.494	112.25
659.698	105.25
659.901	95.25
660.105	109.25
660.309	105.25
660.512	111.25
660.716	98.25
660.919	102.25
661.123	91.25
661.326	104.25
661.53	98.25
661.733	84.25
661.936	85.25
662.14	94.25
662.343	96.25
662.546	93.25
662.75	95.25
662.953	90.25
663.156	86.25
663.36	89.25
663.563	89.25
663.766	95.25
663.969	82.25
664.173	93.25
664.376	90.25
664.579	86.25
664.782	80.25
664.985	94.25
665.188	78.25
665.391	94.25
665.594	97.25
665.797	91.25
666	81.25
666.203	93.25
666.406	87.25
666.609	75.25
666.812	100.25
667.015	80.25
667.218	83.25
667.421	81.25
667.624	82.25
667.827	95.25
668.03	87.25
668.232	91.25
668.435	86.25
668.638	97.25
668.841	75.25
669.043	89.25
669.246	89.25
669.449	89.25
669.651	81.25
669.854	92.25
670.057	91.25
670.259	86.25
670.462	85.25
670.665	75.25
670.867	86.25
671.07	98.25
671.272	88.25
671.475	82.25
671.677	89.25
671.88	91.25
672.082	98.25
672.284	95.25
672.487	86.25
672.689	79.25
672.892	72.25
