Data from NiCl2@0.5M.TitratingCurve.Agarose3%dH2O.NegLispCup.LampEnergy10.LIBS07252019_HRD10591_18-20-47-571.txt Node
Date: Thu Jul 25 18:20:47 EDT 2019
User: cochatt
Spectrometer: HR+D1059
Trigger mode: 1
Integration Time (sec): 1.000000E-1
Scans to average: 1
Electric dark correction enabled: true
Nonlinearity correction enabled: false
Boxcar width: 0
XAxis mode: Wavelengths
Number of Pixels in Spectrum: 2048
>>>>>Begin Spectral Data<<<<<
223.165	-24.12
223.4	-24.12
223.635	-24.12
223.869	-9.12
224.104	-13.12
224.338	-33.12
224.573	-24.12
224.808	-22.12
225.042	-9.12
225.277	2.88
225.511	9.88
225.746	-12.12
225.98	16.88
226.215	20.88
226.449	-3.12
226.683	22.88
226.918	30.88
227.152	45.88
227.387	36.88
227.621	48.88
227.856	41.88
228.09	41.88
228.324	48.88
228.559	68.88
228.793	57.88
229.027	87.88
229.262	92.88
229.496	104.88
229.73	120.88
229.964	107.88
230.199	105.88
230.433	117.88
230.667	124.88
230.901	120.88
231.136	119.88
231.37	116.88
231.604	126.88
231.838	132.88
232.072	141.88
232.306	131.88
232.541	117.88
232.775	116.88
233.009	121.88
233.243	129.88
233.477	124.88
233.711	127.88
233.945	128.88
234.179	120.88
234.413	133.88
234.647	124.88
234.881	128.88
235.115	149.88
235.349	129.88
235.583	132.88
235.817	131.88
236.051	131.88
236.285	140.88
236.519	144.88
236.753	140.88
236.987	129.88
237.221	142.88
237.455	118.88
237.689	136.88
237.922	128.88
238.156	135.88
238.39	132.88
238.624	138.88
238.858	140.88
239.091	151.88
239.325	152.88
239.559	162.88
239.793	149.88
240.027	166.88
240.26	154.88
240.494	152.88
240.728	144.88
240.961	152.88
241.195	147.88
241.429	150.88
241.662	155.88
241.896	161.88
242.13	149.88
242.363	174.88
242.597	153.88
242.83	173.88
243.064	177.88
243.298	169.88
243.531	161.88
243.765	179.88
243.998	184.88
244.232	164.88
244.465	169.88
244.699	168.88
244.932	186.88
245.166	192.88
245.399	187.88
245.633	161.88
245.866	176.88
246.099	165.88
246.333	183.88
246.566	171.88
246.8	185.88
247.033	177.88
247.266	172.88
247.5	182.88
247.733	186.88
247.966	185.88
248.2	183.88
248.433	203.88
248.666	198.88
248.899	197.88
249.133	195.88
249.366	196.88
249.599	195.88
249.832	187.88
250.066	192.88
250.299	204.88
250.532	181.88
250.765	198.88
250.998	206.88
251.231	197.88
251.465	196.88
251.698	212.88
251.931	215.88
252.164	220.88
252.397	196.88
252.63	224.88
252.863	212.88
253.096	216.88
253.329	225.88
253.562	198.88
253.795	207.88
254.028	238.88
254.261	231.88
254.494	227.88
254.727	211.88
254.96	224.88
255.193	232.88
255.426	234.88
255.659	223.88
255.892	234.88
256.124	226.88
256.357	238.88
256.59	225.88
256.823	226.88
257.056	245.88
257.289	234.88
257.521	237.88
257.754	247.88
257.987	225.88
258.22	233.88
258.452	242.88
258.685	221.88
258.918	232.88
259.151	252.88
259.383	268.88
259.616	234.88
259.849	247.88
260.081	239.88
260.314	256.88
260.547	250.88
260.779	251.88
261.012	260.88
261.244	261.88
261.477	258.88
261.71	266.88
261.942	246.88
262.175	242.88
262.407	273.88
262.64	257.88
262.872	259.88
263.105	282.88
263.337	264.88
263.57	245.88
263.802	277.88
264.035	271.88
264.267	263.88
264.499	262.88
264.732	262.88
264.964	278.88
265.197	278.88
265.429	280.88
265.661	277.88
265.894	268.88
266.126	284.88
266.358	288.88
266.591	272.88
266.823	294.88
267.055	288.88
267.287	272.88
267.52	286.88
267.752	277.88
267.984	291.88
268.216	276.88
268.448	286.88
268.681	298.88
268.913	301.88
269.145	290.88
269.377	280.88
269.609	299.88
269.841	293.88
270.073	299.88
270.306	308.88
270.538	286.88
270.77	287.88
271.002	313.88
271.234	295.88
271.466	298.88
271.698	306.88
271.93	308.88
272.162	303.88
272.394	310.88
272.626	299.88
272.858	318.88
273.09	306.88
273.322	318.88
273.553	310.88
273.785	303.88
274.017	323.88
274.249	319.88
274.481	315.88
274.713	308.88
274.945	335.88
275.176	328.88
275.408	321.88
275.64	323.88
275.872	335.88
276.104	335.88
276.335	335.88
276.567	322.88
276.799	324.88
277.031	328.88
277.262	338.88
277.494	339.88
277.726	346.88
277.957	358.88
278.189	336.88
278.421	342.88
278.652	350.88
278.884	331.88
279.115	343.88
279.347	359.88
279.579	327.88
279.81	345.88
280.042	380.88
280.273	360.88
280.505	363.88
280.736	354.88
280.968	345.88
281.199	360.88
281.431	354.88
281.662	370.88
281.894	356.88
282.125	370.88
282.356	372.88
282.588	361.88
282.819	372.88
283.051	355.88
283.282	382.88
283.513	378.88
283.745	378.88
283.976	371.88
284.207	383.88
284.439	371.88
284.67	376.88
284.901	376.88
285.132	354.88
285.364	374.88
285.595	376.88
285.826	385.88
286.057	392.88
286.288	378.88
286.52	390.88
286.751	381.88
286.982	413.88
287.213	400.88
287.444	407.88
287.675	389.88
287.906	396.88
288.138	388.88
288.369	418.88
288.6	378.88
288.831	407.88
289.062	394.88
289.293	390.88
289.524	397.88
289.755	406.88
289.986	395.88
290.217	403.88
290.448	399.88
290.679	408.88
290.91	378.88
291.141	400.88
291.371	404.88
291.602	409.88
291.833	425.88
292.064	411.88
292.295	396.88
292.526	404.88
292.757	419.88
292.987	400.88
293.218	410.88
293.449	424.88
293.68	412.88
293.91	414.88
294.141	409.88
294.372	417.88
294.603	423.88
294.833	412.88
295.064	422.88
295.295	417.88
295.525	433.88
295.756	432.88
295.987	405.88
296.217	446.88
296.448	422.88
296.679	432.88
296.909	418.88
297.14	449.88
297.37	431.88
297.601	457.88
297.831	425.88
298.062	467.88
298.292	454.88
298.523	467.88
298.753	459.88
298.984	438.88
299.214	462.88
299.445	453.88
299.675	444.88
299.905	457.88
300.136	452.88
300.366	472.88
300.597	477.88
300.827	474.88
301.057	459.88
301.288	474.88
301.518	465.88
301.748	476.88
301.979	463.88
302.209	464.88
302.439	480.88
302.669	467.88
302.9	460.88
303.13	478.88
303.36	457.88
303.59	479.88
303.82	496.88
304.051	481.88
304.281	481.88
304.511	468.88
304.741	487.88
304.971	488.88
305.201	479.88
305.431	479.88
305.661	471.88
305.891	489.88
306.121	451.88
306.352	480.88
306.582	466.88
306.812	457.88
307.042	469.88
307.272	455.88
307.502	454.88
307.731	467.88
307.961	467.88
308.191	489.88
308.421	463.88
308.651	492.88
308.881	485.88
309.111	481.88
309.341	451.88
309.571	455.88
309.8	478.88
310.03	483.88
310.26	495.88
310.49	491.88
310.72	489.88
310.949	481.88
311.179	482.88
311.409	474.88
311.639	480.88
311.868	473.88
312.098	501.88
312.328	488.88
312.557	475.88
312.787	481.88
313.017	514.88
313.246	517.88
313.476	499.88
313.706	495.88
313.935	493.88
314.165	489.88
314.394	502.88
314.624	486.88
314.853	506.88
315.083	511.88
315.312	502.88
315.542	509.88
315.771	491.88
316.001	495.88
316.23	500.88
316.46	484.88
316.689	508.88
316.919	517.88
317.148	502.88
317.377	488.88
317.607	486.88
317.836	476.88
318.065	480.88
318.295	499.88
318.524	499.88
318.753	504.88
318.983	498.88
319.212	481.88
319.441	475.88
319.67	494.88
319.9	500.88
320.129	518.88
320.358	475.88
320.587	510.88
320.816	509.88
321.046	513.88
321.275	492.88
321.504	522.88
321.733	515.88
321.962	530.88
322.191	514.88
322.42	501.88
322.649	501.88
322.878	520.88
323.108	500.88
323.337	524.88
323.566	524.88
323.795	536.88
324.024	518.88
324.253	522.88
324.482	530.88
324.71	535.88
324.939	538.88
325.168	537.88
325.397	536.88
325.626	548.88
325.855	539.88
326.084	532.88
326.313	547.88
326.542	546.88
326.77	581.88
326.999	561.88
327.228	531.88
327.457	532.88
327.686	543.88
327.914	525.88
328.143	577.88
328.372	537.88
328.6	532.88
328.829	535.88
329.058	543.88
329.287	537.88
329.515	542.88
329.744	526.88
329.972	559.88
330.201	566.88
330.43	569.88
330.658	545.88
330.887	578.88
331.115	566.88
331.344	571.88
331.572	564.88
331.801	566.88
332.03	593.88
332.258	614.88
332.486	594.88
332.715	637.88
332.943	638.88
333.172	652.88
333.4	651.88
333.629	681.88
333.857	665.88
334.085	698.88
334.314	680.88
334.542	681.88
334.771	679.88
334.999	684.88
335.227	674.88
335.455	678.88
335.684	663.88
335.912	640.88
336.14	667.88
336.369	669.88
336.597	658.88
336.825	645.88
337.053	658.88
337.281	649.88
337.51	638.88
337.738	616.88
337.966	600.88
338.194	619.88
338.422	624.88
338.65	599.88
338.878	584.88
339.106	590.88
339.334	602.88
339.562	587.88
339.79	575.88
340.018	592.88
340.246	556.88
340.474	586.88
340.702	584.88
340.93	582.88
341.158	556.88
341.386	585.88
341.614	577.88
341.842	595.88
342.07	580.88
342.298	573.88
342.526	614.88
342.754	572.88
342.981	558.88
343.209	582.88
343.437	616.88
343.665	615.88
343.893	655.88
344.12	659.88
344.348	659.88
344.576	635.88
344.804	643.88
345.031	611.88
345.259	612.88
345.487	580.88
345.714	590.88
345.942	580.88
346.17	591.88
346.397	587.88
346.625	558.88
346.853	570.88
347.08	548.88
347.308	555.88
347.535	568.88
347.763	548.88
347.99	538.88
348.218	558.88
348.445	560.88
348.673	558.88
348.9	550.88
349.128	530.88
349.355	550.88
349.583	589.88
349.81	545.88
350.037	555.88
350.265	534.88
350.492	548.88
350.72	549.88
350.947	552.88
351.174	556.88
351.402	568.88
351.629	536.88
351.856	538.88
352.083	543.88
352.311	543.88
352.538	560.88
352.765	566.88
352.992	545.88
353.22	533.88
353.447	520.88
353.674	525.88
353.901	498.88
354.128	501.88
354.355	536.88
354.583	520.88
354.81	542.88
355.037	533.88
355.264	546.88
355.491	539.88
355.718	550.88
355.945	518.88
356.172	536.88
356.399	541.88
356.626	546.88
356.853	546.88
357.08	539.88
357.307	561.88
357.534	538.88
357.761	532.88
357.988	514.88
358.215	518.88
358.441	531.88
358.668	543.88
358.895	550.88
359.122	544.88
359.349	542.88
359.576	524.88
359.802	532.88
360.029	536.88
360.256	531.88
360.483	529.88
360.709	535.88
360.936	552.88
361.163	531.88
361.39	524.88
361.616	525.88
361.843	547.88
362.07	548.88
362.296	534.88
362.523	528.88
362.749	549.88
362.976	524.88
363.203	505.88
363.429	516.88
363.656	521.88
363.882	550.88
364.109	516.88
364.335	529.88
364.562	523.88
364.788	519.88
365.015	552.88
365.241	515.88
365.468	520.88
365.694	527.88
365.92	526.88
366.147	514.88
366.373	524.88
366.599	529.88
366.826	502.88
367.052	510.88
367.278	546.88
367.505	511.88
367.731	531.88
367.957	511.88
368.184	515.88
368.41	523.88
368.636	536.88
368.862	522.88
369.089	539.88
369.315	529.88
369.541	541.88
369.767	543.88
369.993	538.88
370.219	534.88
370.445	548.88
370.672	545.88
370.898	539.88
371.124	561.88
371.35	569.88
371.576	574.88
371.802	552.88
372.028	568.88
372.254	554.88
372.48	568.88
372.706	568.88
372.932	575.88
373.158	586.88
373.384	597.88
373.61	584.88
373.835	574.88
374.061	553.88
374.287	544.88
374.513	583.88
374.739	586.88
374.965	589.88
375.191	586.88
375.416	584.88
375.642	599.88
375.868	584.88
376.094	571.88
376.319	547.88
376.545	555.88
376.771	566.88
376.997	562.88
377.222	576.88
377.448	562.88
377.674	566.88
377.899	527.88
378.125	560.88
378.35	560.88
378.576	519.88
378.802	553.88
379.027	537.88
379.253	538.88
379.478	537.88
379.704	564.88
379.929	545.88
380.155	547.88
380.38	532.88
380.606	543.88
380.831	543.88
381.057	560.88
381.282	516.88
381.507	545.88
381.733	556.88
381.958	552.88
382.184	548.88
382.409	553.88
382.634	566.88
382.86	583.88
383.085	576.88
383.31	595.88
383.535	583.88
383.761	590.88
383.986	602.88
384.211	610.88
384.436	607.88
384.662	610.88
384.887	600.88
385.112	638.88
385.337	638.88
385.562	633.88
385.787	639.88
386.013	651.88
386.238	637.88
386.463	656.88
386.688	646.88
386.913	631.88
387.138	649.88
387.363	649.88
387.588	645.88
387.813	649.88
388.038	652.88
388.263	639.88
388.488	621.88
388.713	651.88
388.938	649.88
389.163	630.88
389.387	640.88
389.612	652.88
389.837	626.88
390.062	648.88
390.287	644.88
390.512	647.88
390.736	626.88
390.961	682.88
391.186	663.88
391.411	668.88
391.636	666.88
391.86	705.88
392.085	687.88
392.31	713.88
392.534	686.88
392.759	689.88
392.984	691.88
393.208	669.88
393.433	658.88
393.658	695.88
393.882	644.88
394.107	676.88
394.331	709.88
394.556	686.88
394.78	684.88
395.005	690.88
395.229	680.88
395.454	688.88
395.678	706.88
395.903	707.88
396.127	711.88
396.352	697.88
396.576	693.88
396.801	708.88
397.025	704.88
397.249	720.88
397.474	714.88
397.698	734.88
397.922	731.88
398.147	726.88
398.371	721.88
398.595	776.88
398.82	800.88
399.044	810.88
399.268	880.88
399.492	976.88
399.717	1034.88
399.941	1037.88
400.165	974.88
400.389	916.88
400.613	880.88
400.837	844.88
401.062	822.88
401.286	790.88
401.51	799.88
401.734	772.88
401.958	792.88
402.182	810.88
402.406	803.88
402.63	820.88
402.854	837.88
403.078	832.88
403.302	849.88
403.526	865.88
403.75	855.88
403.974	854.88
404.198	856.88
404.422	867.88
404.645	862.88
404.869	839.88
405.093	864.88
405.317	872.88
405.541	863.88
405.765	873.88
405.988	832.88
406.212	857.88
406.436	843.88
406.66	870.88
406.883	886.88
407.107	944.88
407.331	968.88
407.555	984.88
407.778	988.88
408.002	968.88
408.226	946.88
408.449	954.88
408.673	924.88
408.896	880.88
409.12	880.88
409.344	885.88
409.567	892.88
409.791	892.88
410.014	882.88
410.238	875.88
410.461	884.88
410.685	881.88
410.908	839.88
411.132	859.88
411.355	830.88
411.578	848.88
411.802	835.88
412.025	852.88
412.249	863.88
412.472	875.88
412.695	816.88
412.919	815.88
413.142	785.88
413.365	823.88
413.589	806.88
413.812	796.88
414.035	801.88
414.258	802.88
414.482	808.88
414.705	834.88
414.928	794.88
415.151	818.88
415.374	812.88
415.597	824.88
415.821	793.88
416.044	777.88
416.267	773.88
416.49	772.88
416.713	786.88
416.936	794.88
417.159	783.88
417.382	782.88
417.605	785.88
417.828	793.88
418.051	803.88
418.274	808.88
418.497	795.88
418.72	821.88
418.943	815.88
419.166	841.88
419.389	872.88
419.611	908.88
419.834	865.88
420.057	830.88
420.28	799.88
420.503	778.88
420.726	793.88
420.948	791.88
421.171	773.88
421.394	783.88
421.617	782.88
421.839	777.88
422.062	818.88
422.285	772.88
422.507	812.88
422.73	822.88
422.953	812.88
423.175	804.88
423.398	796.88
423.621	802.88
423.843	824.88
424.066	848.88
424.288	835.88
424.511	774.88
424.733	802.88
424.956	790.88
425.178	804.88
425.401	815.88
425.623	776.88
425.846	767.88
426.068	779.88
426.291	774.88
426.513	751.88
426.735	755.88
426.958	781.88
427.18	755.88
427.402	743.88
427.625	763.88
427.847	753.88
428.069	746.88
428.292	746.88
428.514	768.88
428.736	723.88
428.958	735.88
429.181	718.88
429.403	721.88
429.625	729.88
429.847	734.88
430.069	731.88
430.292	744.88
430.514	709.88
430.736	718.88
430.958	742.88
431.18	736.88
431.402	719.88
431.624	730.88
431.846	743.88
432.068	735.88
432.29	763.88
432.512	743.88
432.734	766.88
432.956	738.88
433.178	753.88
433.4	751.88
433.622	773.88
433.844	765.88
434.066	779.88
434.287	771.88
434.509	811.88
434.731	808.88
434.953	806.88
435.175	854.88
435.397	835.88
435.618	766.88
435.84	761.88
436.062	744.88
436.284	788.88
436.505	736.88
436.727	750.88
436.949	746.88
437.17	739.88
437.392	736.88
437.614	724.88
437.835	728.88
438.057	719.88
438.278	700.88
438.5	718.88
438.721	717.88
438.943	731.88
439.165	719.88
439.386	738.88
439.608	762.88
439.829	755.88
440.05	741.88
440.272	768.88
440.493	756.88
440.715	776.88
440.936	800.88
441.158	793.88
441.379	790.88
441.6	821.88
441.822	830.88
442.043	808.88
442.264	837.88
442.486	809.88
442.707	783.88
442.928	834.88
443.149	834.88
443.371	805.88
443.592	819.88
443.813	825.88
444.034	831.88
444.255	848.88
444.476	882.88
444.698	892.88
444.919	967.88
445.14	1026.88
445.361	919.88
445.582	867.88
445.803	820.88
446.024	810.88
446.245	783.88
446.466	820.88
446.687	763.88
446.908	778.88
447.129	764.88
447.35	754.88
447.571	735.88
447.792	728.88
448.013	727.88
448.234	702.88
448.455	711.88
448.675	711.88
448.896	702.88
449.117	700.88
449.338	682.88
449.559	710.88
449.779	700.88
450	695.88
450.221	700.88
450.442	672.88
450.662	710.88
450.883	710.88
451.104	726.88
451.324	711.88
451.545	707.88
451.766	710.88
451.986	710.88
452.207	695.88
452.428	680.88
452.648	717.88
452.869	683.88
453.089	684.88
453.31	690.88
453.53	706.88
453.751	699.88
453.971	679.88
454.192	682.88
454.412	660.88
454.633	683.88
454.853	665.88
455.073	666.88
455.294	657.88
455.514	667.88
455.734	679.88
455.955	645.88
456.175	644.88
456.395	645.88
456.616	651.88
456.836	673.88
457.056	658.88
457.276	656.88
457.497	691.88
457.717	698.88
457.937	658.88
458.157	682.88
458.377	676.88
458.598	697.88
458.818	700.88
459.038	734.88
459.258	724.88
459.478	761.88
459.698	772.88
459.918	784.88
460.138	810.88
460.358	828.88
460.578	851.88
460.798	881.88
461.018	875.88
461.238	878.88
461.458	827.88
461.678	874.88
461.898	875.88
462.118	880.88
462.338	922.88
462.558	933.88
462.777	983.88
462.997	1039.88
463.217	1053.88
463.437	1072.88
463.657	1027.88
463.876	986.88
464.096	999.88
464.316	956.88
464.536	990.88
464.755	958.88
464.975	915.88
465.195	889.88
465.414	847.88
465.634	804.88
465.854	806.88
466.073	788.88
466.293	754.88
466.512	775.88
466.732	757.88
466.951	723.88
467.171	714.88
467.391	743.88
467.61	727.88
467.829	713.88
468.049	713.88
468.268	722.88
468.488	708.88
468.707	713.88
468.927	706.88
469.146	720.88
469.365	742.88
469.585	730.88
469.804	748.88
470.023	736.88
470.243	743.88
470.462	753.88
470.681	766.88
470.901	747.88
471.12	740.88
471.339	731.88
471.558	737.88
471.777	753.88
471.997	735.88
472.216	734.88
472.435	713.88
472.654	712.88
472.873	724.88
473.092	689.88
473.311	721.88
473.53	713.88
473.749	720.88
473.968	716.88
474.187	690.88
474.406	685.88
474.625	713.88
474.844	688.88
475.063	694.88
475.282	727.88
475.501	719.88
475.72	716.88
475.939	723.88
476.158	728.88
476.377	732.88
476.596	751.88
476.814	719.88
477.033	726.88
477.252	731.88
477.471	763.88
477.69	777.88
477.908	818.88
478.127	824.88
478.346	827.88
478.564	835.88
478.783	864.88
479.002	879.88
479.22	878.88
479.439	863.88
479.658	867.88
479.876	873.88
480.095	876.88
480.313	871.88
480.532	886.88
480.751	888.88
480.969	864.88
481.188	834.88
481.406	867.88
481.624	849.88
481.843	810.88
482.061	807.88
482.28	805.88
482.498	807.88
482.717	798.88
482.935	809.88
483.153	833.88
483.372	844.88
483.59	825.88
483.808	834.88
484.027	816.88
484.245	826.88
484.463	823.88
484.681	843.88
484.9	833.88
485.118	863.88
485.336	842.88
485.554	836.88
485.772	841.88
485.99	837.88
486.209	884.88
486.427	828.88
486.645	839.88
486.863	851.88
487.081	878.88
487.299	859.88
487.517	861.88
487.735	840.88
487.953	876.88
488.171	860.88
488.389	855.88
488.607	855.88
488.825	831.88
489.043	846.88
489.261	864.88
489.479	834.88
489.696	850.88
489.914	831.88
490.132	835.88
490.35	838.88
490.568	865.88
490.786	871.88
491.003	871.88
491.221	867.88
491.439	881.88
491.657	880.88
491.874	894.88
492.092	909.88
492.31	889.88
492.527	908.88
492.745	872.88
492.963	864.88
493.18	904.88
493.398	897.88
493.615	901.88
493.833	923.88
494.05	916.88
494.268	901.88
494.485	885.88
494.703	878.88
494.92	912.88
495.138	941.88
495.355	931.88
495.573	900.88
495.79	955.88
496.008	933.88
496.225	914.88
496.442	970.88
496.66	959.88
496.877	994.88
497.094	1006.88
497.312	994.88
497.529	1004.88
497.746	1033.88
497.963	1064.88
498.181	1081.88
498.398	1159.88
498.615	1188.88
498.832	1251.88
499.049	1287.88
499.267	1421.88
499.484	1527.88
499.701	1597.88
499.918	1755.88
500.135	1940.88
500.352	2081.88
500.569	2190.88
500.786	2127.88
501.003	2002.88
501.22	1921.88
501.437	1727.88
501.654	1580.88
501.871	1474.88
502.088	1379.88
502.305	1289.88
502.522	1238.88
502.739	1224.88
502.956	1149.88
503.172	1096.88
503.389	1052.88
503.606	1025.88
503.823	1032.88
504.04	1019.88
504.256	1027.88
504.473	1003.88
504.69	1027.88
504.907	1011.88
505.123	972.88
505.34	912.88
505.557	885.88
505.773	869.88
505.99	882.88
506.207	857.88
506.423	839.88
506.64	840.88
506.856	804.88
507.073	818.88
507.289	796.88
507.506	801.88
507.722	810.88
507.939	772.88
508.155	801.88
508.372	769.88
508.588	774.88
508.805	768.88
509.021	774.88
509.238	745.88
509.454	762.88
509.67	763.88
509.887	718.88
510.103	726.88
510.319	746.88
510.536	728.88
510.752	742.88
510.968	713.88
511.184	714.88
511.401	737.88
511.617	761.88
511.833	736.88
512.049	714.88
512.265	716.88
512.481	694.88
512.698	716.88
512.914	725.88
513.13	717.88
513.346	735.88
513.562	729.88
513.778	724.88
513.994	744.88
514.21	722.88
514.426	748.88
514.642	761.88
514.858	743.88
515.074	741.88
515.29	778.88
515.506	731.88
515.721	770.88
515.937	754.88
516.153	791.88
516.369	789.88
516.585	804.88
516.801	832.88
517.016	836.88
517.232	874.88
517.448	903.88
517.664	914.88
517.879	940.88
518.095	926.88
518.311	921.88
518.527	900.88
518.742	866.88
518.958	833.88
519.173	830.88
519.389	796.88
519.605	790.88
519.82	746.88
520.036	743.88
520.251	713.88
520.467	744.88
520.682	725.88
520.898	710.88
521.113	724.88
521.329	700.88
521.544	699.88
521.76	696.88
521.975	676.88
522.19	673.88
522.406	663.88
522.621	681.88
522.836	670.88
523.052	672.88
523.267	666.88
523.482	697.88
523.698	684.88
523.913	677.88
524.128	667.88
524.343	696.88
524.559	673.88
524.774	664.88
524.989	678.88
525.204	676.88
525.419	679.88
525.634	658.88
525.849	653.88
526.064	667.88
526.28	646.88
526.495	659.88
526.71	665.88
526.925	660.88
527.14	650.88
527.355	633.88
527.57	640.88
527.785	666.88
527.999	631.88
528.214	676.88
528.429	671.88
528.644	660.88
528.859	647.88
529.074	663.88
529.289	673.88
529.503	648.88
529.718	636.88
529.933	651.88
530.148	650.88
530.363	637.88
530.577	641.88
530.792	617.88
531.007	650.88
531.221	647.88
531.436	645.88
531.651	650.88
531.865	654.88
532.08	629.88
532.295	635.88
532.509	624.88
532.724	626.88
532.938	634.88
533.153	612.88
533.367	636.88
533.582	647.88
533.796	635.88
534.011	624.88
534.225	611.88
534.44	628.88
534.654	628.88
534.868	625.88
535.083	599.88
535.297	610.88
535.511	611.88
535.726	628.88
535.94	620.88
536.154	606.88
536.369	625.88
536.583	596.88
536.797	602.88
537.011	610.88
537.225	610.88
537.44	592.88
537.654	586.88
537.868	583.88
538.082	598.88
538.296	577.88
538.51	590.88
538.724	586.88
538.938	571.88
539.153	590.88
539.367	578.88
539.581	584.88
539.795	578.88
540.009	587.88
540.222	596.88
540.436	583.88
540.65	583.88
540.864	598.88
541.078	599.88
541.292	573.88
541.506	580.88
541.72	600.88
541.934	598.88
542.147	610.88
542.361	599.88
542.575	566.88
542.789	584.88
543.002	583.88
543.216	547.88
543.43	593.88
543.644	537.88
543.857	576.88
544.071	595.88
544.285	580.88
544.498	585.88
544.712	582.88
544.925	576.88
545.139	595.88
545.352	584.88
545.566	598.88
545.779	605.88
545.993	584.88
546.206	616.88
546.42	590.88
546.633	612.88
546.847	605.88
547.06	602.88
547.274	607.88
547.487	595.88
547.7	582.88
547.914	592.88
548.127	606.88
548.34	595.88
548.554	629.88
548.767	608.88
548.98	599.88
549.193	608.88
549.407	592.88
549.62	606.88
549.833	612.88
550.046	607.88
550.259	587.88
550.473	570.88
550.686	588.88
550.899	552.88
551.112	605.88
551.325	582.88
551.538	579.88
551.751	566.88
551.964	574.88
552.177	583.88
552.39	590.88
552.603	602.88
552.816	599.88
553.029	631.88
553.242	633.88
553.455	610.88
553.667	632.88
553.88	618.88
554.093	617.88
554.306	596.88
554.519	597.88
554.732	593.88
554.944	567.88
555.157	561.88
555.37	569.88
555.583	547.88
555.795	555.88
556.008	528.88
556.221	528.88
556.433	559.88
556.646	518.88
556.859	522.88
557.071	533.88
557.284	503.88
557.496	532.88
557.709	497.88
557.921	482.88
558.134	504.88
558.346	525.88
558.559	520.88
558.771	515.88
558.984	518.88
559.196	490.88
559.409	487.88
559.621	524.88
559.833	496.88
560.046	480.88
560.258	485.88
560.47	488.88
560.683	488.88
560.895	504.88
561.107	480.88
561.32	491.88
561.532	482.88
561.744	481.88
561.956	498.88
562.168	494.88
562.381	495.88
562.593	498.88
562.805	486.88
563.017	473.88
563.229	486.88
563.441	496.88
563.653	496.88
563.865	507.88
564.077	502.88
564.289	505.88
564.501	515.88
564.713	521.88
564.925	511.88
565.137	507.88
565.349	551.88
565.561	575.88
565.773	570.88
565.985	586.88
566.197	603.88
566.408	629.88
566.62	671.88
566.832	707.88
567.044	708.88
567.255	707.88
567.467	715.88
567.679	747.88
567.891	776.88
568.102	782.88
568.314	764.88
568.526	717.88
568.737	662.88
568.949	615.88
569.161	570.88
569.372	554.88
569.584	546.88
569.795	524.88
570.007	537.88
570.218	502.88
570.43	494.88
570.641	457.88
570.853	502.88
571.064	524.88
571.276	486.88
571.487	495.88
571.698	477.88
571.91	460.88
572.121	465.88
572.333	438.88
572.544	425.88
572.755	422.88
572.966	424.88
573.178	420.88
573.389	430.88
573.6	416.88
573.811	402.88
574.023	410.88
574.234	392.88
574.445	420.88
574.656	397.88
574.867	410.88
575.078	416.88
575.289	393.88
575.501	400.88
575.712	388.88
575.923	384.88
576.134	380.88
576.345	380.88
576.556	400.88
576.767	392.88
576.978	393.88
577.188	382.88
577.399	362.88
577.61	385.88
577.821	368.88
578.032	362.88
578.243	366.88
578.454	380.88
578.665	376.88
578.875	357.88
579.086	386.88
579.297	363.88
579.508	359.88
579.718	340.88
579.929	358.88
580.14	363.88
580.35	371.88
580.561	347.88
580.772	358.88
580.982	359.88
581.193	357.88
581.403	352.88
581.614	341.88
581.825	367.88
582.035	351.88
582.246	347.88
582.456	328.88
582.667	347.88
582.877	360.88
583.087	336.88
583.298	352.88
583.508	344.88
583.719	339.88
583.929	350.88
584.139	332.88
584.35	348.88
584.56	341.88
584.77	335.88
584.981	341.88
585.191	337.88
585.401	323.88
585.611	324.88
585.821	327.88
586.032	336.88
586.242	346.88
586.452	331.88
586.662	322.88
586.872	299.88
587.082	323.88
587.292	333.88
587.502	329.88
587.713	329.88
587.923	321.88
588.133	321.88
588.343	323.88
588.553	326.88
588.762	327.88
588.972	340.88
589.182	351.88
589.392	350.88
589.602	336.88
589.812	357.88
590.022	352.88
590.232	320.88
590.441	317.88
590.651	332.88
590.861	328.88
591.071	329.88
591.281	325.88
591.49	349.88
591.7	335.88
591.91	357.88
592.119	324.88
592.329	345.88
592.539	370.88
592.748	360.88
592.958	382.88
593.167	362.88
593.377	364.88
593.587	420.88
593.796	399.88
594.006	372.88
594.215	393.88
594.424	361.88
594.634	386.88
594.843	377.88
595.053	355.88
595.262	363.88
595.472	343.88
595.681	342.88
595.89	327.88
596.1	335.88
596.309	330.88
596.518	313.88
596.727	293.88
596.937	308.88
597.146	294.88
597.355	307.88
597.564	291.88
597.774	308.88
597.983	277.88
598.192	290.88
598.401	299.88
598.61	262.88
598.819	271.88
599.028	286.88
599.237	278.88
599.446	273.88
599.655	276.88
599.864	273.88
600.073	285.88
600.282	277.88
600.491	256.88
600.7	262.88
600.909	272.88
601.118	275.88
601.327	277.88
601.536	284.88
601.745	284.88
601.953	263.88
602.162	262.88
602.371	267.88
602.58	263.88
602.789	274.88
602.997	280.88
603.206	278.88
603.415	257.88
603.623	270.88
603.832	265.88
604.041	268.88
604.249	248.88
604.458	258.88
604.666	263.88
604.875	258.88
605.084	254.88
605.292	260.88
605.501	251.88
605.709	269.88
605.918	257.88
606.126	244.88
606.334	250.88
606.543	259.88
606.751	255.88
606.96	258.88
607.168	247.88
607.376	265.88
607.585	250.88
607.793	256.88
608.001	265.88
608.21	244.88
608.418	237.88
608.626	232.88
608.834	254.88
609.043	254.88
609.251	248.88
609.459	249.88
609.667	257.88
609.875	241.88
610.083	270.88
610.291	242.88
610.499	246.88
610.707	251.88
610.916	240.88
611.124	233.88
611.332	243.88
611.54	244.88
611.748	247.88
611.955	250.88
612.163	258.88
612.371	231.88
612.579	231.88
612.787	256.88
612.995	234.88
613.203	242.88
613.411	242.88
613.618	243.88
613.826	246.88
614.034	239.88
614.242	237.88
614.449	251.88
614.657	244.88
614.865	236.88
615.072	234.88
615.28	225.88
615.488	233.88
615.695	261.88
615.903	240.88
616.111	251.88
616.318	249.88
616.526	246.88
616.733	238.88
616.941	230.88
617.148	237.88
617.356	229.88
617.563	227.88
617.771	232.88
617.978	236.88
618.185	232.88
618.393	224.88
618.6	229.88
618.807	242.88
619.015	231.88
619.222	238.88
619.429	228.88
619.637	251.88
619.844	233.88
620.051	242.88
620.258	244.88
620.466	232.88
620.673	212.88
620.88	229.88
621.087	217.88
621.294	231.88
621.501	216.88
621.708	221.88
621.915	217.88
622.122	222.88
622.329	214.88
622.536	204.88
622.743	219.88
622.95	224.88
623.157	214.88
623.364	216.88
623.571	212.88
623.778	212.88
623.985	223.88
624.192	205.88
624.399	201.88
624.606	210.88
624.812	221.88
625.019	227.88
625.226	223.88
625.433	213.88
625.639	213.88
625.846	205.88
626.053	210.88
626.259	212.88
626.466	211.88
626.673	206.88
626.879	203.88
627.086	204.88
627.293	207.88
627.499	212.88
627.706	235.88
627.912	204.88
628.119	203.88
628.325	199.88
628.532	208.88
628.738	202.88
628.945	199.88
629.151	196.88
629.357	192.88
629.564	187.88
629.77	203.88
629.976	202.88
630.183	196.88
630.389	200.88
630.595	181.88
630.802	200.88
631.008	188.88
631.214	201.88
631.42	199.88
631.627	182.88
631.833	174.88
632.039	186.88
632.245	172.88
632.451	178.88
632.657	198.88
632.863	194.88
633.069	188.88
633.275	193.88
633.481	196.88
633.688	197.88
633.893	190.88
634.099	177.88
634.305	179.88
634.511	180.88
634.717	185.88
634.923	184.88
635.129	191.88
635.335	181.88
635.541	176.88
635.747	180.88
635.952	173.88
636.158	185.88
636.364	181.88
636.57	183.88
636.775	188.88
636.981	182.88
637.187	174.88
637.392	171.88
637.598	172.88
637.804	174.88
638.009	182.88
638.215	181.88
638.421	179.88
638.626	179.88
638.832	174.88
639.037	159.88
639.243	176.88
639.448	166.88
639.654	174.88
639.859	179.88
640.065	175.88
640.27	183.88
640.475	187.88
640.681	161.88
640.886	184.88
641.091	167.88
641.297	179.88
641.502	163.88
641.707	170.88
641.913	174.88
642.118	160.88
642.323	167.88
642.528	166.88
642.733	186.88
642.939	179.88
643.144	165.88
643.349	178.88
643.554	156.88
643.759	162.88
643.964	168.88
644.169	168.88
644.374	154.88
644.579	167.88
644.784	174.88
644.989	178.88
645.194	179.88
645.399	165.88
645.604	171.88
645.809	161.88
646.014	184.88
646.219	166.88
646.423	188.88
646.628	163.88
646.833	171.88
647.038	179.88
647.243	177.88
647.447	165.88
647.652	172.88
647.857	182.88
648.062	175.88
648.266	171.88
648.471	170.88
648.676	170.88
648.88	180.88
649.085	192.88
649.289	169.88
649.494	158.88
649.698	154.88
649.903	168.88
650.107	183.88
650.312	166.88
650.516	151.88
650.721	161.88
650.925	161.88
651.13	154.88
651.334	156.88
651.539	146.88
651.743	147.88
651.947	152.88
652.152	147.88
652.356	174.88
652.56	158.88
652.764	165.88
652.969	140.88
653.173	159.88
653.377	146.88
653.581	138.88
653.785	147.88
653.99	139.88
654.194	140.88
654.398	128.88
654.602	146.88
654.806	149.88
655.01	140.88
655.214	122.88
655.418	133.88
655.622	135.88
655.826	151.88
656.03	134.88
656.234	121.88
656.438	144.88
656.642	137.88
656.846	131.88
657.049	129.88
657.253	132.88
657.457	115.88
657.661	130.88
657.865	127.88
658.068	116.88
658.272	114.88
658.476	116.88
658.68	104.88
658.883	119.88
659.087	96.88
659.291	111.88
659.494	104.88
659.698	99.88
659.901	116.88
660.105	104.88
660.309	86.88
660.512	99.88
660.716	82.88
660.919	102.88
661.123	97.88
661.326	97.88
661.53	82.88
661.733	100.88
661.936	87.88
662.14	83.88
662.343	91.88
662.546	89.88
662.75	80.88
662.953	83.88
663.156	90.88
663.36	74.88
663.563	91.88
663.766	83.88
663.969	92.88
664.173	85.88
664.376	64.88
664.579	89.88
664.782	87.88
664.985	82.88
665.188	85.88
665.391	82.88
665.594	85.88
665.797	89.88
666	78.88
666.203	80.88
666.406	73.88
666.609	86.88
666.812	85.88
667.015	80.88
667.218	89.88
667.421	99.88
667.624	83.88
667.827	85.88
668.03	82.88
668.232	75.88
668.435	75.88
668.638	90.88
668.841	98.88
669.043	88.88
669.246	67.88
669.449	76.88
669.651	67.88
669.854	83.88
670.057	90.88
670.259	72.88
670.462	89.88
670.665	77.88
670.867	83.88
671.07	90.88
671.272	77.88
671.475	81.88
671.677	82.88
671.88	90.88
672.082	77.88
672.284	83.88
672.487	79.88
672.689	73.88
672.892	82.88
