Data from NiCl2@0.0625M.TitratingCurve.Agarose3%dH2O.NegLispCup.LampEnergy10.LIBS07252019_HRD10591_18-32-45-580.txt Node
Date: Thu Jul 25 18:32:45 EDT 2019
User: cochatt
Spectrometer: HR+D1059
Trigger mode: 1
Integration Time (sec): 1.000000E-1
Scans to average: 1
Electric dark correction enabled: true
Nonlinearity correction enabled: false
Boxcar width: 0
XAxis mode: Wavelengths
Number of Pixels in Spectrum: 2048
>>>>>Begin Spectral Data<<<<<
223.165	-15.62
223.4	-15.62
223.635	-15.62
223.869	-20.62
224.104	-22.62
224.338	-4.62
224.573	-23.62
224.808	-16.62
225.042	-5.62
225.277	0.38
225.511	-4.62
225.746	2.38
225.98	9.38
226.215	4.38
226.449	-0.62
226.683	31.38
226.918	33.38
227.152	33.38
227.387	45.38
227.621	39.38
227.856	31.38
228.09	42.38
228.324	57.38
228.559	46.38
228.793	85.38
229.027	156.38
229.262	175.38
229.496	160.38
229.73	155.38
229.964	171.38
230.199	173.38
230.433	186.38
230.667	181.38
230.901	189.38
231.136	183.38
231.37	187.38
231.604	197.38
231.838	198.38
232.072	183.38
232.306	206.38
232.541	218.38
232.775	194.38
233.009	175.38
233.243	207.38
233.477	192.38
233.711	195.38
233.945	208.38
234.179	199.38
234.413	213.38
234.647	214.38
234.881	216.38
235.115	213.38
235.349	218.38
235.583	232.38
235.817	229.38
236.051	228.38
236.285	235.38
236.519	220.38
236.753	235.38
236.987	230.38
237.221	234.38
237.455	217.38
237.689	235.38
237.922	251.38
238.156	237.38
238.39	258.38
238.624	257.38
238.858	266.38
239.091	251.38
239.325	272.38
239.559	273.38
239.793	282.38
240.027	283.38
240.26	268.38
240.494	262.38
240.728	268.38
240.961	287.38
241.195	270.38
241.429	284.38
241.662	295.38
241.896	296.38
242.13	304.38
242.363	306.38
242.597	316.38
242.83	288.38
243.064	321.38
243.298	319.38
243.531	312.38
243.765	329.38
243.998	328.38
244.232	327.38
244.465	331.38
244.699	352.38
244.932	360.38
245.166	354.38
245.399	332.38
245.633	341.38
245.866	326.38
246.099	350.38
246.333	367.38
246.566	350.38
246.8	356.38
247.033	368.38
247.266	356.38
247.5	361.38
247.733	380.38
247.966	375.38
248.2	388.38
248.433	415.38
248.666	395.38
248.899	384.38
249.133	389.38
249.366	395.38
249.599	386.38
249.832	394.38
250.066	415.38
250.299	422.38
250.532	416.38
250.765	432.38
250.998	404.38
251.231	430.38
251.465	419.38
251.698	440.38
251.931	440.38
252.164	451.38
252.397	429.38
252.63	442.38
252.863	446.38
253.096	459.38
253.329	452.38
253.562	480.38
253.795	457.38
254.028	453.38
254.261	444.38
254.494	440.38
254.727	462.38
254.96	456.38
255.193	465.38
255.426	469.38
255.659	471.38
255.892	470.38
256.124	484.38
256.357	471.38
256.59	469.38
256.823	495.38
257.056	489.38
257.289	497.38
257.521	501.38
257.754	508.38
257.987	501.38
258.22	521.38
258.452	487.38
258.685	496.38
258.918	525.38
259.151	494.38
259.383	511.38
259.616	529.38
259.849	546.38
260.081	535.38
260.314	546.38
260.547	543.38
260.779	520.38
261.012	526.38
261.244	553.38
261.477	554.38
261.71	566.38
261.942	570.38
262.175	581.38
262.407	574.38
262.64	561.38
262.872	568.38
263.105	580.38
263.337	560.38
263.57	565.38
263.802	542.38
264.035	571.38
264.267	575.38
264.499	578.38
264.732	573.38
264.964	572.38
265.197	584.38
265.429	587.38
265.661	588.38
265.894	571.38
266.126	610.38
266.358	608.38
266.591	590.38
266.823	599.38
267.055	615.38
267.287	640.38
267.52	608.38
267.752	619.38
267.984	633.38
268.216	609.38
268.448	615.38
268.681	628.38
268.913	625.38
269.145	635.38
269.377	630.38
269.609	643.38
269.841	656.38
270.073	621.38
270.306	624.38
270.538	643.38
270.77	633.38
271.002	639.38
271.234	653.38
271.466	685.38
271.698	680.38
271.93	687.38
272.162	661.38
272.394	687.38
272.626	675.38
272.858	673.38
273.09	688.38
273.322	672.38
273.553	675.38
273.785	707.38
274.017	687.38
274.249	704.38
274.481	695.38
274.713	708.38
274.945	725.38
275.176	710.38
275.408	725.38
275.64	741.38
275.872	735.38
276.104	744.38
276.335	749.38
276.567	722.38
276.799	735.38
277.031	745.38
277.262	725.38
277.494	720.38
277.726	746.38
277.957	763.38
278.189	779.38
278.421	749.38
278.652	749.38
278.884	792.38
279.115	784.38
279.347	767.38
279.579	793.38
279.81	778.38
280.042	800.38
280.273	788.38
280.505	806.38
280.736	785.38
280.968	777.38
281.199	805.38
281.431	809.38
281.662	807.38
281.894	775.38
282.125	800.38
282.356	809.38
282.588	777.38
282.819	820.38
283.051	839.38
283.282	817.38
283.513	830.38
283.745	820.38
283.976	832.38
284.207	830.38
284.439	860.38
284.67	848.38
284.901	835.38
285.132	843.38
285.364	854.38
285.595	863.38
285.826	845.38
286.057	857.38
286.288	838.38
286.52	848.38
286.751	854.38
286.982	891.38
287.213	865.38
287.444	864.38
287.675	897.38
287.906	873.38
288.138	880.38
288.369	881.38
288.6	889.38
288.831	904.38
289.062	916.38
289.293	880.38
289.524	930.38
289.755	883.38
289.986	902.38
290.217	899.38
290.448	906.38
290.679	888.38
290.91	913.38
291.141	915.38
291.371	923.38
291.602	917.38
291.833	918.38
292.064	906.38
292.295	919.38
292.526	922.38
292.757	922.38
292.987	934.38
293.218	915.38
293.449	944.38
293.68	936.38
293.91	899.38
294.141	905.38
294.372	905.38
294.603	914.38
294.833	934.38
295.064	919.38
295.295	939.38
295.525	935.38
295.756	953.38
295.987	927.38
296.217	945.38
296.448	919.38
296.679	964.38
296.909	944.38
297.14	950.38
297.37	960.38
297.601	959.38
297.831	988.38
298.062	987.38
298.292	1004.38
298.523	996.38
298.753	984.38
298.984	991.38
299.214	982.38
299.445	989.38
299.675	991.38
299.905	983.38
300.136	961.38
300.366	998.38
300.597	1017.38
300.827	1027.38
301.057	1029.38
301.288	1012.38
301.518	1052.38
301.748	1046.38
301.979	1060.38
302.209	1053.38
302.439	1058.38
302.669	1032.38
302.9	1046.38
303.13	1064.38
303.36	1064.38
303.59	1039.38
303.82	1062.38
304.051	1047.38
304.281	1053.38
304.511	1062.38
304.741	1028.38
304.971	1063.38
305.201	1040.38
305.431	1063.38
305.661	1067.38
305.891	1039.38
306.121	1038.38
306.352	1033.38
306.582	1031.38
306.812	1013.38
307.042	1048.38
307.272	1039.38
307.502	1055.38
307.731	1019.38
307.961	1019.38
308.191	1039.38
308.421	1011.38
308.651	1004.38
308.881	1024.38
309.111	1024.38
309.341	1006.38
309.571	1049.38
309.8	1032.38
310.03	1056.38
310.26	1036.38
310.49	1045.38
310.72	1020.38
310.949	1071.38
311.179	1045.38
311.409	1029.38
311.639	1051.38
311.868	1064.38
312.098	1050.38
312.328	1058.38
312.557	1077.38
312.787	1077.38
313.017	1095.38
313.246	1122.38
313.476	1104.38
313.706	1122.38
313.935	1132.38
314.165	1127.38
314.394	1131.38
314.624	1121.38
314.853	1105.38
315.083	1114.38
315.312	1133.38
315.542	1104.38
315.771	1127.38
316.001	1105.38
316.23	1119.38
316.46	1091.38
316.689	1118.38
316.919	1103.38
317.148	1101.38
317.377	1127.38
317.607	1082.38
317.836	1103.38
318.065	1110.38
318.295	1096.38
318.524	1127.38
318.753	1103.38
318.983	1105.38
319.212	1098.38
319.441	1115.38
319.67	1118.38
319.9	1107.38
320.129	1101.38
320.358	1108.38
320.587	1097.38
320.816	1108.38
321.046	1119.38
321.275	1121.38
321.504	1136.38
321.733	1115.38
321.962	1125.38
322.191	1107.38
322.42	1128.38
322.649	1122.38
322.878	1118.38
323.108	1120.38
323.337	1131.38
323.566	1155.38
323.795	1149.38
324.024	1144.38
324.253	1169.38
324.482	1161.38
324.71	1146.38
324.939	1147.38
325.168	1165.38
325.397	1180.38
325.626	1197.38
325.855	1182.38
326.084	1207.38
326.313	1226.38
326.542	1211.38
326.77	1217.38
326.999	1208.38
327.228	1175.38
327.457	1197.38
327.686	1199.38
327.914	1203.38
328.143	1206.38
328.372	1220.38
328.6	1203.38
328.829	1227.38
329.058	1213.38
329.287	1215.38
329.515	1225.38
329.744	1204.38
329.972	1220.38
330.201	1225.38
330.43	1243.38
330.658	1261.38
330.887	1257.38
331.115	1281.38
331.344	1289.38
331.572	1301.38
331.801	1312.38
332.03	1317.38
332.258	1357.38
332.486	1353.38
332.715	1401.38
332.943	1428.38
333.172	1467.38
333.4	1518.38
333.629	1536.38
333.857	1598.38
334.085	1562.38
334.314	1559.38
334.542	1554.38
334.771	1508.38
334.999	1525.38
335.227	1517.38
335.455	1519.38
335.684	1505.38
335.912	1493.38
336.14	1485.38
336.369	1468.38
336.597	1487.38
336.825	1456.38
337.053	1463.38
337.281	1407.38
337.51	1380.38
337.738	1379.38
337.966	1345.38
338.194	1334.38
338.422	1347.38
338.65	1357.38
338.878	1345.38
339.106	1375.38
339.334	1358.38
339.562	1287.38
339.79	1296.38
340.018	1293.38
340.246	1307.38
340.474	1315.38
340.702	1268.38
340.93	1303.38
341.158	1286.38
341.386	1293.38
341.614	1289.38
341.842	1252.38
342.07	1255.38
342.298	1266.38
342.526	1288.38
342.754	1277.38
342.981	1265.38
343.209	1275.38
343.437	1376.38
343.665	1427.38
343.893	1451.38
344.12	1546.38
344.348	1486.38
344.576	1438.38
344.804	1395.38
345.031	1325.38
345.259	1314.38
345.487	1335.38
345.714	1263.38
345.942	1240.38
346.17	1239.38
346.397	1264.38
346.625	1239.38
346.853	1247.38
347.08	1198.38
347.308	1214.38
347.535	1216.38
347.763	1235.38
347.99	1191.38
348.218	1208.38
348.445	1197.38
348.673	1216.38
348.9	1245.38
349.128	1199.38
349.355	1204.38
349.583	1192.38
349.81	1195.38
350.037	1173.38
350.265	1196.38
350.492	1204.38
350.72	1205.38
350.947	1177.38
351.174	1207.38
351.402	1169.38
351.629	1176.38
351.856	1182.38
352.083	1167.38
352.311	1181.38
352.538	1193.38
352.765	1205.38
352.992	1167.38
353.22	1148.38
353.447	1176.38
353.674	1136.38
353.901	1147.38
354.128	1171.38
354.355	1161.38
354.583	1175.38
354.81	1132.38
355.037	1187.38
355.264	1174.38
355.491	1172.38
355.718	1185.38
355.945	1148.38
356.172	1187.38
356.399	1185.38
356.626	1172.38
356.853	1159.38
357.08	1183.38
357.307	1174.38
357.534	1205.38
357.761	1226.38
357.988	1183.38
358.215	1166.38
358.441	1170.38
358.668	1168.38
358.895	1190.38
359.122	1181.38
359.349	1180.38
359.576	1184.38
359.802	1184.38
360.029	1153.38
360.256	1185.38
360.483	1190.38
360.709	1154.38
360.936	1181.38
361.163	1192.38
361.39	1157.38
361.616	1182.38
361.843	1201.38
362.07	1215.38
362.296	1190.38
362.523	1153.38
362.749	1203.38
362.976	1184.38
363.203	1181.38
363.429	1174.38
363.656	1188.38
363.882	1189.38
364.109	1160.38
364.335	1167.38
364.562	1191.38
364.788	1196.38
365.015	1183.38
365.241	1188.38
365.468	1197.38
365.694	1204.38
365.92	1203.38
366.147	1181.38
366.373	1171.38
366.599	1215.38
366.826	1182.38
367.052	1157.38
367.278	1201.38
367.505	1188.38
367.731	1191.38
367.957	1178.38
368.184	1207.38
368.41	1215.38
368.636	1198.38
368.862	1211.38
369.089	1208.38
369.315	1223.38
369.541	1232.38
369.767	1226.38
369.993	1252.38
370.219	1216.38
370.445	1233.38
370.672	1253.38
370.898	1256.38
371.124	1260.38
371.35	1275.38
371.576	1275.38
371.802	1287.38
372.028	1264.38
372.254	1301.38
372.48	1313.38
372.706	1291.38
372.932	1326.38
373.158	1309.38
373.384	1357.38
373.61	1297.38
373.835	1310.38
374.061	1290.38
374.287	1303.38
374.513	1326.38
374.739	1357.38
374.965	1373.38
375.191	1428.38
375.416	1423.38
375.642	1340.38
375.868	1361.38
376.094	1358.38
376.319	1334.38
376.545	1317.38
376.771	1299.38
376.997	1286.38
377.222	1288.38
377.448	1276.38
377.674	1266.38
377.899	1275.38
378.125	1283.38
378.35	1271.38
378.576	1243.38
378.802	1319.38
379.027	1295.38
379.253	1281.38
379.478	1247.38
379.704	1289.38
379.929	1265.38
380.155	1267.38
380.38	1273.38
380.606	1258.38
380.831	1239.38
381.057	1299.38
381.282	1306.38
381.507	1283.38
381.733	1287.38
381.958	1313.38
382.184	1299.38
382.409	1325.38
382.634	1337.38
382.86	1317.38
383.085	1362.38
383.31	1379.38
383.535	1364.38
383.761	1371.38
383.986	1406.38
384.211	1404.38
384.436	1451.38
384.662	1465.38
384.887	1459.38
385.112	1488.38
385.337	1550.38
385.562	1483.38
385.787	1471.38
386.013	1531.38
386.238	1552.38
386.463	1564.38
386.688	1588.38
386.913	1531.38
387.138	1521.38
387.363	1503.38
387.588	1497.38
387.813	1529.38
388.038	1535.38
388.263	1514.38
388.488	1546.38
388.713	1534.38
388.938	1489.38
389.163	1512.38
389.387	1487.38
389.612	1465.38
389.837	1512.38
390.062	1507.38
390.287	1516.38
390.512	1520.38
390.736	1544.38
390.961	1562.38
391.186	1582.38
391.411	1614.38
391.636	1639.38
391.86	1639.38
392.085	1709.38
392.31	1693.38
392.534	1690.38
392.759	1653.38
392.984	1639.38
393.208	1637.38
393.433	1657.38
393.658	1635.38
393.882	1601.38
394.107	1640.38
394.331	1652.38
394.556	1646.38
394.78	1639.38
395.005	1651.38
395.229	1641.38
395.454	1673.38
395.678	1721.38
395.903	1760.38
396.127	1717.38
396.352	1681.38
396.576	1625.38
396.801	1664.38
397.025	1703.38
397.249	1720.38
397.474	1715.38
397.698	1713.38
397.922	1725.38
398.147	1739.38
398.371	1805.38
398.595	1812.38
398.82	1901.38
399.044	2016.38
399.268	2187.38
399.492	2395.38
399.717	2583.38
399.941	2623.38
400.165	2464.38
400.389	2275.38
400.613	2138.38
400.837	1994.38
401.062	1972.38
401.286	1916.38
401.51	1928.38
401.734	1868.38
401.958	1917.38
402.182	1931.38
402.406	1919.38
402.63	1939.38
402.854	2016.38
403.078	1980.38
403.302	2018.38
403.526	2076.38
403.75	2057.38
403.974	2117.38
404.198	2052.38
404.422	2128.38
404.645	2092.38
404.869	2015.38
405.093	2061.38
405.317	2024.38
405.541	2110.38
405.765	2093.38
405.988	2039.38
406.212	2045.38
406.436	2093.38
406.66	2147.38
406.883	2163.38
407.107	2227.38
407.331	2307.38
407.555	2381.38
407.778	2385.38
408.002	2341.38
408.226	2304.38
408.449	2265.38
408.673	2152.38
408.896	2152.38
409.12	2111.38
409.344	2147.38
409.567	2091.38
409.791	2113.38
410.014	2104.38
410.238	2094.38
410.461	2114.38
410.685	2039.38
410.908	2058.38
411.132	2017.38
411.355	1971.38
411.578	1970.38
411.802	1920.38
412.025	1983.38
412.249	1961.38
412.472	2031.38
412.695	1936.38
412.919	1920.38
413.142	1916.38
413.365	1879.38
413.589	1902.38
413.812	1904.38
414.035	1893.38
414.258	1868.38
414.482	1903.38
414.705	1875.38
414.928	1861.38
415.151	1881.38
415.374	1882.38
415.597	1882.38
415.821	1819.38
416.044	1843.38
416.267	1810.38
416.49	1805.38
416.713	1836.38
416.936	1831.38
417.159	1827.38
417.382	1797.38
417.605	1826.38
417.828	1808.38
418.051	1841.38
418.274	1819.38
418.497	1805.38
418.72	1896.38
418.943	1841.38
419.166	1945.38
419.389	2109.38
419.611	2034.38
419.834	2003.38
420.057	1952.38
420.28	1858.38
420.503	1811.38
420.726	1839.38
420.948	1797.38
421.171	1797.38
421.394	1805.38
421.617	1829.38
421.839	1789.38
422.062	1833.38
422.285	1774.38
422.507	1866.38
422.73	1890.38
422.953	1897.38
423.175	1847.38
423.398	1878.38
423.621	1847.38
423.843	1908.38
424.066	1923.38
424.288	1909.38
424.511	1896.38
424.733	1870.38
424.956	1875.38
425.178	1853.38
425.401	1836.38
425.623	1816.38
425.846	1802.38
426.068	1812.38
426.291	1796.38
426.513	1798.38
426.735	1755.38
426.958	1745.38
427.18	1719.38
427.402	1746.38
427.625	1712.38
427.847	1666.38
428.069	1682.38
428.292	1690.38
428.514	1661.38
428.736	1663.38
428.958	1671.38
429.181	1697.38
429.403	1649.38
429.625	1635.38
429.847	1619.38
430.069	1600.38
430.292	1640.38
430.514	1630.38
430.736	1640.38
430.958	1654.38
431.18	1641.38
431.402	1670.38
431.624	1636.38
431.846	1677.38
432.068	1707.38
432.29	1720.38
432.512	1645.38
432.734	1671.38
432.956	1648.38
433.178	1697.38
433.4	1656.38
433.622	1700.38
433.844	1715.38
434.066	1733.38
434.287	1718.38
434.509	1744.38
434.731	1819.38
434.953	1842.38
435.175	1842.38
435.397	1836.38
435.618	1795.38
435.84	1707.38
436.062	1720.38
436.284	1664.38
436.505	1672.38
436.727	1620.38
436.949	1675.38
437.17	1664.38
437.392	1577.38
437.614	1643.38
437.835	1589.38
438.057	1648.38
438.278	1558.38
438.5	1591.38
438.721	1593.38
438.943	1622.38
439.165	1582.38
439.386	1561.38
439.608	1623.38
439.829	1656.38
440.05	1612.38
440.272	1653.38
440.493	1619.38
440.715	1671.38
440.936	1705.38
441.158	1715.38
441.379	1739.38
441.6	1781.38
441.822	1783.38
442.043	1794.38
442.264	1805.38
442.486	1785.38
442.707	1769.38
442.928	1755.38
443.149	1760.38
443.371	1742.38
443.592	1808.38
443.813	1851.38
444.034	1808.38
444.255	1899.38
444.476	1915.38
444.698	2018.38
444.919	2016.38
445.14	2117.38
445.361	1974.38
445.582	1902.38
445.803	1784.38
446.024	1718.38
446.245	1741.38
446.466	1669.38
446.687	1646.38
446.908	1661.38
447.129	1612.38
447.35	1583.38
447.571	1592.38
447.792	1535.38
448.013	1498.38
448.234	1527.38
448.455	1524.38
448.675	1518.38
448.896	1518.38
449.117	1478.38
449.338	1442.38
449.559	1455.38
449.779	1440.38
450	1463.38
450.221	1483.38
450.442	1523.38
450.662	1432.38
450.883	1504.38
451.104	1520.38
451.324	1519.38
451.545	1473.38
451.766	1470.38
451.986	1495.38
452.207	1488.38
452.428	1511.38
452.648	1456.38
452.869	1460.38
453.089	1423.38
453.31	1431.38
453.53	1411.38
453.751	1445.38
453.971	1453.38
454.192	1416.38
454.412	1391.38
454.633	1383.38
454.853	1395.38
455.073	1401.38
455.294	1414.38
455.514	1404.38
455.734	1409.38
455.955	1373.38
456.175	1374.38
456.395	1406.38
456.616	1393.38
456.836	1404.38
457.056	1401.38
457.276	1395.38
457.497	1400.38
457.717	1418.38
457.937	1425.38
458.157	1437.38
458.377	1481.38
458.598	1471.38
458.818	1548.38
459.038	1565.38
459.258	1562.38
459.478	1632.38
459.698	1673.38
459.918	1702.38
460.138	1832.38
460.358	1857.38
460.578	1844.38
460.798	1859.38
461.018	1889.38
461.238	1860.38
461.458	1902.38
461.678	1847.38
461.898	1889.38
462.118	1908.38
462.338	2000.38
462.558	2027.38
462.777	2113.38
462.997	2256.38
463.217	2329.38
463.437	2338.38
463.657	2260.38
463.876	2162.38
464.096	2208.38
464.316	2145.38
464.536	2119.38
464.755	2068.38
464.975	2034.38
465.195	1942.38
465.414	1844.38
465.634	1701.38
465.854	1699.38
466.073	1661.38
466.293	1648.38
466.512	1599.38
466.732	1590.38
466.951	1574.38
467.171	1570.38
467.391	1549.38
467.61	1600.38
467.829	1564.38
468.049	1531.38
468.268	1483.38
468.488	1499.38
468.707	1481.38
468.927	1531.38
469.146	1500.38
469.365	1507.38
469.585	1512.38
469.804	1593.38
470.023	1563.38
470.243	1575.38
470.462	1563.38
470.681	1559.38
470.901	1600.38
471.12	1592.38
471.339	1596.38
471.558	1548.38
471.777	1543.38
471.997	1548.38
472.216	1564.38
472.435	1489.38
472.654	1494.38
472.873	1487.38
473.092	1480.38
473.311	1461.38
473.53	1492.38
473.749	1476.38
473.968	1495.38
474.187	1493.38
474.406	1476.38
474.625	1496.38
474.844	1503.38
475.063	1503.38
475.282	1535.38
475.501	1511.38
475.72	1545.38
475.939	1564.38
476.158	1533.38
476.377	1569.38
476.596	1545.38
476.814	1579.38
477.033	1584.38
477.252	1615.38
477.471	1681.38
477.69	1695.38
477.908	1723.38
478.127	1715.38
478.346	1761.38
478.564	1797.38
478.783	1795.38
479.002	1870.38
479.22	1876.38
479.439	1904.38
479.658	1835.38
479.876	1889.38
480.095	1912.38
480.313	1987.38
480.532	1927.38
480.751	2003.38
480.969	1900.38
481.188	1870.38
481.406	1830.38
481.624	1847.38
481.843	1825.38
482.061	1787.38
482.28	1815.38
482.498	1800.38
482.717	1790.38
482.935	1800.38
483.153	1789.38
483.372	1820.38
483.59	1841.38
483.808	1801.38
484.027	1858.38
484.245	1862.38
484.463	1865.38
484.681	1924.38
484.9	1925.38
485.118	1864.38
485.336	1901.38
485.554	1881.38
485.772	1904.38
485.99	1889.38
486.209	1919.38
486.427	1875.38
486.645	1888.38
486.863	1913.38
487.081	1915.38
487.299	1906.38
487.517	1901.38
487.735	1842.38
487.953	1890.38
488.171	1884.38
488.389	1897.38
488.607	1862.38
488.825	1915.38
489.043	1845.38
489.261	1835.38
489.479	1839.38
489.696	1848.38
489.914	1875.38
490.132	1855.38
490.35	1838.38
490.568	1816.38
490.786	1839.38
491.003	1825.38
491.221	1904.38
491.439	1877.38
491.657	1874.38
491.874	1871.38
492.092	1864.38
492.31	1849.38
492.527	1859.38
492.745	1855.38
492.963	1869.38
493.18	1838.38
493.398	1913.38
493.615	1915.38
493.833	1894.38
494.05	1909.38
494.268	1895.38
494.485	1947.38
494.703	1912.38
494.92	1925.38
495.138	1933.38
495.355	1920.38
495.573	1951.38
495.79	1944.38
496.008	1980.38
496.225	2016.38
496.442	1969.38
496.66	2002.38
496.877	2025.38
497.094	2066.38
497.312	2073.38
497.529	2118.38
497.746	2169.38
497.963	2229.38
498.181	2348.38
498.398	2425.38
498.615	2520.38
498.832	2696.38
499.049	2823.38
499.267	3028.38
499.484	3263.38
499.701	3601.38
499.918	3819.38
500.135	4226.38
500.352	4560.38
500.569	4707.38
500.786	4763.38
501.003	4536.38
501.22	4159.38
501.437	3854.38
501.654	3427.38
501.871	3179.38
502.088	2969.38
502.305	2764.38
502.522	2671.38
502.739	2606.38
502.956	2483.38
503.172	2377.38
503.389	2250.38
503.606	2221.38
503.823	2139.38
504.04	2161.38
504.256	2143.38
504.473	2143.38
504.69	2146.38
504.907	2167.38
505.123	2039.38
505.34	1934.38
505.557	1884.38
505.773	1827.38
505.99	1805.38
506.207	1720.38
506.423	1712.38
506.64	1690.38
506.856	1684.38
507.073	1669.38
507.289	1642.38
507.506	1625.38
507.722	1636.38
507.939	1629.38
508.155	1615.38
508.372	1553.38
508.588	1583.38
508.805	1600.38
509.021	1575.38
509.238	1545.38
509.454	1552.38
509.67	1538.38
509.887	1530.38
510.103	1531.38
510.319	1506.38
510.536	1494.38
510.752	1476.38
510.968	1521.38
511.184	1476.38
511.401	1509.38
511.617	1501.38
511.833	1473.38
512.049	1487.38
512.265	1495.38
512.481	1469.38
512.698	1490.38
512.914	1447.38
513.13	1493.38
513.346	1498.38
513.562	1485.38
513.778	1474.38
513.994	1495.38
514.21	1515.38
514.426	1511.38
514.642	1542.38
514.858	1509.38
515.074	1508.38
515.29	1527.38
515.506	1542.38
515.721	1581.38
515.937	1607.38
516.153	1612.38
516.369	1675.38
516.585	1692.38
516.801	1728.38
517.016	1797.38
517.232	1824.38
517.448	1911.38
517.664	1955.38
517.879	1964.38
518.095	1974.38
518.311	1946.38
518.527	1867.38
518.742	1801.38
518.958	1759.38
519.173	1732.38
519.389	1672.38
519.605	1631.38
519.82	1598.38
520.036	1603.38
520.251	1571.38
520.467	1520.38
520.682	1488.38
520.898	1455.38
521.113	1477.38
521.329	1426.38
521.544	1437.38
521.76	1457.38
521.975	1412.38
522.19	1407.38
522.406	1402.38
522.621	1392.38
522.836	1378.38
523.052	1408.38
523.267	1369.38
523.482	1391.38
523.698	1371.38
523.913	1391.38
524.128	1327.38
524.343	1353.38
524.559	1323.38
524.774	1345.38
524.989	1377.38
525.204	1342.38
525.419	1351.38
525.634	1342.38
525.849	1316.38
526.064	1335.38
526.28	1344.38
526.495	1287.38
526.71	1289.38
526.925	1312.38
527.14	1301.38
527.355	1302.38
527.57	1317.38
527.785	1305.38
527.999	1311.38
528.214	1282.38
528.429	1315.38
528.644	1296.38
528.859	1301.38
529.074	1279.38
529.289	1291.38
529.503	1315.38
529.718	1295.38
529.933	1307.38
530.148	1283.38
530.363	1333.38
530.577	1282.38
530.792	1289.38
531.007	1297.38
531.221	1312.38
531.436	1309.38
531.651	1297.38
531.865	1252.38
532.08	1310.38
532.295	1296.38
532.509	1271.38
532.724	1297.38
532.938	1301.38
533.153	1276.38
533.367	1296.38
533.582	1287.38
533.796	1271.38
534.011	1265.38
534.225	1298.38
534.44	1287.38
534.654	1241.38
534.868	1265.38
535.083	1285.38
535.297	1237.38
535.511	1250.38
535.726	1250.38
535.94	1229.38
536.154	1202.38
536.369	1185.38
536.583	1189.38
536.797	1179.38
537.011	1202.38
537.225	1181.38
537.44	1199.38
537.654	1161.38
537.868	1176.38
538.082	1148.38
538.296	1204.38
538.51	1203.38
538.724	1186.38
538.938	1174.38
539.153	1155.38
539.367	1182.38
539.581	1202.38
539.795	1159.38
540.009	1139.38
540.222	1157.38
540.436	1161.38
540.65	1118.38
540.864	1147.38
541.078	1196.38
541.292	1163.38
541.506	1143.38
541.72	1133.38
541.934	1130.38
542.147	1166.38
542.361	1149.38
542.575	1143.38
542.789	1155.38
543.002	1166.38
543.216	1156.38
543.43	1128.38
543.644	1126.38
543.857	1137.38
544.071	1102.38
544.285	1145.38
544.498	1145.38
544.712	1161.38
544.925	1144.38
545.139	1149.38
545.352	1165.38
545.566	1171.38
545.779	1165.38
545.993	1176.38
546.206	1164.38
546.42	1149.38
546.633	1169.38
546.847	1197.38
547.06	1131.38
547.274	1157.38
547.487	1143.38
547.7	1147.38
547.914	1169.38
548.127	1176.38
548.34	1203.38
548.554	1157.38
548.767	1160.38
548.98	1170.38
549.193	1132.38
549.407	1188.38
549.62	1213.38
549.833	1202.38
550.046	1176.38
550.259	1179.38
550.473	1167.38
550.686	1165.38
550.899	1118.38
551.112	1172.38
551.325	1154.38
551.538	1121.38
551.751	1099.38
551.964	1136.38
552.177	1155.38
552.39	1162.38
552.603	1202.38
552.816	1209.38
553.029	1233.38
553.242	1251.38
553.455	1238.38
553.667	1223.38
553.88	1262.38
554.093	1190.38
554.306	1186.38
554.519	1161.38
554.732	1147.38
554.944	1111.38
555.157	1092.38
555.37	1118.38
555.583	1099.38
555.795	1088.38
556.008	1042.38
556.221	1012.38
556.433	1042.38
556.646	1027.38
556.859	981.38
557.071	1011.38
557.284	977.38
557.496	980.38
557.709	992.38
557.921	1006.38
558.134	981.38
558.346	988.38
558.559	997.38
558.771	961.38
558.984	991.38
559.196	971.38
559.409	987.38
559.621	964.38
559.833	923.38
560.046	937.38
560.258	949.38
560.47	967.38
560.683	976.38
560.895	968.38
561.107	967.38
561.32	948.38
561.532	941.38
561.744	984.38
561.956	958.38
562.168	951.38
562.381	952.38
562.593	961.38
562.805	980.38
563.017	961.38
563.229	958.38
563.441	955.38
563.653	973.38
563.865	942.38
564.077	973.38
564.289	1011.38
564.501	1005.38
564.713	1068.38
564.925	1067.38
565.137	1050.38
565.349	1077.38
565.561	1122.38
565.773	1139.38
565.985	1164.38
566.197	1203.38
566.408	1291.38
566.62	1394.38
566.832	1463.38
567.044	1492.38
567.255	1524.38
567.467	1557.38
567.679	1616.38
567.891	1672.38
568.102	1655.38
568.314	1592.38
568.526	1475.38
568.737	1401.38
568.949	1267.38
569.161	1186.38
569.372	1147.38
569.584	1072.38
569.795	1047.38
570.007	1013.38
570.218	993.38
570.43	968.38
570.641	972.38
570.853	969.38
571.064	971.38
571.276	965.38
571.487	959.38
571.698	956.38
571.91	870.38
572.121	889.38
572.333	851.38
572.544	857.38
572.755	832.38
572.966	824.38
573.178	830.38
573.389	808.38
573.6	792.38
573.811	783.38
574.023	760.38
574.234	808.38
574.445	756.38
574.656	753.38
574.867	787.38
575.078	780.38
575.289	773.38
575.501	750.38
575.712	743.38
575.923	731.38
576.134	728.38
576.345	751.38
576.556	749.38
576.767	740.38
576.978	738.38
577.188	719.38
577.399	703.38
577.61	720.38
577.821	707.38
578.032	689.38
578.243	685.38
578.454	703.38
578.665	683.38
578.875	687.38
579.086	663.38
579.297	654.38
579.508	697.38
579.718	663.38
579.929	681.38
580.14	675.38
580.35	677.38
580.561	695.38
580.772	647.38
580.982	657.38
581.193	668.38
581.403	672.38
581.614	699.38
581.825	631.38
582.035	685.38
582.246	659.38
582.456	647.38
582.667	646.38
582.877	663.38
583.087	627.38
583.298	658.38
583.508	651.38
583.719	641.38
583.929	648.38
584.139	631.38
584.35	608.38
584.56	627.38
584.77	633.38
584.981	636.38
585.191	629.38
585.401	628.38
585.611	629.38
585.821	625.38
586.032	626.38
586.242	638.38
586.452	624.38
586.662	636.38
586.872	631.38
587.082	631.38
587.292	621.38
587.502	604.38
587.713	603.38
587.923	624.38
588.133	619.38
588.343	614.38
588.553	623.38
588.762	613.38
588.972	621.38
589.182	645.38
589.392	651.38
589.602	630.38
589.812	622.38
590.022	623.38
590.232	606.38
590.441	619.38
590.651	633.38
590.861	608.38
591.071	610.38
591.281	635.38
591.49	647.38
591.7	657.38
591.91	668.38
592.119	662.38
592.329	672.38
592.539	692.38
592.748	698.38
592.958	741.38
593.167	714.38
593.377	735.38
593.587	745.38
593.796	712.38
594.006	756.38
594.215	775.38
594.424	763.38
594.634	732.38
594.843	701.38
595.053	680.38
595.262	679.38
595.472	660.38
595.681	640.38
595.89	644.38
596.1	641.38
596.309	606.38
596.518	602.38
596.727	608.38
596.937	589.38
597.146	580.38
597.355	547.38
597.564	541.38
597.774	534.38
597.983	543.38
598.192	533.38
598.401	534.38
598.61	551.38
598.819	529.38
599.028	555.38
599.237	540.38
599.446	545.38
599.655	516.38
599.864	514.38
600.073	495.38
600.282	520.38
600.491	507.38
600.7	508.38
600.909	496.38
601.118	515.38
601.327	495.38
601.536	503.38
601.745	486.38
601.953	486.38
602.162	470.38
602.371	495.38
602.58	499.38
602.789	479.38
602.997	482.38
603.206	476.38
603.415	479.38
603.623	468.38
603.832	471.38
604.041	460.38
604.249	476.38
604.458	460.38
604.666	473.38
604.875	486.38
605.084	457.38
605.292	499.38
605.501	465.38
605.709	461.38
605.918	460.38
606.126	457.38
606.334	464.38
606.543	464.38
606.751	461.38
606.96	472.38
607.168	466.38
607.376	447.38
607.585	435.38
607.793	447.38
608.001	460.38
608.21	436.38
608.418	433.38
608.626	451.38
608.834	447.38
609.043	449.38
609.251	451.38
609.459	467.38
609.667	442.38
609.875	430.38
610.083	438.38
610.291	455.38
610.499	467.38
610.707	440.38
610.916	442.38
611.124	455.38
611.332	427.38
611.54	452.38
611.748	430.38
611.955	432.38
612.163	428.38
612.371	430.38
612.579	428.38
612.787	420.38
612.995	411.38
613.203	431.38
613.411	423.38
613.618	417.38
613.826	433.38
614.034	441.38
614.242	438.38
614.449	425.38
614.657	413.38
614.865	430.38
615.072	417.38
615.28	437.38
615.488	414.38
615.695	439.38
615.903	422.38
616.111	434.38
616.318	430.38
616.526	420.38
616.733	429.38
616.941	407.38
617.148	400.38
617.356	416.38
617.563	413.38
617.771	418.38
617.978	420.38
618.185	411.38
618.393	403.38
618.6	411.38
618.807	402.38
619.015	424.38
619.222	420.38
619.429	408.38
619.637	413.38
619.844	418.38
620.051	408.38
620.258	413.38
620.466	398.38
620.673	387.38
620.88	376.38
621.087	394.38
621.294	394.38
621.501	398.38
621.708	405.38
621.915	415.38
622.122	398.38
622.329	414.38
622.536	395.38
622.743	395.38
622.95	398.38
623.157	365.38
623.364	384.38
623.571	350.38
623.778	391.38
623.985	375.38
624.192	369.38
624.399	368.38
624.606	387.38
624.812	379.38
625.019	382.38
625.226	367.38
625.433	353.38
625.639	363.38
625.846	367.38
626.053	351.38
626.259	350.38
626.466	379.38
626.673	364.38
626.879	343.38
627.086	352.38
627.293	353.38
627.499	367.38
627.706	357.38
627.912	333.38
628.119	354.38
628.325	351.38
628.532	340.38
628.738	344.38
628.945	349.38
629.151	344.38
629.357	355.38
629.564	341.38
629.77	329.38
629.976	331.38
630.183	328.38
630.389	333.38
630.595	326.38
630.802	329.38
631.008	333.38
631.214	323.38
631.42	307.38
631.627	316.38
631.833	317.38
632.039	325.38
632.245	305.38
632.451	316.38
632.657	320.38
632.863	319.38
633.069	318.38
633.275	323.38
633.481	319.38
633.688	310.38
633.893	292.38
634.099	315.38
634.305	306.38
634.511	328.38
634.717	307.38
634.923	308.38
635.129	302.38
635.335	312.38
635.541	303.38
635.747	314.38
635.952	301.38
636.158	308.38
636.364	292.38
636.57	308.38
636.775	319.38
636.981	321.38
637.187	289.38
637.392	294.38
637.598	301.38
637.804	307.38
638.009	306.38
638.215	297.38
638.421	267.38
638.626	289.38
638.832	280.38
639.037	277.38
639.243	298.38
639.448	301.38
639.654	286.38
639.859	276.38
640.065	287.38
640.27	291.38
640.475	290.38
640.681	302.38
640.886	295.38
641.091	300.38
641.297	300.38
641.502	290.38
641.707	288.38
641.913	294.38
642.118	287.38
642.323	289.38
642.528	275.38
642.733	287.38
642.939	274.38
643.144	264.38
643.349	276.38
643.554	279.38
643.759	273.38
643.964	275.38
644.169	267.38
644.374	277.38
644.579	283.38
644.784	277.38
644.989	272.38
645.194	278.38
645.399	285.38
645.604	284.38
645.809	273.38
646.014	287.38
646.219	297.38
646.423	272.38
646.628	307.38
646.833	279.38
647.038	268.38
647.243	291.38
647.447	277.38
647.652	301.38
647.857	291.38
648.062	289.38
648.266	300.38
648.471	314.38
648.676	299.38
648.88	286.38
649.085	314.38
649.289	308.38
649.494	289.38
649.698	292.38
649.903	281.38
650.107	286.38
650.312	293.38
650.516	300.38
650.721	288.38
650.925	296.38
651.13	296.38
651.334	284.38
651.539	275.38
651.743	277.38
651.947	263.38
652.152	279.38
652.356	276.38
652.56	263.38
652.764	259.38
652.969	257.38
653.173	258.38
653.377	266.38
653.581	259.38
653.785	264.38
653.99	257.38
654.194	253.38
654.398	268.38
654.602	265.38
654.806	281.38
655.01	266.38
655.214	283.38
655.418	287.38
655.622	295.38
655.826	311.38
656.03	308.38
656.234	307.38
656.438	306.38
656.642	329.38
656.846	323.38
657.049	291.38
657.253	261.38
657.457	270.38
657.661	237.38
657.865	197.38
658.068	192.38
658.272	185.38
658.476	179.38
658.68	159.38
658.883	156.38
659.087	140.38
659.291	149.38
659.494	135.38
659.698	119.38
659.901	134.38
660.105	129.38
660.309	114.38
660.512	115.38
660.716	112.38
660.919	100.38
661.123	92.38
661.326	102.38
661.53	114.38
661.733	96.38
661.936	87.38
662.14	73.38
662.343	83.38
662.546	87.38
662.75	100.38
662.953	84.38
663.156	87.38
663.36	93.38
663.563	87.38
663.766	86.38
663.969	84.38
664.173	79.38
664.376	86.38
664.579	76.38
664.782	74.38
664.985	87.38
665.188	79.38
665.391	70.38
665.594	69.38
665.797	73.38
666	79.38
666.203	79.38
666.406	87.38
666.609	86.38
666.812	76.38
667.015	66.38
667.218	73.38
667.421	68.38
667.624	95.38
667.827	93.38
668.03	72.38
668.232	88.38
668.435	79.38
668.638	93.38
668.841	95.38
669.043	80.38
669.246	76.38
669.449	78.38
669.651	93.38
669.854	71.38
670.057	88.38
670.259	69.38
670.462	77.38
670.665	73.38
670.867	92.38
671.07	70.38
671.272	78.38
671.475	85.38
671.677	70.38
671.88	73.38
672.082	77.38
672.284	67.38
672.487	87.38
672.689	67.38
672.892	69.38
