Data from NiCl2@0.0625M.TitratingCurve.Agarose3%dH2O.NegLispCup.LampEnergy10.LIBS07252019_HRD10591_18-34-32-577.txt Node
Date: Thu Jul 25 18:34:32 EDT 2019
User: cochatt
Spectrometer: HR+D1059
Trigger mode: 1
Integration Time (sec): 1.000000E-1
Scans to average: 1
Electric dark correction enabled: true
Nonlinearity correction enabled: false
Boxcar width: 0
XAxis mode: Wavelengths
Number of Pixels in Spectrum: 2048
>>>>>Begin Spectral Data<<<<<
223.165	-13.06
223.4	-13.06
223.635	-13.06
223.869	-17.06
224.104	-14.06
224.338	-3.06
224.573	-14.06
224.808	-24.06
225.042	-15.06
225.277	-9.06
225.511	-9.06
225.746	1.94
225.98	14.94
226.215	0.94
226.449	26.94
226.683	18.94
226.918	22.94
227.152	31.94
227.387	24.94
227.621	40.94
227.856	32.94
228.09	50.94
228.324	52.94
228.559	55.94
228.793	76.94
229.027	133.94
229.262	135.94
229.496	160.94
229.73	174.94
229.964	172.94
230.199	169.94
230.433	173.94
230.667	182.94
230.901	185.94
231.136	183.94
231.37	195.94
231.604	178.94
231.838	185.94
232.072	198.94
232.306	203.94
232.541	212.94
232.775	210.94
233.009	210.94
233.243	188.94
233.477	201.94
233.711	206.94
233.945	203.94
234.179	210.94
234.413	211.94
234.647	214.94
234.881	206.94
235.115	215.94
235.349	218.94
235.583	223.94
235.817	215.94
236.051	219.94
236.285	218.94
236.519	233.94
236.753	230.94
236.987	229.94
237.221	233.94
237.455	238.94
237.689	227.94
237.922	237.94
238.156	263.94
238.39	240.94
238.624	261.94
238.858	257.94
239.091	274.94
239.325	259.94
239.559	267.94
239.793	257.94
240.027	281.94
240.26	267.94
240.494	269.94
240.728	283.94
240.961	290.94
241.195	268.94
241.429	292.94
241.662	312.94
241.896	285.94
242.13	322.94
242.363	307.94
242.597	292.94
242.83	287.94
243.064	317.94
243.298	312.94
243.531	323.94
243.765	345.94
243.998	325.94
244.232	357.94
244.465	322.94
244.699	318.94
244.932	340.94
245.166	338.94
245.399	331.94
245.633	356.94
245.866	351.94
246.099	340.94
246.333	365.94
246.566	361.94
246.8	356.94
247.033	356.94
247.266	357.94
247.5	347.94
247.733	352.94
247.966	373.94
248.2	384.94
248.433	393.94
248.666	390.94
248.899	397.94
249.133	379.94
249.366	381.94
249.599	407.94
249.832	394.94
250.066	402.94
250.299	414.94
250.532	401.94
250.765	405.94
250.998	428.94
251.231	428.94
251.465	407.94
251.698	415.94
251.931	433.94
252.164	437.94
252.397	441.94
252.63	421.94
252.863	433.94
253.096	448.94
253.329	448.94
253.562	446.94
253.795	454.94
254.028	451.94
254.261	468.94
254.494	454.94
254.727	440.94
254.96	461.94
255.193	456.94
255.426	470.94
255.659	484.94
255.892	478.94
256.124	459.94
256.357	464.94
256.59	480.94
256.823	482.94
257.056	488.94
257.289	509.94
257.521	485.94
257.754	485.94
257.987	484.94
258.22	477.94
258.452	522.94
258.685	494.94
258.918	517.94
259.151	524.94
259.383	524.94
259.616	515.94
259.849	507.94
260.081	525.94
260.314	514.94
260.547	540.94
260.779	551.94
261.012	544.94
261.244	517.94
261.477	536.94
261.71	532.94
261.942	552.94
262.175	560.94
262.407	567.94
262.64	562.94
262.872	581.94
263.105	559.94
263.337	544.94
263.57	550.94
263.802	579.94
264.035	574.94
264.267	569.94
264.499	584.94
264.732	563.94
264.964	584.94
265.197	587.94
265.429	581.94
265.661	594.94
265.894	593.94
266.126	603.94
266.358	610.94
266.591	606.94
266.823	601.94
267.055	614.94
267.287	622.94
267.52	612.94
267.752	615.94
267.984	622.94
268.216	630.94
268.448	613.94
268.681	617.94
268.913	619.94
269.145	619.94
269.377	646.94
269.609	625.94
269.841	644.94
270.073	638.94
270.306	661.94
270.538	638.94
270.77	637.94
271.002	638.94
271.234	666.94
271.466	666.94
271.698	643.94
271.93	652.94
272.162	670.94
272.394	671.94
272.626	685.94
272.858	673.94
273.09	659.94
273.322	682.94
273.553	683.94
273.785	675.94
274.017	705.94
274.249	688.94
274.481	696.94
274.713	669.94
274.945	684.94
275.176	705.94
275.408	726.94
275.64	703.94
275.872	702.94
276.104	724.94
276.335	741.94
276.567	727.94
276.799	728.94
277.031	708.94
277.262	740.94
277.494	736.94
277.726	738.94
277.957	739.94
278.189	744.94
278.421	763.94
278.652	758.94
278.884	789.94
279.115	794.94
279.347	801.94
279.579	742.94
279.81	797.94
280.042	768.94
280.273	776.94
280.505	809.94
280.736	798.94
280.968	772.94
281.199	791.94
281.431	810.94
281.662	830.94
281.894	819.94
282.125	836.94
282.356	835.94
282.588	819.94
282.819	810.94
283.051	822.94
283.282	808.94
283.513	809.94
283.745	818.94
283.976	822.94
284.207	819.94
284.439	832.94
284.67	856.94
284.901	853.94
285.132	852.94
285.364	843.94
285.595	850.94
285.826	839.94
286.057	866.94
286.288	872.94
286.52	860.94
286.751	876.94
286.982	862.94
287.213	847.94
287.444	854.94
287.675	882.94
287.906	902.94
288.138	886.94
288.369	896.94
288.6	911.94
288.831	922.94
289.062	884.94
289.293	886.94
289.524	911.94
289.755	902.94
289.986	881.94
290.217	892.94
290.448	917.94
290.679	896.94
290.91	905.94
291.141	922.94
291.371	894.94
291.602	895.94
291.833	902.94
292.064	874.94
292.295	916.94
292.526	904.94
292.757	929.94
292.987	900.94
293.218	901.94
293.449	925.94
293.68	931.94
293.91	902.94
294.141	918.94
294.372	904.94
294.603	923.94
294.833	939.94
295.064	918.94
295.295	922.94
295.525	918.94
295.756	922.94
295.987	935.94
296.217	952.94
296.448	949.94
296.679	943.94
296.909	955.94
297.14	954.94
297.37	961.94
297.601	966.94
297.831	967.94
298.062	967.94
298.292	974.94
298.523	988.94
298.753	1009.94
298.984	969.94
299.214	1008.94
299.445	1000.94
299.675	980.94
299.905	995.94
300.136	1012.94
300.366	1008.94
300.597	984.94
300.827	1038.94
301.057	1004.94
301.288	1038.94
301.518	1011.94
301.748	1051.94
301.979	1042.94
302.209	1043.94
302.439	1050.94
302.669	1044.94
302.9	1026.94
303.13	1046.94
303.36	1030.94
303.59	1037.94
303.82	1045.94
304.051	1042.94
304.281	1084.94
304.511	1047.94
304.741	1046.94
304.971	1004.94
305.201	1029.94
305.431	1032.94
305.661	1010.94
305.891	1029.94
306.121	1028.94
306.352	1036.94
306.582	1014.94
306.812	1029.94
307.042	1043.94
307.272	1029.94
307.502	993.94
307.731	1016.94
307.961	1034.94
308.191	1033.94
308.421	1045.94
308.651	1055.94
308.881	984.94
309.111	1048.94
309.341	1013.94
309.571	1025.94
309.8	1044.94
310.03	1016.94
310.26	1039.94
310.49	1034.94
310.72	1030.94
310.949	1050.94
311.179	1049.94
311.409	1050.94
311.639	1049.94
311.868	1056.94
312.098	1080.94
312.328	1081.94
312.557	1092.94
312.787	1072.94
313.017	1084.94
313.246	1108.94
313.476	1097.94
313.706	1084.94
313.935	1075.94
314.165	1094.94
314.394	1138.94
314.624	1125.94
314.853	1108.94
315.083	1124.94
315.312	1144.94
315.542	1128.94
315.771	1072.94
316.001	1127.94
316.23	1110.94
316.46	1092.94
316.689	1118.94
316.919	1128.94
317.148	1097.94
317.377	1119.94
317.607	1085.94
317.836	1086.94
318.065	1087.94
318.295	1114.94
318.524	1101.94
318.753	1114.94
318.983	1134.94
319.212	1100.94
319.441	1113.94
319.67	1117.94
319.9	1101.94
320.129	1119.94
320.358	1083.94
320.587	1089.94
320.816	1080.94
321.046	1103.94
321.275	1119.94
321.504	1073.94
321.733	1101.94
321.962	1118.94
322.191	1104.94
322.42	1088.94
322.649	1145.94
322.878	1125.94
323.108	1126.94
323.337	1141.94
323.566	1114.94
323.795	1148.94
324.024	1164.94
324.253	1126.94
324.482	1123.94
324.71	1162.94
324.939	1171.94
325.168	1162.94
325.397	1147.94
325.626	1178.94
325.855	1185.94
326.084	1219.94
326.313	1208.94
326.542	1193.94
326.77	1233.94
326.999	1188.94
327.228	1174.94
327.457	1183.94
327.686	1186.94
327.914	1164.94
328.143	1173.94
328.372	1204.94
328.6	1214.94
328.829	1197.94
329.058	1233.94
329.287	1217.94
329.515	1213.94
329.744	1234.94
329.972	1224.94
330.201	1227.94
330.43	1231.94
330.658	1241.94
330.887	1230.94
331.115	1227.94
331.344	1265.94
331.572	1269.94
331.801	1309.94
332.03	1310.94
332.258	1321.94
332.486	1358.94
332.715	1400.94
332.943	1415.94
333.172	1479.94
333.4	1473.94
333.629	1498.94
333.857	1522.94
334.085	1544.94
334.314	1522.94
334.542	1524.94
334.771	1521.94
334.999	1463.94
335.227	1489.94
335.455	1449.94
335.684	1437.94
335.912	1467.94
336.14	1449.94
336.369	1432.94
336.597	1457.94
336.825	1428.94
337.053	1449.94
337.281	1410.94
337.51	1357.94
337.738	1368.94
337.966	1363.94
338.194	1361.94
338.422	1334.94
338.65	1300.94
338.878	1336.94
339.106	1363.94
339.334	1300.94
339.562	1293.94
339.79	1286.94
340.018	1274.94
340.246	1261.94
340.474	1251.94
340.702	1257.94
340.93	1273.94
341.158	1253.94
341.386	1251.94
341.614	1289.94
341.842	1287.94
342.07	1242.94
342.298	1223.94
342.526	1256.94
342.754	1239.94
342.981	1271.94
343.209	1313.94
343.437	1343.94
343.665	1427.94
343.893	1456.94
344.12	1478.94
344.348	1445.94
344.576	1444.94
344.804	1367.94
345.031	1313.94
345.259	1294.94
345.487	1295.94
345.714	1228.94
345.942	1261.94
346.17	1298.94
346.397	1249.94
346.625	1222.94
346.853	1212.94
347.08	1201.94
347.308	1202.94
347.535	1229.94
347.763	1245.94
347.99	1193.94
348.218	1221.94
348.445	1211.94
348.673	1195.94
348.9	1222.94
349.128	1226.94
349.355	1189.94
349.583	1208.94
349.81	1192.94
350.037	1190.94
350.265	1180.94
350.492	1191.94
350.72	1167.94
350.947	1156.94
351.174	1184.94
351.402	1190.94
351.629	1165.94
351.856	1147.94
352.083	1178.94
352.311	1198.94
352.538	1156.94
352.765	1180.94
352.992	1129.94
353.22	1140.94
353.447	1145.94
353.674	1176.94
353.901	1160.94
354.128	1163.94
354.355	1181.94
354.583	1167.94
354.81	1160.94
355.037	1163.94
355.264	1170.94
355.491	1149.94
355.718	1183.94
355.945	1191.94
356.172	1162.94
356.399	1179.94
356.626	1183.94
356.853	1181.94
357.08	1156.94
357.307	1166.94
357.534	1180.94
357.761	1174.94
357.988	1197.94
358.215	1186.94
358.441	1156.94
358.668	1147.94
358.895	1176.94
359.122	1167.94
359.349	1161.94
359.576	1148.94
359.802	1178.94
360.029	1174.94
360.256	1160.94
360.483	1183.94
360.709	1187.94
360.936	1164.94
361.163	1155.94
361.39	1146.94
361.616	1181.94
361.843	1204.94
362.07	1186.94
362.296	1196.94
362.523	1139.94
362.749	1187.94
362.976	1169.94
363.203	1188.94
363.429	1152.94
363.656	1170.94
363.882	1191.94
364.109	1193.94
364.335	1168.94
364.562	1175.94
364.788	1173.94
365.015	1162.94
365.241	1201.94
365.468	1183.94
365.694	1165.94
365.92	1151.94
366.147	1173.94
366.373	1152.94
366.599	1181.94
366.826	1170.94
367.052	1160.94
367.278	1206.94
367.505	1178.94
367.731	1188.94
367.957	1173.94
368.184	1184.94
368.41	1206.94
368.636	1198.94
368.862	1221.94
369.089	1227.94
369.315	1207.94
369.541	1211.94
369.767	1226.94
369.993	1200.94
370.219	1241.94
370.445	1258.94
370.672	1231.94
370.898	1261.94
371.124	1246.94
371.35	1260.94
371.576	1240.94
371.802	1269.94
372.028	1290.94
372.254	1272.94
372.48	1305.94
372.706	1324.94
372.932	1316.94
373.158	1348.94
373.384	1273.94
373.61	1305.94
373.835	1276.94
374.061	1303.94
374.287	1299.94
374.513	1302.94
374.739	1357.94
374.965	1398.94
375.191	1372.94
375.416	1400.94
375.642	1347.94
375.868	1338.94
376.094	1301.94
376.319	1284.94
376.545	1316.94
376.771	1266.94
376.997	1278.94
377.222	1269.94
377.448	1280.94
377.674	1284.94
377.899	1236.94
378.125	1269.94
378.35	1252.94
378.576	1238.94
378.802	1262.94
379.027	1249.94
379.253	1269.94
379.478	1220.94
379.704	1250.94
379.929	1238.94
380.155	1245.94
380.38	1277.94
380.606	1260.94
380.831	1252.94
381.057	1261.94
381.282	1290.94
381.507	1284.94
381.733	1298.94
381.958	1243.94
382.184	1328.94
382.409	1331.94
382.634	1318.94
382.86	1311.94
383.085	1324.94
383.31	1361.94
383.535	1382.94
383.761	1371.94
383.986	1397.94
384.211	1406.94
384.436	1411.94
384.662	1418.94
384.887	1453.94
385.112	1467.94
385.337	1481.94
385.562	1507.94
385.787	1496.94
386.013	1521.94
386.238	1526.94
386.463	1492.94
386.688	1513.94
386.913	1493.94
387.138	1489.94
387.363	1502.94
387.588	1498.94
387.813	1459.94
388.038	1505.94
388.263	1481.94
388.488	1494.94
388.713	1525.94
388.938	1510.94
389.163	1473.94
389.387	1489.94
389.612	1444.94
389.837	1501.94
390.062	1441.94
390.287	1479.94
390.512	1473.94
390.736	1526.94
390.961	1503.94
391.186	1506.94
391.411	1573.94
391.636	1616.94
391.86	1634.94
392.085	1648.94
392.31	1668.94
392.534	1639.94
392.759	1622.94
392.984	1634.94
393.208	1561.94
393.433	1629.94
393.658	1576.94
393.882	1602.94
394.107	1558.94
394.331	1575.94
394.556	1612.94
394.78	1607.94
395.005	1661.94
395.229	1624.94
395.454	1621.94
395.678	1658.94
395.903	1672.94
396.127	1657.94
396.352	1616.94
396.576	1605.94
396.801	1636.94
397.025	1638.94
397.249	1659.94
397.474	1746.94
397.698	1700.94
397.922	1709.94
398.147	1720.94
398.371	1740.94
398.595	1809.94
398.82	1888.94
399.044	1984.94
399.268	2140.94
399.492	2363.94
399.717	2544.94
399.941	2580.94
400.165	2398.94
400.389	2215.94
400.613	2120.94
400.837	2000.94
401.062	1943.94
401.286	1867.94
401.51	1888.94
401.734	1881.94
401.958	1893.94
402.182	1866.94
402.406	1920.94
402.63	1930.94
402.854	1925.94
403.078	1889.94
403.302	2003.94
403.526	1976.94
403.75	2008.94
403.974	2038.94
404.198	2007.94
404.422	2034.94
404.645	2057.94
404.869	2007.94
405.093	2015.94
405.317	2016.94
405.541	2002.94
405.765	2005.94
405.988	1975.94
406.212	2026.94
406.436	2037.94
406.66	2097.94
406.883	2082.94
407.107	2197.94
407.331	2301.94
407.555	2365.94
407.778	2352.94
408.002	2284.94
408.226	2248.94
408.449	2229.94
408.673	2147.94
408.896	2088.94
409.12	2082.94
409.344	2133.94
409.567	2089.94
409.791	2083.94
410.014	2090.94
410.238	2028.94
410.461	2060.94
410.685	2043.94
410.908	1962.94
411.132	1987.94
411.355	1911.94
411.578	1956.94
411.802	1970.94
412.025	1931.94
412.249	1964.94
412.472	1987.94
412.695	1921.94
412.919	1914.94
413.142	1916.94
413.365	1864.94
413.589	1870.94
413.812	1905.94
414.035	1894.94
414.258	1868.94
414.482	1864.94
414.705	1860.94
414.928	1902.94
415.151	1869.94
415.374	1870.94
415.597	1842.94
415.821	1808.94
416.044	1844.94
416.267	1773.94
416.49	1771.94
416.713	1771.94
416.936	1782.94
417.159	1765.94
417.382	1796.94
417.605	1779.94
417.828	1793.94
418.051	1788.94
418.274	1784.94
418.497	1796.94
418.72	1836.94
418.943	1810.94
419.166	1966.94
419.389	2071.94
419.611	1995.94
419.834	1964.94
420.057	1909.94
420.28	1832.94
420.503	1815.94
420.726	1810.94
420.948	1744.94
421.171	1786.94
421.394	1783.94
421.617	1797.94
421.839	1813.94
422.062	1835.94
422.285	1772.94
422.507	1856.94
422.73	1826.94
422.953	1841.94
423.175	1815.94
423.398	1829.94
423.621	1787.94
423.843	1849.94
424.066	1859.94
424.288	1867.94
424.511	1809.94
424.733	1845.94
424.956	1796.94
425.178	1797.94
425.401	1801.94
425.623	1825.94
425.846	1747.94
426.068	1736.94
426.291	1716.94
426.513	1734.94
426.735	1733.94
426.958	1710.94
427.18	1698.94
427.402	1684.94
427.625	1696.94
427.847	1632.94
428.069	1650.94
428.292	1642.94
428.514	1646.94
428.736	1661.94
428.958	1658.94
429.181	1603.94
429.403	1590.94
429.625	1584.94
429.847	1589.94
430.069	1562.94
430.292	1625.94
430.514	1622.94
430.736	1582.94
430.958	1659.94
431.18	1620.94
431.402	1640.94
431.624	1620.94
431.846	1658.94
432.068	1653.94
432.29	1675.94
432.512	1672.94
432.734	1664.94
432.956	1666.94
433.178	1688.94
433.4	1672.94
433.622	1674.94
433.844	1693.94
434.066	1718.94
434.287	1722.94
434.509	1758.94
434.731	1780.94
434.953	1804.94
435.175	1880.94
435.397	1851.94
435.618	1758.94
435.84	1682.94
436.062	1661.94
436.284	1674.94
436.505	1652.94
436.727	1634.94
436.949	1696.94
437.17	1650.94
437.392	1589.94
437.614	1602.94
437.835	1575.94
438.057	1573.94
438.278	1578.94
438.5	1569.94
438.721	1545.94
438.943	1541.94
439.165	1571.94
439.386	1566.94
439.608	1600.94
439.829	1584.94
440.05	1565.94
440.272	1634.94
440.493	1645.94
440.715	1613.94
440.936	1661.94
441.158	1673.94
441.379	1701.94
441.6	1775.94
441.822	1804.94
442.043	1803.94
442.264	1793.94
442.486	1703.94
442.707	1747.94
442.928	1753.94
443.149	1725.94
443.371	1743.94
443.592	1739.94
443.813	1720.94
444.034	1772.94
444.255	1816.94
444.476	1883.94
444.698	1948.94
444.919	1974.94
445.14	2082.94
445.361	1907.94
445.582	1781.94
445.803	1746.94
446.024	1723.94
446.245	1696.94
446.466	1680.94
446.687	1613.94
446.908	1650.94
447.129	1578.94
447.35	1539.94
447.571	1551.94
447.792	1525.94
448.013	1510.94
448.234	1489.94
448.455	1504.94
448.675	1468.94
448.896	1463.94
449.117	1473.94
449.338	1451.94
449.559	1467.94
449.779	1428.94
450	1437.94
450.221	1442.94
450.442	1474.94
450.662	1470.94
450.883	1448.94
451.104	1481.94
451.324	1436.94
451.545	1430.94
451.766	1462.94
451.986	1460.94
452.207	1442.94
452.428	1426.94
452.648	1417.94
452.869	1426.94
453.089	1401.94
453.31	1408.94
453.53	1393.94
453.751	1419.94
453.971	1393.94
454.192	1408.94
454.412	1380.94
454.633	1366.94
454.853	1352.94
455.073	1369.94
455.294	1390.94
455.514	1364.94
455.734	1334.94
455.955	1374.94
456.175	1365.94
456.395	1338.94
456.616	1362.94
456.836	1363.94
457.056	1389.94
457.276	1350.94
457.497	1365.94
457.717	1376.94
457.937	1404.94
458.157	1404.94
458.377	1440.94
458.598	1472.94
458.818	1497.94
459.038	1514.94
459.258	1570.94
459.478	1587.94
459.698	1651.94
459.918	1688.94
460.138	1686.94
460.358	1791.94
460.578	1800.94
460.798	1840.94
461.018	1840.94
461.238	1825.94
461.458	1806.94
461.678	1790.94
461.898	1877.94
462.118	1902.94
462.338	1957.94
462.558	1978.94
462.777	2055.94
462.997	2162.94
463.217	2296.94
463.437	2326.94
463.657	2221.94
463.876	2166.94
464.096	2133.94
464.316	2066.94
464.536	2074.94
464.755	2045.94
464.975	1956.94
465.195	1900.94
465.414	1829.94
465.634	1724.94
465.854	1688.94
466.073	1644.94
466.293	1606.94
466.512	1579.94
466.732	1548.94
466.951	1550.94
467.171	1561.94
467.391	1529.94
467.61	1548.94
467.829	1492.94
468.049	1509.94
468.268	1453.94
468.488	1484.94
468.707	1456.94
468.927	1505.94
469.146	1472.94
469.365	1475.94
469.585	1510.94
469.804	1515.94
470.023	1565.94
470.243	1547.94
470.462	1586.94
470.681	1545.94
470.901	1574.94
471.12	1558.94
471.339	1523.94
471.558	1533.94
471.777	1517.94
471.997	1482.94
472.216	1496.94
472.435	1482.94
472.654	1447.94
472.873	1444.94
473.092	1467.94
473.311	1461.94
473.53	1464.94
473.749	1477.94
473.968	1466.94
474.187	1453.94
474.406	1451.94
474.625	1449.94
474.844	1452.94
475.063	1474.94
475.282	1466.94
475.501	1513.94
475.72	1478.94
475.939	1483.94
476.158	1521.94
476.377	1528.94
476.596	1538.94
476.814	1580.94
477.033	1578.94
477.252	1613.94
477.471	1652.94
477.69	1652.94
477.908	1681.94
478.127	1719.94
478.346	1718.94
478.564	1762.94
478.783	1787.94
479.002	1812.94
479.22	1842.94
479.439	1853.94
479.658	1848.94
479.876	1842.94
480.095	1891.94
480.313	1889.94
480.532	1974.94
480.751	1966.94
480.969	1902.94
481.188	1913.94
481.406	1805.94
481.624	1858.94
481.843	1812.94
482.061	1796.94
482.28	1771.94
482.498	1796.94
482.717	1758.94
482.935	1770.94
483.153	1823.94
483.372	1796.94
483.59	1832.94
483.808	1873.94
484.027	1817.94
484.245	1878.94
484.463	1900.94
484.681	1942.94
484.9	1926.94
485.118	1968.94
485.336	1962.94
485.554	1958.94
485.772	1992.94
485.99	2002.94
486.209	2005.94
486.427	1973.94
486.645	2015.94
486.863	1980.94
487.081	1965.94
487.299	1936.94
487.517	1923.94
487.735	1954.94
487.953	1912.94
488.171	1937.94
488.389	1855.94
488.607	1876.94
488.825	1907.94
489.043	1878.94
489.261	1860.94
489.479	1893.94
489.696	1861.94
489.914	1878.94
490.132	1879.94
490.35	1841.94
490.568	1834.94
490.786	1848.94
491.003	1904.94
491.221	1872.94
491.439	1853.94
491.657	1827.94
491.874	1904.94
492.092	1868.94
492.31	1852.94
492.527	1866.94
492.745	1836.94
492.963	1870.94
493.18	1834.94
493.398	1876.94
493.615	1875.94
493.833	1912.94
494.05	1866.94
494.268	1893.94
494.485	1904.94
494.703	1878.94
494.92	1916.94
495.138	1904.94
495.355	1874.94
495.573	1896.94
495.79	1912.94
496.008	1934.94
496.225	1939.94
496.442	1943.94
496.66	2012.94
496.877	1967.94
497.094	2037.94
497.312	2068.94
497.529	2067.94
497.746	2089.94
497.963	2193.94
498.181	2300.94
498.398	2393.94
498.615	2477.94
498.832	2578.94
499.049	2781.94
499.267	2967.94
499.484	3214.94
499.701	3421.94
499.918	3682.94
500.135	4122.94
500.352	4489.94
500.569	4630.94
500.786	4647.94
501.003	4434.94
501.22	4034.94
501.437	3692.94
501.654	3369.94
501.871	3090.94
502.088	2897.94
502.305	2772.94
502.522	2599.94
502.739	2534.94
502.956	2394.94
503.172	2262.94
503.389	2220.94
503.606	2183.94
503.823	2091.94
504.04	2064.94
504.256	2103.94
504.473	2122.94
504.69	2166.94
504.907	2066.94
505.123	1984.94
505.34	1909.94
505.557	1828.94
505.773	1784.94
505.99	1755.94
506.207	1724.94
506.423	1684.94
506.64	1702.94
506.856	1694.94
507.073	1628.94
507.289	1608.94
507.506	1640.94
507.722	1592.94
507.939	1598.94
508.155	1564.94
508.372	1573.94
508.588	1558.94
508.805	1534.94
509.021	1510.94
509.238	1517.94
509.454	1482.94
509.67	1470.94
509.887	1479.94
510.103	1480.94
510.319	1475.94
510.536	1482.94
510.752	1459.94
510.968	1466.94
511.184	1478.94
511.401	1497.94
511.617	1485.94
511.833	1465.94
512.049	1485.94
512.265	1470.94
512.481	1480.94
512.698	1432.94
512.914	1473.94
513.13	1467.94
513.346	1485.94
513.562	1496.94
513.778	1453.94
513.994	1461.94
514.21	1524.94
514.426	1491.94
514.642	1456.94
514.858	1525.94
515.074	1498.94
515.29	1527.94
515.506	1533.94
515.721	1567.94
515.937	1573.94
516.153	1617.94
516.369	1633.94
516.585	1672.94
516.801	1684.94
517.016	1768.94
517.232	1795.94
517.448	1866.94
517.664	1909.94
517.879	1952.94
518.095	1910.94
518.311	1862.94
518.527	1844.94
518.742	1753.94
518.958	1702.94
519.173	1680.94
519.389	1649.94
519.605	1611.94
519.82	1572.94
520.036	1495.94
520.251	1475.94
520.467	1499.94
520.682	1462.94
520.898	1445.94
521.113	1450.94
521.329	1419.94
521.544	1392.94
521.76	1400.94
521.975	1389.94
522.19	1394.94
522.406	1386.94
522.621	1384.94
522.836	1357.94
523.052	1352.94
523.267	1377.94
523.482	1340.94
523.698	1334.94
523.913	1347.94
524.128	1328.94
524.343	1301.94
524.559	1323.94
524.774	1333.94
524.989	1311.94
525.204	1310.94
525.419	1306.94
525.634	1300.94
525.849	1310.94
526.064	1297.94
526.28	1284.94
526.495	1298.94
526.71	1289.94
526.925	1264.94
527.14	1299.94
527.355	1261.94
527.57	1267.94
527.785	1276.94
527.999	1306.94
528.214	1321.94
528.429	1293.94
528.644	1298.94
528.859	1284.94
529.074	1242.94
529.289	1299.94
529.503	1273.94
529.718	1306.94
529.933	1283.94
530.148	1292.94
530.363	1293.94
530.577	1262.94
530.792	1277.94
531.007	1243.94
531.221	1291.94
531.436	1293.94
531.651	1275.94
531.865	1278.94
532.08	1260.94
532.295	1312.94
532.509	1288.94
532.724	1259.94
532.938	1285.94
533.153	1245.94
533.367	1272.94
533.582	1256.94
533.796	1276.94
534.011	1238.94
534.225	1276.94
534.44	1245.94
534.654	1264.94
534.868	1250.94
535.083	1246.94
535.297	1253.94
535.511	1237.94
535.726	1240.94
535.94	1213.94
536.154	1221.94
536.369	1217.94
536.583	1203.94
536.797	1160.94
537.011	1200.94
537.225	1185.94
537.44	1193.94
537.654	1188.94
537.868	1125.94
538.082	1148.94
538.296	1146.94
538.51	1143.94
538.724	1197.94
538.938	1156.94
539.153	1181.94
539.367	1177.94
539.581	1158.94
539.795	1112.94
540.009	1156.94
540.222	1153.94
540.436	1134.94
540.65	1113.94
540.864	1097.94
541.078	1137.94
541.292	1136.94
541.506	1149.94
541.72	1143.94
541.934	1128.94
542.147	1144.94
542.361	1137.94
542.575	1128.94
542.789	1120.94
543.002	1076.94
543.216	1105.94
543.43	1085.94
543.644	1091.94
543.857	1096.94
544.071	1104.94
544.285	1154.94
544.498	1136.94
544.712	1128.94
544.925	1123.94
545.139	1131.94
545.352	1128.94
545.566	1162.94
545.779	1145.94
545.993	1146.94
546.206	1136.94
546.42	1117.94
546.633	1151.94
546.847	1158.94
547.06	1143.94
547.274	1140.94
547.487	1115.94
547.7	1140.94
547.914	1124.94
548.127	1155.94
548.34	1152.94
548.554	1142.94
548.767	1132.94
548.98	1156.94
549.193	1138.94
549.407	1134.94
549.62	1188.94
549.833	1150.94
550.046	1170.94
550.259	1154.94
550.473	1108.94
550.686	1154.94
550.899	1110.94
551.112	1091.94
551.325	1111.94
551.538	1122.94
551.751	1112.94
551.964	1115.94
552.177	1148.94
552.39	1138.94
552.603	1147.94
552.816	1188.94
553.029	1195.94
553.242	1217.94
553.455	1228.94
553.667	1215.94
553.88	1208.94
554.093	1176.94
554.306	1156.94
554.519	1150.94
554.732	1123.94
554.944	1083.94
555.157	1105.94
555.37	1083.94
555.583	1067.94
555.795	1045.94
556.008	1013.94
556.221	1004.94
556.433	1024.94
556.646	1024.94
556.859	1007.94
557.071	1002.94
557.284	997.94
557.496	999.94
557.709	973.94
557.921	965.94
558.134	978.94
558.346	967.94
558.559	971.94
558.771	950.94
558.984	964.94
559.196	944.94
559.409	976.94
559.621	955.94
559.833	941.94
560.046	921.94
560.258	947.94
560.47	935.94
560.683	938.94
560.895	944.94
561.107	925.94
561.32	918.94
561.532	927.94
561.744	926.94
561.956	956.94
562.168	947.94
562.381	937.94
562.593	930.94
562.805	936.94
563.017	945.94
563.229	941.94
563.441	976.94
563.653	959.94
563.865	977.94
564.077	966.94
564.289	975.94
564.501	1034.94
564.713	1028.94
564.925	1038.94
565.137	1026.94
565.349	1077.94
565.561	1072.94
565.773	1142.94
565.985	1155.94
566.197	1221.94
566.408	1314.94
566.62	1365.94
566.832	1427.94
567.044	1450.94
567.255	1469.94
567.467	1478.94
567.679	1590.94
567.891	1667.94
568.102	1589.94
568.314	1561.94
568.526	1480.94
568.737	1362.94
568.949	1231.94
569.161	1182.94
569.372	1129.94
569.584	1056.94
569.795	1046.94
570.007	1035.94
570.218	977.94
570.43	982.94
570.641	973.94
570.853	944.94
571.064	938.94
571.276	951.94
571.487	908.94
571.698	909.94
571.91	891.94
572.121	871.94
572.333	853.94
572.544	802.94
572.755	831.94
572.966	797.94
573.178	812.94
573.389	787.94
573.6	788.94
573.811	771.94
574.023	771.94
574.234	754.94
574.445	763.94
574.656	774.94
574.867	737.94
575.078	768.94
575.289	754.94
575.501	755.94
575.712	749.94
575.923	731.94
576.134	709.94
576.345	734.94
576.556	724.94
576.767	707.94
576.978	713.94
577.188	718.94
577.399	715.94
577.61	739.94
577.821	704.94
578.032	728.94
578.243	693.94
578.454	694.94
578.665	686.94
578.875	676.94
579.086	662.94
579.297	692.94
579.508	673.94
579.718	671.94
579.929	665.94
580.14	679.94
580.35	652.94
580.561	637.94
580.772	637.94
580.982	678.94
581.193	665.94
581.403	649.94
581.614	662.94
581.825	669.94
582.035	669.94
582.246	654.94
582.456	636.94
582.667	650.94
582.877	648.94
583.087	637.94
583.298	658.94
583.508	637.94
583.719	620.94
583.929	618.94
584.139	641.94
584.35	612.94
584.56	596.94
584.77	618.94
584.981	636.94
585.191	612.94
585.401	628.94
585.611	598.94
585.821	617.94
586.032	619.94
586.242	613.94
586.452	617.94
586.662	628.94
586.872	622.94
587.082	621.94
587.292	615.94
587.502	609.94
587.713	627.94
587.923	616.94
588.133	600.94
588.343	615.94
588.553	615.94
588.762	627.94
588.972	603.94
589.182	612.94
589.392	625.94
589.602	600.94
589.812	611.94
590.022	620.94
590.232	616.94
590.441	622.94
590.651	630.94
590.861	611.94
591.071	640.94
591.281	626.94
591.49	636.94
591.7	648.94
591.91	640.94
592.119	652.94
592.329	647.94
592.539	652.94
592.748	678.94
592.958	710.94
593.167	712.94
593.377	744.94
593.587	730.94
593.796	717.94
594.006	727.94
594.215	730.94
594.424	754.94
594.634	706.94
594.843	694.94
595.053	682.94
595.262	656.94
595.472	646.94
595.681	606.94
595.89	617.94
596.1	595.94
596.309	589.94
596.518	597.94
596.727	577.94
596.937	586.94
597.146	560.94
597.355	539.94
597.564	552.94
597.774	524.94
597.983	536.94
598.192	517.94
598.401	520.94
598.61	543.94
598.819	541.94
599.028	542.94
599.237	527.94
599.446	522.94
599.655	508.94
599.864	496.94
600.073	497.94
600.282	491.94
600.491	490.94
600.7	497.94
600.909	500.94
601.118	521.94
601.327	494.94
601.536	482.94
601.745	509.94
601.953	500.94
602.162	497.94
602.371	489.94
602.58	497.94
602.789	480.94
602.997	492.94
603.206	488.94
603.415	469.94
603.623	494.94
603.832	478.94
604.041	486.94
604.249	475.94
604.458	466.94
604.666	473.94
604.875	460.94
605.084	464.94
605.292	461.94
605.501	458.94
605.709	454.94
605.918	457.94
606.126	453.94
606.334	449.94
606.543	446.94
606.751	459.94
606.96	460.94
607.168	445.94
607.376	450.94
607.585	447.94
607.793	423.94
608.001	444.94
608.21	443.94
608.418	467.94
608.626	452.94
608.834	456.94
609.043	431.94
609.251	425.94
609.459	429.94
609.667	437.94
609.875	440.94
610.083	440.94
610.291	439.94
610.499	450.94
610.707	444.94
610.916	434.94
611.124	437.94
611.332	409.94
611.54	429.94
611.748	429.94
611.955	426.94
612.163	423.94
612.371	416.94
612.579	427.94
612.787	419.94
612.995	433.94
613.203	432.94
613.411	425.94
613.618	418.94
613.826	400.94
614.034	410.94
614.242	436.94
614.449	424.94
614.657	444.94
614.865	437.94
615.072	427.94
615.28	428.94
615.488	416.94
615.695	428.94
615.903	410.94
616.111	425.94
616.318	441.94
616.526	421.94
616.733	428.94
616.941	408.94
617.148	432.94
617.356	409.94
617.563	424.94
617.771	436.94
617.978	416.94
618.185	411.94
618.393	410.94
618.6	395.94
618.807	425.94
619.015	410.94
619.222	416.94
619.429	408.94
619.637	420.94
619.844	386.94
620.051	404.94
620.258	394.94
620.466	389.94
620.673	365.94
620.88	374.94
621.087	378.94
621.294	389.94
621.501	382.94
621.708	385.94
621.915	396.94
622.122	393.94
622.329	373.94
622.536	394.94
622.743	401.94
622.95	395.94
623.157	376.94
623.364	388.94
623.571	383.94
623.778	390.94
623.985	380.94
624.192	391.94
624.399	355.94
624.606	371.94
624.812	377.94
625.019	362.94
625.226	367.94
625.433	376.94
625.639	341.94
625.846	364.94
626.053	361.94
626.259	365.94
626.466	350.94
626.673	337.94
626.879	358.94
627.086	363.94
627.293	358.94
627.499	350.94
627.706	363.94
627.912	353.94
628.119	329.94
628.325	342.94
628.532	350.94
628.738	325.94
628.945	328.94
629.151	348.94
629.357	344.94
629.564	341.94
629.77	336.94
629.976	332.94
630.183	361.94
630.389	336.94
630.595	325.94
630.802	320.94
631.008	332.94
631.214	325.94
631.42	323.94
631.627	329.94
631.833	317.94
632.039	321.94
632.245	302.94
632.451	318.94
632.657	336.94
632.863	322.94
633.069	309.94
633.275	302.94
633.481	308.94
633.688	305.94
633.893	312.94
634.099	337.94
634.305	317.94
634.511	284.94
634.717	308.94
634.923	313.94
635.129	316.94
635.335	309.94
635.541	294.94
635.747	295.94
635.952	302.94
636.158	319.94
636.364	316.94
636.57	317.94
636.775	313.94
636.981	311.94
637.187	293.94
637.392	290.94
637.598	300.94
637.804	301.94
638.009	298.94
638.215	304.94
638.421	284.94
638.626	299.94
638.832	291.94
639.037	293.94
639.243	298.94
639.448	281.94
639.654	306.94
639.859	293.94
640.065	292.94
640.27	293.94
640.475	301.94
640.681	283.94
640.886	278.94
641.091	297.94
641.297	291.94
641.502	297.94
641.707	284.94
641.913	280.94
642.118	281.94
642.323	283.94
642.528	272.94
642.733	285.94
642.939	286.94
643.144	277.94
643.349	282.94
643.554	272.94
643.759	290.94
643.964	279.94
644.169	281.94
644.374	270.94
644.579	284.94
644.784	279.94
644.989	297.94
645.194	266.94
645.399	276.94
645.604	265.94
645.809	280.94
646.014	291.94
646.219	302.94
646.423	278.94
646.628	306.94
646.833	281.94
647.038	296.94
647.243	293.94
647.447	291.94
647.652	295.94
647.857	282.94
648.062	305.94
648.266	293.94
648.471	313.94
648.676	316.94
648.88	319.94
649.085	315.94
649.289	292.94
649.494	304.94
649.698	291.94
649.903	305.94
650.107	296.94
650.312	309.94
650.516	304.94
650.721	301.94
650.925	289.94
651.13	280.94
651.334	295.94
651.539	274.94
651.743	270.94
651.947	288.94
652.152	296.94
652.356	295.94
652.56	279.94
652.764	270.94
652.969	264.94
653.173	279.94
653.377	260.94
653.581	281.94
653.785	262.94
653.99	270.94
654.194	294.94
654.398	278.94
654.602	289.94
654.806	304.94
655.01	312.94
655.214	311.94
655.418	304.94
655.622	320.94
655.826	334.94
656.03	344.94
656.234	388.94
656.438	398.94
656.642	421.94
656.846	397.94
657.049	355.94
657.253	301.94
657.457	294.94
657.661	244.94
657.865	240.94
658.068	202.94
658.272	220.94
658.476	171.94
658.68	176.94
658.883	160.94
659.087	168.94
659.291	139.94
659.494	149.94
659.698	137.94
659.901	122.94
660.105	115.94
660.309	120.94
660.512	122.94
660.716	125.94
660.919	117.94
661.123	101.94
661.326	99.94
661.53	122.94
661.733	120.94
661.936	104.94
662.14	100.94
662.343	86.94
662.546	84.94
662.75	90.94
662.953	89.94
663.156	98.94
663.36	99.94
663.563	109.94
663.766	98.94
663.969	91.94
664.173	74.94
664.376	83.94
664.579	90.94
664.782	80.94
664.985	77.94
665.188	75.94
665.391	92.94
665.594	90.94
665.797	80.94
666	75.94
666.203	80.94
666.406	95.94
666.609	78.94
666.812	99.94
667.015	76.94
667.218	74.94
667.421	79.94
667.624	87.94
667.827	89.94
668.03	93.94
668.232	78.94
668.435	79.94
668.638	83.94
668.841	85.94
669.043	75.94
669.246	88.94
669.449	74.94
669.651	78.94
669.854	78.94
670.057	101.94
670.259	91.94
670.462	82.94
670.665	87.94
670.867	78.94
671.07	70.94
671.272	75.94
671.475	86.94
671.677	90.94
671.88	77.94
672.082	91.94
672.284	79.94
672.487	60.94
672.689	88.94
672.892	76.94
