Data from NiCl2@0.125M.TitratingCurve.Agarose3%dH2O.NegLispCup.LampEnergy10.LIBS07252019_HRD10591_18-30-18-575.txt Node
Date: Thu Jul 25 18:30:18 EDT 2019
User: cochatt
Spectrometer: HR+D1059
Trigger mode: 1
Integration Time (sec): 1.000000E-1
Scans to average: 1
Electric dark correction enabled: true
Nonlinearity correction enabled: false
Boxcar width: 0
XAxis mode: Wavelengths
Number of Pixels in Spectrum: 2048
>>>>>Begin Spectral Data<<<<<
223.165	-22.94
223.4	-22.94
223.635	-22.94
223.869	-20.94
224.104	-24.94
224.338	-5.94
224.573	-19.94
224.808	-10.94
225.042	1.06
225.277	-0.94
225.511	5.06
225.746	3.06
225.98	3.06
226.215	2.06
226.449	12.06
226.683	28.06
226.918	26.06
227.152	26.06
227.387	39.06
227.621	34.06
227.856	44.06
228.09	48.06
228.324	45.06
228.559	62.06
228.793	71.06
229.027	105.06
229.262	99.06
229.496	114.06
229.73	125.06
229.964	107.06
230.199	120.06
230.433	141.06
230.667	142.06
230.901	148.06
231.136	135.06
231.37	131.06
231.604	132.06
231.838	156.06
232.072	146.06
232.306	137.06
232.541	143.06
232.775	150.06
233.009	143.06
233.243	151.06
233.477	141.06
233.711	159.06
233.945	157.06
234.179	140.06
234.413	147.06
234.647	169.06
234.881	154.06
235.115	135.06
235.349	163.06
235.583	149.06
235.817	152.06
236.051	165.06
236.285	151.06
236.519	154.06
236.753	146.06
236.987	142.06
237.221	155.06
237.455	167.06
237.689	169.06
237.922	161.06
238.156	171.06
238.39	165.06
238.624	154.06
238.858	178.06
239.091	173.06
239.325	187.06
239.559	191.06
239.793	186.06
240.027	174.06
240.26	173.06
240.494	174.06
240.728	173.06
240.961	174.06
241.195	203.06
241.429	193.06
241.662	182.06
241.896	197.06
242.13	199.06
242.363	188.06
242.597	181.06
242.83	188.06
243.064	189.06
243.298	198.06
243.531	191.06
243.765	209.06
243.998	205.06
244.232	207.06
244.465	212.06
244.699	204.06
244.932	204.06
245.166	221.06
245.399	209.06
245.633	218.06
245.866	209.06
246.099	221.06
246.333	211.06
246.566	231.06
246.8	221.06
247.033	230.06
247.266	232.06
247.5	222.06
247.733	247.06
247.966	247.06
248.2	236.06
248.433	233.06
248.666	235.06
248.899	227.06
249.133	254.06
249.366	247.06
249.599	249.06
249.832	242.06
250.066	248.06
250.299	246.06
250.532	249.06
250.765	250.06
250.998	253.06
251.231	248.06
251.465	270.06
251.698	253.06
251.931	259.06
252.164	275.06
252.397	277.06
252.63	269.06
252.863	284.06
253.096	282.06
253.329	282.06
253.562	263.06
253.795	265.06
254.028	282.06
254.261	270.06
254.494	276.06
254.727	264.06
254.96	273.06
255.193	280.06
255.426	284.06
255.659	277.06
255.892	289.06
256.124	286.06
256.357	294.06
256.59	284.06
256.823	297.06
257.056	277.06
257.289	301.06
257.521	294.06
257.754	294.06
257.987	296.06
258.22	307.06
258.452	305.06
258.685	312.06
258.918	283.06
259.151	297.06
259.383	295.06
259.616	307.06
259.849	309.06
260.081	302.06
260.314	311.06
260.547	321.06
260.779	329.06
261.012	301.06
261.244	323.06
261.477	323.06
261.71	330.06
261.942	330.06
262.175	298.06
262.407	316.06
262.64	320.06
262.872	324.06
263.105	325.06
263.337	328.06
263.57	311.06
263.802	339.06
264.035	345.06
264.267	351.06
264.499	318.06
264.732	346.06
264.964	354.06
265.197	345.06
265.429	360.06
265.661	350.06
265.894	353.06
266.126	348.06
266.358	357.06
266.591	365.06
266.823	367.06
267.055	348.06
267.287	347.06
267.52	353.06
267.752	378.06
267.984	344.06
268.216	351.06
268.448	371.06
268.681	356.06
268.913	351.06
269.145	371.06
269.377	371.06
269.609	364.06
269.841	358.06
270.073	366.06
270.306	373.06
270.538	378.06
270.77	366.06
271.002	351.06
271.234	359.06
271.466	377.06
271.698	377.06
271.93	366.06
272.162	391.06
272.394	378.06
272.626	381.06
272.858	377.06
273.09	381.06
273.322	410.06
273.553	377.06
273.785	377.06
274.017	420.06
274.249	394.06
274.481	401.06
274.713	398.06
274.945	412.06
275.176	405.06
275.408	397.06
275.64	409.06
275.872	411.06
276.104	412.06
276.335	413.06
276.567	411.06
276.799	414.06
277.031	412.06
277.262	415.06
277.494	406.06
277.726	419.06
277.957	421.06
278.189	431.06
278.421	428.06
278.652	433.06
278.884	439.06
279.115	418.06
279.347	418.06
279.579	439.06
279.81	421.06
280.042	448.06
280.273	420.06
280.505	409.06
280.736	456.06
280.968	453.06
281.199	449.06
281.431	434.06
281.662	467.06
281.894	442.06
282.125	438.06
282.356	446.06
282.588	458.06
282.819	443.06
283.051	441.06
283.282	468.06
283.513	479.06
283.745	486.06
283.976	459.06
284.207	454.06
284.439	482.06
284.67	478.06
284.901	476.06
285.132	484.06
285.364	483.06
285.595	448.06
285.826	467.06
286.057	491.06
286.288	481.06
286.52	517.06
286.751	492.06
286.982	508.06
287.213	486.06
287.444	497.06
287.675	485.06
287.906	499.06
288.138	489.06
288.369	496.06
288.6	525.06
288.831	503.06
289.062	499.06
289.293	516.06
289.524	512.06
289.755	527.06
289.986	531.06
290.217	517.06
290.448	509.06
290.679	493.06
290.91	519.06
291.141	497.06
291.371	529.06
291.602	517.06
291.833	501.06
292.064	513.06
292.295	529.06
292.526	501.06
292.757	486.06
292.987	506.06
293.218	498.06
293.449	530.06
293.68	523.06
293.91	520.06
294.141	520.06
294.372	537.06
294.603	527.06
294.833	520.06
295.064	507.06
295.295	508.06
295.525	521.06
295.756	504.06
295.987	533.06
296.217	541.06
296.448	505.06
296.679	524.06
296.909	531.06
297.14	561.06
297.37	553.06
297.601	541.06
297.831	546.06
298.062	565.06
298.292	549.06
298.523	605.06
298.753	582.06
298.984	563.06
299.214	579.06
299.445	545.06
299.675	548.06
299.905	565.06
300.136	544.06
300.366	573.06
300.597	567.06
300.827	588.06
301.057	586.06
301.288	606.06
301.518	589.06
301.748	594.06
301.979	611.06
302.209	600.06
302.439	597.06
302.669	572.06
302.9	563.06
303.13	558.06
303.36	567.06
303.59	590.06
303.82	588.06
304.051	568.06
304.281	574.06
304.511	568.06
304.741	561.06
304.971	568.06
305.201	561.06
305.431	573.06
305.661	567.06
305.891	566.06
306.121	570.06
306.352	573.06
306.582	578.06
306.812	573.06
307.042	592.06
307.272	569.06
307.502	556.06
307.731	555.06
307.961	551.06
308.191	548.06
308.421	566.06
308.651	566.06
308.881	562.06
309.111	550.06
309.341	555.06
309.571	569.06
309.8	563.06
310.03	550.06
310.26	547.06
310.49	575.06
310.72	572.06
310.949	553.06
311.179	576.06
311.409	574.06
311.639	579.06
311.868	575.06
312.098	595.06
312.328	601.06
312.557	599.06
312.787	570.06
313.017	580.06
313.246	603.06
313.476	605.06
313.706	585.06
313.935	631.06
314.165	618.06
314.394	601.06
314.624	629.06
314.853	617.06
315.083	612.06
315.312	586.06
315.542	599.06
315.771	604.06
316.001	575.06
316.23	609.06
316.46	590.06
316.689	590.06
316.919	574.06
317.148	573.06
317.377	588.06
317.607	582.06
317.836	590.06
318.065	590.06
318.295	562.06
318.524	611.06
318.753	590.06
318.983	578.06
319.212	581.06
319.441	582.06
319.67	601.06
319.9	587.06
320.129	583.06
320.358	588.06
320.587	591.06
320.816	618.06
321.046	606.06
321.275	601.06
321.504	595.06
321.733	579.06
321.962	597.06
322.191	603.06
322.42	587.06
322.649	597.06
322.878	582.06
323.108	600.06
323.337	602.06
323.566	587.06
323.795	602.06
324.024	613.06
324.253	601.06
324.482	598.06
324.71	618.06
324.939	602.06
325.168	615.06
325.397	620.06
325.626	614.06
325.855	612.06
326.084	643.06
326.313	658.06
326.542	671.06
326.77	689.06
326.999	650.06
327.228	643.06
327.457	654.06
327.686	636.06
327.914	640.06
328.143	663.06
328.372	649.06
328.6	639.06
328.829	621.06
329.058	634.06
329.287	633.06
329.515	672.06
329.744	665.06
329.972	651.06
330.201	657.06
330.43	657.06
330.658	651.06
330.887	643.06
331.115	668.06
331.344	674.06
331.572	670.06
331.801	692.06
332.03	728.06
332.258	725.06
332.486	743.06
332.715	764.06
332.943	815.06
333.172	863.06
333.4	875.06
333.629	902.06
333.857	901.06
334.085	869.06
334.314	876.06
334.542	826.06
334.771	828.06
334.999	831.06
335.227	805.06
335.455	806.06
335.684	804.06
335.912	784.06
336.14	775.06
336.369	784.06
336.597	794.06
336.825	797.06
337.053	803.06
337.281	772.06
337.51	750.06
337.738	732.06
337.966	743.06
338.194	671.06
338.422	700.06
338.65	699.06
338.878	694.06
339.106	699.06
339.334	706.06
339.562	701.06
339.79	682.06
340.018	680.06
340.246	661.06
340.474	642.06
340.702	665.06
340.93	683.06
341.158	696.06
341.386	703.06
341.614	683.06
341.842	678.06
342.07	668.06
342.298	672.06
342.526	659.06
342.754	665.06
342.981	657.06
343.209	680.06
343.437	717.06
343.665	768.06
343.893	802.06
344.12	851.06
344.348	813.06
344.576	766.06
344.804	709.06
345.031	717.06
345.259	683.06
345.487	670.06
345.714	697.06
345.942	684.06
346.17	667.06
346.397	680.06
346.625	643.06
346.853	650.06
347.08	664.06
347.308	670.06
347.535	707.06
347.763	712.06
347.99	687.06
348.218	665.06
348.445	670.06
348.673	661.06
348.9	665.06
349.128	647.06
349.355	665.06
349.583	631.06
349.81	626.06
350.037	607.06
350.265	639.06
350.492	621.06
350.72	639.06
350.947	625.06
351.174	632.06
351.402	620.06
351.629	619.06
351.856	623.06
352.083	627.06
352.311	645.06
352.538	625.06
352.765	642.06
352.992	636.06
353.22	627.06
353.447	626.06
353.674	628.06
353.901	634.06
354.128	615.06
354.355	629.06
354.583	626.06
354.81	630.06
355.037	635.06
355.264	650.06
355.491	633.06
355.718	647.06
355.945	640.06
356.172	642.06
356.399	608.06
356.626	643.06
356.853	648.06
357.08	630.06
357.307	638.06
357.534	627.06
357.761	619.06
357.988	635.06
358.215	614.06
358.441	641.06
358.668	639.06
358.895	640.06
359.122	643.06
359.349	640.06
359.576	633.06
359.802	627.06
360.029	638.06
360.256	630.06
360.483	626.06
360.709	627.06
360.936	625.06
361.163	639.06
361.39	628.06
361.616	641.06
361.843	613.06
362.07	645.06
362.296	643.06
362.523	636.06
362.749	631.06
362.976	633.06
363.203	641.06
363.429	640.06
363.656	638.06
363.882	632.06
364.109	625.06
364.335	628.06
364.562	603.06
364.788	622.06
365.015	629.06
365.241	633.06
365.468	647.06
365.694	623.06
365.92	610.06
366.147	614.06
366.373	660.06
366.599	623.06
366.826	639.06
367.052	618.06
367.278	612.06
367.505	625.06
367.731	643.06
367.957	633.06
368.184	630.06
368.41	642.06
368.636	646.06
368.862	647.06
369.089	654.06
369.315	643.06
369.541	647.06
369.767	664.06
369.993	638.06
370.219	655.06
370.445	668.06
370.672	680.06
370.898	675.06
371.124	677.06
371.35	692.06
371.576	691.06
371.802	697.06
372.028	673.06
372.254	685.06
372.48	690.06
372.706	679.06
372.932	701.06
373.158	695.06
373.384	713.06
373.61	680.06
373.835	664.06
374.061	669.06
374.287	701.06
374.513	699.06
374.739	741.06
374.965	731.06
375.191	775.06
375.416	777.06
375.642	758.06
375.868	710.06
376.094	710.06
376.319	725.06
376.545	717.06
376.771	687.06
376.997	709.06
377.222	716.06
377.448	690.06
377.674	683.06
377.899	669.06
378.125	673.06
378.35	683.06
378.576	684.06
378.802	656.06
379.027	662.06
379.253	667.06
379.478	673.06
379.704	681.06
379.929	690.06
380.155	697.06
380.38	663.06
380.606	691.06
380.831	667.06
381.057	684.06
381.282	690.06
381.507	671.06
381.733	682.06
381.958	685.06
382.184	702.06
382.409	714.06
382.634	695.06
382.86	728.06
383.085	742.06
383.31	719.06
383.535	755.06
383.761	748.06
383.986	761.06
384.211	795.06
384.436	814.06
384.662	811.06
384.887	839.06
385.112	827.06
385.337	843.06
385.562	836.06
385.787	830.06
386.013	807.06
386.238	802.06
386.463	815.06
386.688	852.06
386.913	818.06
387.138	834.06
387.363	830.06
387.588	813.06
387.813	807.06
388.038	806.06
388.263	801.06
388.488	827.06
388.713	793.06
388.938	839.06
389.163	804.06
389.387	817.06
389.612	810.06
389.837	813.06
390.062	795.06
390.287	802.06
390.512	809.06
390.736	802.06
390.961	812.06
391.186	846.06
391.411	878.06
391.636	897.06
391.86	915.06
392.085	933.06
392.31	928.06
392.534	906.06
392.759	883.06
392.984	855.06
393.208	867.06
393.433	859.06
393.658	869.06
393.882	872.06
394.107	899.06
394.331	896.06
394.556	878.06
394.78	885.06
395.005	888.06
395.229	881.06
395.454	915.06
395.678	945.06
395.903	923.06
396.127	921.06
396.352	901.06
396.576	871.06
396.801	869.06
397.025	866.06
397.249	908.06
397.474	908.06
397.698	911.06
397.922	931.06
398.147	897.06
398.371	930.06
398.595	980.06
398.82	989.06
399.044	1077.06
399.268	1205.06
399.492	1353.06
399.717	1619.06
399.941	1611.06
400.165	1409.06
400.389	1265.06
400.613	1155.06
400.837	1087.06
401.062	1058.06
401.286	1038.06
401.51	1018.06
401.734	1033.06
401.958	1045.06
402.182	1049.06
402.406	1045.06
402.63	1054.06
402.854	1114.06
403.078	1125.06
403.302	1156.06
403.526	1180.06
403.75	1202.06
403.974	1216.06
404.198	1230.06
404.422	1210.06
404.645	1240.06
404.869	1196.06
405.093	1185.06
405.317	1175.06
405.541	1158.06
405.765	1155.06
405.988	1125.06
406.212	1163.06
406.436	1158.06
406.66	1161.06
406.883	1219.06
407.107	1238.06
407.331	1295.06
407.555	1372.06
407.778	1365.06
408.002	1345.06
408.226	1297.06
408.449	1239.06
408.673	1205.06
408.896	1182.06
409.12	1159.06
409.344	1233.06
409.567	1204.06
409.791	1234.06
410.014	1211.06
410.238	1197.06
410.461	1180.06
410.685	1185.06
410.908	1126.06
411.132	1117.06
411.355	1067.06
411.578	1083.06
411.802	1093.06
412.025	1059.06
412.249	1107.06
412.472	1088.06
412.695	1054.06
412.919	1054.06
413.142	1024.06
413.365	1037.06
413.589	1060.06
413.812	1043.06
414.035	1019.06
414.258	1011.06
414.482	1039.06
414.705	1084.06
414.928	1097.06
415.151	1050.06
415.374	1045.06
415.597	1035.06
415.821	1006.06
416.044	1050.06
416.267	1008.06
416.49	1009.06
416.713	1044.06
416.936	1008.06
417.159	1013.06
417.382	1000.06
417.605	1019.06
417.828	1009.06
418.051	1057.06
418.274	1044.06
418.497	988.06
418.72	1052.06
418.943	1052.06
419.166	1138.06
419.389	1223.06
419.611	1181.06
419.834	1123.06
420.057	1083.06
420.28	1066.06
420.503	1037.06
420.726	1027.06
420.948	1034.06
421.171	1030.06
421.394	1035.06
421.617	1015.06
421.839	1013.06
422.062	1058.06
422.285	1037.06
422.507	1062.06
422.73	1053.06
422.953	1044.06
423.175	1093.06
423.398	1101.06
423.621	1123.06
423.843	1105.06
424.066	1112.06
424.288	1098.06
424.511	1111.06
424.733	1082.06
424.956	1107.06
425.178	1047.06
425.401	1052.06
425.623	1052.06
425.846	994.06
426.068	973.06
426.291	985.06
426.513	989.06
426.735	939.06
426.958	946.06
427.18	947.06
427.402	957.06
427.625	978.06
427.847	931.06
428.069	909.06
428.292	915.06
428.514	914.06
428.736	921.06
428.958	948.06
429.181	913.06
429.403	901.06
429.625	901.06
429.847	892.06
430.069	890.06
430.292	893.06
430.514	897.06
430.736	892.06
430.958	885.06
431.18	880.06
431.402	900.06
431.624	917.06
431.846	940.06
432.068	927.06
432.29	931.06
432.512	903.06
432.734	933.06
432.956	937.06
433.178	928.06
433.4	942.06
433.622	909.06
433.844	970.06
434.066	972.06
434.287	941.06
434.509	966.06
434.731	999.06
434.953	1086.06
435.175	1054.06
435.397	1051.06
435.618	990.06
435.84	990.06
436.062	935.06
436.284	917.06
436.505	923.06
436.727	930.06
436.949	945.06
437.17	931.06
437.392	907.06
437.614	927.06
437.835	922.06
438.057	872.06
438.278	866.06
438.5	876.06
438.721	879.06
438.943	906.06
439.165	885.06
439.386	890.06
439.608	955.06
439.829	965.06
440.05	945.06
440.272	931.06
440.493	935.06
440.715	944.06
440.936	980.06
441.158	996.06
441.379	1001.06
441.6	1063.06
441.822	1059.06
442.043	1065.06
442.264	1084.06
442.486	1040.06
442.707	1045.06
442.928	1044.06
443.149	1051.06
443.371	1030.06
443.592	1061.06
443.813	1077.06
444.034	1096.06
444.255	1080.06
444.476	1164.06
444.698	1238.06
444.919	1260.06
445.14	1359.06
445.361	1202.06
445.582	1098.06
445.803	1031.06
446.024	998.06
446.245	962.06
446.466	965.06
446.687	939.06
446.908	913.06
447.129	951.06
447.35	903.06
447.571	912.06
447.792	884.06
448.013	844.06
448.234	894.06
448.455	880.06
448.675	850.06
448.896	860.06
449.117	839.06
449.338	853.06
449.559	862.06
449.779	854.06
450	858.06
450.221	845.06
450.442	864.06
450.662	883.06
450.883	899.06
451.104	929.06
451.324	902.06
451.545	921.06
451.766	885.06
451.986	871.06
452.207	861.06
452.428	849.06
452.648	882.06
452.869	865.06
453.089	850.06
453.31	855.06
453.53	864.06
453.751	847.06
453.971	820.06
454.192	819.06
454.412	814.06
454.633	841.06
454.853	787.06
455.073	804.06
455.294	815.06
455.514	822.06
455.734	805.06
455.955	803.06
456.175	798.06
456.395	791.06
456.616	801.06
456.836	792.06
457.056	807.06
457.276	762.06
457.497	815.06
457.717	798.06
457.937	805.06
458.157	811.06
458.377	834.06
458.598	831.06
458.818	846.06
459.038	874.06
459.258	907.06
459.478	952.06
459.698	983.06
459.918	1016.06
460.138	1049.06
460.358	1077.06
460.578	1107.06
460.798	1146.06
461.018	1115.06
461.238	1110.06
461.458	1079.06
461.678	1093.06
461.898	1125.06
462.118	1124.06
462.338	1178.06
462.558	1187.06
462.777	1259.06
462.997	1378.06
463.217	1494.06
463.437	1543.06
463.657	1422.06
463.876	1313.06
464.096	1321.06
464.316	1292.06
464.536	1318.06
464.755	1244.06
464.975	1221.06
465.195	1159.06
465.414	1105.06
465.634	1033.06
465.854	972.06
466.073	982.06
466.293	972.06
466.512	923.06
466.732	903.06
466.951	898.06
467.171	905.06
467.391	905.06
467.61	898.06
467.829	909.06
468.049	905.06
468.268	871.06
468.488	864.06
468.707	841.06
468.927	879.06
469.146	889.06
469.365	887.06
469.585	894.06
469.804	891.06
470.023	915.06
470.243	937.06
470.462	934.06
470.681	897.06
470.901	946.06
471.12	932.06
471.339	906.06
471.558	906.06
471.777	877.06
471.997	851.06
472.216	871.06
472.435	859.06
472.654	841.06
472.873	834.06
473.092	842.06
473.311	827.06
473.53	831.06
473.749	833.06
473.968	804.06
474.187	808.06
474.406	835.06
474.625	833.06
474.844	858.06
475.063	813.06
475.282	861.06
475.501	862.06
475.72	865.06
475.939	859.06
476.158	866.06
476.377	871.06
476.596	890.06
476.814	885.06
477.033	904.06
477.252	911.06
477.471	918.06
477.69	969.06
477.908	970.06
478.127	993.06
478.346	999.06
478.564	1009.06
478.783	1037.06
479.002	1046.06
479.22	1063.06
479.439	1058.06
479.658	1042.06
479.876	1048.06
480.095	1068.06
480.313	1094.06
480.532	1155.06
480.751	1157.06
480.969	1122.06
481.188	1070.06
481.406	1021.06
481.624	1004.06
481.843	1010.06
482.061	978.06
482.28	982.06
482.498	942.06
482.717	961.06
482.935	988.06
483.153	968.06
483.372	962.06
483.59	983.06
483.808	949.06
484.027	984.06
484.245	982.06
484.463	999.06
484.681	1031.06
484.9	991.06
485.118	1005.06
485.336	999.06
485.554	1012.06
485.772	1036.06
485.99	1073.06
486.209	1071.06
486.427	1057.06
486.645	1047.06
486.863	1060.06
487.081	1050.06
487.299	1040.06
487.517	1028.06
487.735	1025.06
487.953	1028.06
488.171	991.06
488.389	1029.06
488.607	972.06
488.825	1000.06
489.043	982.06
489.261	1006.06
489.479	1005.06
489.696	1018.06
489.914	1012.06
490.132	1024.06
490.35	1030.06
490.568	1018.06
490.786	1011.06
491.003	1018.06
491.221	1048.06
491.439	1033.06
491.657	1026.06
491.874	1003.06
492.092	1046.06
492.31	1015.06
492.527	1048.06
492.745	1041.06
492.963	1064.06
493.18	1030.06
493.398	1043.06
493.615	1062.06
493.833	1052.06
494.05	1038.06
494.268	1050.06
494.485	1044.06
494.703	1074.06
494.92	1079.06
495.138	1077.06
495.355	1082.06
495.573	1084.06
495.79	1087.06
496.008	1066.06
496.225	1070.06
496.442	1094.06
496.66	1122.06
496.877	1110.06
497.094	1124.06
497.312	1164.06
497.529	1130.06
497.746	1171.06
497.963	1241.06
498.181	1285.06
498.398	1347.06
498.615	1405.06
498.832	1493.06
499.049	1610.06
499.267	1719.06
499.484	1948.06
499.701	2118.06
499.918	2343.06
500.135	2745.06
500.352	3177.06
500.569	3303.06
500.786	3266.06
501.003	3067.06
501.22	2740.06
501.437	2404.06
501.654	2073.06
501.871	1848.06
502.088	1692.06
502.305	1603.06
502.522	1512.06
502.739	1484.06
502.956	1362.06
503.172	1321.06
503.389	1266.06
503.606	1195.06
503.823	1182.06
504.04	1205.06
504.256	1218.06
504.473	1270.06
504.69	1290.06
504.907	1277.06
505.123	1185.06
505.34	1060.06
505.557	1055.06
505.773	1049.06
505.99	1020.06
506.207	1022.06
506.423	975.06
506.64	955.06
506.856	979.06
507.073	958.06
507.289	942.06
507.506	956.06
507.722	918.06
507.939	931.06
508.155	935.06
508.372	872.06
508.588	909.06
508.805	883.06
509.021	903.06
509.238	879.06
509.454	902.06
509.67	865.06
509.887	867.06
510.103	853.06
510.319	872.06
510.536	877.06
510.752	858.06
510.968	859.06
511.184	860.06
511.401	863.06
511.617	860.06
511.833	861.06
512.049	859.06
512.265	855.06
512.481	863.06
512.698	861.06
512.914	854.06
513.13	855.06
513.346	858.06
513.562	842.06
513.778	829.06
513.994	868.06
514.21	839.06
514.426	883.06
514.642	872.06
514.858	872.06
515.074	886.06
515.29	909.06
515.506	906.06
515.721	925.06
515.937	905.06
516.153	934.06
516.369	946.06
516.585	989.06
516.801	1010.06
517.016	1047.06
517.232	1111.06
517.448	1158.06
517.664	1199.06
517.879	1218.06
518.095	1237.06
518.311	1182.06
518.527	1153.06
518.742	1133.06
518.958	1048.06
519.173	1016.06
519.389	987.06
519.605	935.06
519.82	953.06
520.036	923.06
520.251	867.06
520.467	897.06
520.682	860.06
520.898	851.06
521.113	851.06
521.329	855.06
521.544	870.06
521.76	844.06
521.975	827.06
522.19	841.06
522.406	806.06
522.621	794.06
522.836	793.06
523.052	833.06
523.267	818.06
523.482	798.06
523.698	809.06
523.913	789.06
524.128	827.06
524.343	806.06
524.559	811.06
524.774	781.06
524.989	789.06
525.204	778.06
525.419	781.06
525.634	817.06
525.849	787.06
526.064	806.06
526.28	795.06
526.495	770.06
526.71	780.06
526.925	791.06
527.14	791.06
527.355	779.06
527.57	789.06
527.785	775.06
527.999	778.06
528.214	769.06
528.429	801.06
528.644	788.06
528.859	781.06
529.074	794.06
529.289	753.06
529.503	772.06
529.718	794.06
529.933	801.06
530.148	795.06
530.363	805.06
530.577	772.06
530.792	773.06
531.007	779.06
531.221	787.06
531.436	795.06
531.651	820.06
531.865	785.06
532.08	767.06
532.295	808.06
532.509	802.06
532.724	784.06
532.938	782.06
533.153	762.06
533.367	777.06
533.582	774.06
533.796	783.06
534.011	787.06
534.225	801.06
534.44	790.06
534.654	773.06
534.868	740.06
535.083	754.06
535.297	778.06
535.511	770.06
535.726	754.06
535.94	763.06
536.154	757.06
536.369	737.06
536.583	722.06
536.797	735.06
537.011	711.06
537.225	749.06
537.44	740.06
537.654	726.06
537.868	717.06
538.082	696.06
538.296	722.06
538.51	717.06
538.724	713.06
538.938	727.06
539.153	692.06
539.367	705.06
539.581	722.06
539.795	715.06
540.009	702.06
540.222	708.06
540.436	711.06
540.65	686.06
540.864	720.06
541.078	709.06
541.292	702.06
541.506	720.06
541.72	681.06
541.934	699.06
542.147	666.06
542.361	695.06
542.575	675.06
542.789	692.06
543.002	676.06
543.216	698.06
543.43	711.06
543.644	653.06
543.857	672.06
544.071	695.06
544.285	693.06
544.498	706.06
544.712	686.06
544.925	683.06
545.139	702.06
545.352	702.06
545.566	715.06
545.779	716.06
545.993	717.06
546.206	684.06
546.42	685.06
546.633	709.06
546.847	703.06
547.06	699.06
547.274	694.06
547.487	716.06
547.7	704.06
547.914	699.06
548.127	698.06
548.34	722.06
548.554	738.06
548.767	696.06
548.98	713.06
549.193	699.06
549.407	707.06
549.62	741.06
549.833	760.06
550.046	725.06
550.259	710.06
550.473	707.06
550.686	691.06
550.899	699.06
551.112	702.06
551.325	708.06
551.538	677.06
551.751	686.06
551.964	725.06
552.177	715.06
552.39	717.06
552.603	738.06
552.816	744.06
553.029	739.06
553.242	773.06
553.455	785.06
553.667	790.06
553.88	786.06
554.093	749.06
554.306	757.06
554.519	729.06
554.732	696.06
554.944	701.06
555.157	675.06
555.37	686.06
555.583	682.06
555.795	664.06
556.008	651.06
556.221	641.06
556.433	621.06
556.646	630.06
556.859	637.06
557.071	638.06
557.284	641.06
557.496	620.06
557.709	605.06
557.921	609.06
558.134	609.06
558.346	606.06
558.559	603.06
558.771	599.06
558.984	627.06
559.196	607.06
559.409	611.06
559.621	599.06
559.833	595.06
560.046	589.06
560.258	579.06
560.47	589.06
560.683	607.06
560.895	594.06
561.107	566.06
561.32	573.06
561.532	575.06
561.744	586.06
561.956	570.06
562.168	595.06
562.381	593.06
562.593	610.06
562.805	612.06
563.017	577.06
563.229	605.06
563.441	600.06
563.653	601.06
563.865	603.06
564.077	617.06
564.289	604.06
564.501	617.06
564.713	638.06
564.925	637.06
565.137	647.06
565.349	676.06
565.561	655.06
565.773	690.06
565.985	711.06
566.197	774.06
566.408	803.06
566.62	876.06
566.832	969.06
567.044	976.06
567.255	990.06
567.467	989.06
567.679	1083.06
567.891	1165.06
568.102	1197.06
568.314	1147.06
568.526	1021.06
568.737	897.06
568.949	838.06
569.161	759.06
569.372	742.06
569.584	685.06
569.795	670.06
570.007	666.06
570.218	640.06
570.43	625.06
570.641	630.06
570.853	607.06
571.064	608.06
571.276	629.06
571.487	609.06
571.698	596.06
571.91	594.06
572.121	547.06
572.333	571.06
572.544	523.06
572.755	513.06
572.966	514.06
573.178	525.06
573.389	524.06
573.6	485.06
573.811	515.06
574.023	519.06
574.234	471.06
574.445	511.06
574.656	482.06
574.867	466.06
575.078	494.06
575.289	502.06
575.501	498.06
575.712	498.06
575.923	486.06
576.134	463.06
576.345	470.06
576.556	473.06
576.767	480.06
576.978	454.06
577.188	483.06
577.399	493.06
577.61	469.06
577.821	456.06
578.032	439.06
578.243	467.06
578.454	454.06
578.665	446.06
578.875	440.06
579.086	439.06
579.297	451.06
579.508	455.06
579.718	457.06
579.929	436.06
580.14	445.06
580.35	435.06
580.561	433.06
580.772	430.06
580.982	437.06
581.193	420.06
581.403	435.06
581.614	436.06
581.825	425.06
582.035	429.06
582.246	442.06
582.456	437.06
582.667	434.06
582.877	422.06
583.087	430.06
583.298	433.06
583.508	419.06
583.719	414.06
583.929	417.06
584.139	422.06
584.35	427.06
584.56	413.06
584.77	406.06
584.981	421.06
585.191	396.06
585.401	414.06
585.611	398.06
585.821	393.06
586.032	409.06
586.242	422.06
586.452	405.06
586.662	399.06
586.872	407.06
587.082	408.06
587.292	404.06
587.502	402.06
587.713	409.06
587.923	377.06
588.133	404.06
588.343	414.06
588.553	412.06
588.762	406.06
588.972	403.06
589.182	418.06
589.392	419.06
589.602	406.06
589.812	409.06
590.022	410.06
590.232	397.06
590.441	418.06
590.651	436.06
590.861	375.06
591.071	434.06
591.281	406.06
591.49	413.06
591.7	420.06
591.91	433.06
592.119	427.06
592.329	436.06
592.539	461.06
592.748	475.06
592.958	507.06
593.167	498.06
593.377	511.06
593.587	531.06
593.796	506.06
594.006	542.06
594.215	525.06
594.424	538.06
594.634	532.06
594.843	492.06
595.053	467.06
595.262	450.06
595.472	438.06
595.681	410.06
595.89	398.06
596.1	407.06
596.309	398.06
596.518	401.06
596.727	383.06
596.937	379.06
597.146	381.06
597.355	381.06
597.564	359.06
597.774	371.06
597.983	359.06
598.192	377.06
598.401	383.06
598.61	363.06
598.819	363.06
599.028	360.06
599.237	361.06
599.446	363.06
599.655	361.06
599.864	351.06
600.073	330.06
600.282	355.06
600.491	348.06
600.7	350.06
600.909	328.06
601.118	334.06
601.327	323.06
601.536	328.06
601.745	354.06
601.953	337.06
602.162	344.06
602.371	333.06
602.58	335.06
602.789	338.06
602.997	341.06
603.206	322.06
603.415	323.06
603.623	325.06
603.832	328.06
604.041	312.06
604.249	337.06
604.458	347.06
604.666	311.06
604.875	334.06
605.084	323.06
605.292	318.06
605.501	311.06
605.709	337.06
605.918	330.06
606.126	323.06
606.334	329.06
606.543	329.06
606.751	313.06
606.96	313.06
607.168	308.06
607.376	320.06
607.585	319.06
607.793	313.06
608.001	290.06
608.21	307.06
608.418	312.06
608.626	323.06
608.834	326.06
609.043	330.06
609.251	325.06
609.459	306.06
609.667	314.06
609.875	322.06
610.083	332.06
610.291	307.06
610.499	324.06
610.707	308.06
610.916	298.06
611.124	318.06
611.332	314.06
611.54	289.06
611.748	294.06
611.955	308.06
612.163	297.06
612.371	315.06
612.579	303.06
612.787	311.06
612.995	298.06
613.203	307.06
613.411	307.06
613.618	273.06
613.826	288.06
614.034	296.06
614.242	298.06
614.449	288.06
614.657	302.06
614.865	317.06
615.072	281.06
615.28	311.06
615.488	307.06
615.695	297.06
615.903	287.06
616.111	302.06
616.318	326.06
616.526	305.06
616.733	317.06
616.941	288.06
617.148	297.06
617.356	299.06
617.563	291.06
617.771	294.06
617.978	285.06
618.185	299.06
618.393	306.06
618.6	310.06
618.807	292.06
619.015	289.06
619.222	295.06
619.429	298.06
619.637	306.06
619.844	295.06
620.051	287.06
620.258	280.06
620.466	281.06
620.673	284.06
620.88	275.06
621.087	280.06
621.294	295.06
621.501	278.06
621.708	278.06
621.915	260.06
622.122	261.06
622.329	289.06
622.536	285.06
622.743	272.06
622.95	283.06
623.157	284.06
623.364	259.06
623.571	259.06
623.778	267.06
623.985	270.06
624.192	261.06
624.399	282.06
624.606	269.06
624.812	261.06
625.019	259.06
625.226	278.06
625.433	247.06
625.639	267.06
625.846	264.06
626.053	258.06
626.259	254.06
626.466	267.06
626.673	250.06
626.879	252.06
627.086	247.06
627.293	247.06
627.499	261.06
627.706	255.06
627.912	260.06
628.119	262.06
628.325	252.06
628.532	241.06
628.738	252.06
628.945	243.06
629.151	245.06
629.357	255.06
629.564	246.06
629.77	233.06
629.976	245.06
630.183	247.06
630.389	236.06
630.595	231.06
630.802	219.06
631.008	244.06
631.214	259.06
631.42	238.06
631.627	233.06
631.833	231.06
632.039	249.06
632.245	233.06
632.451	226.06
632.657	230.06
632.863	207.06
633.069	243.06
633.275	245.06
633.481	222.06
633.688	234.06
633.893	231.06
634.099	199.06
634.305	219.06
634.511	230.06
634.717	232.06
634.923	237.06
635.129	232.06
635.335	232.06
635.541	216.06
635.747	223.06
635.952	217.06
636.158	232.06
636.364	218.06
636.57	232.06
636.775	222.06
636.981	230.06
637.187	232.06
637.392	198.06
637.598	218.06
637.804	199.06
638.009	226.06
638.215	223.06
638.421	205.06
638.626	217.06
638.832	211.06
639.037	212.06
639.243	211.06
639.448	218.06
639.654	205.06
639.859	201.06
640.065	213.06
640.27	207.06
640.475	233.06
640.681	205.06
640.886	213.06
641.091	191.06
641.297	218.06
641.502	197.06
641.707	203.06
641.913	224.06
642.118	205.06
642.323	205.06
642.528	212.06
642.733	206.06
642.939	191.06
643.144	203.06
643.349	182.06
643.554	200.06
643.759	197.06
643.964	195.06
644.169	212.06
644.374	195.06
644.579	204.06
644.784	211.06
644.989	195.06
645.194	197.06
645.399	198.06
645.604	191.06
645.809	204.06
646.014	205.06
646.219	196.06
646.423	205.06
646.628	205.06
646.833	199.06
647.038	207.06
647.243	204.06
647.447	216.06
647.652	217.06
647.857	215.06
648.062	214.06
648.266	228.06
648.471	220.06
648.676	213.06
648.88	214.06
649.085	204.06
649.289	211.06
649.494	211.06
649.698	209.06
649.903	196.06
650.107	186.06
650.312	201.06
650.516	200.06
650.721	200.06
650.925	200.06
651.13	185.06
651.334	196.06
651.539	175.06
651.743	169.06
651.947	189.06
652.152	188.06
652.356	195.06
652.56	172.06
652.764	172.06
652.969	169.06
653.173	179.06
653.377	174.06
653.581	181.06
653.785	193.06
653.99	162.06
654.194	157.06
654.398	178.06
654.602	181.06
654.806	152.06
655.01	181.06
655.214	170.06
655.418	174.06
655.622	163.06
655.826	159.06
656.03	152.06
656.234	159.06
656.438	153.06
656.642	164.06
656.846	157.06
657.049	158.06
657.253	141.06
657.457	145.06
657.661	129.06
657.865	117.06
658.068	129.06
658.272	137.06
658.476	123.06
658.68	118.06
658.883	122.06
659.087	126.06
659.291	114.06
659.494	106.06
659.698	120.06
659.901	99.06
660.105	110.06
660.309	107.06
660.512	99.06
660.716	110.06
660.919	98.06
661.123	102.06
661.326	89.06
661.53	83.06
661.733	95.06
661.936	90.06
662.14	76.06
662.343	99.06
662.546	84.06
662.75	82.06
662.953	95.06
663.156	81.06
663.36	97.06
663.563	93.06
663.766	82.06
663.969	78.06
664.173	79.06
664.376	80.06
664.579	83.06
664.782	77.06
664.985	78.06
665.188	76.06
665.391	92.06
665.594	85.06
665.797	68.06
666	74.06
666.203	86.06
666.406	93.06
666.609	84.06
666.812	79.06
667.015	87.06
667.218	87.06
667.421	101.06
667.624	84.06
667.827	96.06
668.03	84.06
668.232	88.06
668.435	82.06
668.638	79.06
668.841	88.06
669.043	80.06
669.246	84.06
669.449	84.06
669.651	107.06
669.854	91.06
670.057	77.06
670.259	84.06
670.462	88.06
670.665	85.06
670.867	89.06
671.07	75.06
671.272	81.06
671.475	90.06
671.677	75.06
671.88	76.06
672.082	81.06
672.284	96.06
672.487	100.06
672.689	85.06
672.892	87.06
