Data from NiCl2@0.125M.TitratingCurve.Agarose3%dH2O.NegLispCup.LampEnergy10.LIBS07252019_HRD10591_18-29-32-574.txt Node
Date: Thu Jul 25 18:29:32 EDT 2019
User: cochatt
Spectrometer: HR+D1059
Trigger mode: 1
Integration Time (sec): 1.000000E-1
Scans to average: 1
Electric dark correction enabled: true
Nonlinearity correction enabled: false
Boxcar width: 0
XAxis mode: Wavelengths
Number of Pixels in Spectrum: 2048
>>>>>Begin Spectral Data<<<<<
223.165	-16.12
223.4	-16.12
223.635	-16.12
223.869	-21.12
224.104	-31.12
224.338	-4.12
224.573	-20.12
224.808	-9.12
225.042	-2.12
225.277	-14.12
225.511	-0.12
225.746	7.88
225.98	7.88
226.215	11.88
226.449	12.88
226.683	29.88
226.918	30.88
227.152	16.88
227.387	43.88
227.621	36.88
227.856	46.88
228.09	47.88
228.324	51.88
228.559	52.88
228.793	67.88
229.027	116.88
229.262	129.88
229.496	140.88
229.73	139.88
229.964	144.88
230.199	141.88
230.433	135.88
230.667	149.88
230.901	144.88
231.136	161.88
231.37	148.88
231.604	175.88
231.838	159.88
232.072	144.88
232.306	176.88
232.541	160.88
232.775	154.88
233.009	165.88
233.243	164.88
233.477	164.88
233.711	187.88
233.945	154.88
234.179	166.88
234.413	176.88
234.647	167.88
234.881	188.88
235.115	170.88
235.349	170.88
235.583	166.88
235.817	184.88
236.051	180.88
236.285	173.88
236.519	195.88
236.753	188.88
236.987	200.88
237.221	195.88
237.455	192.88
237.689	189.88
237.922	192.88
238.156	211.88
238.39	205.88
238.624	196.88
238.858	196.88
239.091	203.88
239.325	211.88
239.559	221.88
239.793	213.88
240.027	208.88
240.26	227.88
240.494	214.88
240.728	203.88
240.961	225.88
241.195	201.88
241.429	222.88
241.662	224.88
241.896	223.88
242.13	230.88
242.363	214.88
242.597	232.88
242.83	253.88
243.064	246.88
243.298	240.88
243.531	251.88
243.765	271.88
243.998	234.88
244.232	251.88
244.465	267.88
244.699	245.88
244.932	260.88
245.166	276.88
245.399	253.88
245.633	266.88
245.866	262.88
246.099	272.88
246.333	248.88
246.566	280.88
246.8	260.88
247.033	264.88
247.266	272.88
247.5	271.88
247.733	280.88
247.966	298.88
248.2	276.88
248.433	291.88
248.666	274.88
248.899	295.88
249.133	286.88
249.366	310.88
249.599	312.88
249.832	289.88
250.066	303.88
250.299	297.88
250.532	289.88
250.765	286.88
250.998	309.88
251.231	319.88
251.465	307.88
251.698	304.88
251.931	313.88
252.164	313.88
252.397	322.88
252.63	310.88
252.863	329.88
253.096	336.88
253.329	324.88
253.562	323.88
253.795	328.88
254.028	353.88
254.261	322.88
254.494	319.88
254.727	333.88
254.96	341.88
255.193	312.88
255.426	343.88
255.659	333.88
255.892	368.88
256.124	351.88
256.357	355.88
256.59	360.88
256.823	361.88
257.056	350.88
257.289	371.88
257.521	367.88
257.754	360.88
257.987	371.88
258.22	370.88
258.452	369.88
258.685	381.88
258.918	372.88
259.151	369.88
259.383	359.88
259.616	383.88
259.849	391.88
260.081	376.88
260.314	367.88
260.547	376.88
260.779	369.88
261.012	408.88
261.244	380.88
261.477	380.88
261.71	379.88
261.942	383.88
262.175	381.88
262.407	426.88
262.64	405.88
262.872	415.88
263.105	379.88
263.337	418.88
263.57	400.88
263.802	434.88
264.035	421.88
264.267	423.88
264.499	410.88
264.732	427.88
264.964	418.88
265.197	448.88
265.429	405.88
265.661	437.88
265.894	434.88
266.126	436.88
266.358	441.88
266.591	437.88
266.823	441.88
267.055	433.88
267.287	441.88
267.52	435.88
267.752	447.88
267.984	452.88
268.216	464.88
268.448	453.88
268.681	450.88
268.913	428.88
269.145	446.88
269.377	436.88
269.609	453.88
269.841	474.88
270.073	451.88
270.306	445.88
270.538	451.88
270.77	457.88
271.002	455.88
271.234	483.88
271.466	463.88
271.698	455.88
271.93	464.88
272.162	468.88
272.394	481.88
272.626	513.88
272.858	495.88
273.09	469.88
273.322	470.88
273.553	487.88
273.785	504.88
274.017	475.88
274.249	484.88
274.481	485.88
274.713	492.88
274.945	493.88
275.176	509.88
275.408	513.88
275.64	505.88
275.872	504.88
276.104	517.88
276.335	523.88
276.567	525.88
276.799	524.88
277.031	530.88
277.262	505.88
277.494	513.88
277.726	526.88
277.957	553.88
278.189	537.88
278.421	534.88
278.652	538.88
278.884	544.88
279.115	531.88
279.347	536.88
279.579	547.88
279.81	542.88
280.042	537.88
280.273	549.88
280.505	552.88
280.736	545.88
280.968	561.88
281.199	572.88
281.431	576.88
281.662	565.88
281.894	564.88
282.125	597.88
282.356	587.88
282.588	583.88
282.819	578.88
283.051	583.88
283.282	585.88
283.513	593.88
283.745	576.88
283.976	601.88
284.207	575.88
284.439	596.88
284.67	595.88
284.901	583.88
285.132	613.88
285.364	600.88
285.595	611.88
285.826	594.88
286.057	601.88
286.288	589.88
286.52	609.88
286.751	630.88
286.982	625.88
287.213	616.88
287.444	625.88
287.675	597.88
287.906	624.88
288.138	627.88
288.369	629.88
288.6	636.88
288.831	637.88
289.062	625.88
289.293	636.88
289.524	644.88
289.755	636.88
289.986	639.88
290.217	657.88
290.448	631.88
290.679	676.88
290.91	637.88
291.141	638.88
291.371	659.88
291.602	644.88
291.833	635.88
292.064	655.88
292.295	659.88
292.526	661.88
292.757	629.88
292.987	640.88
293.218	684.88
293.449	681.88
293.68	649.88
293.91	635.88
294.141	645.88
294.372	661.88
294.603	665.88
294.833	635.88
295.064	664.88
295.295	661.88
295.525	676.88
295.756	663.88
295.987	678.88
296.217	663.88
296.448	678.88
296.679	678.88
296.909	703.88
297.14	698.88
297.37	729.88
297.601	700.88
297.831	687.88
298.062	734.88
298.292	717.88
298.523	754.88
298.753	728.88
298.984	683.88
299.214	700.88
299.445	689.88
299.675	712.88
299.905	716.88
300.136	721.88
300.366	720.88
300.597	708.88
300.827	721.88
301.057	779.88
301.288	760.88
301.518	750.88
301.748	771.88
301.979	767.88
302.209	749.88
302.439	751.88
302.669	747.88
302.9	744.88
303.13	749.88
303.36	734.88
303.59	727.88
303.82	736.88
304.051	751.88
304.281	751.88
304.511	728.88
304.741	723.88
304.971	736.88
305.201	739.88
305.431	765.88
305.661	747.88
305.891	712.88
306.121	735.88
306.352	733.88
306.582	739.88
306.812	732.88
307.042	716.88
307.272	724.88
307.502	707.88
307.731	721.88
307.961	724.88
308.191	724.88
308.421	692.88
308.651	714.88
308.881	728.88
309.111	712.88
309.341	712.88
309.571	704.88
309.8	711.88
310.03	690.88
310.26	736.88
310.49	723.88
310.72	715.88
310.949	733.88
311.179	722.88
311.409	702.88
311.639	753.88
311.868	754.88
312.098	740.88
312.328	738.88
312.557	761.88
312.787	744.88
313.017	747.88
313.246	771.88
313.476	767.88
313.706	754.88
313.935	784.88
314.165	782.88
314.394	764.88
314.624	761.88
314.853	760.88
315.083	755.88
315.312	757.88
315.542	793.88
315.771	763.88
316.001	795.88
316.23	737.88
316.46	751.88
316.689	749.88
316.919	758.88
317.148	758.88
317.377	792.88
317.607	760.88
317.836	769.88
318.065	731.88
318.295	757.88
318.524	774.88
318.753	757.88
318.983	766.88
319.212	737.88
319.441	757.88
319.67	784.88
319.9	731.88
320.129	736.88
320.358	739.88
320.587	764.88
320.816	747.88
321.046	781.88
321.275	753.88
321.504	747.88
321.733	748.88
321.962	763.88
322.191	755.88
322.42	755.88
322.649	779.88
322.878	797.88
323.108	755.88
323.337	744.88
323.566	799.88
323.795	772.88
324.024	793.88
324.253	769.88
324.482	787.88
324.71	792.88
324.939	806.88
325.168	815.88
325.397	819.88
325.626	795.88
325.855	811.88
326.084	822.88
326.313	860.88
326.542	841.88
326.77	851.88
326.999	821.88
327.228	808.88
327.457	830.88
327.686	842.88
327.914	834.88
328.143	853.88
328.372	840.88
328.6	846.88
328.829	841.88
329.058	815.88
329.287	828.88
329.515	819.88
329.744	839.88
329.972	881.88
330.201	863.88
330.43	849.88
330.658	849.88
330.887	845.88
331.115	875.88
331.344	893.88
331.572	886.88
331.801	905.88
332.03	928.88
332.258	969.88
332.486	972.88
332.715	994.88
332.943	1048.88
333.172	1092.88
333.4	1141.88
333.629	1149.88
333.857	1163.88
334.085	1137.88
334.314	1121.88
334.542	1079.88
334.771	1067.88
334.999	1053.88
335.227	1048.88
335.455	1044.88
335.684	1020.88
335.912	1051.88
336.14	1034.88
336.369	1001.88
336.597	1039.88
336.825	973.88
337.053	991.88
337.281	973.88
337.51	976.88
337.738	957.88
337.966	940.88
338.194	946.88
338.422	918.88
338.65	916.88
338.878	885.88
339.106	896.88
339.334	904.88
339.562	866.88
339.79	869.88
340.018	896.88
340.246	889.88
340.474	885.88
340.702	858.88
340.93	875.88
341.158	885.88
341.386	876.88
341.614	883.88
341.842	864.88
342.07	872.88
342.298	885.88
342.526	855.88
342.754	866.88
342.981	849.88
343.209	882.88
343.437	936.88
343.665	1015.88
343.893	1057.88
344.12	1111.88
344.348	1071.88
344.576	993.88
344.804	954.88
345.031	905.88
345.259	894.88
345.487	892.88
345.714	849.88
345.942	850.88
346.17	836.88
346.397	857.88
346.625	840.88
346.853	817.88
347.08	844.88
347.308	858.88
347.535	853.88
347.763	855.88
347.99	857.88
348.218	849.88
348.445	874.88
348.673	841.88
348.9	831.88
349.128	825.88
349.355	800.88
349.583	823.88
349.81	847.88
350.037	835.88
350.265	818.88
350.492	842.88
350.72	812.88
350.947	791.88
351.174	807.88
351.402	824.88
351.629	802.88
351.856	811.88
352.083	793.88
352.311	787.88
352.538	817.88
352.765	808.88
352.992	802.88
353.22	809.88
353.447	809.88
353.674	795.88
353.901	792.88
354.128	815.88
354.355	797.88
354.583	823.88
354.81	799.88
355.037	794.88
355.264	803.88
355.491	827.88
355.718	797.88
355.945	828.88
356.172	826.88
356.399	800.88
356.626	803.88
356.853	808.88
357.08	823.88
357.307	784.88
357.534	826.88
357.761	817.88
357.988	815.88
358.215	785.88
358.441	799.88
358.668	798.88
358.895	819.88
359.122	808.88
359.349	808.88
359.576	797.88
359.802	807.88
360.029	840.88
360.256	805.88
360.483	817.88
360.709	833.88
360.936	792.88
361.163	795.88
361.39	804.88
361.616	817.88
361.843	813.88
362.07	792.88
362.296	817.88
362.523	793.88
362.749	798.88
362.976	789.88
363.203	788.88
363.429	796.88
363.656	809.88
363.882	817.88
364.109	811.88
364.335	793.88
364.562	791.88
364.788	804.88
365.015	803.88
365.241	806.88
365.468	825.88
365.694	769.88
365.92	802.88
366.147	823.88
366.373	791.88
366.599	783.88
366.826	821.88
367.052	829.88
367.278	799.88
367.505	789.88
367.731	780.88
367.957	822.88
368.184	805.88
368.41	811.88
368.636	799.88
368.862	819.88
369.089	823.88
369.315	824.88
369.541	828.88
369.767	830.88
369.993	847.88
370.219	839.88
370.445	823.88
370.672	843.88
370.898	858.88
371.124	865.88
371.35	908.88
371.576	905.88
371.802	899.88
372.028	888.88
372.254	881.88
372.48	853.88
372.706	875.88
372.932	925.88
373.158	914.88
373.384	891.88
373.61	867.88
373.835	869.88
374.061	866.88
374.287	894.88
374.513	913.88
374.739	929.88
374.965	957.88
375.191	979.88
375.416	991.88
375.642	933.88
375.868	937.88
376.094	914.88
376.319	895.88
376.545	895.88
376.771	885.88
376.997	876.88
377.222	891.88
377.448	845.88
377.674	871.88
377.899	860.88
378.125	880.88
378.35	847.88
378.576	839.88
378.802	829.88
379.027	872.88
379.253	861.88
379.478	868.88
379.704	851.88
379.929	859.88
380.155	867.88
380.38	868.88
380.606	898.88
380.831	860.88
381.057	891.88
381.282	867.88
381.507	885.88
381.733	871.88
381.958	874.88
382.184	913.88
382.409	897.88
382.634	897.88
382.86	907.88
383.085	948.88
383.31	968.88
383.535	963.88
383.761	974.88
383.986	986.88
384.211	1017.88
384.436	1055.88
384.662	1065.88
384.887	1066.88
385.112	1078.88
385.337	1095.88
385.562	1085.88
385.787	1090.88
386.013	1083.88
386.238	1075.88
386.463	1073.88
386.688	1066.88
386.913	1060.88
387.138	1033.88
387.363	1041.88
387.588	1036.88
387.813	1047.88
388.038	1049.88
388.263	1036.88
388.488	1033.88
388.713	1072.88
388.938	1048.88
389.163	1049.88
389.387	1027.88
389.612	990.88
389.837	1035.88
390.062	1022.88
390.287	1031.88
390.512	1051.88
390.736	1034.88
390.961	1066.88
391.186	1080.88
391.411	1117.88
391.636	1148.88
391.86	1174.88
392.085	1212.88
392.31	1215.88
392.534	1167.88
392.759	1149.88
392.984	1124.88
393.208	1075.88
393.433	1123.88
393.658	1132.88
393.882	1115.88
394.107	1133.88
394.331	1148.88
394.556	1119.88
394.78	1159.88
395.005	1163.88
395.229	1155.88
395.454	1176.88
395.678	1212.88
395.903	1225.88
396.127	1181.88
396.352	1159.88
396.576	1109.88
396.801	1116.88
397.025	1110.88
397.249	1123.88
397.474	1218.88
397.698	1185.88
397.922	1208.88
398.147	1169.88
398.371	1221.88
398.595	1251.88
398.82	1327.88
399.044	1428.88
399.268	1592.88
399.492	1856.88
399.717	2131.88
399.941	2125.88
400.165	1809.88
400.389	1613.88
400.613	1471.88
400.837	1415.88
401.062	1356.88
401.286	1341.88
401.51	1348.88
401.734	1358.88
401.958	1342.88
402.182	1345.88
402.406	1373.88
402.63	1422.88
402.854	1439.88
403.078	1463.88
403.302	1499.88
403.526	1556.88
403.75	1607.88
403.974	1621.88
404.198	1588.88
404.422	1611.88
404.645	1628.88
404.869	1586.88
405.093	1544.88
405.317	1539.88
405.541	1504.88
405.765	1498.88
405.988	1474.88
406.212	1489.88
406.436	1476.88
406.66	1507.88
406.883	1507.88
407.107	1642.88
407.331	1721.88
407.555	1802.88
407.778	1786.88
408.002	1706.88
408.226	1599.88
408.449	1603.88
408.673	1588.88
408.896	1507.88
409.12	1508.88
409.344	1564.88
409.567	1537.88
409.791	1535.88
410.014	1555.88
410.238	1482.88
410.461	1513.88
410.685	1506.88
410.908	1452.88
411.132	1424.88
411.355	1403.88
411.578	1443.88
411.802	1389.88
412.025	1383.88
412.249	1388.88
412.472	1416.88
412.695	1362.88
412.919	1333.88
413.142	1319.88
413.365	1303.88
413.589	1347.88
413.812	1318.88
414.035	1307.88
414.258	1296.88
414.482	1340.88
414.705	1340.88
414.928	1393.88
415.151	1378.88
415.374	1361.88
415.597	1352.88
415.821	1319.88
416.044	1283.88
416.267	1301.88
416.49	1288.88
416.713	1272.88
416.936	1312.88
417.159	1327.88
417.382	1301.88
417.605	1309.88
417.828	1321.88
418.051	1369.88
418.274	1330.88
418.497	1363.88
418.72	1376.88
418.943	1345.88
419.166	1451.88
419.389	1497.88
419.611	1496.88
419.834	1459.88
420.057	1403.88
420.28	1327.88
420.503	1315.88
420.726	1285.88
420.948	1276.88
421.171	1302.88
421.394	1339.88
421.617	1313.88
421.839	1331.88
422.062	1291.88
422.285	1304.88
422.507	1361.88
422.73	1387.88
422.953	1369.88
423.175	1393.88
423.398	1400.88
423.621	1378.88
423.843	1423.88
424.066	1445.88
424.288	1391.88
424.511	1412.88
424.733	1431.88
424.956	1399.88
425.178	1354.88
425.401	1345.88
425.623	1356.88
425.846	1241.88
426.068	1272.88
426.291	1251.88
426.513	1270.88
426.735	1235.88
426.958	1255.88
427.18	1202.88
427.402	1216.88
427.625	1206.88
427.847	1203.88
428.069	1179.88
428.292	1170.88
428.514	1176.88
428.736	1170.88
428.958	1173.88
429.181	1131.88
429.403	1130.88
429.625	1128.88
429.847	1100.88
430.069	1129.88
430.292	1121.88
430.514	1125.88
430.736	1138.88
430.958	1135.88
431.18	1135.88
431.402	1156.88
431.624	1143.88
431.846	1174.88
432.068	1161.88
432.29	1181.88
432.512	1156.88
432.734	1167.88
432.956	1149.88
433.178	1177.88
433.4	1169.88
433.622	1164.88
433.844	1212.88
434.066	1191.88
434.287	1177.88
434.509	1229.88
434.731	1281.88
434.953	1318.88
435.175	1333.88
435.397	1318.88
435.618	1247.88
435.84	1219.88
436.062	1229.88
436.284	1145.88
436.505	1165.88
436.727	1186.88
436.949	1174.88
437.17	1192.88
437.392	1135.88
437.614	1131.88
437.835	1107.88
438.057	1116.88
438.278	1123.88
438.5	1133.88
438.721	1100.88
438.943	1114.88
439.165	1139.88
439.386	1151.88
439.608	1171.88
439.829	1167.88
440.05	1158.88
440.272	1159.88
440.493	1161.88
440.715	1192.88
440.936	1211.88
441.158	1223.88
441.379	1266.88
441.6	1349.88
441.822	1322.88
442.043	1356.88
442.264	1294.88
442.486	1293.88
442.707	1323.88
442.928	1274.88
443.149	1314.88
443.371	1282.88
443.592	1305.88
443.813	1338.88
444.034	1324.88
444.255	1368.88
444.476	1493.88
444.698	1549.88
444.919	1623.88
445.14	1677.88
445.361	1494.88
445.582	1351.88
445.803	1259.88
446.024	1211.88
446.245	1234.88
446.466	1207.88
446.687	1161.88
446.908	1207.88
447.129	1143.88
447.35	1129.88
447.571	1146.88
447.792	1121.88
448.013	1135.88
448.234	1073.88
448.455	1078.88
448.675	1057.88
448.896	1113.88
449.117	1059.88
449.338	1055.88
449.559	1055.88
449.779	1058.88
450	1070.88
450.221	1051.88
450.442	1043.88
450.662	1078.88
450.883	1097.88
451.104	1118.88
451.324	1117.88
451.545	1103.88
451.766	1097.88
451.986	1073.88
452.207	1062.88
452.428	1074.88
452.648	1063.88
452.869	1045.88
453.089	1033.88
453.31	1054.88
453.53	1041.88
453.751	1019.88
453.971	1024.88
454.192	1034.88
454.412	1013.88
454.633	1002.88
454.853	996.88
455.073	987.88
455.294	1027.88
455.514	1013.88
455.734	996.88
455.955	970.88
456.175	953.88
456.395	957.88
456.616	972.88
456.836	1001.88
457.056	1012.88
457.276	944.88
457.497	983.88
457.717	972.88
457.937	998.88
458.157	1028.88
458.377	1028.88
458.598	1078.88
458.818	1072.88
459.038	1113.88
459.258	1136.88
459.478	1165.88
459.698	1215.88
459.918	1226.88
460.138	1307.88
460.358	1365.88
460.578	1381.88
460.798	1403.88
461.018	1419.88
461.238	1388.88
461.458	1364.88
461.678	1354.88
461.898	1391.88
462.118	1388.88
462.338	1512.88
462.558	1539.88
462.777	1579.88
462.997	1742.88
463.217	1889.88
463.437	1922.88
463.657	1683.88
463.876	1603.88
464.096	1619.88
464.316	1608.88
464.536	1659.88
464.755	1595.88
464.975	1526.88
465.195	1442.88
465.414	1356.88
465.634	1244.88
465.854	1219.88
466.073	1199.88
466.293	1184.88
466.512	1104.88
466.732	1119.88
466.951	1129.88
467.171	1102.88
467.391	1138.88
467.61	1116.88
467.829	1124.88
468.049	1101.88
468.268	1062.88
468.488	1061.88
468.707	1077.88
468.927	1075.88
469.146	1045.88
469.365	1076.88
469.585	1096.88
469.804	1097.88
470.023	1133.88
470.243	1120.88
470.462	1145.88
470.681	1145.88
470.901	1160.88
471.12	1159.88
471.339	1099.88
471.558	1088.88
471.777	1101.88
471.997	1063.88
472.216	1037.88
472.435	1028.88
472.654	1034.88
472.873	1042.88
473.092	1031.88
473.311	1025.88
473.53	1017.88
473.749	1015.88
473.968	1012.88
474.187	1025.88
474.406	1018.88
474.625	1007.88
474.844	1005.88
475.063	1008.88
475.282	1034.88
475.501	1053.88
475.72	1043.88
475.939	1035.88
476.158	1068.88
476.377	1089.88
476.596	1078.88
476.814	1091.88
477.033	1098.88
477.252	1085.88
477.471	1094.88
477.69	1154.88
477.908	1198.88
478.127	1234.88
478.346	1215.88
478.564	1268.88
478.783	1275.88
479.002	1276.88
479.22	1302.88
479.439	1278.88
479.658	1259.88
479.876	1303.88
480.095	1305.88
480.313	1374.88
480.532	1430.88
480.751	1447.88
480.969	1324.88
481.188	1293.88
481.406	1208.88
481.624	1196.88
481.843	1206.88
482.061	1197.88
482.28	1151.88
482.498	1128.88
482.717	1157.88
482.935	1179.88
483.153	1175.88
483.372	1136.88
483.59	1168.88
483.808	1164.88
484.027	1172.88
484.245	1205.88
484.463	1203.88
484.681	1236.88
484.9	1203.88
485.118	1217.88
485.336	1207.88
485.554	1253.88
485.772	1235.88
485.99	1237.88
486.209	1251.88
486.427	1221.88
486.645	1283.88
486.863	1202.88
487.081	1232.88
487.299	1220.88
487.517	1220.88
487.735	1205.88
487.953	1221.88
488.171	1232.88
488.389	1217.88
488.607	1178.88
488.825	1201.88
489.043	1191.88
489.261	1210.88
489.479	1204.88
489.696	1190.88
489.914	1208.88
490.132	1243.88
490.35	1248.88
490.568	1211.88
490.786	1208.88
491.003	1201.88
491.221	1246.88
491.439	1247.88
491.657	1219.88
491.874	1243.88
492.092	1226.88
492.31	1211.88
492.527	1240.88
492.745	1224.88
492.963	1256.88
493.18	1260.88
493.398	1308.88
493.615	1301.88
493.833	1280.88
494.05	1291.88
494.268	1276.88
494.485	1283.88
494.703	1312.88
494.92	1313.88
495.138	1258.88
495.355	1266.88
495.573	1269.88
495.79	1282.88
496.008	1300.88
496.225	1292.88
496.442	1353.88
496.66	1332.88
496.877	1362.88
497.094	1404.88
497.312	1365.88
497.529	1394.88
497.746	1439.88
497.963	1494.88
498.181	1561.88
498.398	1599.88
498.615	1727.88
498.832	1888.88
499.049	2020.88
499.267	2201.88
499.484	2437.88
499.701	2724.88
499.918	2945.88
500.135	3463.88
500.352	4088.88
500.569	4292.88
500.786	4182.88
501.003	3905.88
501.22	3396.88
501.437	2992.88
501.654	2572.88
501.871	2365.88
502.088	2111.88
502.305	1987.88
502.522	1843.88
502.739	1787.88
502.956	1725.88
503.172	1637.88
503.389	1560.88
503.606	1540.88
503.823	1499.88
504.04	1469.88
504.256	1465.88
504.473	1508.88
504.69	1644.88
504.907	1593.88
505.123	1437.88
505.34	1378.88
505.557	1294.88
505.773	1238.88
505.99	1214.88
506.207	1203.88
506.423	1154.88
506.64	1182.88
506.856	1143.88
507.073	1165.88
507.289	1121.88
507.506	1141.88
507.722	1121.88
507.939	1138.88
508.155	1108.88
508.372	1088.88
508.588	1065.88
508.805	1106.88
509.021	1080.88
509.238	1074.88
509.454	1055.88
509.67	1067.88
509.887	1061.88
510.103	1072.88
510.319	1057.88
510.536	1058.88
510.752	1032.88
510.968	1058.88
511.184	1077.88
511.401	1033.88
511.617	1049.88
511.833	1026.88
512.049	1011.88
512.265	1012.88
512.481	1055.88
512.698	1043.88
512.914	1032.88
513.13	1042.88
513.346	1056.88
513.562	1056.88
513.778	1045.88
513.994	1059.88
514.21	1044.88
514.426	1060.88
514.642	1050.88
514.858	1069.88
515.074	1100.88
515.29	1067.88
515.506	1078.88
515.721	1097.88
515.937	1105.88
516.153	1161.88
516.369	1188.88
516.585	1217.88
516.801	1243.88
517.016	1291.88
517.232	1400.88
517.448	1473.88
517.664	1505.88
517.879	1549.88
518.095	1508.88
518.311	1486.88
518.527	1401.88
518.742	1364.88
518.958	1274.88
519.173	1186.88
519.389	1181.88
519.605	1115.88
519.82	1107.88
520.036	1120.88
520.251	1093.88
520.467	1085.88
520.682	1063.88
520.898	1047.88
521.113	1037.88
521.329	1029.88
521.544	1037.88
521.76	1016.88
521.975	970.88
522.19	992.88
522.406	976.88
522.621	1004.88
522.836	1004.88
523.052	968.88
523.267	979.88
523.482	963.88
523.698	967.88
523.913	960.88
524.128	965.88
524.343	967.88
524.559	951.88
524.774	948.88
524.989	981.88
525.204	953.88
525.419	940.88
525.634	969.88
525.849	938.88
526.064	948.88
526.28	953.88
526.495	935.88
526.71	969.88
526.925	934.88
527.14	927.88
527.355	920.88
527.57	929.88
527.785	953.88
527.999	949.88
528.214	950.88
528.429	961.88
528.644	939.88
528.859	921.88
529.074	929.88
529.289	939.88
529.503	952.88
529.718	927.88
529.933	923.88
530.148	908.88
530.363	930.88
530.577	941.88
530.792	929.88
531.007	924.88
531.221	938.88
531.436	959.88
531.651	956.88
531.865	934.88
532.08	947.88
532.295	957.88
532.509	954.88
532.724	930.88
532.938	954.88
533.153	947.88
533.367	939.88
533.582	957.88
533.796	927.88
534.011	952.88
534.225	952.88
534.44	925.88
534.654	905.88
534.868	934.88
535.083	913.88
535.297	876.88
535.511	873.88
535.726	905.88
535.94	909.88
536.154	878.88
536.369	891.88
536.583	846.88
536.797	877.88
537.011	879.88
537.225	881.88
537.44	861.88
537.654	892.88
537.868	868.88
538.082	839.88
538.296	868.88
538.51	859.88
538.724	840.88
538.938	866.88
539.153	853.88
539.367	855.88
539.581	873.88
539.795	840.88
540.009	855.88
540.222	860.88
540.436	844.88
540.65	841.88
540.864	813.88
541.078	813.88
541.292	856.88
541.506	826.88
541.72	843.88
541.934	833.88
542.147	849.88
542.361	837.88
542.575	817.88
542.789	805.88
543.002	789.88
543.216	782.88
543.43	827.88
543.644	805.88
543.857	801.88
544.071	819.88
544.285	839.88
544.498	804.88
544.712	844.88
544.925	840.88
545.139	861.88
545.352	853.88
545.566	893.88
545.779	856.88
545.993	852.88
546.206	840.88
546.42	872.88
546.633	869.88
546.847	855.88
547.06	867.88
547.274	833.88
547.487	831.88
547.7	847.88
547.914	855.88
548.127	866.88
548.34	835.88
548.554	852.88
548.767	852.88
548.98	883.88
549.193	845.88
549.407	853.88
549.62	873.88
549.833	899.88
550.046	909.88
550.259	848.88
550.473	809.88
550.686	829.88
550.899	871.88
551.112	825.88
551.325	838.88
551.538	841.88
551.751	818.88
551.964	843.88
552.177	838.88
552.39	860.88
552.603	898.88
552.816	911.88
553.029	932.88
553.242	935.88
553.455	970.88
553.667	964.88
553.88	953.88
554.093	912.88
554.306	897.88
554.519	872.88
554.732	889.88
554.944	833.88
555.157	826.88
555.37	848.88
555.583	808.88
555.795	781.88
556.008	778.88
556.221	744.88
556.433	750.88
556.646	731.88
556.859	767.88
557.071	729.88
557.284	740.88
557.496	730.88
557.709	732.88
557.921	698.88
558.134	724.88
558.346	728.88
558.559	708.88
558.771	711.88
558.984	707.88
559.196	692.88
559.409	679.88
559.621	716.88
559.833	687.88
560.046	705.88
560.258	712.88
560.47	709.88
560.683	694.88
560.895	683.88
561.107	705.88
561.32	705.88
561.532	682.88
561.744	697.88
561.956	660.88
562.168	690.88
562.381	682.88
562.593	709.88
562.805	705.88
563.017	705.88
563.229	678.88
563.441	715.88
563.653	718.88
563.865	728.88
564.077	703.88
564.289	721.88
564.501	731.88
564.713	736.88
564.925	772.88
565.137	761.88
565.349	805.88
565.561	803.88
565.773	836.88
565.985	882.88
566.197	929.88
566.408	984.88
566.62	1100.88
566.832	1222.88
567.044	1209.88
567.255	1187.88
567.467	1188.88
567.679	1312.88
567.891	1443.88
568.102	1489.88
568.314	1428.88
568.526	1239.88
568.737	1114.88
568.949	1027.88
569.161	906.88
569.372	860.88
569.584	810.88
569.795	756.88
570.007	757.88
570.218	725.88
570.43	721.88
570.641	718.88
570.853	714.88
571.064	726.88
571.276	746.88
571.487	726.88
571.698	699.88
571.91	653.88
572.121	656.88
572.333	616.88
572.544	607.88
572.755	598.88
572.966	615.88
573.178	623.88
573.389	609.88
573.6	592.88
573.811	578.88
574.023	564.88
574.234	589.88
574.445	567.88
574.656	581.88
574.867	572.88
575.078	578.88
575.289	573.88
575.501	586.88
575.712	561.88
575.923	538.88
576.134	557.88
576.345	548.88
576.556	547.88
576.767	537.88
576.978	545.88
577.188	531.88
577.399	523.88
577.61	535.88
577.821	528.88
578.032	512.88
578.243	517.88
578.454	500.88
578.665	508.88
578.875	487.88
579.086	493.88
579.297	485.88
579.508	515.88
579.718	507.88
579.929	499.88
580.14	490.88
580.35	508.88
580.561	491.88
580.772	503.88
580.982	499.88
581.193	496.88
581.403	500.88
581.614	509.88
581.825	477.88
582.035	466.88
582.246	499.88
582.456	484.88
582.667	488.88
582.877	468.88
583.087	504.88
583.298	486.88
583.508	495.88
583.719	477.88
583.929	479.88
584.139	468.88
584.35	464.88
584.56	450.88
584.77	461.88
584.981	459.88
585.191	476.88
585.401	473.88
585.611	468.88
585.821	477.88
586.032	456.88
586.242	464.88
586.452	470.88
586.662	452.88
586.872	439.88
587.082	483.88
587.292	462.88
587.502	456.88
587.713	466.88
587.923	444.88
588.133	456.88
588.343	442.88
588.553	451.88
588.762	479.88
588.972	458.88
589.182	482.88
589.392	464.88
589.602	469.88
589.812	440.88
590.022	436.88
590.232	458.88
590.441	453.88
590.651	461.88
590.861	460.88
591.071	475.88
591.281	472.88
591.49	469.88
591.7	496.88
591.91	503.88
592.119	473.88
592.329	502.88
592.539	531.88
592.748	525.88
592.958	560.88
593.167	597.88
593.377	591.88
593.587	624.88
593.796	589.88
594.006	618.88
594.215	645.88
594.424	623.88
594.634	581.88
594.843	599.88
595.053	538.88
595.262	515.88
595.472	520.88
595.681	480.88
595.89	474.88
596.1	449.88
596.309	455.88
596.518	436.88
596.727	439.88
596.937	421.88
597.146	432.88
597.355	428.88
597.564	411.88
597.774	432.88
597.983	398.88
598.192	391.88
598.401	411.88
598.61	409.88
598.819	406.88
599.028	396.88
599.237	392.88
599.446	392.88
599.655	391.88
599.864	412.88
600.073	399.88
600.282	378.88
600.491	383.88
600.7	384.88
600.909	390.88
601.118	379.88
601.327	375.88
601.536	396.88
601.745	385.88
601.953	375.88
602.162	368.88
602.371	359.88
602.58	395.88
602.789	358.88
602.997	379.88
603.206	356.88
603.415	383.88
603.623	354.88
603.832	361.88
604.041	371.88
604.249	364.88
604.458	341.88
604.666	371.88
604.875	367.88
605.084	367.88
605.292	346.88
605.501	350.88
605.709	345.88
605.918	345.88
606.126	354.88
606.334	362.88
606.543	362.88
606.751	351.88
606.96	336.88
607.168	358.88
607.376	354.88
607.585	333.88
607.793	367.88
608.001	352.88
608.21	329.88
608.418	332.88
608.626	345.88
608.834	355.88
609.043	376.88
609.251	369.88
609.459	340.88
609.667	339.88
609.875	333.88
610.083	342.88
610.291	340.88
610.499	346.88
610.707	349.88
610.916	343.88
611.124	345.88
611.332	333.88
611.54	329.88
611.748	340.88
611.955	327.88
612.163	327.88
612.371	320.88
612.579	330.88
612.787	337.88
612.995	325.88
613.203	339.88
613.411	329.88
613.618	339.88
613.826	310.88
614.034	322.88
614.242	326.88
614.449	310.88
614.657	322.88
614.865	333.88
615.072	335.88
615.28	327.88
615.488	338.88
615.695	337.88
615.903	319.88
616.111	361.88
616.318	359.88
616.526	334.88
616.733	332.88
616.941	345.88
617.148	330.88
617.356	342.88
617.563	337.88
617.771	335.88
617.978	328.88
618.185	326.88
618.393	339.88
618.6	339.88
618.807	332.88
619.015	346.88
619.222	341.88
619.429	336.88
619.637	323.88
619.844	328.88
620.051	321.88
620.258	320.88
620.466	312.88
620.673	301.88
620.88	293.88
621.087	292.88
621.294	318.88
621.501	309.88
621.708	302.88
621.915	314.88
622.122	310.88
622.329	284.88
622.536	307.88
622.743	294.88
622.95	301.88
623.157	299.88
623.364	310.88
623.571	306.88
623.778	306.88
623.985	312.88
624.192	283.88
624.399	288.88
624.606	312.88
624.812	298.88
625.019	309.88
625.226	292.88
625.433	281.88
625.639	276.88
625.846	277.88
626.053	284.88
626.259	306.88
626.466	282.88
626.673	284.88
626.879	266.88
627.086	267.88
627.293	287.88
627.499	288.88
627.706	272.88
627.912	276.88
628.119	264.88
628.325	278.88
628.532	256.88
628.738	274.88
628.945	268.88
629.151	252.88
629.357	275.88
629.564	271.88
629.77	282.88
629.976	275.88
630.183	257.88
630.389	249.88
630.595	255.88
630.802	250.88
631.008	269.88
631.214	264.88
631.42	261.88
631.627	253.88
631.833	262.88
632.039	242.88
632.245	248.88
632.451	237.88
632.657	248.88
632.863	247.88
633.069	253.88
633.275	231.88
633.481	234.88
633.688	247.88
633.893	236.88
634.099	218.88
634.305	232.88
634.511	230.88
634.717	244.88
634.923	236.88
635.129	242.88
635.335	236.88
635.541	211.88
635.747	247.88
635.952	239.88
636.158	241.88
636.364	236.88
636.57	247.88
636.775	236.88
636.981	220.88
637.187	223.88
637.392	225.88
637.598	218.88
637.804	238.88
638.009	233.88
638.215	232.88
638.421	219.88
638.626	231.88
638.832	229.88
639.037	219.88
639.243	213.88
639.448	231.88
639.654	235.88
639.859	228.88
640.065	221.88
640.27	213.88
640.475	227.88
640.681	230.88
640.886	218.88
641.091	212.88
641.297	215.88
641.502	209.88
641.707	213.88
641.913	212.88
642.118	211.88
642.323	207.88
642.528	236.88
642.733	208.88
642.939	215.88
643.144	202.88
643.349	215.88
643.554	220.88
643.759	207.88
643.964	199.88
644.169	218.88
644.374	216.88
644.579	212.88
644.784	216.88
644.989	207.88
645.194	205.88
645.399	193.88
645.604	204.88
645.809	212.88
646.014	208.88
646.219	215.88
646.423	204.88
646.628	217.88
646.833	215.88
647.038	209.88
647.243	211.88
647.447	220.88
647.652	211.88
647.857	226.88
648.062	225.88
648.266	230.88
648.471	236.88
648.676	232.88
648.88	229.88
649.085	225.88
649.289	216.88
649.494	208.88
649.698	215.88
649.903	217.88
650.107	195.88
650.312	196.88
650.516	205.88
650.721	200.88
650.925	199.88
651.13	206.88
651.334	184.88
651.539	191.88
651.743	183.88
651.947	179.88
652.152	170.88
652.356	160.88
652.56	178.88
652.764	166.88
652.969	207.88
653.173	181.88
653.377	181.88
653.581	169.88
653.785	159.88
653.99	152.88
654.194	151.88
654.398	157.88
654.602	165.88
654.806	163.88
655.01	151.88
655.214	164.88
655.418	147.88
655.622	141.88
655.826	157.88
656.03	139.88
656.234	160.88
656.438	146.88
656.642	133.88
656.846	161.88
657.049	148.88
657.253	130.88
657.457	131.88
657.661	121.88
657.865	135.88
658.068	120.88
658.272	119.88
658.476	103.88
658.68	116.88
658.883	111.88
659.087	107.88
659.291	116.88
659.494	109.88
659.698	112.88
659.901	109.88
660.105	105.88
660.309	101.88
660.512	101.88
660.716	100.88
660.919	95.88
661.123	105.88
661.326	98.88
661.53	87.88
661.733	101.88
661.936	95.88
662.14	86.88
662.343	97.88
662.546	80.88
662.75	89.88
662.953	87.88
663.156	93.88
663.36	88.88
663.563	79.88
663.766	101.88
663.969	91.88
664.173	89.88
664.376	92.88
664.579	81.88
664.782	101.88
664.985	89.88
665.188	92.88
665.391	86.88
665.594	68.88
665.797	97.88
666	62.88
666.203	93.88
666.406	80.88
666.609	87.88
666.812	92.88
667.015	99.88
667.218	97.88
667.421	85.88
667.624	77.88
667.827	88.88
668.03	90.88
668.232	82.88
668.435	92.88
668.638	79.88
668.841	83.88
669.043	75.88
669.246	79.88
669.449	87.88
669.651	93.88
669.854	92.88
670.057	93.88
670.259	71.88
670.462	79.88
670.665	80.88
670.867	84.88
671.07	88.88
671.272	85.88
671.475	91.88
671.677	71.88
671.88	80.88
672.082	83.88
672.284	92.88
672.487	98.88
672.689	73.88
672.892	87.88
