Data from NiCl2@0.0625M.TitratingCurve.Agarose3%dH2O.NegLispCup.LampEnergy10.LIBS07252019_HRD10591_18-32-40-576.txt Node
Date: Thu Jul 25 18:32:40 EDT 2019
User: cochatt
Spectrometer: HR+D1059
Trigger mode: 1
Integration Time (sec): 1.000000E-1
Scans to average: 1
Electric dark correction enabled: true
Nonlinearity correction enabled: false
Boxcar width: 0
XAxis mode: Wavelengths
Number of Pixels in Spectrum: 2048
>>>>>Begin Spectral Data<<<<<
223.165	-13.06
223.4	-13.06
223.635	-13.06
223.869	-10.06
224.104	-18.06
224.338	-17.06
224.573	-10.06
224.808	-3.06
225.042	-2.06
225.277	-4.06
225.511	-0.06
225.746	11.94
225.98	-2.06
226.215	-10.06
226.449	18.94
226.683	15.94
226.918	18.94
227.152	23.94
227.387	36.94
227.621	36.94
227.856	46.94
228.09	29.94
228.324	46.94
228.559	55.94
228.793	79.94
229.027	142.94
229.262	155.94
229.496	183.94
229.73	181.94
229.964	190.94
230.199	187.94
230.433	190.94
230.667	200.94
230.901	186.94
231.136	188.94
231.37	193.94
231.604	197.94
231.838	204.94
232.072	201.94
232.306	216.94
232.541	200.94
232.775	218.94
233.009	217.94
233.243	226.94
233.477	219.94
233.711	224.94
233.945	232.94
234.179	242.94
234.413	234.94
234.647	223.94
234.881	234.94
235.115	227.94
235.349	229.94
235.583	220.94
235.817	233.94
236.051	229.94
236.285	260.94
236.519	256.94
236.753	240.94
236.987	251.94
237.221	237.94
237.455	251.94
237.689	242.94
237.922	276.94
238.156	288.94
238.39	259.94
238.624	264.94
238.858	242.94
239.091	270.94
239.325	281.94
239.559	282.94
239.793	289.94
240.027	298.94
240.26	294.94
240.494	297.94
240.728	295.94
240.961	286.94
241.195	300.94
241.429	303.94
241.662	306.94
241.896	323.94
242.13	329.94
242.363	319.94
242.597	329.94
242.83	328.94
243.064	321.94
243.298	337.94
243.531	327.94
243.765	335.94
243.998	327.94
244.232	350.94
244.465	355.94
244.699	340.94
244.932	355.94
245.166	333.94
245.399	379.94
245.633	374.94
245.866	372.94
246.099	379.94
246.333	370.94
246.566	353.94
246.8	371.94
247.033	353.94
247.266	371.94
247.5	395.94
247.733	390.94
247.966	393.94
248.2	410.94
248.433	420.94
248.666	418.94
248.899	411.94
249.133	400.94
249.366	399.94
249.599	429.94
249.832	436.94
250.066	433.94
250.299	427.94
250.532	447.94
250.765	445.94
250.998	443.94
251.231	438.94
251.465	445.94
251.698	459.94
251.931	438.94
252.164	462.94
252.397	454.94
252.63	469.94
252.863	470.94
253.096	477.94
253.329	458.94
253.562	472.94
253.795	478.94
254.028	488.94
254.261	474.94
254.494	494.94
254.727	490.94
254.96	485.94
255.193	489.94
255.426	500.94
255.659	489.94
255.892	486.94
256.124	478.94
256.357	522.94
256.59	536.94
256.823	534.94
257.056	495.94
257.289	513.94
257.521	531.94
257.754	534.94
257.987	530.94
258.22	527.94
258.452	535.94
258.685	547.94
258.918	547.94
259.151	537.94
259.383	550.94
259.616	544.94
259.849	547.94
260.081	561.94
260.314	562.94
260.547	578.94
260.779	566.94
261.012	573.94
261.244	585.94
261.477	542.94
261.71	558.94
261.942	585.94
262.175	585.94
262.407	566.94
262.64	583.94
262.872	595.94
263.105	577.94
263.337	604.94
263.57	609.94
263.802	600.94
264.035	575.94
264.267	596.94
264.499	606.94
264.732	637.94
264.964	612.94
265.197	609.94
265.429	630.94
265.661	609.94
265.894	626.94
266.126	637.94
266.358	631.94
266.591	639.94
266.823	652.94
267.055	647.94
267.287	637.94
267.52	658.94
267.752	649.94
267.984	646.94
268.216	661.94
268.448	647.94
268.681	683.94
268.913	655.94
269.145	684.94
269.377	674.94
269.609	673.94
269.841	675.94
270.073	680.94
270.306	673.94
270.538	682.94
270.77	677.94
271.002	654.94
271.234	682.94
271.466	671.94
271.698	712.94
271.93	695.94
272.162	714.94
272.394	692.94
272.626	719.94
272.858	729.94
273.09	718.94
273.322	727.94
273.553	711.94
273.785	728.94
274.017	729.94
274.249	758.94
274.481	749.94
274.713	707.94
274.945	738.94
275.176	764.94
275.408	752.94
275.64	765.94
275.872	755.94
276.104	740.94
276.335	771.94
276.567	766.94
276.799	764.94
277.031	756.94
277.262	793.94
277.494	794.94
277.726	786.94
277.957	811.94
278.189	782.94
278.421	804.94
278.652	791.94
278.884	815.94
279.115	799.94
279.347	810.94
279.579	799.94
279.81	823.94
280.042	839.94
280.273	807.94
280.505	836.94
280.736	850.94
280.968	828.94
281.199	825.94
281.431	825.94
281.662	845.94
281.894	860.94
282.125	833.94
282.356	875.94
282.588	844.94
282.819	834.94
283.051	874.94
283.282	867.94
283.513	890.94
283.745	878.94
283.976	895.94
284.207	868.94
284.439	864.94
284.67	865.94
284.901	886.94
285.132	889.94
285.364	869.94
285.595	901.94
285.826	880.94
286.057	921.94
286.288	919.94
286.52	892.94
286.751	913.94
286.982	913.94
287.213	909.94
287.444	906.94
287.675	914.94
287.906	912.94
288.138	949.94
288.369	926.94
288.6	935.94
288.831	948.94
289.062	936.94
289.293	924.94
289.524	934.94
289.755	940.94
289.986	938.94
290.217	925.94
290.448	956.94
290.679	935.94
290.91	945.94
291.141	931.94
291.371	916.94
291.602	971.94
291.833	943.94
292.064	927.94
292.295	959.94
292.526	948.94
292.757	968.94
292.987	939.94
293.218	928.94
293.449	951.94
293.68	964.94
293.91	974.94
294.141	973.94
294.372	952.94
294.603	947.94
294.833	957.94
295.064	950.94
295.295	961.94
295.525	970.94
295.756	982.94
295.987	988.94
296.217	988.94
296.448	1007.94
296.679	989.94
296.909	982.94
297.14	1001.94
297.37	995.94
297.601	1025.94
297.831	1015.94
298.062	1032.94
298.292	1001.94
298.523	1025.94
298.753	1058.94
298.984	1054.94
299.214	1033.94
299.445	1026.94
299.675	1040.94
299.905	1053.94
300.136	1016.94
300.366	1027.94
300.597	1060.94
300.827	1111.94
301.057	1071.94
301.288	1087.94
301.518	1089.94
301.748	1107.94
301.979	1094.94
302.209	1109.94
302.439	1111.94
302.669	1090.94
302.9	1089.94
303.13	1091.94
303.36	1111.94
303.59	1107.94
303.82	1083.94
304.051	1113.94
304.281	1094.94
304.511	1102.94
304.741	1115.94
304.971	1097.94
305.201	1101.94
305.431	1104.94
305.661	1077.94
305.891	1100.94
306.121	1053.94
306.352	1074.94
306.582	1077.94
306.812	1058.94
307.042	1104.94
307.272	1091.94
307.502	1051.94
307.731	1066.94
307.961	1060.94
308.191	1118.94
308.421	1075.94
308.651	1078.94
308.881	1053.94
309.111	1077.94
309.341	1065.94
309.571	1072.94
309.8	1094.94
310.03	1098.94
310.26	1104.94
310.49	1081.94
310.72	1055.94
310.949	1047.94
311.179	1122.94
311.409	1085.94
311.639	1099.94
311.868	1138.94
312.098	1156.94
312.328	1105.94
312.557	1133.94
312.787	1117.94
313.017	1137.94
313.246	1146.94
313.476	1166.94
313.706	1183.94
313.935	1185.94
314.165	1150.94
314.394	1191.94
314.624	1184.94
314.853	1144.94
315.083	1149.94
315.312	1142.94
315.542	1188.94
315.771	1163.94
316.001	1199.94
316.23	1162.94
316.46	1153.94
316.689	1180.94
316.919	1159.94
317.148	1148.94
317.377	1164.94
317.607	1145.94
317.836	1163.94
318.065	1206.94
318.295	1211.94
318.524	1201.94
318.753	1163.94
318.983	1142.94
319.212	1097.94
319.441	1180.94
319.67	1145.94
319.9	1172.94
320.129	1149.94
320.358	1119.94
320.587	1149.94
320.816	1155.94
321.046	1179.94
321.275	1162.94
321.504	1161.94
321.733	1165.94
321.962	1172.94
322.191	1171.94
322.42	1162.94
322.649	1172.94
322.878	1157.94
323.108	1167.94
323.337	1191.94
323.566	1187.94
323.795	1210.94
324.024	1204.94
324.253	1213.94
324.482	1172.94
324.71	1214.94
324.939	1266.94
325.168	1246.94
325.397	1222.94
325.626	1239.94
325.855	1218.94
326.084	1245.94
326.313	1250.94
326.542	1254.94
326.77	1265.94
326.999	1256.94
327.228	1237.94
327.457	1274.94
327.686	1253.94
327.914	1242.94
328.143	1259.94
328.372	1280.94
328.6	1289.94
328.829	1274.94
329.058	1286.94
329.287	1273.94
329.515	1250.94
329.744	1265.94
329.972	1295.94
330.201	1300.94
330.43	1315.94
330.658	1307.94
330.887	1289.94
331.115	1334.94
331.344	1329.94
331.572	1343.94
331.801	1371.94
332.03	1379.94
332.258	1402.94
332.486	1425.94
332.715	1481.94
332.943	1471.94
333.172	1569.94
333.4	1613.94
333.629	1615.94
333.857	1637.94
334.085	1638.94
334.314	1643.94
334.542	1560.94
334.771	1622.94
334.999	1551.94
335.227	1582.94
335.455	1572.94
335.684	1538.94
335.912	1552.94
336.14	1565.94
336.369	1537.94
336.597	1526.94
336.825	1512.94
337.053	1545.94
337.281	1464.94
337.51	1454.94
337.738	1467.94
337.966	1434.94
338.194	1415.94
338.422	1387.94
338.65	1345.94
338.878	1379.94
339.106	1386.94
339.334	1431.94
339.562	1401.94
339.79	1365.94
340.018	1371.94
340.246	1340.94
340.474	1320.94
340.702	1335.94
340.93	1329.94
341.158	1346.94
341.386	1339.94
341.614	1354.94
341.842	1339.94
342.07	1331.94
342.298	1325.94
342.526	1333.94
342.754	1334.94
342.981	1320.94
343.209	1387.94
343.437	1423.94
343.665	1471.94
343.893	1522.94
344.12	1557.94
344.348	1560.94
344.576	1467.94
344.804	1454.94
345.031	1379.94
345.259	1364.94
345.487	1319.94
345.714	1335.94
345.942	1330.94
346.17	1320.94
346.397	1323.94
346.625	1283.94
346.853	1266.94
347.08	1277.94
347.308	1285.94
347.535	1280.94
347.763	1282.94
347.99	1273.94
348.218	1277.94
348.445	1259.94
348.673	1256.94
348.9	1252.94
349.128	1250.94
349.355	1252.94
349.583	1239.94
349.81	1229.94
350.037	1233.94
350.265	1227.94
350.492	1240.94
350.72	1211.94
350.947	1243.94
351.174	1250.94
351.402	1223.94
351.629	1242.94
351.856	1251.94
352.083	1212.94
352.311	1243.94
352.538	1189.94
352.765	1233.94
352.992	1212.94
353.22	1219.94
353.447	1197.94
353.674	1177.94
353.901	1217.94
354.128	1221.94
354.355	1223.94
354.583	1233.94
354.81	1246.94
355.037	1240.94
355.264	1240.94
355.491	1218.94
355.718	1232.94
355.945	1217.94
356.172	1224.94
356.399	1221.94
356.626	1236.94
356.853	1226.94
357.08	1230.94
357.307	1233.94
357.534	1220.94
357.761	1224.94
357.988	1262.94
358.215	1225.94
358.441	1227.94
358.668	1198.94
358.895	1230.94
359.122	1220.94
359.349	1234.94
359.576	1243.94
359.802	1227.94
360.029	1221.94
360.256	1226.94
360.483	1214.94
360.709	1229.94
360.936	1275.94
361.163	1222.94
361.39	1237.94
361.616	1226.94
361.843	1238.94
362.07	1246.94
362.296	1222.94
362.523	1234.94
362.749	1254.94
362.976	1254.94
363.203	1238.94
363.429	1203.94
363.656	1193.94
363.882	1250.94
364.109	1223.94
364.335	1230.94
364.562	1204.94
364.788	1208.94
365.015	1230.94
365.241	1215.94
365.468	1225.94
365.694	1244.94
365.92	1255.94
366.147	1220.94
366.373	1203.94
366.599	1242.94
366.826	1241.94
367.052	1212.94
367.278	1197.94
367.505	1239.94
367.731	1257.94
367.957	1245.94
368.184	1235.94
368.41	1275.94
368.636	1256.94
368.862	1272.94
369.089	1236.94
369.315	1268.94
369.541	1279.94
369.767	1258.94
369.993	1257.94
370.219	1271.94
370.445	1289.94
370.672	1297.94
370.898	1321.94
371.124	1368.94
371.35	1343.94
371.576	1332.94
371.802	1330.94
372.028	1327.94
372.254	1351.94
372.48	1383.94
372.706	1369.94
372.932	1363.94
373.158	1391.94
373.384	1331.94
373.61	1314.94
373.835	1337.94
374.061	1370.94
374.287	1367.94
374.513	1395.94
374.739	1406.94
374.965	1442.94
375.191	1445.94
375.416	1438.94
375.642	1395.94
375.868	1393.94
376.094	1373.94
376.319	1382.94
376.545	1382.94
376.771	1395.94
376.997	1317.94
377.222	1347.94
377.448	1347.94
377.674	1332.94
377.899	1335.94
378.125	1326.94
378.35	1303.94
378.576	1331.94
378.802	1325.94
379.027	1303.94
379.253	1345.94
379.478	1299.94
379.704	1347.94
379.929	1295.94
380.155	1301.94
380.38	1322.94
380.606	1319.94
380.831	1315.94
381.057	1332.94
381.282	1320.94
381.507	1333.94
381.733	1351.94
381.958	1360.94
382.184	1398.94
382.409	1394.94
382.634	1371.94
382.86	1396.94
383.085	1380.94
383.31	1404.94
383.535	1411.94
383.761	1453.94
383.986	1505.94
384.211	1485.94
384.436	1534.94
384.662	1514.94
384.887	1551.94
385.112	1557.94
385.337	1571.94
385.562	1587.94
385.787	1602.94
386.013	1618.94
386.238	1625.94
386.463	1609.94
386.688	1633.94
386.913	1575.94
387.138	1602.94
387.363	1577.94
387.588	1590.94
387.813	1585.94
388.038	1589.94
388.263	1597.94
388.488	1597.94
388.713	1592.94
388.938	1562.94
389.163	1553.94
389.387	1574.94
389.612	1552.94
389.837	1551.94
390.062	1554.94
390.287	1577.94
390.512	1549.94
390.736	1567.94
390.961	1592.94
391.186	1618.94
391.411	1677.94
391.636	1721.94
391.86	1751.94
392.085	1752.94
392.31	1746.94
392.534	1749.94
392.759	1747.94
392.984	1752.94
393.208	1773.94
393.433	2041.94
393.658	2202.94
393.882	1752.94
394.107	1680.94
394.331	1726.94
394.556	1683.94
394.78	1666.94
395.005	1678.94
395.229	1733.94
395.454	1748.94
395.678	1739.94
395.903	1768.94
396.127	1758.94
396.352	1772.94
396.576	1757.94
396.801	1853.94
397.025	2061.94
397.249	1940.94
397.474	1816.94
397.698	1835.94
397.922	1815.94
398.147	1811.94
398.371	1866.94
398.595	1917.94
398.82	1951.94
399.044	2072.94
399.268	2265.94
399.492	2489.94
399.717	2754.94
399.941	2727.94
400.165	2569.94
400.389	2355.94
400.613	2220.94
400.837	2091.94
401.062	2051.94
401.286	2010.94
401.51	2024.94
401.734	1982.94
401.958	2004.94
402.182	1984.94
402.406	1970.94
402.63	2026.94
402.854	2067.94
403.078	2089.94
403.302	2089.94
403.526	2126.94
403.75	2172.94
403.974	2166.94
404.198	2166.94
404.422	2183.94
404.645	2169.94
404.869	2145.94
405.093	2195.94
405.317	2108.94
405.541	2149.94
405.765	2100.94
405.988	2129.94
406.212	2126.94
406.436	2153.94
406.66	2197.94
406.883	2193.94
407.107	2316.94
407.331	2414.94
407.555	2490.94
407.778	2483.94
408.002	2441.94
408.226	2388.94
408.449	2365.94
408.673	2264.94
408.896	2221.94
409.12	2163.94
409.344	2191.94
409.567	2181.94
409.791	2156.94
410.014	2171.94
410.238	2137.94
410.461	2122.94
410.685	2125.94
410.908	2091.94
411.132	2103.94
411.355	2016.94
411.578	2069.94
411.802	2036.94
412.025	2066.94
412.249	2066.94
412.472	2024.94
412.695	1986.94
412.919	2018.94
413.142	2035.94
413.365	2005.94
413.589	2003.94
413.812	1956.94
414.035	1924.94
414.258	1974.94
414.482	1982.94
414.705	1980.94
414.928	1994.94
415.151	1958.94
415.374	1950.94
415.597	1915.94
415.821	1907.94
416.044	1893.94
416.267	1916.94
416.49	1927.94
416.713	1915.94
416.936	1942.94
417.159	1900.94
417.382	1905.94
417.605	1870.94
417.828	1901.94
418.051	1921.94
418.274	1885.94
418.497	1937.94
418.72	1919.94
418.943	1927.94
419.166	2051.94
419.389	2171.94
419.611	2112.94
419.834	2058.94
420.057	2027.94
420.28	1947.94
420.503	1897.94
420.726	1868.94
420.948	1857.94
421.171	1897.94
421.394	1878.94
421.617	1855.94
421.839	1892.94
422.062	1899.94
422.285	1886.94
422.507	1966.94
422.73	1980.94
422.953	2004.94
423.175	1952.94
423.398	1939.94
423.621	1961.94
423.843	1971.94
424.066	2005.94
424.288	1944.94
424.511	1994.94
424.733	1943.94
424.956	1929.94
425.178	1938.94
425.401	1909.94
425.623	1871.94
425.846	1873.94
426.068	1863.94
426.291	1835.94
426.513	1820.94
426.735	1781.94
426.958	1833.94
427.18	1751.94
427.402	1818.94
427.625	1783.94
427.847	1786.94
428.069	1735.94
428.292	1719.94
428.514	1743.94
428.736	1731.94
428.958	1761.94
429.181	1678.94
429.403	1702.94
429.625	1703.94
429.847	1658.94
430.069	1685.94
430.292	1717.94
430.514	1710.94
430.736	1704.94
430.958	1710.94
431.18	1690.94
431.402	1741.94
431.624	1719.94
431.846	1713.94
432.068	1735.94
432.29	1766.94
432.512	1720.94
432.734	1732.94
432.956	1700.94
433.178	1768.94
433.4	1713.94
433.622	1747.94
433.844	1794.94
434.066	1767.94
434.287	1781.94
434.509	1807.94
434.731	1860.94
434.953	1920.94
435.175	1936.94
435.397	1895.94
435.618	1857.94
435.84	1753.94
436.062	1777.94
436.284	1755.94
436.505	1736.94
436.727	1772.94
436.949	1732.94
437.17	1704.94
437.392	1695.94
437.614	1681.94
437.835	1653.94
438.057	1691.94
438.278	1629.94
438.5	1651.94
438.721	1633.94
438.943	1656.94
439.165	1648.94
439.386	1677.94
439.608	1666.94
439.829	1719.94
440.05	1722.94
440.272	1710.94
440.493	1722.94
440.715	1753.94
440.936	1759.94
441.158	1777.94
441.379	1809.94
441.6	1846.94
441.822	1852.94
442.043	1872.94
442.264	1857.94
442.486	1832.94
442.707	1859.94
442.928	1812.94
443.149	1860.94
443.371	1811.94
443.592	1866.94
443.813	1901.94
444.034	1893.94
444.255	1953.94
444.476	2026.94
444.698	2083.94
444.919	2140.94
445.14	2178.94
445.361	2018.94
445.582	1970.94
445.803	1838.94
446.024	1801.94
446.245	1779.94
446.466	1728.94
446.687	1706.94
446.908	1714.94
447.129	1655.94
447.35	1644.94
447.571	1648.94
447.792	1627.94
448.013	1607.94
448.234	1595.94
448.455	1580.94
448.675	1560.94
448.896	1562.94
449.117	1515.94
449.338	1541.94
449.559	1583.94
449.779	1536.94
450	1555.94
450.221	1543.94
450.442	1571.94
450.662	1522.94
450.883	1534.94
451.104	1588.94
451.324	1561.94
451.545	1561.94
451.766	1575.94
451.986	1530.94
452.207	1525.94
452.428	1508.94
452.648	1497.94
452.869	1510.94
453.089	1469.94
453.31	1499.94
453.53	1484.94
453.751	1471.94
453.971	1473.94
454.192	1483.94
454.412	1470.94
454.633	1472.94
454.853	1430.94
455.073	1462.94
455.294	1451.94
455.514	1450.94
455.734	1382.94
455.955	1448.94
456.175	1425.94
456.395	1427.94
456.616	1434.94
456.836	1432.94
457.056	1468.94
457.276	1431.94
457.497	1487.94
457.717	1482.94
457.937	1487.94
458.157	1505.94
458.377	1516.94
458.598	1543.94
458.818	1605.94
459.038	1602.94
459.258	1633.94
459.478	1722.94
459.698	1767.94
459.918	1761.94
460.138	1826.94
460.358	1886.94
460.578	1927.94
460.798	1975.94
461.018	1974.94
461.238	1962.94
461.458	1945.94
461.678	1915.94
461.898	1973.94
462.118	2001.94
462.338	2086.94
462.558	2142.94
462.777	2201.94
462.997	2354.94
463.217	2470.94
463.437	2447.94
463.657	2340.94
463.876	2277.94
464.096	2257.94
464.316	2238.94
464.536	2232.94
464.755	2161.94
464.975	2109.94
465.195	2049.94
465.414	1949.94
465.634	1811.94
465.854	1753.94
466.073	1763.94
466.293	1743.94
466.512	1705.94
466.732	1650.94
466.951	1630.94
467.171	1665.94
467.391	1612.94
467.61	1632.94
467.829	1621.94
468.049	1605.94
468.268	1529.94
468.488	1573.94
468.707	1568.94
468.927	1605.94
469.146	1563.94
469.365	1603.94
469.585	1615.94
469.804	1618.94
470.023	1674.94
470.243	1670.94
470.462	1657.94
470.681	1681.94
470.901	1667.94
471.12	1693.94
471.339	1630.94
471.558	1624.94
471.777	1609.94
471.997	1620.94
472.216	1599.94
472.435	1570.94
472.654	1525.94
472.873	1539.94
473.092	1555.94
473.311	1580.94
473.53	1527.94
473.749	1539.94
473.968	1535.94
474.187	1522.94
474.406	1554.94
474.625	1581.94
474.844	1556.94
475.063	1575.94
475.282	1567.94
475.501	1579.94
475.72	1575.94
475.939	1596.94
476.158	1611.94
476.377	1613.94
476.596	1661.94
476.814	1626.94
477.033	1659.94
477.252	1723.94
477.471	1714.94
477.69	1724.94
477.908	1805.94
478.127	1798.94
478.346	1823.94
478.564	1857.94
478.783	1894.94
479.002	1934.94
479.22	1989.94
479.439	1951.94
479.658	1958.94
479.876	1949.94
480.095	1958.94
480.313	2020.94
480.532	2068.94
480.751	2084.94
480.969	1996.94
481.188	2002.94
481.406	1917.94
481.624	1911.94
481.843	1883.94
482.061	1877.94
482.28	1870.94
482.498	1849.94
482.717	1871.94
482.935	1916.94
483.153	1908.94
483.372	1903.94
483.59	1870.94
483.808	1907.94
484.027	1926.94
484.245	1921.94
484.463	1942.94
484.681	1956.94
484.9	1961.94
485.118	1973.94
485.336	2000.94
485.554	1994.94
485.772	1996.94
485.99	1975.94
486.209	2011.94
486.427	1986.94
486.645	1998.94
486.863	1985.94
487.081	1965.94
487.299	2002.94
487.517	1952.94
487.735	1956.94
487.953	1959.94
488.171	1973.94
488.389	1996.94
488.607	1923.94
488.825	1912.94
489.043	1952.94
489.261	1906.94
489.479	1930.94
489.696	1929.94
489.914	1931.94
490.132	1946.94
490.35	1923.94
490.568	1947.94
490.786	1927.94
491.003	1947.94
491.221	1901.94
491.439	1924.94
491.657	1937.94
491.874	1922.94
492.092	1897.94
492.31	1939.94
492.527	1966.94
492.745	1943.94
492.963	1932.94
493.18	1956.94
493.398	1931.94
493.615	1972.94
493.833	1958.94
494.05	1977.94
494.268	2015.94
494.485	2014.94
494.703	2045.94
494.92	2035.94
495.138	1998.94
495.355	2006.94
495.573	2009.94
495.79	2056.94
496.008	2094.94
496.225	2050.94
496.442	2078.94
496.66	2094.94
496.877	2092.94
497.094	2154.94
497.312	2195.94
497.529	2202.94
497.746	2259.94
497.963	2365.94
498.181	2456.94
498.398	2499.94
498.615	2672.94
498.832	2806.94
499.049	2956.94
499.267	3118.94
499.484	3432.94
499.701	3699.94
499.918	4028.94
500.135	4442.94
500.352	4801.94
500.569	5041.94
500.786	4950.94
501.003	4733.94
501.22	4367.94
501.437	3918.94
501.654	3610.94
501.871	3343.94
502.088	3119.94
502.305	2892.94
502.522	2770.94
502.739	2709.94
502.956	2521.94
503.172	2471.94
503.389	2397.94
503.606	2321.94
503.823	2233.94
504.04	2279.94
504.256	2207.94
504.473	2247.94
504.69	2301.94
504.907	2233.94
505.123	2119.94
505.34	2025.94
505.557	1990.94
505.773	1886.94
505.99	1903.94
506.207	1828.94
506.423	1807.94
506.64	1762.94
506.856	1765.94
507.073	1725.94
507.289	1743.94
507.506	1721.94
507.722	1733.94
507.939	1691.94
508.155	1638.94
508.372	1645.94
508.588	1635.94
508.805	1647.94
509.021	1606.94
509.238	1650.94
509.454	1620.94
509.67	1588.94
509.887	1618.94
510.103	1604.94
510.319	1573.94
510.536	1553.94
510.752	1579.94
510.968	1566.94
511.184	1545.94
511.401	1561.94
511.617	1543.94
511.833	1551.94
512.049	1519.94
512.265	1514.94
512.481	1517.94
512.698	1545.94
512.914	1543.94
513.13	1535.94
513.346	1542.94
513.562	1533.94
513.778	1557.94
513.994	1555.94
514.21	1560.94
514.426	1529.94
514.642	1577.94
514.858	1567.94
515.074	1576.94
515.29	1601.94
515.506	1610.94
515.721	1615.94
515.937	1665.94
516.153	1678.94
516.369	1716.94
516.585	1733.94
516.801	1781.94
517.016	1875.94
517.232	1941.94
517.448	1978.94
517.664	2049.94
517.879	2056.94
518.095	2032.94
518.311	1987.94
518.527	1959.94
518.742	1895.94
518.958	1826.94
519.173	1749.94
519.389	1758.94
519.605	1688.94
519.82	1642.94
520.036	1654.94
520.251	1633.94
520.467	1574.94
520.682	1548.94
520.898	1521.94
521.113	1542.94
521.329	1528.94
521.544	1515.94
521.76	1489.94
521.975	1473.94
522.19	1459.94
522.406	1475.94
522.621	1491.94
522.836	1457.94
523.052	1428.94
523.267	1427.94
523.482	1435.94
523.698	1446.94
523.913	1410.94
524.128	1433.94
524.343	1395.94
524.559	1379.94
524.774	1395.94
524.989	1403.94
525.204	1405.94
525.419	1404.94
525.634	1402.94
525.849	1388.94
526.064	1399.94
526.28	1381.94
526.495	1367.94
526.71	1364.94
526.925	1365.94
527.14	1370.94
527.355	1383.94
527.57	1359.94
527.785	1394.94
527.999	1373.94
528.214	1395.94
528.429	1356.94
528.644	1365.94
528.859	1345.94
529.074	1358.94
529.289	1378.94
529.503	1359.94
529.718	1372.94
529.933	1316.94
530.148	1326.94
530.363	1321.94
530.577	1349.94
530.792	1334.94
531.007	1370.94
531.221	1345.94
531.436	1355.94
531.651	1325.94
531.865	1346.94
532.08	1335.94
532.295	1333.94
532.509	1318.94
532.724	1340.94
532.938	1350.94
533.153	1333.94
533.367	1359.94
533.582	1325.94
533.796	1354.94
534.011	1357.94
534.225	1314.94
534.44	1304.94
534.654	1307.94
534.868	1343.94
535.083	1307.94
535.297	1299.94
535.511	1306.94
535.726	1293.94
535.94	1281.94
536.154	1258.94
536.369	1289.94
536.583	1268.94
536.797	1226.94
537.011	1250.94
537.225	1215.94
537.44	1263.94
537.654	1235.94
537.868	1251.94
538.082	1222.94
538.296	1243.94
538.51	1216.94
538.724	1249.94
538.938	1234.94
539.153	1210.94
539.367	1222.94
539.581	1179.94
539.795	1183.94
540.009	1190.94
540.222	1194.94
540.436	1235.94
540.65	1195.94
540.864	1213.94
541.078	1218.94
541.292	1214.94
541.506	1196.94
541.72	1181.94
541.934	1191.94
542.147	1190.94
542.361	1194.94
542.575	1196.94
542.789	1188.94
543.002	1189.94
543.216	1160.94
543.43	1179.94
543.644	1149.94
543.857	1141.94
544.071	1211.94
544.285	1190.94
544.498	1181.94
544.712	1188.94
544.925	1195.94
545.139	1211.94
545.352	1193.94
545.566	1235.94
545.779	1191.94
545.993	1228.94
546.206	1197.94
546.42	1157.94
546.633	1204.94
546.847	1210.94
547.06	1214.94
547.274	1226.94
547.487	1186.94
547.7	1217.94
547.914	1212.94
548.127	1211.94
548.34	1203.94
548.554	1208.94
548.767	1228.94
548.98	1239.94
549.193	1203.94
549.407	1208.94
549.62	1255.94
549.833	1230.94
550.046	1218.94
550.259	1215.94
550.473	1179.94
550.686	1205.94
550.899	1181.94
551.112	1206.94
551.325	1194.94
551.538	1182.94
551.751	1219.94
551.964	1189.94
552.177	1194.94
552.39	1225.94
552.603	1266.94
552.816	1260.94
553.029	1287.94
553.242	1259.94
553.455	1309.94
553.667	1281.94
553.88	1286.94
554.093	1276.94
554.306	1250.94
554.519	1193.94
554.732	1191.94
554.944	1155.94
555.157	1148.94
555.37	1145.94
555.583	1129.94
555.795	1117.94
556.008	1103.94
556.221	1065.94
556.433	1093.94
556.646	1051.94
556.859	1083.94
557.071	1061.94
557.284	1052.94
557.496	1086.94
557.709	1037.94
557.921	1047.94
558.134	1018.94
558.346	1005.94
558.559	1040.94
558.771	1009.94
558.984	962.94
559.196	997.94
559.409	1009.94
559.621	1003.94
559.833	978.94
560.046	995.94
560.258	978.94
560.47	970.94
560.683	995.94
560.895	995.94
561.107	958.94
561.32	994.94
561.532	1003.94
561.744	1015.94
561.956	996.94
562.168	986.94
562.381	976.94
562.593	986.94
562.805	1000.94
563.017	1029.94
563.229	1010.94
563.441	1007.94
563.653	1013.94
563.865	1022.94
564.077	1025.94
564.289	1037.94
564.501	1060.94
564.713	1051.94
564.925	1093.94
565.137	1109.94
565.349	1133.94
565.561	1146.94
565.773	1194.94
565.985	1221.94
566.197	1268.94
566.408	1373.94
566.62	1432.94
566.832	1493.94
567.044	1571.94
567.255	1556.94
567.467	1605.94
567.679	1658.94
567.891	1728.94
568.102	1750.94
568.314	1644.94
568.526	1554.94
568.737	1420.94
568.949	1329.94
569.161	1275.94
569.372	1203.94
569.584	1153.94
569.795	1073.94
570.007	1075.94
570.218	1012.94
570.43	1009.94
570.641	1039.94
570.853	1010.94
571.064	1012.94
571.276	982.94
571.487	967.94
571.698	981.94
571.91	928.94
572.121	917.94
572.333	873.94
572.544	879.94
572.755	868.94
572.966	857.94
573.178	861.94
573.389	832.94
573.6	822.94
573.811	811.94
574.023	820.94
574.234	815.94
574.445	805.94
574.656	813.94
574.867	813.94
575.078	821.94
575.289	804.94
575.501	830.94
575.712	770.94
575.923	765.94
576.134	756.94
576.345	760.94
576.556	759.94
576.767	783.94
576.978	787.94
577.188	741.94
577.399	771.94
577.61	737.94
577.821	751.94
578.032	761.94
578.243	715.94
578.454	734.94
578.665	750.94
578.875	709.94
579.086	752.94
579.297	700.94
579.508	730.94
579.718	698.94
579.929	699.94
580.14	710.94
580.35	692.94
580.561	699.94
580.772	710.94
580.982	692.94
581.193	708.94
581.403	699.94
581.614	710.94
581.825	676.94
582.035	696.94
582.246	661.94
582.456	647.94
582.667	665.94
582.877	699.94
583.087	670.94
583.298	677.94
583.508	667.94
583.719	694.94
583.929	647.94
584.139	683.94
584.35	661.94
584.56	636.94
584.77	663.94
584.981	651.94
585.191	650.94
585.401	645.94
585.611	667.94
585.821	653.94
586.032	660.94
586.242	641.94
586.452	653.94
586.662	639.94
586.872	625.94
587.082	636.94
587.292	651.94
587.502	648.94
587.713	639.94
587.923	636.94
588.133	630.94
588.343	624.94
588.553	621.94
588.762	649.94
588.972	653.94
589.182	667.94
589.392	677.94
589.602	641.94
589.812	643.94
590.022	665.94
590.232	644.94
590.441	646.94
590.651	633.94
590.861	652.94
591.071	661.94
591.281	659.94
591.49	669.94
591.7	675.94
591.91	669.94
592.119	695.94
592.329	711.94
592.539	753.94
592.748	718.94
592.958	737.94
593.167	758.94
593.377	768.94
593.587	791.94
593.796	771.94
594.006	798.94
594.215	789.94
594.424	801.94
594.634	774.94
594.843	753.94
595.053	700.94
595.262	701.94
595.472	678.94
595.681	665.94
595.89	653.94
596.1	646.94
596.309	641.94
596.518	649.94
596.727	606.94
596.937	606.94
597.146	587.94
597.355	602.94
597.564	588.94
597.774	586.94
597.983	564.94
598.192	547.94
598.401	558.94
598.61	564.94
598.819	547.94
599.028	546.94
599.237	545.94
599.446	523.94
599.655	550.94
599.864	556.94
600.073	532.94
600.282	547.94
600.491	518.94
600.7	538.94
600.909	514.94
601.118	514.94
601.327	526.94
601.536	531.94
601.745	491.94
601.953	541.94
602.162	515.94
602.371	522.94
602.58	508.94
602.789	516.94
602.997	510.94
603.206	514.94
603.415	511.94
603.623	512.94
603.832	516.94
604.041	489.94
604.249	502.94
604.458	488.94
604.666	480.94
604.875	482.94
605.084	493.94
605.292	503.94
605.501	483.94
605.709	499.94
605.918	501.94
606.126	497.94
606.334	467.94
606.543	492.94
606.751	478.94
606.96	467.94
607.168	484.94
607.376	481.94
607.585	483.94
607.793	479.94
608.001	483.94
608.21	473.94
608.418	449.94
608.626	473.94
608.834	467.94
609.043	492.94
609.251	458.94
609.459	469.94
609.667	478.94
609.875	446.94
610.083	474.94
610.291	468.94
610.499	469.94
610.707	440.94
610.916	442.94
611.124	463.94
611.332	452.94
611.54	435.94
611.748	451.94
611.955	460.94
612.163	467.94
612.371	443.94
612.579	436.94
612.787	440.94
612.995	446.94
613.203	451.94
613.411	433.94
613.618	454.94
613.826	441.94
614.034	440.94
614.242	446.94
614.449	440.94
614.657	442.94
614.865	432.94
615.072	438.94
615.28	450.94
615.488	456.94
615.695	436.94
615.903	455.94
616.111	454.94
616.318	442.94
616.526	447.94
616.733	472.94
616.941	452.94
617.148	438.94
617.356	467.94
617.563	450.94
617.771	461.94
617.978	433.94
618.185	444.94
618.393	445.94
618.6	433.94
618.807	434.94
619.015	446.94
619.222	428.94
619.429	417.94
619.637	426.94
619.844	413.94
620.051	445.94
620.258	425.94
620.466	405.94
620.673	400.94
620.88	424.94
621.087	403.94
621.294	412.94
621.501	425.94
621.708	400.94
621.915	417.94
622.122	409.94
622.329	406.94
622.536	396.94
622.743	392.94
622.95	415.94
623.157	395.94
623.364	404.94
623.571	371.94
623.778	398.94
623.985	389.94
624.192	381.94
624.399	395.94
624.606	393.94
624.812	374.94
625.019	401.94
625.226	392.94
625.433	376.94
625.639	364.94
625.846	391.94
626.053	371.94
626.259	379.94
626.466	369.94
626.673	380.94
626.879	371.94
627.086	354.94
627.293	358.94
627.499	362.94
627.706	376.94
627.912	369.94
628.119	358.94
628.325	359.94
628.532	350.94
628.738	370.94
628.945	354.94
629.151	359.94
629.357	341.94
629.564	332.94
629.77	357.94
629.976	345.94
630.183	337.94
630.389	347.94
630.595	363.94
630.802	356.94
631.008	342.94
631.214	328.94
631.42	349.94
631.627	334.94
631.833	340.94
632.039	324.94
632.245	336.94
632.451	343.94
632.657	347.94
632.863	343.94
633.069	322.94
633.275	339.94
633.481	330.94
633.688	346.94
633.893	307.94
634.099	326.94
634.305	308.94
634.511	329.94
634.717	315.94
634.923	319.94
635.129	309.94
635.335	318.94
635.541	324.94
635.747	328.94
635.952	294.94
636.158	304.94
636.364	327.94
636.57	317.94
636.775	302.94
636.981	315.94
637.187	309.94
637.392	314.94
637.598	318.94
637.804	318.94
638.009	296.94
638.215	313.94
638.421	310.94
638.626	291.94
638.832	303.94
639.037	315.94
639.243	311.94
639.448	298.94
639.654	315.94
639.859	274.94
640.065	303.94
640.27	308.94
640.475	292.94
640.681	277.94
640.886	297.94
641.091	309.94
641.297	289.94
641.502	307.94
641.707	278.94
641.913	306.94
642.118	318.94
642.323	294.94
642.528	294.94
642.733	282.94
642.939	293.94
643.144	287.94
643.349	292.94
643.554	291.94
643.759	282.94
643.964	289.94
644.169	288.94
644.374	291.94
644.579	287.94
644.784	300.94
644.989	291.94
645.194	301.94
645.399	287.94
645.604	289.94
645.809	305.94
646.014	285.94
646.219	305.94
646.423	309.94
646.628	304.94
646.833	301.94
647.038	298.94
647.243	317.94
647.447	315.94
647.652	321.94
647.857	304.94
648.062	319.94
648.266	332.94
648.471	314.94
648.676	319.94
648.88	319.94
649.085	316.94
649.289	299.94
649.494	302.94
649.698	303.94
649.903	282.94
650.107	302.94
650.312	301.94
650.516	303.94
650.721	298.94
650.925	309.94
651.13	301.94
651.334	291.94
651.539	306.94
651.743	267.94
651.947	275.94
652.152	298.94
652.356	276.94
652.56	271.94
652.764	278.94
652.969	266.94
653.173	283.94
653.377	277.94
653.581	279.94
653.785	276.94
653.99	283.94
654.194	291.94
654.398	274.94
654.602	298.94
654.806	278.94
655.01	305.94
655.214	278.94
655.418	291.94
655.622	313.94
655.826	303.94
656.03	332.94
656.234	334.94
656.438	340.94
656.642	362.94
656.846	326.94
657.049	302.94
657.253	282.94
657.457	257.94
657.661	229.94
657.865	237.94
658.068	202.94
658.272	202.94
658.476	189.94
658.68	186.94
658.883	161.94
659.087	155.94
659.291	154.94
659.494	167.94
659.698	143.94
659.901	152.94
660.105	126.94
660.309	119.94
660.512	134.94
660.716	127.94
660.919	127.94
661.123	106.94
661.326	97.94
661.53	116.94
661.733	96.94
661.936	102.94
662.14	105.94
662.343	105.94
662.546	76.94
662.75	105.94
662.953	106.94
663.156	99.94
663.36	90.94
663.563	99.94
663.766	97.94
663.969	76.94
664.173	83.94
664.376	85.94
664.579	89.94
664.782	81.94
664.985	88.94
665.188	80.94
665.391	87.94
665.594	94.94
665.797	73.94
666	98.94
666.203	91.94
666.406	79.94
666.609	85.94
666.812	92.94
667.015	87.94
667.218	88.94
667.421	86.94
667.624	63.94
667.827	87.94
668.03	81.94
668.232	95.94
668.435	77.94
668.638	77.94
668.841	74.94
669.043	81.94
669.246	91.94
669.449	83.94
669.651	79.94
669.854	85.94
670.057	73.94
670.259	85.94
670.462	89.94
670.665	77.94
670.867	100.94
671.07	91.94
671.272	87.94
671.475	85.94
671.677	90.94
671.88	76.94
672.082	86.94
672.284	83.94
672.487	75.94
672.689	81.94
672.892	85.94
