Data from NiCl2@0.125M.TitratingCurve.Agarose3%dH2O.NegLispCup.LampEnergy10.LIBS07252019_HRD10591_18-29-37-575.txt Node
Date: Thu Jul 25 18:29:37 EDT 2019
User: cochatt
Spectrometer: HR+D1059
Trigger mode: 1
Integration Time (sec): 1.000000E-1
Scans to average: 1
Electric dark correction enabled: true
Nonlinearity correction enabled: false
Boxcar width: 0
XAxis mode: Wavelengths
Number of Pixels in Spectrum: 2048
>>>>>Begin Spectral Data<<<<<
223.165	-14.5
223.4	-14.5
223.635	-14.5
223.869	-9.5
224.104	-18.5
224.338	-4.5
224.573	-20.5
224.808	-8.5
225.042	-11.5
225.277	9.5
225.511	-16.5
225.746	1.5
225.98	6.5
226.215	14.5
226.449	15.5
226.683	30.5
226.918	6.5
227.152	19.5
227.387	41.5
227.621	38.5
227.856	38.5
228.09	51.5
228.324	49.5
228.559	53.5
228.793	61.5
229.027	105.5
229.262	113.5
229.496	105.5
229.73	119.5
229.964	137.5
230.199	132.5
230.433	125.5
230.667	125.5
230.901	131.5
231.136	156.5
231.37	135.5
231.604	141.5
231.838	135.5
232.072	154.5
232.306	156.5
232.541	156.5
232.775	157.5
233.009	154.5
233.243	149.5
233.477	170.5
233.711	155.5
233.945	153.5
234.179	162.5
234.413	164.5
234.647	164.5
234.881	145.5
235.115	158.5
235.349	162.5
235.583	168.5
235.817	151.5
236.051	159.5
236.285	155.5
236.519	164.5
236.753	171.5
236.987	164.5
237.221	159.5
237.455	163.5
237.689	163.5
237.922	188.5
238.156	186.5
238.39	163.5
238.624	170.5
238.858	173.5
239.091	168.5
239.325	188.5
239.559	195.5
239.793	197.5
240.027	198.5
240.26	188.5
240.494	178.5
240.728	203.5
240.961	194.5
241.195	204.5
241.429	199.5
241.662	204.5
241.896	201.5
242.13	197.5
242.363	179.5
242.597	202.5
242.83	214.5
243.064	211.5
243.298	197.5
243.531	213.5
243.765	210.5
243.998	222.5
244.232	214.5
244.465	228.5
244.699	225.5
244.932	228.5
245.166	240.5
245.399	237.5
245.633	227.5
245.866	233.5
246.099	246.5
246.333	246.5
246.566	243.5
246.8	241.5
247.033	244.5
247.266	245.5
247.5	234.5
247.733	258.5
247.966	251.5
248.2	239.5
248.433	247.5
248.666	263.5
248.899	255.5
249.133	264.5
249.366	274.5
249.599	279.5
249.832	249.5
250.066	267.5
250.299	287.5
250.532	281.5
250.765	283.5
250.998	272.5
251.231	281.5
251.465	296.5
251.698	277.5
251.931	298.5
252.164	284.5
252.397	289.5
252.63	293.5
252.863	294.5
253.096	292.5
253.329	301.5
253.562	284.5
253.795	311.5
254.028	307.5
254.261	308.5
254.494	312.5
254.727	314.5
254.96	304.5
255.193	308.5
255.426	290.5
255.659	294.5
255.892	315.5
256.124	309.5
256.357	317.5
256.59	329.5
256.823	313.5
257.056	315.5
257.289	304.5
257.521	323.5
257.754	335.5
257.987	333.5
258.22	319.5
258.452	313.5
258.685	333.5
258.918	331.5
259.151	314.5
259.383	324.5
259.616	348.5
259.849	339.5
260.081	347.5
260.314	350.5
260.547	345.5
260.779	337.5
261.012	348.5
261.244	349.5
261.477	347.5
261.71	347.5
261.942	351.5
262.175	357.5
262.407	358.5
262.64	361.5
262.872	353.5
263.105	339.5
263.337	355.5
263.57	361.5
263.802	367.5
264.035	357.5
264.267	371.5
264.499	365.5
264.732	371.5
264.964	375.5
265.197	385.5
265.429	381.5
265.661	391.5
265.894	381.5
266.126	411.5
266.358	371.5
266.591	374.5
266.823	384.5
267.055	381.5
267.287	396.5
267.52	394.5
267.752	403.5
267.984	377.5
268.216	395.5
268.448	390.5
268.681	397.5
268.913	410.5
269.145	409.5
269.377	380.5
269.609	405.5
269.841	391.5
270.073	385.5
270.306	392.5
270.538	391.5
270.77	397.5
271.002	409.5
271.234	420.5
271.466	421.5
271.698	405.5
271.93	426.5
272.162	396.5
272.394	422.5
272.626	429.5
272.858	435.5
273.09	442.5
273.322	427.5
273.553	425.5
273.785	424.5
274.017	429.5
274.249	444.5
274.481	455.5
274.713	437.5
274.945	448.5
275.176	463.5
275.408	430.5
275.64	451.5
275.872	435.5
276.104	448.5
276.335	441.5
276.567	438.5
276.799	444.5
277.031	470.5
277.262	456.5
277.494	431.5
277.726	452.5
277.957	476.5
278.189	448.5
278.421	444.5
278.652	447.5
278.884	466.5
279.115	481.5
279.347	473.5
279.579	466.5
279.81	471.5
280.042	481.5
280.273	489.5
280.505	493.5
280.736	473.5
280.968	484.5
281.199	479.5
281.431	480.5
281.662	493.5
281.894	488.5
282.125	503.5
282.356	509.5
282.588	504.5
282.819	515.5
283.051	513.5
283.282	503.5
283.513	496.5
283.745	517.5
283.976	518.5
284.207	520.5
284.439	523.5
284.67	522.5
284.901	528.5
285.132	546.5
285.364	527.5
285.595	550.5
285.826	541.5
286.057	515.5
286.288	536.5
286.52	559.5
286.751	530.5
286.982	541.5
287.213	536.5
287.444	542.5
287.675	554.5
287.906	572.5
288.138	553.5
288.369	577.5
288.6	568.5
288.831	565.5
289.062	550.5
289.293	552.5
289.524	548.5
289.755	548.5
289.986	562.5
290.217	548.5
290.448	555.5
290.679	567.5
290.91	561.5
291.141	570.5
291.371	578.5
291.602	588.5
291.833	570.5
292.064	602.5
292.295	576.5
292.526	584.5
292.757	590.5
292.987	566.5
293.218	584.5
293.449	586.5
293.68	577.5
293.91	571.5
294.141	588.5
294.372	568.5
294.603	559.5
294.833	586.5
295.064	578.5
295.295	602.5
295.525	584.5
295.756	601.5
295.987	612.5
296.217	608.5
296.448	604.5
296.679	608.5
296.909	589.5
297.14	593.5
297.37	625.5
297.601	613.5
297.831	597.5
298.062	636.5
298.292	622.5
298.523	641.5
298.753	627.5
298.984	621.5
299.214	601.5
299.445	620.5
299.675	595.5
299.905	635.5
300.136	620.5
300.366	645.5
300.597	636.5
300.827	625.5
301.057	648.5
301.288	651.5
301.518	648.5
301.748	669.5
301.979	673.5
302.209	668.5
302.439	666.5
302.669	648.5
302.9	639.5
303.13	631.5
303.36	637.5
303.59	638.5
303.82	638.5
304.051	661.5
304.281	648.5
304.511	636.5
304.741	647.5
304.971	650.5
305.201	624.5
305.431	639.5
305.661	626.5
305.891	664.5
306.121	616.5
306.352	634.5
306.582	639.5
306.812	618.5
307.042	639.5
307.272	633.5
307.502	620.5
307.731	627.5
307.961	617.5
308.191	618.5
308.421	620.5
308.651	625.5
308.881	643.5
309.111	602.5
309.341	635.5
309.571	647.5
309.8	623.5
310.03	626.5
310.26	606.5
310.49	614.5
310.72	637.5
310.949	639.5
311.179	643.5
311.409	623.5
311.639	632.5
311.868	663.5
312.098	644.5
312.328	651.5
312.557	639.5
312.787	641.5
313.017	654.5
313.246	665.5
313.476	667.5
313.706	695.5
313.935	662.5
314.165	676.5
314.394	664.5
314.624	692.5
314.853	676.5
315.083	677.5
315.312	658.5
315.542	671.5
315.771	689.5
316.001	673.5
316.23	657.5
316.46	639.5
316.689	657.5
316.919	661.5
317.148	657.5
317.377	661.5
317.607	632.5
317.836	629.5
318.065	682.5
318.295	646.5
318.524	657.5
318.753	657.5
318.983	630.5
319.212	651.5
319.441	651.5
319.67	630.5
319.9	670.5
320.129	641.5
320.358	652.5
320.587	627.5
320.816	650.5
321.046	655.5
321.275	654.5
321.504	633.5
321.733	672.5
321.962	663.5
322.191	680.5
322.42	670.5
322.649	659.5
322.878	661.5
323.108	671.5
323.337	661.5
323.566	658.5
323.795	668.5
324.024	672.5
324.253	667.5
324.482	675.5
324.71	673.5
324.939	665.5
325.168	677.5
325.397	682.5
325.626	678.5
325.855	714.5
326.084	693.5
326.313	725.5
326.542	743.5
326.77	726.5
326.999	699.5
327.228	687.5
327.457	694.5
327.686	703.5
327.914	689.5
328.143	728.5
328.372	709.5
328.6	698.5
328.829	701.5
329.058	721.5
329.287	712.5
329.515	712.5
329.744	722.5
329.972	721.5
330.201	730.5
330.43	729.5
330.658	718.5
330.887	722.5
331.115	742.5
331.344	751.5
331.572	743.5
331.801	777.5
332.03	773.5
332.258	791.5
332.486	824.5
332.715	842.5
332.943	907.5
333.172	903.5
333.4	983.5
333.629	994.5
333.857	991.5
334.085	991.5
334.314	955.5
334.542	935.5
334.771	921.5
334.999	887.5
335.227	915.5
335.455	897.5
335.684	871.5
335.912	874.5
336.14	857.5
336.369	871.5
336.597	869.5
336.825	875.5
337.053	845.5
337.281	843.5
337.51	817.5
337.738	792.5
337.966	795.5
338.194	779.5
338.422	750.5
338.65	786.5
338.878	787.5
339.106	749.5
339.334	777.5
339.562	743.5
339.79	785.5
340.018	753.5
340.246	740.5
340.474	742.5
340.702	718.5
340.93	744.5
341.158	745.5
341.386	736.5
341.614	753.5
341.842	721.5
342.07	710.5
342.298	732.5
342.526	719.5
342.754	715.5
342.981	749.5
343.209	754.5
343.437	797.5
343.665	868.5
343.893	917.5
344.12	950.5
344.348	878.5
344.576	837.5
344.804	817.5
345.031	767.5
345.259	743.5
345.487	737.5
345.714	725.5
345.942	736.5
346.17	723.5
346.397	704.5
346.625	721.5
346.853	727.5
347.08	730.5
347.308	712.5
347.535	716.5
347.763	731.5
347.99	751.5
348.218	747.5
348.445	752.5
348.673	736.5
348.9	701.5
349.128	703.5
349.355	679.5
349.583	686.5
349.81	697.5
350.037	695.5
350.265	703.5
350.492	711.5
350.72	692.5
350.947	675.5
351.174	692.5
351.402	687.5
351.629	698.5
351.856	679.5
352.083	681.5
352.311	657.5
352.538	656.5
352.765	655.5
352.992	671.5
353.22	695.5
353.447	673.5
353.674	689.5
353.901	681.5
354.128	672.5
354.355	695.5
354.583	682.5
354.81	697.5
355.037	704.5
355.264	689.5
355.491	688.5
355.718	689.5
355.945	689.5
356.172	698.5
356.399	712.5
356.626	712.5
356.853	724.5
357.08	707.5
357.307	713.5
357.534	709.5
357.761	707.5
357.988	679.5
358.215	685.5
358.441	697.5
358.668	675.5
358.895	679.5
359.122	690.5
359.349	676.5
359.576	699.5
359.802	701.5
360.029	680.5
360.256	695.5
360.483	704.5
360.709	716.5
360.936	677.5
361.163	682.5
361.39	690.5
361.616	707.5
361.843	674.5
362.07	691.5
362.296	706.5
362.523	678.5
362.749	689.5
362.976	683.5
363.203	673.5
363.429	682.5
363.656	665.5
363.882	671.5
364.109	683.5
364.335	692.5
364.562	689.5
364.788	703.5
365.015	669.5
365.241	687.5
365.468	701.5
365.694	688.5
365.92	684.5
366.147	680.5
366.373	685.5
366.599	691.5
366.826	709.5
367.052	698.5
367.278	707.5
367.505	699.5
367.731	676.5
367.957	711.5
368.184	699.5
368.41	692.5
368.636	715.5
368.862	696.5
369.089	695.5
369.315	708.5
369.541	717.5
369.767	714.5
369.993	714.5
370.219	757.5
370.445	735.5
370.672	726.5
370.898	720.5
371.124	738.5
371.35	732.5
371.576	743.5
371.802	717.5
372.028	737.5
372.254	752.5
372.48	728.5
372.706	773.5
372.932	795.5
373.158	792.5
373.384	763.5
373.61	755.5
373.835	739.5
374.061	746.5
374.287	778.5
374.513	771.5
374.739	811.5
374.965	828.5
375.191	890.5
375.416	847.5
375.642	807.5
375.868	783.5
376.094	800.5
376.319	797.5
376.545	791.5
376.771	771.5
376.997	769.5
377.222	773.5
377.448	754.5
377.674	759.5
377.899	759.5
378.125	712.5
378.35	727.5
378.576	724.5
378.802	740.5
379.027	748.5
379.253	757.5
379.478	736.5
379.704	742.5
379.929	729.5
380.155	712.5
380.38	754.5
380.606	724.5
380.831	741.5
381.057	767.5
381.282	739.5
381.507	758.5
381.733	756.5
381.958	754.5
382.184	777.5
382.409	793.5
382.634	793.5
382.86	796.5
383.085	806.5
383.31	824.5
383.535	807.5
383.761	803.5
383.986	859.5
384.211	876.5
384.436	891.5
384.662	898.5
384.887	921.5
385.112	918.5
385.337	920.5
385.562	917.5
385.787	928.5
386.013	939.5
386.238	904.5
386.463	930.5
386.688	931.5
386.913	917.5
387.138	903.5
387.363	909.5
387.588	905.5
387.813	893.5
388.038	893.5
388.263	875.5
388.488	928.5
388.713	897.5
388.938	898.5
389.163	890.5
389.387	893.5
389.612	888.5
389.837	868.5
390.062	883.5
390.287	901.5
390.512	884.5
390.736	894.5
390.961	913.5
391.186	920.5
391.411	964.5
391.636	1003.5
391.86	1051.5
392.085	1051.5
392.31	1032.5
392.534	1002.5
392.759	966.5
392.984	991.5
393.208	931.5
393.433	950.5
393.658	978.5
393.882	963.5
394.107	948.5
394.331	979.5
394.556	1005.5
394.78	991.5
395.005	956.5
395.229	977.5
395.454	1015.5
395.678	1019.5
395.903	1052.5
396.127	1009.5
396.352	972.5
396.576	945.5
396.801	965.5
397.025	992.5
397.249	979.5
397.474	1003.5
397.698	1024.5
397.922	1033.5
398.147	1011.5
398.371	1041.5
398.595	1083.5
398.82	1122.5
399.044	1191.5
399.268	1343.5
399.492	1547.5
399.717	1812.5
399.941	1816.5
400.165	1597.5
400.389	1362.5
400.613	1256.5
400.837	1221.5
401.062	1183.5
401.286	1160.5
401.51	1128.5
401.734	1126.5
401.958	1197.5
402.182	1165.5
402.406	1221.5
402.63	1196.5
402.854	1242.5
403.078	1248.5
403.302	1277.5
403.526	1295.5
403.75	1356.5
403.974	1395.5
404.198	1364.5
404.422	1409.5
404.645	1371.5
404.869	1314.5
405.093	1355.5
405.317	1303.5
405.541	1309.5
405.765	1289.5
405.988	1259.5
406.212	1277.5
406.436	1247.5
406.66	1318.5
406.883	1317.5
407.107	1398.5
407.331	1473.5
407.555	1534.5
407.778	1516.5
408.002	1512.5
408.226	1466.5
408.449	1399.5
408.673	1357.5
408.896	1309.5
409.12	1348.5
409.344	1319.5
409.567	1311.5
409.791	1341.5
410.014	1338.5
410.238	1337.5
410.461	1306.5
410.685	1265.5
410.908	1250.5
411.132	1241.5
411.355	1211.5
411.578	1221.5
411.802	1214.5
412.025	1199.5
412.249	1218.5
412.472	1211.5
412.695	1168.5
412.919	1120.5
413.142	1142.5
413.365	1151.5
413.589	1133.5
413.812	1151.5
414.035	1125.5
414.258	1132.5
414.482	1157.5
414.705	1177.5
414.928	1232.5
415.151	1187.5
415.374	1147.5
415.597	1139.5
415.821	1130.5
416.044	1145.5
416.267	1115.5
416.49	1102.5
416.713	1115.5
416.936	1123.5
417.159	1129.5
417.382	1160.5
417.605	1132.5
417.828	1153.5
418.051	1157.5
418.274	1149.5
418.497	1166.5
418.72	1210.5
418.943	1193.5
419.166	1256.5
419.389	1329.5
419.611	1339.5
419.834	1240.5
420.057	1232.5
420.28	1167.5
420.503	1132.5
420.726	1091.5
420.948	1125.5
421.171	1157.5
421.394	1149.5
421.617	1122.5
421.839	1139.5
422.062	1153.5
422.285	1156.5
422.507	1154.5
422.73	1152.5
422.953	1163.5
423.175	1183.5
423.398	1226.5
423.621	1231.5
423.843	1222.5
424.066	1252.5
424.288	1248.5
424.511	1253.5
424.733	1187.5
424.956	1203.5
425.178	1177.5
425.401	1179.5
425.623	1142.5
425.846	1117.5
426.068	1101.5
426.291	1095.5
426.513	1088.5
426.735	1065.5
426.958	1093.5
427.18	1051.5
427.402	1023.5
427.625	1061.5
427.847	1047.5
428.069	1041.5
428.292	1048.5
428.514	981.5
428.736	996.5
428.958	1021.5
429.181	1002.5
429.403	990.5
429.625	1016.5
429.847	979.5
430.069	1003.5
430.292	988.5
430.514	975.5
430.736	980.5
430.958	1008.5
431.18	976.5
431.402	956.5
431.624	1003.5
431.846	1019.5
432.068	1019.5
432.29	1047.5
432.512	1007.5
432.734	1031.5
432.956	968.5
433.178	996.5
433.4	1031.5
433.622	1044.5
433.844	1038.5
434.066	1038.5
434.287	1045.5
434.509	1092.5
434.731	1115.5
434.953	1185.5
435.175	1194.5
435.397	1145.5
435.618	1085.5
435.84	1097.5
436.062	1034.5
436.284	1012.5
436.505	1025.5
436.727	1032.5
436.949	1012.5
437.17	1023.5
437.392	1012.5
437.614	992.5
437.835	991.5
438.057	997.5
438.278	960.5
438.5	973.5
438.721	981.5
438.943	983.5
439.165	969.5
439.386	988.5
439.608	1008.5
439.829	1021.5
440.05	1047.5
440.272	1036.5
440.493	1038.5
440.715	1027.5
440.936	1069.5
441.158	1064.5
441.379	1099.5
441.6	1161.5
441.822	1213.5
442.043	1193.5
442.264	1161.5
442.486	1122.5
442.707	1142.5
442.928	1123.5
443.149	1135.5
443.371	1130.5
443.592	1177.5
443.813	1139.5
444.034	1168.5
444.255	1236.5
444.476	1317.5
444.698	1378.5
444.919	1431.5
445.14	1497.5
445.361	1329.5
445.582	1208.5
445.803	1146.5
446.024	1116.5
446.245	1097.5
446.466	1050.5
446.687	1027.5
446.908	1038.5
447.129	1017.5
447.35	1005.5
447.571	996.5
447.792	997.5
448.013	986.5
448.234	996.5
448.455	970.5
448.675	962.5
448.896	951.5
449.117	938.5
449.338	922.5
449.559	936.5
449.779	939.5
450	929.5
450.221	952.5
450.442	957.5
450.662	964.5
450.883	977.5
451.104	991.5
451.324	994.5
451.545	977.5
451.766	980.5
451.986	968.5
452.207	971.5
452.428	952.5
452.648	945.5
452.869	947.5
453.089	932.5
453.31	980.5
453.53	943.5
453.751	938.5
453.971	935.5
454.192	915.5
454.412	894.5
454.633	907.5
454.853	876.5
455.073	891.5
455.294	906.5
455.514	897.5
455.734	923.5
455.955	841.5
456.175	872.5
456.395	881.5
456.616	890.5
456.836	855.5
457.056	872.5
457.276	869.5
457.497	900.5
457.717	890.5
457.937	900.5
458.157	893.5
458.377	909.5
458.598	897.5
458.818	939.5
459.038	972.5
459.258	1029.5
459.478	1047.5
459.698	1062.5
459.918	1106.5
460.138	1168.5
460.358	1215.5
460.578	1225.5
460.798	1213.5
461.018	1259.5
461.238	1242.5
461.458	1204.5
461.678	1186.5
461.898	1224.5
462.118	1232.5
462.338	1341.5
462.558	1363.5
462.777	1404.5
462.997	1512.5
463.217	1731.5
463.437	1731.5
463.657	1589.5
463.876	1476.5
464.096	1458.5
464.316	1451.5
464.536	1506.5
464.755	1409.5
464.975	1344.5
465.195	1272.5
465.414	1232.5
465.634	1153.5
465.854	1066.5
466.073	1061.5
466.293	1072.5
466.512	1004.5
466.732	1002.5
466.951	1034.5
467.171	998.5
467.391	999.5
467.61	992.5
467.829	1014.5
468.049	1002.5
468.268	918.5
468.488	937.5
468.707	936.5
468.927	961.5
469.146	945.5
469.365	949.5
469.585	961.5
469.804	976.5
470.023	962.5
470.243	1017.5
470.462	1036.5
470.681	1024.5
470.901	1026.5
471.12	1019.5
471.339	985.5
471.558	972.5
471.777	935.5
471.997	952.5
472.216	971.5
472.435	967.5
472.654	919.5
472.873	920.5
473.092	895.5
473.311	913.5
473.53	940.5
473.749	883.5
473.968	940.5
474.187	895.5
474.406	909.5
474.625	908.5
474.844	913.5
475.063	920.5
475.282	913.5
475.501	922.5
475.72	930.5
475.939	925.5
476.158	951.5
476.377	966.5
476.596	921.5
476.814	947.5
477.033	973.5
477.252	988.5
477.471	1001.5
477.69	1031.5
477.908	1049.5
478.127	1089.5
478.346	1078.5
478.564	1109.5
478.783	1142.5
479.002	1143.5
479.22	1204.5
479.439	1135.5
479.658	1167.5
479.876	1146.5
480.095	1157.5
480.313	1187.5
480.532	1261.5
480.751	1248.5
480.969	1187.5
481.188	1120.5
481.406	1071.5
481.624	1090.5
481.843	1078.5
482.061	1025.5
482.28	1064.5
482.498	1032.5
482.717	1025.5
482.935	1020.5
483.153	1024.5
483.372	1029.5
483.59	1055.5
483.808	1024.5
484.027	1035.5
484.245	1046.5
484.463	1021.5
484.681	1076.5
484.9	1058.5
485.118	1088.5
485.336	1101.5
485.554	1125.5
485.772	1101.5
485.99	1088.5
486.209	1133.5
486.427	1109.5
486.645	1093.5
486.863	1128.5
487.081	1101.5
487.299	1083.5
487.517	1119.5
487.735	1072.5
487.953	1055.5
488.171	1081.5
488.389	1059.5
488.607	1055.5
488.825	1071.5
489.043	1017.5
489.261	1076.5
489.479	1088.5
489.696	1086.5
489.914	1076.5
490.132	1109.5
490.35	1083.5
490.568	1111.5
490.786	1131.5
491.003	1101.5
491.221	1119.5
491.439	1120.5
491.657	1093.5
491.874	1099.5
492.092	1113.5
492.31	1101.5
492.527	1095.5
492.745	1091.5
492.963	1153.5
493.18	1126.5
493.398	1149.5
493.615	1146.5
493.833	1137.5
494.05	1119.5
494.268	1135.5
494.485	1155.5
494.703	1189.5
494.92	1171.5
495.138	1169.5
495.355	1152.5
495.573	1149.5
495.79	1162.5
496.008	1177.5
496.225	1184.5
496.442	1211.5
496.66	1191.5
496.877	1235.5
497.094	1239.5
497.312	1233.5
497.529	1234.5
497.746	1286.5
497.963	1343.5
498.181	1399.5
498.398	1469.5
498.615	1512.5
498.832	1640.5
499.049	1772.5
499.267	1980.5
499.484	2161.5
499.701	2379.5
499.918	2663.5
500.135	3130.5
500.352	3626.5
500.569	3833.5
500.786	3835.5
501.003	3475.5
501.22	3103.5
501.437	2701.5
501.654	2331.5
501.871	2117.5
502.088	1903.5
502.305	1758.5
502.522	1701.5
502.739	1619.5
502.956	1539.5
503.172	1472.5
503.389	1388.5
503.606	1358.5
503.823	1332.5
504.04	1323.5
504.256	1353.5
504.473	1377.5
504.69	1435.5
504.907	1425.5
505.123	1288.5
505.34	1224.5
505.557	1175.5
505.773	1123.5
505.99	1099.5
506.207	1061.5
506.423	1060.5
506.64	1067.5
506.856	1016.5
507.073	1021.5
507.289	1043.5
507.506	1013.5
507.722	993.5
507.939	1034.5
508.155	1001.5
508.372	979.5
508.588	972.5
508.805	945.5
509.021	969.5
509.238	967.5
509.454	938.5
509.67	954.5
509.887	954.5
510.103	951.5
510.319	913.5
510.536	926.5
510.752	938.5
510.968	934.5
511.184	943.5
511.401	953.5
511.617	938.5
511.833	927.5
512.049	960.5
512.265	920.5
512.481	928.5
512.698	929.5
512.914	952.5
513.13	908.5
513.346	940.5
513.562	909.5
513.778	952.5
513.994	936.5
514.21	969.5
514.426	960.5
514.642	965.5
514.858	979.5
515.074	946.5
515.29	987.5
515.506	960.5
515.721	971.5
515.937	1003.5
516.153	1015.5
516.369	1048.5
516.585	1065.5
516.801	1090.5
517.016	1164.5
517.232	1231.5
517.448	1294.5
517.664	1324.5
517.879	1362.5
518.095	1379.5
518.311	1296.5
518.527	1279.5
518.742	1199.5
518.958	1170.5
519.173	1100.5
519.389	1052.5
519.605	1001.5
519.82	1002.5
520.036	976.5
520.251	966.5
520.467	962.5
520.682	956.5
520.898	928.5
521.113	893.5
521.329	927.5
521.544	927.5
521.76	930.5
521.975	907.5
522.19	899.5
522.406	894.5
522.621	869.5
522.836	886.5
523.052	869.5
523.267	887.5
523.482	899.5
523.698	884.5
523.913	870.5
524.128	863.5
524.343	880.5
524.559	862.5
524.774	872.5
524.989	874.5
525.204	859.5
525.419	873.5
525.634	860.5
525.849	843.5
526.064	863.5
526.28	839.5
526.495	854.5
526.71	839.5
526.925	825.5
527.14	843.5
527.355	848.5
527.57	839.5
527.785	834.5
527.999	843.5
528.214	873.5
528.429	855.5
528.644	870.5
528.859	859.5
529.074	843.5
529.289	880.5
529.503	857.5
529.718	861.5
529.933	831.5
530.148	832.5
530.363	862.5
530.577	841.5
530.792	847.5
531.007	839.5
531.221	874.5
531.436	888.5
531.651	880.5
531.865	846.5
532.08	843.5
532.295	863.5
532.509	828.5
532.724	854.5
532.938	827.5
533.153	846.5
533.367	815.5
533.582	839.5
533.796	856.5
534.011	876.5
534.225	860.5
534.44	819.5
534.654	837.5
534.868	843.5
535.083	815.5
535.297	842.5
535.511	825.5
535.726	847.5
535.94	822.5
536.154	817.5
536.369	790.5
536.583	809.5
536.797	790.5
537.011	815.5
537.225	789.5
537.44	756.5
537.654	763.5
537.868	759.5
538.082	777.5
538.296	789.5
538.51	754.5
538.724	772.5
538.938	780.5
539.153	759.5
539.367	745.5
539.581	733.5
539.795	752.5
540.009	772.5
540.222	773.5
540.436	741.5
540.65	732.5
540.864	748.5
541.078	752.5
541.292	746.5
541.506	739.5
541.72	746.5
541.934	769.5
542.147	767.5
542.361	731.5
542.575	746.5
542.789	765.5
543.002	742.5
543.216	759.5
543.43	737.5
543.644	744.5
543.857	762.5
544.071	764.5
544.285	788.5
544.498	765.5
544.712	727.5
544.925	788.5
545.139	792.5
545.352	783.5
545.566	778.5
545.779	792.5
545.993	756.5
546.206	795.5
546.42	754.5
546.633	769.5
546.847	754.5
547.06	783.5
547.274	780.5
547.487	801.5
547.7	783.5
547.914	752.5
548.127	769.5
548.34	821.5
548.554	771.5
548.767	786.5
548.98	801.5
549.193	787.5
549.407	801.5
549.62	849.5
549.833	815.5
550.046	794.5
550.259	797.5
550.473	765.5
550.686	768.5
550.899	778.5
551.112	758.5
551.325	776.5
551.538	768.5
551.751	748.5
551.964	763.5
552.177	773.5
552.39	769.5
552.603	801.5
552.816	813.5
553.029	849.5
553.242	859.5
553.455	868.5
553.667	869.5
553.88	875.5
554.093	834.5
554.306	803.5
554.519	801.5
554.732	781.5
554.944	770.5
555.157	746.5
555.37	731.5
555.583	720.5
555.795	716.5
556.008	713.5
556.221	707.5
556.433	692.5
556.646	679.5
556.859	670.5
557.071	667.5
557.284	683.5
557.496	675.5
557.709	678.5
557.921	663.5
558.134	673.5
558.346	650.5
558.559	633.5
558.771	663.5
558.984	659.5
559.196	623.5
559.409	622.5
559.621	634.5
559.833	667.5
560.046	641.5
560.258	632.5
560.47	643.5
560.683	639.5
560.895	652.5
561.107	645.5
561.32	626.5
561.532	651.5
561.744	643.5
561.956	664.5
562.168	647.5
562.381	639.5
562.593	652.5
562.805	651.5
563.017	648.5
563.229	653.5
563.441	654.5
563.653	681.5
563.865	671.5
564.077	657.5
564.289	644.5
564.501	663.5
564.713	680.5
564.925	687.5
565.137	723.5
565.349	697.5
565.561	753.5
565.773	785.5
565.985	789.5
566.197	853.5
566.408	915.5
566.62	1008.5
566.832	1064.5
567.044	1092.5
567.255	1103.5
567.467	1136.5
567.679	1213.5
567.891	1314.5
568.102	1371.5
568.314	1303.5
568.526	1154.5
568.737	1022.5
568.949	938.5
569.161	840.5
569.372	785.5
569.584	723.5
569.795	729.5
570.007	666.5
570.218	667.5
570.43	659.5
570.641	664.5
570.853	686.5
571.064	695.5
571.276	688.5
571.487	689.5
571.698	631.5
571.91	605.5
572.121	596.5
572.333	581.5
572.544	572.5
572.755	577.5
572.966	577.5
573.178	565.5
573.389	552.5
573.6	530.5
573.811	507.5
574.023	543.5
574.234	518.5
574.445	539.5
574.656	553.5
574.867	538.5
575.078	531.5
575.289	516.5
575.501	514.5
575.712	514.5
575.923	522.5
576.134	516.5
576.345	511.5
576.556	518.5
576.767	491.5
576.978	532.5
577.188	515.5
577.399	522.5
577.61	500.5
577.821	491.5
578.032	477.5
578.243	467.5
578.454	497.5
578.665	496.5
578.875	491.5
579.086	479.5
579.297	464.5
579.508	455.5
579.718	473.5
579.929	475.5
580.14	470.5
580.35	468.5
580.561	456.5
580.772	456.5
580.982	457.5
581.193	454.5
581.403	462.5
581.614	458.5
581.825	454.5
582.035	432.5
582.246	470.5
582.456	463.5
582.667	448.5
582.877	435.5
583.087	445.5
583.298	439.5
583.508	427.5
583.719	440.5
583.929	425.5
584.139	431.5
584.35	432.5
584.56	441.5
584.77	446.5
584.981	453.5
585.191	455.5
585.401	432.5
585.611	410.5
585.821	433.5
586.032	440.5
586.242	432.5
586.452	426.5
586.662	447.5
586.872	442.5
587.082	396.5
587.292	441.5
587.502	424.5
587.713	420.5
587.923	428.5
588.133	425.5
588.343	422.5
588.553	430.5
588.762	427.5
588.972	407.5
589.182	435.5
589.392	419.5
589.602	438.5
589.812	427.5
590.022	424.5
590.232	453.5
590.441	451.5
590.651	432.5
590.861	419.5
591.071	435.5
591.281	456.5
591.49	456.5
591.7	469.5
591.91	471.5
592.119	475.5
592.329	488.5
592.539	504.5
592.748	535.5
592.958	521.5
593.167	550.5
593.377	559.5
593.587	557.5
593.796	563.5
594.006	557.5
594.215	589.5
594.424	594.5
594.634	567.5
594.843	537.5
595.053	514.5
595.262	487.5
595.472	471.5
595.681	461.5
595.89	461.5
596.1	453.5
596.309	436.5
596.518	433.5
596.727	412.5
596.937	405.5
597.146	392.5
597.355	392.5
597.564	407.5
597.774	385.5
597.983	390.5
598.192	399.5
598.401	393.5
598.61	381.5
598.819	386.5
599.028	385.5
599.237	378.5
599.446	377.5
599.655	367.5
599.864	363.5
600.073	369.5
600.282	382.5
600.491	356.5
600.7	378.5
600.909	357.5
601.118	355.5
601.327	369.5
601.536	345.5
601.745	362.5
601.953	349.5
602.162	331.5
602.371	356.5
602.58	347.5
602.789	340.5
602.997	356.5
603.206	345.5
603.415	342.5
603.623	342.5
603.832	337.5
604.041	355.5
604.249	321.5
604.458	343.5
604.666	344.5
604.875	345.5
605.084	352.5
605.292	317.5
605.501	347.5
605.709	332.5
605.918	328.5
606.126	342.5
606.334	347.5
606.543	333.5
606.751	347.5
606.96	341.5
607.168	324.5
607.376	336.5
607.585	333.5
607.793	333.5
608.001	309.5
608.21	330.5
608.418	323.5
608.626	339.5
608.834	333.5
609.043	325.5
609.251	333.5
609.459	322.5
609.667	324.5
609.875	319.5
610.083	323.5
610.291	333.5
610.499	318.5
610.707	313.5
610.916	335.5
611.124	311.5
611.332	316.5
611.54	314.5
611.748	320.5
611.955	320.5
612.163	315.5
612.371	321.5
612.579	316.5
612.787	314.5
612.995	320.5
613.203	333.5
613.411	332.5
613.618	300.5
613.826	327.5
614.034	312.5
614.242	306.5
614.449	306.5
614.657	312.5
614.865	300.5
615.072	315.5
615.28	302.5
615.488	314.5
615.695	316.5
615.903	296.5
616.111	301.5
616.318	328.5
616.526	310.5
616.733	309.5
616.941	305.5
617.148	307.5
617.356	324.5
617.563	320.5
617.771	309.5
617.978	324.5
618.185	308.5
618.393	313.5
618.6	310.5
618.807	322.5
619.015	329.5
619.222	316.5
619.429	321.5
619.637	292.5
619.844	303.5
620.051	299.5
620.258	294.5
620.466	300.5
620.673	298.5
620.88	296.5
621.087	289.5
621.294	282.5
621.501	290.5
621.708	288.5
621.915	299.5
622.122	297.5
622.329	289.5
622.536	268.5
622.743	289.5
622.95	276.5
623.157	280.5
623.364	298.5
623.571	282.5
623.778	290.5
623.985	281.5
624.192	281.5
624.399	292.5
624.606	269.5
624.812	274.5
625.019	286.5
625.226	268.5
625.433	289.5
625.639	266.5
625.846	267.5
626.053	277.5
626.259	275.5
626.466	285.5
626.673	266.5
626.879	256.5
627.086	270.5
627.293	253.5
627.499	258.5
627.706	259.5
627.912	261.5
628.119	267.5
628.325	266.5
628.532	257.5
628.738	259.5
628.945	251.5
629.151	250.5
629.357	251.5
629.564	257.5
629.77	241.5
629.976	262.5
630.183	252.5
630.389	235.5
630.595	242.5
630.802	223.5
631.008	243.5
631.214	239.5
631.42	241.5
631.627	238.5
631.833	229.5
632.039	259.5
632.245	243.5
632.451	237.5
632.657	246.5
632.863	240.5
633.069	244.5
633.275	217.5
633.481	231.5
633.688	232.5
633.893	227.5
634.099	229.5
634.305	245.5
634.511	231.5
634.717	216.5
634.923	228.5
635.129	227.5
635.335	219.5
635.541	239.5
635.747	225.5
635.952	214.5
636.158	211.5
636.364	216.5
636.57	225.5
636.775	223.5
636.981	223.5
637.187	217.5
637.392	216.5
637.598	215.5
637.804	223.5
638.009	240.5
638.215	223.5
638.421	219.5
638.626	226.5
638.832	219.5
639.037	218.5
639.243	215.5
639.448	220.5
639.654	205.5
639.859	205.5
640.065	218.5
640.27	196.5
640.475	196.5
640.681	195.5
640.886	207.5
641.091	197.5
641.297	210.5
641.502	203.5
641.707	212.5
641.913	203.5
642.118	202.5
642.323	192.5
642.528	202.5
642.733	224.5
642.939	211.5
643.144	189.5
643.349	198.5
643.554	189.5
643.759	209.5
643.964	212.5
644.169	195.5
644.374	205.5
644.579	203.5
644.784	195.5
644.989	215.5
645.194	191.5
645.399	215.5
645.604	196.5
645.809	186.5
646.014	190.5
646.219	195.5
646.423	206.5
646.628	191.5
646.833	195.5
647.038	203.5
647.243	200.5
647.447	206.5
647.652	200.5
647.857	207.5
648.062	211.5
648.266	215.5
648.471	227.5
648.676	211.5
648.88	218.5
649.085	211.5
649.289	224.5
649.494	198.5
649.698	192.5
649.903	195.5
650.107	194.5
650.312	182.5
650.516	194.5
650.721	204.5
650.925	169.5
651.13	162.5
651.334	174.5
651.539	181.5
651.743	168.5
651.947	172.5
652.152	162.5
652.356	168.5
652.56	170.5
652.764	164.5
652.969	165.5
653.173	164.5
653.377	166.5
653.581	147.5
653.785	150.5
653.99	162.5
654.194	131.5
654.398	157.5
654.602	153.5
654.806	144.5
655.01	153.5
655.214	147.5
655.418	156.5
655.622	146.5
655.826	135.5
656.03	140.5
656.234	131.5
656.438	128.5
656.642	137.5
656.846	138.5
657.049	137.5
657.253	127.5
657.457	129.5
657.661	115.5
657.865	118.5
658.068	118.5
658.272	112.5
658.476	124.5
658.68	100.5
658.883	107.5
659.087	107.5
659.291	99.5
659.494	105.5
659.698	113.5
659.901	113.5
660.105	106.5
660.309	97.5
660.512	99.5
660.716	107.5
660.919	100.5
661.123	106.5
661.326	99.5
661.53	88.5
661.733	92.5
661.936	79.5
662.14	87.5
662.343	100.5
662.546	88.5
662.75	71.5
662.953	77.5
663.156	84.5
663.36	95.5
663.563	83.5
663.766	72.5
663.969	96.5
664.173	78.5
664.376	83.5
664.579	88.5
664.782	88.5
664.985	103.5
665.188	86.5
665.391	90.5
665.594	59.5
665.797	83.5
666	82.5
666.203	85.5
666.406	84.5
666.609	85.5
666.812	67.5
667.015	72.5
667.218	81.5
667.421	76.5
667.624	88.5
667.827	86.5
668.03	81.5
668.232	89.5
668.435	92.5
668.638	83.5
668.841	86.5
669.043	85.5
669.246	75.5
669.449	80.5
669.651	85.5
669.854	92.5
670.057	84.5
670.259	92.5
670.462	82.5
670.665	79.5
670.867	82.5
671.07	84.5
671.272	82.5
671.475	96.5
671.677	69.5
671.88	74.5
672.082	69.5
672.284	76.5
672.487	87.5
672.689	85.5
672.892	88.5
