Data from NiCl2@0.0625M.TitratingCurve.Agarose3%dH2O.NegLispCup.LampEnergy10.LIBS07252019_HRD10591_18-32-53-576.txt Node
Date: Thu Jul 25 18:32:53 EDT 2019
User: cochatt
Spectrometer: HR+D1059
Trigger mode: 1
Integration Time (sec): 1.000000E-1
Scans to average: 1
Electric dark correction enabled: true
Nonlinearity correction enabled: false
Boxcar width: 0
XAxis mode: Wavelengths
Number of Pixels in Spectrum: 2048
>>>>>Begin Spectral Data<<<<<
223.165	-22.25
223.4	-22.25
223.635	-22.25
223.869	-17.25
224.104	-24.25
224.338	-10.25
224.573	-14.25
224.808	-16.25
225.042	4.75
225.277	-13.25
225.511	5.75
225.746	2.75
225.98	9.75
226.215	12.75
226.449	12.75
226.683	24.75
226.918	20.75
227.152	23.75
227.387	33.75
227.621	46.75
227.856	39.75
228.09	48.75
228.324	42.75
228.559	63.75
228.793	95.75
229.027	163.75
229.262	174.75
229.496	172.75
229.73	180.75
229.964	172.75
230.199	189.75
230.433	190.75
230.667	204.75
230.901	199.75
231.136	188.75
231.37	201.75
231.604	200.75
231.838	193.75
232.072	220.75
232.306	207.75
232.541	228.75
232.775	207.75
233.009	208.75
233.243	204.75
233.477	214.75
233.711	233.75
233.945	223.75
234.179	234.75
234.413	227.75
234.647	237.75
234.881	227.75
235.115	209.75
235.349	233.75
235.583	213.75
235.817	227.75
236.051	228.75
236.285	227.75
236.519	245.75
236.753	247.75
236.987	251.75
237.221	248.75
237.455	248.75
237.689	238.75
237.922	236.75
238.156	263.75
238.39	245.75
238.624	266.75
238.858	279.75
239.091	272.75
239.325	265.75
239.559	282.75
239.793	280.75
240.027	273.75
240.26	288.75
240.494	289.75
240.728	303.75
240.961	307.75
241.195	293.75
241.429	307.75
241.662	314.75
241.896	319.75
242.13	321.75
242.363	302.75
242.597	306.75
242.83	326.75
243.064	332.75
243.298	321.75
243.531	330.75
243.765	344.75
243.998	331.75
244.232	348.75
244.465	337.75
244.699	363.75
244.932	364.75
245.166	382.75
245.399	363.75
245.633	362.75
245.866	348.75
246.099	363.75
246.333	381.75
246.566	374.75
246.8	379.75
247.033	376.75
247.266	365.75
247.5	385.75
247.733	393.75
247.966	416.75
248.2	424.75
248.433	450.75
248.666	385.75
248.899	409.75
249.133	407.75
249.366	421.75
249.599	410.75
249.832	422.75
250.066	436.75
250.299	417.75
250.532	424.75
250.765	432.75
250.998	435.75
251.231	432.75
251.465	451.75
251.698	447.75
251.931	457.75
252.164	460.75
252.397	473.75
252.63	481.75
252.863	488.75
253.096	462.75
253.329	472.75
253.562	464.75
253.795	480.75
254.028	456.75
254.261	469.75
254.494	454.75
254.727	474.75
254.96	476.75
255.193	486.75
255.426	497.75
255.659	496.75
255.892	496.75
256.124	484.75
256.357	488.75
256.59	490.75
256.823	496.75
257.056	511.75
257.289	506.75
257.521	526.75
257.754	513.75
257.987	528.75
258.22	517.75
258.452	535.75
258.685	523.75
258.918	547.75
259.151	518.75
259.383	535.75
259.616	530.75
259.849	530.75
260.081	572.75
260.314	570.75
260.547	554.75
260.779	557.75
261.012	578.75
261.244	551.75
261.477	566.75
261.71	576.75
261.942	598.75
262.175	572.75
262.407	571.75
262.64	554.75
262.872	565.75
263.105	585.75
263.337	576.75
263.57	587.75
263.802	600.75
264.035	604.75
264.267	592.75
264.499	599.75
264.732	603.75
264.964	612.75
265.197	624.75
265.429	617.75
265.661	639.75
265.894	623.75
266.126	623.75
266.358	640.75
266.591	624.75
266.823	620.75
267.055	624.75
267.287	621.75
267.52	631.75
267.752	637.75
267.984	622.75
268.216	653.75
268.448	659.75
268.681	663.75
268.913	691.75
269.145	659.75
269.377	656.75
269.609	666.75
269.841	663.75
270.073	653.75
270.306	678.75
270.538	663.75
270.77	665.75
271.002	672.75
271.234	686.75
271.466	687.75
271.698	691.75
271.93	673.75
272.162	715.75
272.394	681.75
272.626	690.75
272.858	683.75
273.09	721.75
273.322	704.75
273.553	696.75
273.785	699.75
274.017	724.75
274.249	717.75
274.481	731.75
274.713	762.75
274.945	743.75
275.176	734.75
275.408	756.75
275.64	749.75
275.872	735.75
276.104	757.75
276.335	752.75
276.567	786.75
276.799	769.75
277.031	765.75
277.262	797.75
277.494	772.75
277.726	778.75
277.957	789.75
278.189	791.75
278.421	751.75
278.652	777.75
278.884	814.75
279.115	791.75
279.347	831.75
279.579	809.75
279.81	804.75
280.042	819.75
280.273	813.75
280.505	805.75
280.736	833.75
280.968	782.75
281.199	823.75
281.431	839.75
281.662	856.75
281.894	857.75
282.125	811.75
282.356	850.75
282.588	861.75
282.819	848.75
283.051	830.75
283.282	858.75
283.513	856.75
283.745	846.75
283.976	869.75
284.207	897.75
284.439	871.75
284.67	891.75
284.901	893.75
285.132	903.75
285.364	878.75
285.595	867.75
285.826	903.75
286.057	897.75
286.288	881.75
286.52	905.75
286.751	872.75
286.982	905.75
287.213	890.75
287.444	917.75
287.675	907.75
287.906	927.75
288.138	923.75
288.369	907.75
288.6	937.75
288.831	925.75
289.062	944.75
289.293	917.75
289.524	927.75
289.755	917.75
289.986	918.75
290.217	942.75
290.448	921.75
290.679	940.75
290.91	919.75
291.141	928.75
291.371	949.75
291.602	973.75
291.833	957.75
292.064	959.75
292.295	944.75
292.526	927.75
292.757	936.75
292.987	947.75
293.218	974.75
293.449	958.75
293.68	966.75
293.91	948.75
294.141	943.75
294.372	945.75
294.603	972.75
294.833	951.75
295.064	957.75
295.295	947.75
295.525	962.75
295.756	962.75
295.987	933.75
296.217	959.75
296.448	967.75
296.679	985.75
296.909	973.75
297.14	1005.75
297.37	1010.75
297.601	1018.75
297.831	1017.75
298.062	1020.75
298.292	1030.75
298.523	1009.75
298.753	1038.75
298.984	1031.75
299.214	1039.75
299.445	1044.75
299.675	985.75
299.905	1028.75
300.136	993.75
300.366	1022.75
300.597	1017.75
300.827	1062.75
301.057	1079.75
301.288	1062.75
301.518	1057.75
301.748	1080.75
301.979	1100.75
302.209	1096.75
302.439	1075.75
302.669	1103.75
302.9	1061.75
303.13	1085.75
303.36	1060.75
303.59	1075.75
303.82	1093.75
304.051	1068.75
304.281	1103.75
304.511	1042.75
304.741	1099.75
304.971	1082.75
305.201	1055.75
305.431	1091.75
305.661	1069.75
305.891	1069.75
306.121	1087.75
306.352	1085.75
306.582	1043.75
306.812	1050.75
307.042	1083.75
307.272	1040.75
307.502	1062.75
307.731	1105.75
307.961	1056.75
308.191	1053.75
308.421	1057.75
308.651	1075.75
308.881	1059.75
309.111	1070.75
309.341	1062.75
309.571	1050.75
309.8	1102.75
310.03	1076.75
310.26	1082.75
310.49	1099.75
310.72	1115.75
310.949	1099.75
311.179	1094.75
311.409	1096.75
311.639	1120.75
311.868	1082.75
312.098	1087.75
312.328	1110.75
312.557	1132.75
312.787	1131.75
313.017	1150.75
313.246	1120.75
313.476	1123.75
313.706	1147.75
313.935	1123.75
314.165	1171.75
314.394	1147.75
314.624	1164.75
314.853	1157.75
315.083	1141.75
315.312	1167.75
315.542	1162.75
315.771	1151.75
316.001	1146.75
316.23	1206.75
316.46	1165.75
316.689	1159.75
316.919	1179.75
317.148	1179.75
317.377	1173.75
317.607	1127.75
317.836	1167.75
318.065	1184.75
318.295	1191.75
318.524	1161.75
318.753	1143.75
318.983	1133.75
319.212	1132.75
319.441	1145.75
319.67	1144.75
319.9	1123.75
320.129	1135.75
320.358	1136.75
320.587	1150.75
320.816	1157.75
321.046	1149.75
321.275	1146.75
321.504	1146.75
321.733	1142.75
321.962	1165.75
322.191	1173.75
322.42	1166.75
322.649	1179.75
322.878	1158.75
323.108	1157.75
323.337	1169.75
323.566	1170.75
323.795	1173.75
324.024	1173.75
324.253	1191.75
324.482	1180.75
324.71	1201.75
324.939	1192.75
325.168	1210.75
325.397	1183.75
325.626	1207.75
325.855	1272.75
326.084	1226.75
326.313	1254.75
326.542	1234.75
326.77	1263.75
326.999	1235.75
327.228	1219.75
327.457	1252.75
327.686	1229.75
327.914	1253.75
328.143	1244.75
328.372	1289.75
328.6	1251.75
328.829	1264.75
329.058	1267.75
329.287	1251.75
329.515	1269.75
329.744	1254.75
329.972	1263.75
330.201	1249.75
330.43	1270.75
330.658	1291.75
330.887	1281.75
331.115	1302.75
331.344	1348.75
331.572	1323.75
331.801	1346.75
332.03	1353.75
332.258	1396.75
332.486	1383.75
332.715	1417.75
332.943	1513.75
333.172	1495.75
333.4	1540.75
333.629	1583.75
333.857	1612.75
334.085	1614.75
334.314	1575.75
334.542	1563.75
334.771	1591.75
334.999	1558.75
335.227	1584.75
335.455	1555.75
335.684	1535.75
335.912	1515.75
336.14	1504.75
336.369	1495.75
336.597	1514.75
336.825	1515.75
337.053	1501.75
337.281	1499.75
337.51	1450.75
337.738	1442.75
337.966	1423.75
338.194	1390.75
338.422	1382.75
338.65	1393.75
338.878	1410.75
339.106	1373.75
339.334	1413.75
339.562	1386.75
339.79	1348.75
340.018	1304.75
340.246	1318.75
340.474	1297.75
340.702	1324.75
340.93	1317.75
341.158	1324.75
341.386	1335.75
341.614	1322.75
341.842	1303.75
342.07	1262.75
342.298	1312.75
342.526	1278.75
342.754	1290.75
342.981	1344.75
343.209	1353.75
343.437	1393.75
343.665	1453.75
343.893	1543.75
344.12	1553.75
344.348	1516.75
344.576	1481.75
344.804	1399.75
345.031	1375.75
345.259	1347.75
345.487	1359.75
345.714	1319.75
345.942	1309.75
346.17	1286.75
346.397	1312.75
346.625	1271.75
346.853	1269.75
347.08	1309.75
347.308	1261.75
347.535	1271.75
347.763	1268.75
347.99	1244.75
348.218	1271.75
348.445	1257.75
348.673	1254.75
348.9	1223.75
349.128	1248.75
349.355	1243.75
349.583	1246.75
349.81	1209.75
350.037	1211.75
350.265	1233.75
350.492	1228.75
350.72	1222.75
350.947	1213.75
351.174	1200.75
351.402	1222.75
351.629	1213.75
351.856	1225.75
352.083	1240.75
352.311	1231.75
352.538	1227.75
352.765	1205.75
352.992	1196.75
353.22	1220.75
353.447	1207.75
353.674	1213.75
353.901	1219.75
354.128	1175.75
354.355	1191.75
354.583	1203.75
354.81	1183.75
355.037	1211.75
355.264	1217.75
355.491	1207.75
355.718	1228.75
355.945	1208.75
356.172	1218.75
356.399	1237.75
356.626	1212.75
356.853	1258.75
357.08	1229.75
357.307	1238.75
357.534	1222.75
357.761	1245.75
357.988	1222.75
358.215	1227.75
358.441	1211.75
358.668	1231.75
358.895	1219.75
359.122	1221.75
359.349	1246.75
359.576	1255.75
359.802	1252.75
360.029	1194.75
360.256	1214.75
360.483	1239.75
360.709	1231.75
360.936	1218.75
361.163	1203.75
361.39	1198.75
361.616	1242.75
361.843	1224.75
362.07	1233.75
362.296	1254.75
362.523	1221.75
362.749	1250.75
362.976	1223.75
363.203	1228.75
363.429	1203.75
363.656	1223.75
363.882	1228.75
364.109	1218.75
364.335	1190.75
364.562	1235.75
364.788	1209.75
365.015	1260.75
365.241	1205.75
365.468	1175.75
365.694	1230.75
365.92	1196.75
366.147	1225.75
366.373	1221.75
366.599	1254.75
366.826	1209.75
367.052	1258.75
367.278	1243.75
367.505	1238.75
367.731	1217.75
367.957	1224.75
368.184	1240.75
368.41	1229.75
368.636	1244.75
368.862	1272.75
369.089	1269.75
369.315	1248.75
369.541	1264.75
369.767	1284.75
369.993	1283.75
370.219	1257.75
370.445	1299.75
370.672	1317.75
370.898	1295.75
371.124	1299.75
371.35	1342.75
371.576	1333.75
371.802	1311.75
372.028	1351.75
372.254	1336.75
372.48	1335.75
372.706	1354.75
372.932	1384.75
373.158	1379.75
373.384	1352.75
373.61	1326.75
373.835	1371.75
374.061	1342.75
374.287	1390.75
374.513	1364.75
374.739	1424.75
374.965	1447.75
375.191	1496.75
375.416	1440.75
375.642	1447.75
375.868	1405.75
376.094	1352.75
376.319	1351.75
376.545	1358.75
376.771	1352.75
376.997	1313.75
377.222	1349.75
377.448	1289.75
377.674	1310.75
377.899	1320.75
378.125	1333.75
378.35	1310.75
378.576	1308.75
378.802	1308.75
379.027	1370.75
379.253	1319.75
379.478	1312.75
379.704	1304.75
379.929	1312.75
380.155	1301.75
380.38	1285.75
380.606	1317.75
380.831	1321.75
381.057	1294.75
381.282	1303.75
381.507	1325.75
381.733	1358.75
381.958	1344.75
382.184	1371.75
382.409	1393.75
382.634	1374.75
382.86	1392.75
383.085	1379.75
383.31	1409.75
383.535	1401.75
383.761	1453.75
383.986	1453.75
384.211	1485.75
384.436	1488.75
384.662	1504.75
384.887	1502.75
385.112	1531.75
385.337	1581.75
385.562	1604.75
385.787	1573.75
386.013	1604.75
386.238	1592.75
386.463	1639.75
386.688	1596.75
386.913	1562.75
387.138	1573.75
387.363	1601.75
387.588	1543.75
387.813	1569.75
388.038	1572.75
388.263	1599.75
388.488	1588.75
388.713	1572.75
388.938	1565.75
389.163	1533.75
389.387	1546.75
389.612	1541.75
389.837	1578.75
390.062	1526.75
390.287	1544.75
390.512	1555.75
390.736	1583.75
390.961	1575.75
391.186	1654.75
391.411	1639.75
391.636	1691.75
391.86	1719.75
392.085	1781.75
392.31	1769.75
392.534	1723.75
392.759	1697.75
392.984	1749.75
393.208	1748.75
393.433	1921.75
393.658	2118.75
393.882	1767.75
394.107	1717.75
394.331	1688.75
394.556	1679.75
394.78	1716.75
395.005	1719.75
395.229	1709.75
395.454	1739.75
395.678	1755.75
395.903	1740.75
396.127	1753.75
396.352	1767.75
396.576	1730.75
396.801	1803.75
397.025	1967.75
397.249	1886.75
397.474	1843.75
397.698	1799.75
397.922	1840.75
398.147	1831.75
398.371	1843.75
398.595	1884.75
398.82	1878.75
399.044	2021.75
399.268	2207.75
399.492	2434.75
399.717	2709.75
399.941	2741.75
400.165	2543.75
400.389	2375.75
400.613	2212.75
400.837	2084.75
401.062	2022.75
401.286	1999.75
401.51	1995.75
401.734	1944.75
401.958	2001.75
402.182	1985.75
402.406	1975.75
402.63	1971.75
402.854	2001.75
403.078	2059.75
403.302	2130.75
403.526	2122.75
403.75	2140.75
403.974	2179.75
404.198	2155.75
404.422	2168.75
404.645	2186.75
404.869	2135.75
405.093	2108.75
405.317	2095.75
405.541	2111.75
405.765	2103.75
405.988	2088.75
406.212	2158.75
406.436	2179.75
406.66	2217.75
406.883	2207.75
407.107	2312.75
407.331	2389.75
407.555	2429.75
407.778	2403.75
408.002	2424.75
408.226	2376.75
408.449	2321.75
408.673	2206.75
408.896	2223.75
409.12	2183.75
409.344	2198.75
409.567	2201.75
409.791	2171.75
410.014	2161.75
410.238	2156.75
410.461	2126.75
410.685	2093.75
410.908	2082.75
411.132	2077.75
411.355	2011.75
411.578	2045.75
411.802	2046.75
412.025	2012.75
412.249	2049.75
412.472	2055.75
412.695	2033.75
412.919	2011.75
413.142	1950.75
413.365	1983.75
413.589	1966.75
413.812	1925.75
414.035	1929.75
414.258	1934.75
414.482	1953.75
414.705	1979.75
414.928	1995.75
415.151	1960.75
415.374	1955.75
415.597	1944.75
415.821	1930.75
416.044	1883.75
416.267	1900.75
416.49	1871.75
416.713	1863.75
416.936	1864.75
417.159	1891.75
417.382	1855.75
417.605	1851.75
417.828	1846.75
418.051	1882.75
418.274	1928.75
418.497	1883.75
418.72	1955.75
418.943	1879.75
419.166	2000.75
419.389	2183.75
419.611	2106.75
419.834	2057.75
420.057	2039.75
420.28	1929.75
420.503	1874.75
420.726	1883.75
420.948	1883.75
421.171	1850.75
421.394	1893.75
421.617	1896.75
421.839	1862.75
422.062	1888.75
422.285	1840.75
422.507	1901.75
422.73	1927.75
422.953	1951.75
423.175	1945.75
423.398	1935.75
423.621	1958.75
423.843	1959.75
424.066	1960.75
424.288	1964.75
424.511	1902.75
424.733	1925.75
424.956	1921.75
425.178	1854.75
425.401	1891.75
425.623	1867.75
425.846	1859.75
426.068	1861.75
426.291	1841.75
426.513	1780.75
426.735	1808.75
426.958	1812.75
427.18	1774.75
427.402	1773.75
427.625	1763.75
427.847	1710.75
428.069	1758.75
428.292	1740.75
428.514	1723.75
428.736	1720.75
428.958	1742.75
429.181	1689.75
429.403	1679.75
429.625	1662.75
429.847	1674.75
430.069	1664.75
430.292	1686.75
430.514	1677.75
430.736	1665.75
430.958	1700.75
431.18	1687.75
431.402	1740.75
431.624	1687.75
431.846	1701.75
432.068	1755.75
432.29	1745.75
432.512	1712.75
432.734	1723.75
432.956	1733.75
433.178	1743.75
433.4	1727.75
433.622	1710.75
433.844	1774.75
434.066	1766.75
434.287	1806.75
434.509	1787.75
434.731	1856.75
434.953	1911.75
435.175	1866.75
435.397	1879.75
435.618	1791.75
435.84	1774.75
436.062	1738.75
436.284	1746.75
436.505	1713.75
436.727	1691.75
436.949	1690.75
437.17	1702.75
437.392	1670.75
437.614	1668.75
437.835	1613.75
438.057	1627.75
438.278	1651.75
438.5	1637.75
438.721	1658.75
438.943	1660.75
439.165	1664.75
439.386	1667.75
439.608	1709.75
439.829	1673.75
440.05	1692.75
440.272	1691.75
440.493	1695.75
440.715	1696.75
440.936	1752.75
441.158	1721.75
441.379	1765.75
441.6	1883.75
441.822	1872.75
442.043	1859.75
442.264	1832.75
442.486	1796.75
442.707	1795.75
442.928	1783.75
443.149	1827.75
443.371	1854.75
443.592	1858.75
443.813	1827.75
444.034	1847.75
444.255	1923.75
444.476	1987.75
444.698	2065.75
444.919	2121.75
445.14	2196.75
445.361	2039.75
445.582	1933.75
445.803	1833.75
446.024	1799.75
446.245	1742.75
446.466	1748.75
446.687	1682.75
446.908	1716.75
447.129	1683.75
447.35	1628.75
447.571	1630.75
447.792	1607.75
448.013	1604.75
448.234	1584.75
448.455	1546.75
448.675	1549.75
448.896	1534.75
449.117	1493.75
449.338	1524.75
449.559	1531.75
449.779	1468.75
450	1485.75
450.221	1508.75
450.442	1531.75
450.662	1511.75
450.883	1535.75
451.104	1579.75
451.324	1513.75
451.545	1535.75
451.766	1549.75
451.986	1521.75
452.207	1548.75
452.428	1536.75
452.648	1507.75
452.869	1483.75
453.089	1459.75
453.31	1502.75
453.53	1482.75
453.751	1501.75
453.971	1445.75
454.192	1460.75
454.412	1431.75
454.633	1459.75
454.853	1443.75
455.073	1420.75
455.294	1454.75
455.514	1426.75
455.734	1453.75
455.955	1445.75
456.175	1441.75
456.395	1414.75
456.616	1432.75
456.836	1438.75
457.056	1459.75
457.276	1429.75
457.497	1450.75
457.717	1457.75
457.937	1477.75
458.157	1495.75
458.377	1493.75
458.598	1493.75
458.818	1549.75
459.038	1615.75
459.258	1619.75
459.478	1704.75
459.698	1740.75
459.918	1769.75
460.138	1807.75
460.358	1875.75
460.578	1907.75
460.798	1939.75
461.018	1926.75
461.238	1917.75
461.458	1919.75
461.678	1910.75
461.898	1933.75
462.118	1944.75
462.338	2065.75
462.558	2103.75
462.777	2158.75
462.997	2299.75
463.217	2490.75
463.437	2474.75
463.657	2315.75
463.876	2248.75
464.096	2211.75
464.316	2197.75
464.536	2193.75
464.755	2154.75
464.975	2088.75
465.195	2001.75
465.414	1919.75
465.634	1805.75
465.854	1771.75
466.073	1750.75
466.293	1701.75
466.512	1675.75
466.732	1628.75
466.951	1645.75
467.171	1601.75
467.391	1597.75
467.61	1620.75
467.829	1596.75
468.049	1621.75
468.268	1554.75
468.488	1536.75
468.707	1560.75
468.927	1573.75
469.146	1554.75
469.365	1569.75
469.585	1540.75
469.804	1610.75
470.023	1644.75
470.243	1620.75
470.462	1657.75
470.681	1642.75
470.901	1624.75
471.12	1617.75
471.339	1635.75
471.558	1630.75
471.777	1599.75
471.997	1547.75
472.216	1558.75
472.435	1567.75
472.654	1574.75
472.873	1505.75
473.092	1506.75
473.311	1510.75
473.53	1526.75
473.749	1545.75
473.968	1541.75
474.187	1529.75
474.406	1564.75
474.625	1559.75
474.844	1535.75
475.063	1563.75
475.282	1557.75
475.501	1562.75
475.72	1597.75
475.939	1561.75
476.158	1597.75
476.377	1567.75
476.596	1622.75
476.814	1632.75
477.033	1648.75
477.252	1679.75
477.471	1695.75
477.69	1729.75
477.908	1774.75
478.127	1830.75
478.346	1824.75
478.564	1868.75
478.783	1861.75
479.002	1917.75
479.22	1946.75
479.439	1941.75
479.658	1935.75
479.876	1897.75
480.095	1962.75
480.313	2008.75
480.532	2058.75
480.751	2075.75
480.969	2005.75
481.188	1961.75
481.406	1907.75
481.624	1875.75
481.843	1833.75
482.061	1865.75
482.28	1891.75
482.498	1864.75
482.717	1851.75
482.935	1897.75
483.153	1859.75
483.372	1855.75
483.59	1933.75
483.808	1899.75
484.027	1881.75
484.245	1910.75
484.463	1939.75
484.681	1981.75
484.9	1943.75
485.118	1957.75
485.336	1952.75
485.554	2023.75
485.772	1991.75
485.99	1979.75
486.209	2010.75
486.427	2022.75
486.645	1990.75
486.863	2010.75
487.081	1981.75
487.299	1976.75
487.517	1945.75
487.735	1953.75
487.953	1941.75
488.171	1919.75
488.389	1949.75
488.607	1956.75
488.825	1969.75
489.043	1896.75
489.261	1909.75
489.479	1918.75
489.696	1928.75
489.914	1948.75
490.132	1904.75
490.35	1933.75
490.568	1927.75
490.786	1951.75
491.003	1959.75
491.221	1959.75
491.439	1871.75
491.657	1930.75
491.874	1934.75
492.092	1966.75
492.31	1934.75
492.527	1918.75
492.745	1956.75
492.963	1903.75
493.18	1925.75
493.398	1995.75
493.615	1943.75
493.833	1956.75
494.05	1961.75
494.268	1963.75
494.485	1967.75
494.703	1989.75
494.92	1966.75
495.138	1970.75
495.355	2023.75
495.573	2021.75
495.79	1982.75
496.008	2035.75
496.225	2014.75
496.442	2044.75
496.66	2063.75
496.877	2085.75
497.094	2131.75
497.312	2160.75
497.529	2155.75
497.746	2220.75
497.963	2335.75
498.181	2406.75
498.398	2467.75
498.615	2591.75
498.832	2784.75
499.049	2924.75
499.267	3137.75
499.484	3416.75
499.701	3709.75
499.918	3936.75
500.135	4403.75
500.352	4843.75
500.569	4950.75
500.786	4893.75
501.003	4631.75
501.22	4296.75
501.437	3944.75
501.654	3608.75
501.871	3267.75
502.088	3045.75
502.305	2902.75
502.522	2759.75
502.739	2684.75
502.956	2508.75
503.172	2460.75
503.389	2352.75
503.606	2255.75
503.823	2238.75
504.04	2230.75
504.256	2205.75
504.473	2263.75
504.69	2237.75
504.907	2218.75
505.123	2103.75
505.34	2003.75
505.557	1943.75
505.773	1891.75
505.99	1843.75
506.207	1815.75
506.423	1814.75
506.64	1750.75
506.856	1735.75
507.073	1742.75
507.289	1736.75
507.506	1737.75
507.722	1714.75
507.939	1667.75
508.155	1659.75
508.372	1668.75
508.588	1630.75
508.805	1599.75
509.021	1600.75
509.238	1594.75
509.454	1580.75
509.67	1549.75
509.887	1572.75
510.103	1546.75
510.319	1560.75
510.536	1529.75
510.752	1557.75
510.968	1553.75
511.184	1518.75
511.401	1565.75
511.617	1523.75
511.833	1539.75
512.049	1545.75
512.265	1550.75
512.481	1568.75
512.698	1524.75
512.914	1560.75
513.13	1531.75
513.346	1517.75
513.562	1524.75
513.778	1590.75
513.994	1535.75
514.21	1571.75
514.426	1548.75
514.642	1551.75
514.858	1579.75
515.074	1574.75
515.29	1569.75
515.506	1583.75
515.721	1645.75
515.937	1680.75
516.153	1682.75
516.369	1729.75
516.585	1744.75
516.801	1764.75
517.016	1825.75
517.232	1893.75
517.448	1990.75
517.664	2004.75
517.879	2041.75
518.095	1977.75
518.311	1975.75
518.527	1915.75
518.742	1829.75
518.958	1815.75
519.173	1754.75
519.389	1737.75
519.605	1689.75
519.82	1666.75
520.036	1599.75
520.251	1587.75
520.467	1589.75
520.682	1493.75
520.898	1532.75
521.113	1499.75
521.329	1478.75
521.544	1485.75
521.76	1463.75
521.975	1452.75
522.19	1453.75
522.406	1463.75
522.621	1440.75
522.836	1417.75
523.052	1429.75
523.267	1421.75
523.482	1446.75
523.698	1392.75
523.913	1393.75
524.128	1405.75
524.343	1402.75
524.559	1378.75
524.774	1411.75
524.989	1411.75
525.204	1396.75
525.419	1345.75
525.634	1363.75
525.849	1370.75
526.064	1358.75
526.28	1365.75
526.495	1352.75
526.71	1336.75
526.925	1369.75
527.14	1349.75
527.355	1320.75
527.57	1392.75
527.785	1371.75
527.999	1356.75
528.214	1342.75
528.429	1333.75
528.644	1363.75
528.859	1375.75
529.074	1334.75
529.289	1373.75
529.503	1353.75
529.718	1380.75
529.933	1331.75
530.148	1335.75
530.363	1311.75
530.577	1350.75
530.792	1321.75
531.007	1333.75
531.221	1373.75
531.436	1339.75
531.651	1310.75
531.865	1390.75
532.08	1371.75
532.295	1358.75
532.509	1333.75
532.724	1326.75
532.938	1354.75
533.153	1324.75
533.367	1352.75
533.582	1301.75
533.796	1318.75
534.011	1312.75
534.225	1319.75
534.44	1301.75
534.654	1315.75
534.868	1268.75
535.083	1274.75
535.297	1274.75
535.511	1258.75
535.726	1277.75
535.94	1272.75
536.154	1255.75
536.369	1267.75
536.583	1252.75
536.797	1256.75
537.011	1240.75
537.225	1253.75
537.44	1246.75
537.654	1255.75
537.868	1208.75
538.082	1236.75
538.296	1207.75
538.51	1212.75
538.724	1219.75
538.938	1215.75
539.153	1203.75
539.367	1254.75
539.581	1202.75
539.795	1224.75
540.009	1216.75
540.222	1188.75
540.436	1196.75
540.65	1179.75
540.864	1206.75
541.078	1179.75
541.292	1177.75
541.506	1183.75
541.72	1171.75
541.934	1187.75
542.147	1194.75
542.361	1169.75
542.575	1177.75
542.789	1186.75
543.002	1126.75
543.216	1167.75
543.43	1152.75
543.644	1181.75
543.857	1183.75
544.071	1151.75
544.285	1169.75
544.498	1179.75
544.712	1148.75
544.925	1221.75
545.139	1193.75
545.352	1191.75
545.566	1196.75
545.779	1203.75
545.993	1223.75
546.206	1217.75
546.42	1205.75
546.633	1152.75
546.847	1226.75
547.06	1197.75
547.274	1206.75
547.487	1188.75
547.7	1198.75
547.914	1189.75
548.127	1214.75
548.34	1203.75
548.554	1161.75
548.767	1197.75
548.98	1177.75
549.193	1225.75
549.407	1191.75
549.62	1246.75
549.833	1230.75
550.046	1229.75
550.259	1200.75
550.473	1224.75
550.686	1192.75
550.899	1187.75
551.112	1166.75
551.325	1159.75
551.538	1180.75
551.751	1179.75
551.964	1194.75
552.177	1205.75
552.39	1191.75
552.603	1205.75
552.816	1254.75
553.029	1233.75
553.242	1274.75
553.455	1256.75
553.667	1292.75
553.88	1287.75
554.093	1253.75
554.306	1238.75
554.519	1175.75
554.732	1198.75
554.944	1157.75
555.157	1129.75
555.37	1111.75
555.583	1116.75
555.795	1098.75
556.008	1060.75
556.221	1072.75
556.433	1060.75
556.646	1075.75
556.859	1070.75
557.071	1053.75
557.284	1038.75
557.496	1043.75
557.709	1020.75
557.921	1011.75
558.134	1040.75
558.346	1009.75
558.559	1037.75
558.771	1014.75
558.984	1014.75
559.196	1016.75
559.409	994.75
559.621	1005.75
559.833	977.75
560.046	970.75
560.258	976.75
560.47	967.75
560.683	1004.75
560.895	973.75
561.107	974.75
561.32	966.75
561.532	989.75
561.744	996.75
561.956	974.75
562.168	1015.75
562.381	945.75
562.593	1011.75
562.805	998.75
563.017	1002.75
563.229	995.75
563.441	1001.75
563.653	1019.75
563.865	1006.75
564.077	1049.75
564.289	1029.75
564.501	1050.75
564.713	1047.75
564.925	1060.75
565.137	1094.75
565.349	1087.75
565.561	1139.75
565.773	1166.75
565.985	1229.75
566.197	1271.75
566.408	1326.75
566.62	1426.75
566.832	1507.75
567.044	1538.75
567.255	1542.75
567.467	1561.75
567.679	1610.75
567.891	1716.75
568.102	1679.75
568.314	1627.75
568.526	1520.75
568.737	1421.75
568.949	1313.75
569.161	1230.75
569.372	1184.75
569.584	1139.75
569.795	1089.75
570.007	1045.75
570.218	1040.75
570.43	1028.75
570.641	1015.75
570.853	989.75
571.064	1004.75
571.276	1007.75
571.487	971.75
571.698	974.75
571.91	928.75
572.121	917.75
572.333	881.75
572.544	858.75
572.755	886.75
572.966	872.75
573.178	860.75
573.389	832.75
573.6	838.75
573.811	807.75
574.023	800.75
574.234	832.75
574.445	807.75
574.656	795.75
574.867	807.75
575.078	823.75
575.289	795.75
575.501	775.75
575.712	785.75
575.923	769.75
576.134	797.75
576.345	769.75
576.556	776.75
576.767	765.75
576.978	763.75
577.188	738.75
577.399	739.75
577.61	743.75
577.821	758.75
578.032	755.75
578.243	725.75
578.454	730.75
578.665	736.75
578.875	727.75
579.086	697.75
579.297	697.75
579.508	719.75
579.718	724.75
579.929	713.75
580.14	697.75
580.35	705.75
580.561	692.75
580.772	703.75
580.982	683.75
581.193	674.75
581.403	693.75
581.614	705.75
581.825	686.75
582.035	659.75
582.246	668.75
582.456	679.75
582.667	681.75
582.877	684.75
583.087	676.75
583.298	671.75
583.508	661.75
583.719	679.75
583.929	665.75
584.139	645.75
584.35	631.75
584.56	648.75
584.77	658.75
584.981	655.75
585.191	661.75
585.401	663.75
585.611	653.75
585.821	633.75
586.032	648.75
586.242	647.75
586.452	644.75
586.662	643.75
586.872	636.75
587.082	675.75
587.292	638.75
587.502	617.75
587.713	641.75
587.923	652.75
588.133	646.75
588.343	653.75
588.553	633.75
588.762	609.75
588.972	621.75
589.182	662.75
589.392	651.75
589.602	627.75
589.812	673.75
590.022	653.75
590.232	629.75
590.441	657.75
590.651	654.75
590.861	646.75
591.071	637.75
591.281	657.75
591.49	649.75
591.7	686.75
591.91	655.75
592.119	684.75
592.329	685.75
592.539	713.75
592.748	739.75
592.958	745.75
593.167	766.75
593.377	761.75
593.587	775.75
593.796	775.75
594.006	769.75
594.215	786.75
594.424	779.75
594.634	761.75
594.843	719.75
595.053	694.75
595.262	699.75
595.472	684.75
595.681	667.75
595.89	649.75
596.1	648.75
596.309	647.75
596.518	619.75
596.727	595.75
596.937	576.75
597.146	579.75
597.355	575.75
597.564	567.75
597.774	587.75
597.983	555.75
598.192	569.75
598.401	571.75
598.61	555.75
598.819	554.75
599.028	555.75
599.237	548.75
599.446	535.75
599.655	553.75
599.864	533.75
600.073	537.75
600.282	537.75
600.491	536.75
600.7	516.75
600.909	523.75
601.118	539.75
601.327	513.75
601.536	525.75
601.745	527.75
601.953	527.75
602.162	522.75
602.371	521.75
602.58	503.75
602.789	509.75
602.997	505.75
603.206	507.75
603.415	494.75
603.623	497.75
603.832	509.75
604.041	508.75
604.249	484.75
604.458	483.75
604.666	463.75
604.875	480.75
605.084	485.75
605.292	460.75
605.501	486.75
605.709	491.75
605.918	499.75
606.126	488.75
606.334	465.75
606.543	471.75
606.751	483.75
606.96	487.75
607.168	488.75
607.376	475.75
607.585	467.75
607.793	460.75
608.001	463.75
608.21	458.75
608.418	489.75
608.626	476.75
608.834	462.75
609.043	471.75
609.251	459.75
609.459	449.75
609.667	458.75
609.875	462.75
610.083	473.75
610.291	462.75
610.499	446.75
610.707	478.75
610.916	446.75
611.124	465.75
611.332	450.75
611.54	469.75
611.748	455.75
611.955	422.75
612.163	441.75
612.371	463.75
612.579	441.75
612.787	440.75
612.995	431.75
613.203	460.75
613.411	439.75
613.618	424.75
613.826	438.75
614.034	454.75
614.242	467.75
614.449	441.75
614.657	423.75
614.865	443.75
615.072	427.75
615.28	435.75
615.488	427.75
615.695	437.75
615.903	444.75
616.111	440.75
616.318	449.75
616.526	465.75
616.733	454.75
616.941	456.75
617.148	460.75
617.356	439.75
617.563	443.75
617.771	475.75
617.978	449.75
618.185	440.75
618.393	463.75
618.6	453.75
618.807	431.75
619.015	417.75
619.222	435.75
619.429	440.75
619.637	428.75
619.844	435.75
620.051	430.75
620.258	425.75
620.466	420.75
620.673	392.75
620.88	413.75
621.087	396.75
621.294	410.75
621.501	400.75
621.708	411.75
621.915	421.75
622.122	406.75
622.329	429.75
622.536	406.75
622.743	415.75
622.95	397.75
623.157	408.75
623.364	366.75
623.571	393.75
623.778	397.75
623.985	383.75
624.192	393.75
624.399	376.75
624.606	375.75
624.812	376.75
625.019	370.75
625.226	388.75
625.433	367.75
625.639	381.75
625.846	385.75
626.053	378.75
626.259	377.75
626.466	377.75
626.673	377.75
626.879	355.75
627.086	391.75
627.293	383.75
627.499	373.75
627.706	379.75
627.912	358.75
628.119	380.75
628.325	371.75
628.532	342.75
628.738	351.75
628.945	358.75
629.151	372.75
629.357	349.75
629.564	355.75
629.77	358.75
629.976	352.75
630.183	337.75
630.389	330.75
630.595	339.75
630.802	325.75
631.008	355.75
631.214	349.75
631.42	349.75
631.627	321.75
631.833	325.75
632.039	328.75
632.245	345.75
632.451	332.75
632.657	333.75
632.863	332.75
633.069	330.75
633.275	348.75
633.481	346.75
633.688	345.75
633.893	325.75
634.099	310.75
634.305	336.75
634.511	318.75
634.717	334.75
634.923	327.75
635.129	305.75
635.335	323.75
635.541	318.75
635.747	320.75
635.952	334.75
636.158	323.75
636.364	331.75
636.57	304.75
636.775	308.75
636.981	323.75
637.187	326.75
637.392	324.75
637.598	325.75
637.804	320.75
638.009	323.75
638.215	323.75
638.421	310.75
638.626	300.75
638.832	330.75
639.037	302.75
639.243	279.75
639.448	309.75
639.654	305.75
639.859	309.75
640.065	318.75
640.27	307.75
640.475	301.75
640.681	301.75
640.886	328.75
641.091	305.75
641.297	288.75
641.502	314.75
641.707	301.75
641.913	307.75
642.118	295.75
642.323	289.75
642.528	303.75
642.733	291.75
642.939	296.75
643.144	291.75
643.349	285.75
643.554	309.75
643.759	311.75
643.964	287.75
644.169	285.75
644.374	304.75
644.579	288.75
644.784	302.75
644.989	304.75
645.194	294.75
645.399	295.75
645.604	293.75
645.809	298.75
646.014	303.75
646.219	287.75
646.423	302.75
646.628	295.75
646.833	303.75
647.038	295.75
647.243	311.75
647.447	311.75
647.652	316.75
647.857	315.75
648.062	301.75
648.266	316.75
648.471	317.75
648.676	334.75
648.88	328.75
649.085	311.75
649.289	312.75
649.494	300.75
649.698	302.75
649.903	289.75
650.107	293.75
650.312	307.75
650.516	298.75
650.721	299.75
650.925	299.75
651.13	290.75
651.334	293.75
651.539	289.75
651.743	299.75
651.947	292.75
652.152	284.75
652.356	299.75
652.56	287.75
652.764	266.75
652.969	284.75
653.173	288.75
653.377	275.75
653.581	271.75
653.785	275.75
653.99	277.75
654.194	298.75
654.398	281.75
654.602	296.75
654.806	287.75
655.01	310.75
655.214	284.75
655.418	292.75
655.622	315.75
655.826	311.75
656.03	327.75
656.234	325.75
656.438	348.75
656.642	346.75
656.846	342.75
657.049	309.75
657.253	272.75
657.457	277.75
657.661	249.75
657.865	230.75
658.068	213.75
658.272	205.75
658.476	172.75
658.68	167.75
658.883	166.75
659.087	157.75
659.291	160.75
659.494	142.75
659.698	143.75
659.901	127.75
660.105	123.75
660.309	121.75
660.512	116.75
660.716	118.75
660.919	111.75
661.123	127.75
661.326	108.75
661.53	120.75
661.733	104.75
661.936	117.75
662.14	113.75
662.343	87.75
662.546	98.75
662.75	95.75
662.953	87.75
663.156	87.75
663.36	92.75
663.563	98.75
663.766	86.75
663.969	87.75
664.173	89.75
664.376	87.75
664.579	92.75
664.782	87.75
664.985	87.75
665.188	84.75
665.391	87.75
665.594	80.75
665.797	94.75
666	88.75
666.203	86.75
666.406	86.75
666.609	88.75
666.812	98.75
667.015	71.75
667.218	73.75
667.421	82.75
667.624	74.75
667.827	70.75
668.03	78.75
668.232	78.75
668.435	77.75
668.638	90.75
668.841	88.75
669.043	73.75
669.246	73.75
669.449	83.75
669.651	93.75
669.854	97.75
670.057	75.75
670.259	78.75
670.462	87.75
670.665	94.75
670.867	88.75
671.07	89.75
671.272	90.75
671.475	89.75
671.677	96.75
671.88	93.75
672.082	87.75
672.284	88.75
672.487	97.75
672.689	77.75
672.892	81.75
