Data from NiCl2@0.5M.TitratingCurve.Agarose3%dH2O.NegLispCup.LampEnergy10.LIBS07252019_HRD10591_18-19-56-571.txt Node
Date: Thu Jul 25 18:19:56 EDT 2019
User: cochatt
Spectrometer: HR+D1059
Trigger mode: 1
Integration Time (sec): 1.000000E-1
Scans to average: 1
Electric dark correction enabled: true
Nonlinearity correction enabled: false
Boxcar width: 0
XAxis mode: Wavelengths
Number of Pixels in Spectrum: 2048
>>>>>Begin Spectral Data<<<<<
223.165	-20.56
223.4	-20.56
223.635	-20.56
223.869	-14.56
224.104	-19.56
224.338	-21.56
224.573	-24.56
224.808	-4.56
225.042	-16.56
225.277	0.44
225.511	-0.56
225.746	7.44
225.98	5.44
226.215	10.44
226.449	23.44
226.683	22.44
226.918	17.44
227.152	35.44
227.387	37.44
227.621	28.44
227.856	39.44
228.09	45.44
228.324	39.44
228.559	54.44
228.793	68.44
229.027	93.44
229.262	104.44
229.496	109.44
229.73	99.44
229.964	103.44
230.199	103.44
230.433	117.44
230.667	104.44
230.901	104.44
231.136	110.44
231.37	110.44
231.604	120.44
231.838	120.44
232.072	127.44
232.306	118.44
232.541	127.44
232.775	139.44
233.009	117.44
233.243	122.44
233.477	109.44
233.711	139.44
233.945	122.44
234.179	139.44
234.413	138.44
234.647	123.44
234.881	126.44
235.115	137.44
235.349	137.44
235.583	147.44
235.817	129.44
236.051	131.44
236.285	153.44
236.519	140.44
236.753	125.44
236.987	123.44
237.221	123.44
237.455	134.44
237.689	137.44
237.922	129.44
238.156	142.44
238.39	131.44
238.624	133.44
238.858	131.44
239.091	133.44
239.325	154.44
239.559	151.44
239.793	151.44
240.027	155.44
240.26	137.44
240.494	149.44
240.728	137.44
240.961	144.44
241.195	152.44
241.429	151.44
241.662	144.44
241.896	150.44
242.13	139.44
242.363	161.44
242.597	156.44
242.83	171.44
243.064	155.44
243.298	149.44
243.531	160.44
243.765	161.44
243.998	167.44
244.232	151.44
244.465	174.44
244.699	155.44
244.932	165.44
245.166	170.44
245.399	163.44
245.633	161.44
245.866	174.44
246.099	171.44
246.333	159.44
246.566	167.44
246.8	178.44
247.033	169.44
247.266	177.44
247.5	183.44
247.733	197.44
247.966	172.44
248.2	182.44
248.433	181.44
248.666	199.44
248.899	189.44
249.133	187.44
249.366	202.44
249.599	187.44
249.832	192.44
250.066	195.44
250.299	185.44
250.532	195.44
250.765	203.44
250.998	201.44
251.231	214.44
251.465	218.44
251.698	197.44
251.931	181.44
252.164	204.44
252.397	211.44
252.63	207.44
252.863	207.44
253.096	214.44
253.329	205.44
253.562	219.44
253.795	213.44
254.028	205.44
254.261	226.44
254.494	222.44
254.727	216.44
254.96	214.44
255.193	206.44
255.426	229.44
255.659	222.44
255.892	215.44
256.124	193.44
256.357	230.44
256.59	216.44
256.823	220.44
257.056	218.44
257.289	220.44
257.521	236.44
257.754	215.44
257.987	237.44
258.22	231.44
258.452	226.44
258.685	251.44
258.918	251.44
259.151	229.44
259.383	257.44
259.616	241.44
259.849	242.44
260.081	234.44
260.314	243.44
260.547	233.44
260.779	249.44
261.012	245.44
261.244	234.44
261.477	239.44
261.71	247.44
261.942	245.44
262.175	248.44
262.407	247.44
262.64	244.44
262.872	254.44
263.105	242.44
263.337	255.44
263.57	242.44
263.802	264.44
264.035	262.44
264.267	271.44
264.499	259.44
264.732	264.44
264.964	260.44
265.197	264.44
265.429	267.44
265.661	283.44
265.894	279.44
266.126	265.44
266.358	248.44
266.591	260.44
266.823	259.44
267.055	270.44
267.287	269.44
267.52	263.44
267.752	274.44
267.984	274.44
268.216	263.44
268.448	279.44
268.681	282.44
268.913	283.44
269.145	276.44
269.377	285.44
269.609	261.44
269.841	289.44
270.073	274.44
270.306	276.44
270.538	282.44
270.77	276.44
271.002	287.44
271.234	277.44
271.466	294.44
271.698	282.44
271.93	282.44
272.162	286.44
272.394	311.44
272.626	305.44
272.858	317.44
273.09	298.44
273.322	301.44
273.553	293.44
273.785	285.44
274.017	301.44
274.249	300.44
274.481	297.44
274.713	323.44
274.945	294.44
275.176	305.44
275.408	317.44
275.64	305.44
275.872	308.44
276.104	310.44
276.335	332.44
276.567	296.44
276.799	313.44
277.031	320.44
277.262	313.44
277.494	313.44
277.726	306.44
277.957	310.44
278.189	328.44
278.421	324.44
278.652	318.44
278.884	341.44
279.115	339.44
279.347	319.44
279.579	333.44
279.81	338.44
280.042	355.44
280.273	340.44
280.505	355.44
280.736	339.44
280.968	336.44
281.199	348.44
281.431	347.44
281.662	335.44
281.894	354.44
282.125	354.44
282.356	342.44
282.588	361.44
282.819	346.44
283.051	348.44
283.282	337.44
283.513	354.44
283.745	356.44
283.976	344.44
284.207	342.44
284.439	369.44
284.67	367.44
284.901	358.44
285.132	351.44
285.364	353.44
285.595	357.44
285.826	377.44
286.057	385.44
286.288	367.44
286.52	369.44
286.751	374.44
286.982	378.44
287.213	385.44
287.444	384.44
287.675	373.44
287.906	386.44
288.138	376.44
288.369	398.44
288.6	382.44
288.831	388.44
289.062	373.44
289.293	373.44
289.524	381.44
289.755	405.44
289.986	404.44
290.217	369.44
290.448	397.44
290.679	405.44
290.91	403.44
291.141	396.44
291.371	377.44
291.602	386.44
291.833	383.44
292.064	400.44
292.295	393.44
292.526	405.44
292.757	391.44
292.987	390.44
293.218	394.44
293.449	389.44
293.68	398.44
293.91	403.44
294.141	409.44
294.372	397.44
294.603	402.44
294.833	408.44
295.064	414.44
295.295	398.44
295.525	398.44
295.756	385.44
295.987	394.44
296.217	416.44
296.448	403.44
296.679	425.44
296.909	403.44
297.14	406.44
297.37	405.44
297.601	409.44
297.831	414.44
298.062	423.44
298.292	429.44
298.523	436.44
298.753	455.44
298.984	429.44
299.214	431.44
299.445	450.44
299.675	439.44
299.905	431.44
300.136	452.44
300.366	431.44
300.597	430.44
300.827	424.44
301.057	437.44
301.288	449.44
301.518	469.44
301.748	438.44
301.979	459.44
302.209	455.44
302.439	436.44
302.669	440.44
302.9	453.44
303.13	470.44
303.36	468.44
303.59	462.44
303.82	430.44
304.051	458.44
304.281	441.44
304.511	439.44
304.741	469.44
304.971	452.44
305.201	468.44
305.431	447.44
305.661	469.44
305.891	452.44
306.121	451.44
306.352	473.44
306.582	453.44
306.812	419.44
307.042	438.44
307.272	468.44
307.502	446.44
307.731	466.44
307.961	460.44
308.191	464.44
308.421	463.44
308.651	425.44
308.881	463.44
309.111	446.44
309.341	446.44
309.571	435.44
309.8	468.44
310.03	455.44
310.26	446.44
310.49	476.44
310.72	445.44
310.949	465.44
311.179	453.44
311.409	447.44
311.639	453.44
311.868	454.44
312.098	459.44
312.328	443.44
312.557	465.44
312.787	473.44
313.017	477.44
313.246	464.44
313.476	485.44
313.706	479.44
313.935	484.44
314.165	479.44
314.394	492.44
314.624	481.44
314.853	478.44
315.083	500.44
315.312	489.44
315.542	469.44
315.771	490.44
316.001	456.44
316.23	461.44
316.46	461.44
316.689	477.44
316.919	482.44
317.148	474.44
317.377	467.44
317.607	473.44
317.836	478.44
318.065	482.44
318.295	494.44
318.524	479.44
318.753	477.44
318.983	475.44
319.212	462.44
319.441	459.44
319.67	467.44
319.9	463.44
320.129	467.44
320.358	456.44
320.587	475.44
320.816	463.44
321.046	499.44
321.275	491.44
321.504	469.44
321.733	476.44
321.962	483.44
322.191	494.44
322.42	500.44
322.649	486.44
322.878	504.44
323.108	469.44
323.337	502.44
323.566	475.44
323.795	504.44
324.024	485.44
324.253	479.44
324.482	491.44
324.71	488.44
324.939	489.44
325.168	519.44
325.397	499.44
325.626	485.44
325.855	516.44
326.084	526.44
326.313	544.44
326.542	518.44
326.77	534.44
326.999	530.44
327.228	523.44
327.457	514.44
327.686	525.44
327.914	545.44
328.143	530.44
328.372	518.44
328.6	512.44
328.829	506.44
329.058	513.44
329.287	517.44
329.515	521.44
329.744	509.44
329.972	506.44
330.201	543.44
330.43	535.44
330.658	524.44
330.887	535.44
331.115	563.44
331.344	562.44
331.572	556.44
331.801	577.44
332.03	591.44
332.258	592.44
332.486	606.44
332.715	576.44
332.943	614.44
333.172	647.44
333.4	643.44
333.629	659.44
333.857	674.44
334.085	681.44
334.314	646.44
334.542	658.44
334.771	639.44
334.999	622.44
335.227	633.44
335.455	635.44
335.684	626.44
335.912	621.44
336.14	615.44
336.369	632.44
336.597	637.44
336.825	618.44
337.053	630.44
337.281	609.44
337.51	597.44
337.738	599.44
337.966	594.44
338.194	568.44
338.422	552.44
338.65	563.44
338.878	575.44
339.106	571.44
339.334	587.44
339.562	570.44
339.79	553.44
340.018	542.44
340.246	556.44
340.474	535.44
340.702	561.44
340.93	543.44
341.158	535.44
341.386	549.44
341.614	546.44
341.842	547.44
342.07	545.44
342.298	549.44
342.526	537.44
342.754	547.44
342.981	548.44
343.209	561.44
343.437	577.44
343.665	620.44
343.893	641.44
344.12	669.44
344.348	649.44
344.576	610.44
344.804	587.44
345.031	571.44
345.259	555.44
345.487	571.44
345.714	546.44
345.942	556.44
346.17	540.44
346.397	551.44
346.625	533.44
346.853	521.44
347.08	506.44
347.308	500.44
347.535	528.44
347.763	530.44
347.99	515.44
348.218	520.44
348.445	531.44
348.673	513.44
348.9	525.44
349.128	530.44
349.355	548.44
349.583	532.44
349.81	517.44
350.037	509.44
350.265	508.44
350.492	495.44
350.72	519.44
350.947	492.44
351.174	503.44
351.402	499.44
351.629	502.44
351.856	523.44
352.083	513.44
352.311	512.44
352.538	530.44
352.765	499.44
352.992	490.44
353.22	485.44
353.447	483.44
353.674	494.44
353.901	501.44
354.128	499.44
354.355	498.44
354.583	512.44
354.81	510.44
355.037	511.44
355.264	517.44
355.491	489.44
355.718	508.44
355.945	499.44
356.172	493.44
356.399	517.44
356.626	502.44
356.853	502.44
357.08	498.44
357.307	507.44
357.534	490.44
357.761	497.44
357.988	485.44
358.215	502.44
358.441	501.44
358.668	506.44
358.895	486.44
359.122	488.44
359.349	481.44
359.576	502.44
359.802	513.44
360.029	503.44
360.256	486.44
360.483	491.44
360.709	493.44
360.936	510.44
361.163	505.44
361.39	493.44
361.616	481.44
361.843	490.44
362.07	505.44
362.296	510.44
362.523	488.44
362.749	513.44
362.976	500.44
363.203	484.44
363.429	499.44
363.656	501.44
363.882	496.44
364.109	499.44
364.335	519.44
364.562	479.44
364.788	482.44
365.015	475.44
365.241	495.44
365.468	487.44
365.694	475.44
365.92	494.44
366.147	476.44
366.373	490.44
366.599	467.44
366.826	488.44
367.052	480.44
367.278	498.44
367.505	485.44
367.731	497.44
367.957	473.44
368.184	499.44
368.41	490.44
368.636	497.44
368.862	503.44
369.089	480.44
369.315	511.44
369.541	519.44
369.767	524.44
369.993	493.44
370.219	476.44
370.445	514.44
370.672	526.44
370.898	535.44
371.124	527.44
371.35	523.44
371.576	528.44
371.802	509.44
372.028	533.44
372.254	531.44
372.48	524.44
372.706	536.44
372.932	531.44
373.158	522.44
373.384	525.44
373.61	554.44
373.835	535.44
374.061	547.44
374.287	517.44
374.513	527.44
374.739	552.44
374.965	536.44
375.191	568.44
375.416	573.44
375.642	582.44
375.868	565.44
376.094	537.44
376.319	551.44
376.545	520.44
376.771	523.44
376.997	526.44
377.222	509.44
377.448	531.44
377.674	540.44
377.899	521.44
378.125	521.44
378.35	526.44
378.576	519.44
378.802	524.44
379.027	512.44
379.253	509.44
379.478	510.44
379.704	498.44
379.929	514.44
380.155	502.44
380.38	504.44
380.606	515.44
380.831	528.44
381.057	531.44
381.282	535.44
381.507	527.44
381.733	527.44
381.958	520.44
382.184	535.44
382.409	535.44
382.634	535.44
382.86	553.44
383.085	545.44
383.31	531.44
383.535	542.44
383.761	575.44
383.986	566.44
384.211	571.44
384.436	572.44
384.662	603.44
384.887	595.44
385.112	594.44
385.337	599.44
385.562	599.44
385.787	626.44
386.013	626.44
386.238	602.44
386.463	609.44
386.688	603.44
386.913	599.44
387.138	597.44
387.363	579.44
387.588	597.44
387.813	584.44
388.038	605.44
388.263	571.44
388.488	599.44
388.713	607.44
388.938	586.44
389.163	593.44
389.387	590.44
389.612	590.44
389.837	598.44
390.062	607.44
390.287	606.44
390.512	597.44
390.736	604.44
390.961	636.44
391.186	615.44
391.411	617.44
391.636	661.44
391.86	635.44
392.085	655.44
392.31	652.44
392.534	639.44
392.759	652.44
392.984	647.44
393.208	625.44
393.433	625.44
393.658	642.44
393.882	631.44
394.107	619.44
394.331	653.44
394.556	641.44
394.78	669.44
395.005	655.44
395.229	651.44
395.454	652.44
395.678	691.44
395.903	676.44
396.127	634.44
396.352	632.44
396.576	651.44
396.801	635.44
397.025	633.44
397.249	662.44
397.474	650.44
397.698	686.44
397.922	653.44
398.147	670.44
398.371	701.44
398.595	711.44
398.82	732.44
399.044	769.44
399.268	847.44
399.492	962.44
399.717	1059.44
399.941	1077.44
400.165	951.44
400.389	886.44
400.613	809.44
400.837	757.44
401.062	761.44
401.286	738.44
401.51	728.44
401.734	760.44
401.958	760.44
402.182	731.44
402.406	771.44
402.63	775.44
402.854	793.44
403.078	801.44
403.302	827.44
403.526	815.44
403.75	823.44
403.974	831.44
404.198	831.44
404.422	841.44
404.645	829.44
404.869	825.44
405.093	809.44
405.317	831.44
405.541	823.44
405.765	792.44
405.988	827.44
406.212	821.44
406.436	807.44
406.66	795.44
406.883	825.44
407.107	901.44
407.331	945.44
407.555	972.44
407.778	940.44
408.002	938.44
408.226	920.44
408.449	931.44
408.673	838.44
408.896	833.44
409.12	871.44
409.344	849.44
409.567	838.44
409.791	865.44
410.014	830.44
410.238	822.44
410.461	802.44
410.685	813.44
410.908	827.44
411.132	795.44
411.355	777.44
411.578	799.44
411.802	773.44
412.025	791.44
412.249	792.44
412.472	792.44
412.695	809.44
412.919	750.44
413.142	777.44
413.365	759.44
413.589	804.44
413.812	748.44
414.035	779.44
414.258	769.44
414.482	746.44
414.705	787.44
414.928	778.44
415.151	767.44
415.374	761.44
415.597	747.44
415.821	737.44
416.044	758.44
416.267	724.44
416.49	743.44
416.713	740.44
416.936	726.44
417.159	735.44
417.382	734.44
417.605	731.44
417.828	743.44
418.051	759.44
418.274	743.44
418.497	754.44
418.72	753.44
418.943	759.44
419.166	832.44
419.389	854.44
419.611	864.44
419.834	805.44
420.057	805.44
420.28	763.44
420.503	705.44
420.726	727.44
420.948	735.44
421.171	753.44
421.394	740.44
421.617	755.44
421.839	761.44
422.062	764.44
422.285	754.44
422.507	778.44
422.73	776.44
422.953	759.44
423.175	782.44
423.398	811.44
423.621	793.44
423.843	793.44
424.066	795.44
424.288	790.44
424.511	801.44
424.733	792.44
424.956	792.44
425.178	797.44
425.401	778.44
425.623	788.44
425.846	755.44
426.068	748.44
426.291	730.44
426.513	757.44
426.735	743.44
426.958	721.44
427.18	725.44
427.402	745.44
427.625	717.44
427.847	715.44
428.069	712.44
428.292	711.44
428.514	685.44
428.736	676.44
428.958	685.44
429.181	673.44
429.403	689.44
429.625	699.44
429.847	687.44
430.069	697.44
430.292	695.44
430.514	676.44
430.736	695.44
430.958	701.44
431.18	695.44
431.402	683.44
431.624	722.44
431.846	693.44
432.068	733.44
432.29	710.44
432.512	711.44
432.734	729.44
432.956	702.44
433.178	733.44
433.4	700.44
433.622	716.44
433.844	719.44
434.066	718.44
434.287	717.44
434.509	745.44
434.731	763.44
434.953	767.44
435.175	757.44
435.397	794.44
435.618	741.44
435.84	748.44
436.062	725.44
436.284	710.44
436.505	715.44
436.727	723.44
436.949	718.44
437.17	716.44
437.392	681.44
437.614	698.44
437.835	711.44
438.057	698.44
438.278	681.44
438.5	675.44
438.721	694.44
438.943	718.44
439.165	694.44
439.386	715.44
439.608	695.44
439.829	731.44
440.05	713.44
440.272	698.44
440.493	719.44
440.715	702.44
440.936	727.44
441.158	759.44
441.379	773.44
441.6	812.44
441.822	762.44
442.043	778.44
442.264	793.44
442.486	759.44
442.707	779.44
442.928	778.44
443.149	765.44
443.371	798.44
443.592	790.44
443.813	778.44
444.034	795.44
444.255	825.44
444.476	845.44
444.698	906.44
444.919	926.44
445.14	1002.44
445.361	881.44
445.582	813.44
445.803	769.44
446.024	750.44
446.245	750.44
446.466	780.44
446.687	749.44
446.908	733.44
447.129	727.44
447.35	730.44
447.571	727.44
447.792	697.44
448.013	683.44
448.234	689.44
448.455	679.44
448.675	678.44
448.896	672.44
449.117	665.44
449.338	655.44
449.559	671.44
449.779	680.44
450	650.44
450.221	641.44
450.442	685.44
450.662	666.44
450.883	663.44
451.104	700.44
451.324	698.44
451.545	690.44
451.766	679.44
451.986	669.44
452.207	661.44
452.428	658.44
452.648	644.44
452.869	637.44
453.089	649.44
453.31	645.44
453.53	660.44
453.751	641.44
453.971	640.44
454.192	655.44
454.412	636.44
454.633	637.44
454.853	620.44
455.073	617.44
455.294	630.44
455.514	610.44
455.734	630.44
455.955	609.44
456.175	615.44
456.395	591.44
456.616	620.44
456.836	628.44
457.056	615.44
457.276	618.44
457.497	622.44
457.717	631.44
457.937	609.44
458.157	649.44
458.377	637.44
458.598	645.44
458.818	638.44
459.038	675.44
459.258	705.44
459.478	720.44
459.698	741.44
459.918	784.44
460.138	796.44
460.358	795.44
460.578	805.44
460.798	829.44
461.018	846.44
461.238	811.44
461.458	822.44
461.678	825.44
461.898	845.44
462.118	843.44
462.338	879.44
462.558	902.44
462.777	947.44
462.997	1017.44
463.217	1077.44
463.437	1098.44
463.657	998.44
463.876	975.44
464.096	943.44
464.316	949.44
464.536	953.44
464.755	937.44
464.975	905.44
465.195	860.44
465.414	789.44
465.634	747.44
465.854	751.44
466.073	737.44
466.293	735.44
466.512	708.44
466.732	705.44
466.951	701.44
467.171	701.44
467.391	726.44
467.61	693.44
467.829	695.44
468.049	706.44
468.268	670.44
468.488	677.44
468.707	670.44
468.927	685.44
469.146	682.44
469.365	661.44
469.585	679.44
469.804	680.44
470.023	706.44
470.243	730.44
470.462	727.44
470.681	745.44
470.901	737.44
471.12	741.44
471.339	703.44
471.558	707.44
471.777	713.44
471.997	721.44
472.216	705.44
472.435	666.44
472.654	672.44
472.873	666.44
473.092	667.44
473.311	661.44
473.53	678.44
473.749	677.44
473.968	664.44
474.187	653.44
474.406	663.44
474.625	697.44
474.844	670.44
475.063	683.44
475.282	651.44
475.501	664.44
475.72	697.44
475.939	693.44
476.158	687.44
476.377	711.44
476.596	675.44
476.814	705.44
477.033	737.44
477.252	724.44
477.471	737.44
477.69	749.44
477.908	759.44
478.127	787.44
478.346	790.44
478.564	805.44
478.783	844.44
479.002	815.44
479.22	830.44
479.439	835.44
479.658	826.44
479.876	840.44
480.095	834.44
480.313	847.44
480.532	866.44
480.751	859.44
480.969	867.44
481.188	803.44
481.406	799.44
481.624	802.44
481.843	774.44
482.061	756.44
482.28	797.44
482.498	762.44
482.717	742.44
482.935	779.44
483.153	787.44
483.372	797.44
483.59	814.44
483.808	777.44
484.027	798.44
484.245	803.44
484.463	798.44
484.681	806.44
484.9	780.44
485.118	790.44
485.336	802.44
485.554	778.44
485.772	838.44
485.99	785.44
486.209	831.44
486.427	813.44
486.645	807.44
486.863	825.44
487.081	835.44
487.299	815.44
487.517	830.44
487.735	833.44
487.953	840.44
488.171	859.44
488.389	810.44
488.607	787.44
488.825	805.44
489.043	777.44
489.261	791.44
489.479	781.44
489.696	819.44
489.914	809.44
490.132	807.44
490.35	802.44
490.568	830.44
490.786	838.44
491.003	827.44
491.221	837.44
491.439	841.44
491.657	852.44
491.874	842.44
492.092	836.44
492.31	830.44
492.527	877.44
492.745	835.44
492.963	879.44
493.18	858.44
493.398	854.44
493.615	859.44
493.833	852.44
494.05	867.44
494.268	867.44
494.485	870.44
494.703	874.44
494.92	875.44
495.138	886.44
495.355	859.44
495.573	891.44
495.79	877.44
496.008	888.44
496.225	876.44
496.442	897.44
496.66	901.44
496.877	900.44
497.094	905.44
497.312	911.44
497.529	956.44
497.746	944.44
497.963	1028.44
498.181	993.44
498.398	1072.44
498.615	1109.44
498.832	1190.44
499.049	1249.44
499.267	1313.44
499.484	1483.44
499.701	1573.44
499.918	1731.44
500.135	1974.44
500.352	2181.44
500.569	2202.44
500.786	2203.44
501.003	2108.44
501.22	1905.44
501.437	1713.44
501.654	1531.44
501.871	1395.44
502.088	1299.44
502.305	1215.44
502.522	1164.44
502.739	1159.44
502.956	1081.44
503.172	1047.44
503.389	987.44
503.606	962.44
503.823	923.44
504.04	933.44
504.256	963.44
504.473	994.44
504.69	990.44
504.907	972.44
505.123	942.44
505.34	883.44
505.557	851.44
505.773	847.44
505.99	825.44
506.207	780.44
506.423	759.44
506.64	773.44
506.856	779.44
507.073	756.44
507.289	755.44
507.506	776.44
507.722	741.44
507.939	742.44
508.155	744.44
508.372	729.44
508.588	722.44
508.805	718.44
509.021	725.44
509.238	706.44
509.454	712.44
509.67	701.44
509.887	692.44
510.103	675.44
510.319	697.44
510.536	689.44
510.752	667.44
510.968	698.44
511.184	694.44
511.401	677.44
511.617	680.44
511.833	694.44
512.049	667.44
512.265	677.44
512.481	706.44
512.698	675.44
512.914	680.44
513.13	681.44
513.346	682.44
513.562	681.44
513.778	676.44
513.994	662.44
514.21	678.44
514.426	689.44
514.642	683.44
514.858	686.44
515.074	719.44
515.29	703.44
515.506	711.44
515.721	734.44
515.937	724.44
516.153	753.44
516.369	761.44
516.585	789.44
516.801	782.44
517.016	797.44
517.232	846.44
517.448	876.44
517.664	910.44
517.879	876.44
518.095	875.44
518.311	899.44
518.527	863.44
518.742	859.44
518.958	799.44
519.173	793.44
519.389	771.44
519.605	718.44
519.82	733.44
520.036	717.44
520.251	705.44
520.467	693.44
520.682	711.44
520.898	675.44
521.113	675.44
521.329	666.44
521.544	670.44
521.76	664.44
521.975	641.44
522.19	619.44
522.406	649.44
522.621	631.44
522.836	626.44
523.052	647.44
523.267	636.44
523.482	641.44
523.698	637.44
523.913	629.44
524.128	660.44
524.343	625.44
524.559	627.44
524.774	641.44
524.989	633.44
525.204	634.44
525.419	627.44
525.634	612.44
525.849	651.44
526.064	619.44
526.28	634.44
526.495	616.44
526.71	612.44
526.925	629.44
527.14	629.44
527.355	626.44
527.57	619.44
527.785	618.44
527.999	619.44
528.214	623.44
528.429	638.44
528.644	611.44
528.859	622.44
529.074	606.44
529.289	642.44
529.503	641.44
529.718	609.44
529.933	613.44
530.148	604.44
530.363	602.44
530.577	610.44
530.792	602.44
531.007	594.44
531.221	592.44
531.436	607.44
531.651	609.44
531.865	609.44
532.08	614.44
532.295	617.44
532.509	606.44
532.724	597.44
532.938	594.44
533.153	606.44
533.367	604.44
533.582	596.44
533.796	588.44
534.011	608.44
534.225	612.44
534.44	587.44
534.654	582.44
534.868	597.44
535.083	590.44
535.297	617.44
535.511	586.44
535.726	627.44
535.94	574.44
536.154	581.44
536.369	568.44
536.583	581.44
536.797	561.44
537.011	561.44
537.225	557.44
537.44	572.44
537.654	573.44
537.868	575.44
538.082	570.44
538.296	561.44
538.51	564.44
538.724	579.44
538.938	558.44
539.153	558.44
539.367	610.44
539.581	547.44
539.795	563.44
540.009	569.44
540.222	554.44
540.436	535.44
540.65	552.44
540.864	546.44
541.078	549.44
541.292	565.44
541.506	565.44
541.72	586.44
541.934	580.44
542.147	574.44
542.361	564.44
542.575	559.44
542.789	549.44
543.002	565.44
543.216	573.44
543.43	555.44
543.644	561.44
543.857	538.44
544.071	566.44
544.285	589.44
544.498	573.44
544.712	561.44
544.925	568.44
545.139	550.44
545.352	549.44
545.566	574.44
545.779	573.44
545.993	572.44
546.206	591.44
546.42	572.44
546.633	580.44
546.847	572.44
547.06	587.44
547.274	561.44
547.487	578.44
547.7	569.44
547.914	546.44
548.127	549.44
548.34	592.44
548.554	567.44
548.767	589.44
548.98	589.44
549.193	578.44
549.407	575.44
549.62	597.44
549.833	583.44
550.046	588.44
550.259	579.44
550.473	556.44
550.686	553.44
550.899	574.44
551.112	558.44
551.325	576.44
551.538	559.44
551.751	554.44
551.964	566.44
552.177	545.44
552.39	567.44
552.603	591.44
552.816	604.44
553.029	589.44
553.242	620.44
553.455	616.44
553.667	611.44
553.88	625.44
554.093	595.44
554.306	571.44
554.519	553.44
554.732	529.44
554.944	542.44
555.157	537.44
555.37	542.44
555.583	532.44
555.795	527.44
556.008	505.44
556.221	518.44
556.433	525.44
556.646	508.44
556.859	503.44
557.071	490.44
557.284	485.44
557.496	526.44
557.709	487.44
557.921	487.44
558.134	476.44
558.346	491.44
558.559	489.44
558.771	484.44
558.984	489.44
559.196	475.44
559.409	487.44
559.621	469.44
559.833	488.44
560.046	468.44
560.258	491.44
560.47	468.44
560.683	469.44
560.895	464.44
561.107	463.44
561.32	461.44
561.532	459.44
561.744	466.44
561.956	473.44
562.168	456.44
562.381	475.44
562.593	461.44
562.805	471.44
563.017	462.44
563.229	471.44
563.441	469.44
563.653	478.44
563.865	477.44
564.077	491.44
564.289	479.44
564.501	490.44
564.713	492.44
564.925	516.44
565.137	507.44
565.349	509.44
565.561	545.44
565.773	561.44
565.985	556.44
566.197	592.44
566.408	607.44
566.62	660.44
566.832	705.44
567.044	717.44
567.255	702.44
567.467	743.44
567.679	747.44
567.891	786.44
568.102	813.44
568.314	775.44
568.526	699.44
568.737	656.44
568.949	619.44
569.161	561.44
569.372	540.44
569.584	524.44
569.795	501.44
570.007	480.44
570.218	462.44
570.43	465.44
570.641	461.44
570.853	448.44
571.064	471.44
571.276	497.44
571.487	460.44
571.698	457.44
571.91	438.44
572.121	425.44
572.333	399.44
572.544	400.44
572.755	400.44
572.966	405.44
573.178	401.44
573.389	388.44
573.6	405.44
573.811	397.44
574.023	403.44
574.234	398.44
574.445	378.44
574.656	365.44
574.867	374.44
575.078	385.44
575.289	382.44
575.501	365.44
575.712	377.44
575.923	383.44
576.134	369.44
576.345	359.44
576.556	372.44
576.767	363.44
576.978	369.44
577.188	378.44
577.399	358.44
577.61	360.44
577.821	369.44
578.032	349.44
578.243	335.44
578.454	345.44
578.665	348.44
578.875	345.44
579.086	345.44
579.297	341.44
579.508	342.44
579.718	344.44
579.929	321.44
580.14	338.44
580.35	356.44
580.561	340.44
580.772	348.44
580.982	326.44
581.193	323.44
581.403	314.44
581.614	337.44
581.825	330.44
582.035	345.44
582.246	319.44
582.456	312.44
582.667	331.44
582.877	349.44
583.087	319.44
583.298	310.44
583.508	323.44
583.719	322.44
583.929	308.44
584.139	316.44
584.35	323.44
584.56	316.44
584.77	309.44
584.981	318.44
585.191	312.44
585.401	324.44
585.611	319.44
585.821	323.44
586.032	321.44
586.242	306.44
586.452	298.44
586.662	312.44
586.872	310.44
587.082	320.44
587.292	310.44
587.502	313.44
587.713	319.44
587.923	308.44
588.133	304.44
588.343	310.44
588.553	316.44
588.762	332.44
588.972	317.44
589.182	334.44
589.392	353.44
589.602	320.44
589.812	332.44
590.022	330.44
590.232	306.44
590.441	310.44
590.651	328.44
590.861	319.44
591.071	310.44
591.281	329.44
591.49	319.44
591.7	339.44
591.91	347.44
592.119	342.44
592.329	332.44
592.539	349.44
592.748	355.44
592.958	357.44
593.167	341.44
593.377	383.44
593.587	394.44
593.796	383.44
594.006	389.44
594.215	372.44
594.424	390.44
594.634	383.44
594.843	366.44
595.053	342.44
595.262	333.44
595.472	342.44
595.681	314.44
595.89	320.44
596.1	337.44
596.309	326.44
596.518	305.44
596.727	296.44
596.937	294.44
597.146	292.44
597.355	290.44
597.564	277.44
597.774	269.44
597.983	286.44
598.192	299.44
598.401	275.44
598.61	270.44
598.819	274.44
599.028	287.44
599.237	284.44
599.446	286.44
599.655	283.44
599.864	264.44
600.073	263.44
600.282	270.44
600.491	265.44
600.7	275.44
600.909	281.44
601.118	284.44
601.327	245.44
601.536	277.44
601.745	271.44
601.953	275.44
602.162	284.44
602.371	264.44
602.58	240.44
602.789	257.44
602.997	259.44
603.206	276.44
603.415	253.44
603.623	243.44
603.832	243.44
604.041	261.44
604.249	246.44
604.458	245.44
604.666	263.44
604.875	248.44
605.084	248.44
605.292	258.44
605.501	244.44
605.709	245.44
605.918	266.44
606.126	251.44
606.334	241.44
606.543	245.44
606.751	241.44
606.96	244.44
607.168	275.44
607.376	245.44
607.585	232.44
607.793	245.44
608.001	245.44
608.21	234.44
608.418	216.44
608.626	226.44
608.834	241.44
609.043	253.44
609.251	254.44
609.459	240.44
609.667	249.44
609.875	262.44
610.083	236.44
610.291	227.44
610.499	247.44
610.707	241.44
610.916	234.44
611.124	233.44
611.332	233.44
611.54	249.44
611.748	250.44
611.955	225.44
612.163	237.44
612.371	224.44
612.579	224.44
612.787	225.44
612.995	235.44
613.203	243.44
613.411	216.44
613.618	237.44
613.826	222.44
614.034	240.44
614.242	232.44
614.449	237.44
614.657	243.44
614.865	226.44
615.072	233.44
615.28	244.44
615.488	229.44
615.695	214.44
615.903	249.44
616.111	229.44
616.318	248.44
616.526	232.44
616.733	217.44
616.941	226.44
617.148	227.44
617.356	238.44
617.563	213.44
617.771	230.44
617.978	227.44
618.185	235.44
618.393	228.44
618.6	246.44
618.807	223.44
619.015	236.44
619.222	234.44
619.429	227.44
619.637	233.44
619.844	222.44
620.051	217.44
620.258	211.44
620.466	227.44
620.673	201.44
620.88	196.44
621.087	227.44
621.294	204.44
621.501	234.44
621.708	219.44
621.915	203.44
622.122	207.44
622.329	215.44
622.536	202.44
622.743	203.44
622.95	210.44
623.157	216.44
623.364	214.44
623.571	225.44
623.778	214.44
623.985	209.44
624.192	218.44
624.399	210.44
624.606	208.44
624.812	197.44
625.019	198.44
625.226	197.44
625.433	211.44
625.639	207.44
625.846	184.44
626.053	218.44
626.259	209.44
626.466	192.44
626.673	190.44
626.879	198.44
627.086	194.44
627.293	201.44
627.499	207.44
627.706	203.44
627.912	199.44
628.119	205.44
628.325	210.44
628.532	216.44
628.738	194.44
628.945	182.44
629.151	201.44
629.357	196.44
629.564	195.44
629.77	196.44
629.976	170.44
630.183	177.44
630.389	181.44
630.595	215.44
630.802	200.44
631.008	205.44
631.214	179.44
631.42	173.44
631.627	196.44
631.833	179.44
632.039	185.44
632.245	175.44
632.451	183.44
632.657	187.44
632.863	168.44
633.069	174.44
633.275	188.44
633.481	189.44
633.688	183.44
633.893	178.44
634.099	168.44
634.305	181.44
634.511	164.44
634.717	179.44
634.923	178.44
635.129	183.44
635.335	200.44
635.541	189.44
635.747	167.44
635.952	170.44
636.158	169.44
636.364	173.44
636.57	181.44
636.775	177.44
636.981	182.44
637.187	179.44
637.392	169.44
637.598	171.44
637.804	174.44
638.009	174.44
638.215	164.44
638.421	165.44
638.626	159.44
638.832	172.44
639.037	168.44
639.243	166.44
639.448	161.44
639.654	177.44
639.859	164.44
640.065	166.44
640.27	186.44
640.475	182.44
640.681	179.44
640.886	162.44
641.091	155.44
641.297	180.44
641.502	167.44
641.707	171.44
641.913	165.44
642.118	165.44
642.323	166.44
642.528	161.44
642.733	156.44
642.939	174.44
643.144	160.44
643.349	163.44
643.554	172.44
643.759	170.44
643.964	169.44
644.169	160.44
644.374	167.44
644.579	155.44
644.784	151.44
644.989	165.44
645.194	166.44
645.399	151.44
645.604	164.44
645.809	170.44
646.014	169.44
646.219	153.44
646.423	143.44
646.628	163.44
646.833	161.44
647.038	165.44
647.243	180.44
647.447	161.44
647.652	167.44
647.857	168.44
648.062	171.44
648.266	179.44
648.471	168.44
648.676	181.44
648.88	176.44
649.085	184.44
649.289	163.44
649.494	171.44
649.698	146.44
649.903	157.44
650.107	152.44
650.312	162.44
650.516	156.44
650.721	162.44
650.925	142.44
651.13	167.44
651.334	151.44
651.539	169.44
651.743	135.44
651.947	133.44
652.152	137.44
652.356	150.44
652.56	147.44
652.764	140.44
652.969	136.44
653.173	139.44
653.377	132.44
653.581	137.44
653.785	159.44
653.99	135.44
654.194	133.44
654.398	138.44
654.602	129.44
654.806	124.44
655.01	136.44
655.214	139.44
655.418	124.44
655.622	149.44
655.826	141.44
656.03	136.44
656.234	134.44
656.438	149.44
656.642	129.44
656.846	131.44
657.049	137.44
657.253	131.44
657.457	117.44
657.661	125.44
657.865	107.44
658.068	110.44
658.272	95.44
658.476	108.44
658.68	103.44
658.883	103.44
659.087	98.44
659.291	97.44
659.494	101.44
659.698	106.44
659.901	94.44
660.105	92.44
660.309	91.44
660.512	94.44
660.716	92.44
660.919	96.44
661.123	104.44
661.326	85.44
661.53	97.44
661.733	90.44
661.936	89.44
662.14	83.44
662.343	72.44
662.546	95.44
662.75	92.44
662.953	94.44
663.156	97.44
663.36	89.44
663.563	74.44
663.766	99.44
663.969	80.44
664.173	79.44
664.376	87.44
664.579	82.44
664.782	85.44
664.985	84.44
665.188	85.44
665.391	78.44
665.594	84.44
665.797	81.44
666	75.44
666.203	87.44
666.406	99.44
666.609	77.44
666.812	84.44
667.015	81.44
667.218	71.44
667.421	82.44
667.624	85.44
667.827	88.44
668.03	91.44
668.232	84.44
668.435	72.44
668.638	87.44
668.841	89.44
669.043	73.44
669.246	92.44
669.449	81.44
669.651	76.44
669.854	76.44
670.057	88.44
670.259	72.44
670.462	86.44
670.665	89.44
670.867	77.44
671.07	78.44
671.272	85.44
671.475	92.44
671.677	79.44
671.88	75.44
672.082	87.44
672.284	85.44
672.487	85.44
672.689	89.44
672.892	98.44
