Data from NiCl2@0.5M.TitratingCurve.Agarose3%dH2O.NegLispCup.LampEnergy10.LIBS07252019_HRD10591_18-19-13-571.txt Node
Date: Thu Jul 25 18:19:13 EDT 2019
User: cochatt
Spectrometer: HR+D1059
Trigger mode: 1
Integration Time (sec): 1.000000E-1
Scans to average: 1
Electric dark correction enabled: true
Nonlinearity correction enabled: false
Boxcar width: 0
XAxis mode: Wavelengths
Number of Pixels in Spectrum: 2048
>>>>>Begin Spectral Data<<<<<
223.165	-23.38
223.4	-23.38
223.635	-23.38
223.869	-14.38
224.104	-23.38
224.338	-13.38
224.573	-9.38
224.808	-12.38
225.042	-8.38
225.277	-11.38
225.511	-11.38
225.746	5.62
225.98	9.62
226.215	22.62
226.449	14.62
226.683	16.62
226.918	22.62
227.152	35.62
227.387	44.62
227.621	35.62
227.856	40.62
228.09	47.62
228.324	51.62
228.559	67.62
228.793	67.62
229.027	124.62
229.262	128.62
229.496	156.62
229.73	149.62
229.964	162.62
230.199	170.62
230.433	182.62
230.667	191.62
230.901	169.62
231.136	181.62
231.37	179.62
231.604	188.62
231.838	182.62
232.072	190.62
232.306	199.62
232.541	197.62
232.775	194.62
233.009	198.62
233.243	161.62
233.477	199.62
233.711	189.62
233.945	190.62
234.179	198.62
234.413	188.62
234.647	197.62
234.881	209.62
235.115	208.62
235.349	182.62
235.583	173.62
235.817	191.62
236.051	182.62
236.285	200.62
236.519	185.62
236.753	193.62
236.987	208.62
237.221	195.62
237.455	214.62
237.689	218.62
237.922	208.62
238.156	212.62
238.39	200.62
238.624	216.62
238.858	222.62
239.091	216.62
239.325	234.62
239.559	247.62
239.793	234.62
240.027	233.62
240.26	230.62
240.494	216.62
240.728	226.62
240.961	226.62
241.195	246.62
241.429	240.62
241.662	253.62
241.896	256.62
242.13	269.62
242.363	259.62
242.597	276.62
242.83	269.62
243.064	251.62
243.298	266.62
243.531	267.62
243.765	276.62
243.998	263.62
244.232	294.62
244.465	285.62
244.699	287.62
244.932	277.62
245.166	284.62
245.399	291.62
245.633	292.62
245.866	298.62
246.099	280.62
246.333	292.62
246.566	280.62
246.8	291.62
247.033	297.62
247.266	299.62
247.5	316.62
247.733	325.62
247.966	314.62
248.2	291.62
248.433	316.62
248.666	299.62
248.899	317.62
249.133	325.62
249.366	333.62
249.599	341.62
249.832	320.62
250.066	335.62
250.299	350.62
250.532	346.62
250.765	329.62
250.998	362.62
251.231	338.62
251.465	352.62
251.698	362.62
251.931	362.62
252.164	357.62
252.397	355.62
252.63	363.62
252.863	371.62
253.096	378.62
253.329	371.62
253.562	365.62
253.795	378.62
254.028	390.62
254.261	382.62
254.494	382.62
254.727	384.62
254.96	376.62
255.193	378.62
255.426	407.62
255.659	404.62
255.892	385.62
256.124	406.62
256.357	392.62
256.59	382.62
256.823	395.62
257.056	404.62
257.289	424.62
257.521	406.62
257.754	431.62
257.987	406.62
258.22	411.62
258.452	429.62
258.685	426.62
258.918	404.62
259.151	429.62
259.383	439.62
259.616	402.62
259.849	444.62
260.081	439.62
260.314	429.62
260.547	418.62
260.779	445.62
261.012	451.62
261.244	457.62
261.477	453.62
261.71	454.62
261.942	444.62
262.175	445.62
262.407	452.62
262.64	451.62
262.872	456.62
263.105	469.62
263.337	472.62
263.57	461.62
263.802	457.62
264.035	500.62
264.267	468.62
264.499	473.62
264.732	480.62
264.964	494.62
265.197	477.62
265.429	474.62
265.661	500.62
265.894	493.62
266.126	518.62
266.358	510.62
266.591	515.62
266.823	526.62
267.055	498.62
267.287	512.62
267.52	502.62
267.752	485.62
267.984	532.62
268.216	530.62
268.448	533.62
268.681	545.62
268.913	522.62
269.145	532.62
269.377	506.62
269.609	499.62
269.841	530.62
270.073	549.62
270.306	543.62
270.538	559.62
270.77	533.62
271.002	514.62
271.234	562.62
271.466	548.62
271.698	567.62
271.93	546.62
272.162	575.62
272.394	554.62
272.626	546.62
272.858	555.62
273.09	572.62
273.322	558.62
273.553	557.62
273.785	569.62
274.017	569.62
274.249	556.62
274.481	570.62
274.713	592.62
274.945	580.62
275.176	606.62
275.408	592.62
275.64	603.62
275.872	576.62
276.104	616.62
276.335	622.62
276.567	607.62
276.799	623.62
277.031	617.62
277.262	626.62
277.494	617.62
277.726	611.62
277.957	620.62
278.189	621.62
278.421	618.62
278.652	610.62
278.884	622.62
279.115	639.62
279.347	634.62
279.579	615.62
279.81	638.62
280.042	655.62
280.273	619.62
280.505	633.62
280.736	661.62
280.968	655.62
281.199	662.62
281.431	643.62
281.662	644.62
281.894	651.62
282.125	681.62
282.356	672.62
282.588	670.62
282.819	688.62
283.051	682.62
283.282	680.62
283.513	682.62
283.745	668.62
283.976	687.62
284.207	707.62
284.439	693.62
284.67	680.62
284.901	712.62
285.132	721.62
285.364	713.62
285.595	707.62
285.826	706.62
286.057	729.62
286.288	702.62
286.52	698.62
286.751	715.62
286.982	714.62
287.213	731.62
287.444	738.62
287.675	735.62
287.906	731.62
288.138	719.62
288.369	730.62
288.6	735.62
288.831	728.62
289.062	746.62
289.293	727.62
289.524	759.62
289.755	720.62
289.986	730.62
290.217	738.62
290.448	746.62
290.679	736.62
290.91	747.62
291.141	762.62
291.371	742.62
291.602	759.62
291.833	752.62
292.064	751.62
292.295	756.62
292.526	751.62
292.757	743.62
292.987	781.62
293.218	728.62
293.449	754.62
293.68	761.62
293.91	759.62
294.141	753.62
294.372	761.62
294.603	792.62
294.833	752.62
295.064	768.62
295.295	780.62
295.525	772.62
295.756	754.62
295.987	796.62
296.217	822.62
296.448	770.62
296.679	787.62
296.909	782.62
297.14	786.62
297.37	820.62
297.601	830.62
297.831	812.62
298.062	849.62
298.292	823.62
298.523	855.62
298.753	849.62
298.984	820.62
299.214	796.62
299.445	830.62
299.675	834.62
299.905	828.62
300.136	825.62
300.366	857.62
300.597	892.62
300.827	890.62
301.057	893.62
301.288	886.62
301.518	880.62
301.748	853.62
301.979	855.62
302.209	875.62
302.439	886.62
302.669	866.62
302.9	863.62
303.13	846.62
303.36	874.62
303.59	847.62
303.82	879.62
304.051	908.62
304.281	868.62
304.511	841.62
304.741	908.62
304.971	891.62
305.201	892.62
305.431	928.62
305.661	894.62
305.891	874.62
306.121	877.62
306.352	885.62
306.582	879.62
306.812	840.62
307.042	887.62
307.272	871.62
307.502	861.62
307.731	876.62
307.961	818.62
308.191	860.62
308.421	862.62
308.651	876.62
308.881	869.62
309.111	890.62
309.341	867.62
309.571	880.62
309.8	924.62
310.03	900.62
310.26	927.62
310.49	905.62
310.72	895.62
310.949	874.62
311.179	892.62
311.409	910.62
311.639	892.62
311.868	910.62
312.098	880.62
312.328	904.62
312.557	934.62
312.787	902.62
313.017	921.62
313.246	952.62
313.476	912.62
313.706	948.62
313.935	931.62
314.165	966.62
314.394	912.62
314.624	924.62
314.853	911.62
315.083	924.62
315.312	920.62
315.542	927.62
315.771	936.62
316.001	917.62
316.23	924.62
316.46	920.62
316.689	958.62
316.919	944.62
317.148	925.62
317.377	943.62
317.607	903.62
317.836	941.62
318.065	927.62
318.295	971.62
318.524	937.62
318.753	954.62
318.983	958.62
319.212	897.62
319.441	952.62
319.67	956.62
319.9	920.62
320.129	950.62
320.358	948.62
320.587	940.62
320.816	959.62
321.046	940.62
321.275	933.62
321.504	927.62
321.733	981.62
321.962	966.62
322.191	977.62
322.42	976.62
322.649	946.62
322.878	972.62
323.108	958.62
323.337	986.62
323.566	962.62
323.795	990.62
324.024	996.62
324.253	998.62
324.482	1011.62
324.71	994.62
324.939	984.62
325.168	982.62
325.397	999.62
325.626	983.62
325.855	1000.62
326.084	991.62
326.313	1001.62
326.542	1034.62
326.77	1036.62
326.999	1015.62
327.228	1026.62
327.457	996.62
327.686	995.62
327.914	1013.62
328.143	1036.62
328.372	1019.62
328.6	1016.62
328.829	1003.62
329.058	1012.62
329.287	1038.62
329.515	1087.62
329.744	1024.62
329.972	1054.62
330.201	1057.62
330.43	1014.62
330.658	1048.62
330.887	1061.62
331.115	1044.62
331.344	1058.62
331.572	1037.62
331.801	1074.62
332.03	1097.62
332.258	1125.62
332.486	1144.62
332.715	1146.62
332.943	1176.62
333.172	1160.62
333.4	1208.62
333.629	1269.62
333.857	1261.62
334.085	1258.62
334.314	1250.62
334.542	1250.62
334.771	1263.62
334.999	1245.62
335.227	1226.62
335.455	1237.62
335.684	1227.62
335.912	1222.62
336.14	1233.62
336.369	1234.62
336.597	1194.62
336.825	1242.62
337.053	1252.62
337.281	1241.62
337.51	1215.62
337.738	1170.62
337.966	1160.62
338.194	1217.62
338.422	1172.62
338.65	1143.62
338.878	1132.62
339.106	1087.62
339.334	1159.62
339.562	1154.62
339.79	1091.62
340.018	1083.62
340.246	1068.62
340.474	1069.62
340.702	1089.62
340.93	1071.62
341.158	1083.62
341.386	1106.62
341.614	1167.62
341.842	1166.62
342.07	1093.62
342.298	1103.62
342.526	1083.62
342.754	1094.62
342.981	1058.62
343.209	1090.62
343.437	1123.62
343.665	1164.62
343.893	1231.62
344.12	1247.62
344.348	1207.62
344.576	1198.62
344.804	1162.62
345.031	1156.62
345.259	1099.62
345.487	1097.62
345.714	1129.62
345.942	1120.62
346.17	1145.62
346.397	1116.62
346.625	1078.62
346.853	1061.62
347.08	1057.62
347.308	1045.62
347.535	1065.62
347.763	1037.62
347.99	1054.62
348.218	1016.62
348.445	1034.62
348.673	1011.62
348.9	1060.62
349.128	1040.62
349.355	1046.62
349.583	1091.62
349.81	1036.62
350.037	1002.62
350.265	1006.62
350.492	1032.62
350.72	991.62
350.947	989.62
351.174	1032.62
351.402	1046.62
351.629	1082.62
351.856	1098.62
352.083	989.62
352.311	988.62
352.538	1057.62
352.765	1076.62
352.992	1004.62
353.22	955.62
353.447	975.62
353.674	1000.62
353.901	968.62
354.128	986.62
354.355	990.62
354.583	990.62
354.81	966.62
355.037	968.62
355.264	971.62
355.491	988.62
355.718	973.62
355.945	957.62
356.172	971.62
356.399	983.62
356.626	1003.62
356.853	1036.62
357.08	1018.62
357.307	1004.62
357.534	972.62
357.761	990.62
357.988	982.62
358.215	973.62
358.441	950.62
358.668	970.62
358.895	958.62
359.122	974.62
359.349	986.62
359.576	981.62
359.802	979.62
360.029	961.62
360.256	957.62
360.483	967.62
360.709	969.62
360.936	1002.62
361.163	984.62
361.39	1004.62
361.616	1006.62
361.843	1034.62
362.07	1043.62
362.296	1060.62
362.523	997.62
362.749	990.62
362.976	959.62
363.203	976.62
363.429	971.62
363.656	972.62
363.882	968.62
364.109	933.62
364.335	947.62
364.562	933.62
364.788	963.62
365.015	978.62
365.241	943.62
365.468	945.62
365.694	955.62
365.92	961.62
366.147	953.62
366.373	966.62
366.599	966.62
366.826	962.62
367.052	962.62
367.278	968.62
367.505	963.62
367.731	953.62
367.957	975.62
368.184	980.62
368.41	959.62
368.636	972.62
368.862	980.62
369.089	954.62
369.315	944.62
369.541	986.62
369.767	1001.62
369.993	984.62
370.219	966.62
370.445	985.62
370.672	1012.62
370.898	994.62
371.124	1006.62
371.35	1003.62
371.576	990.62
371.802	1028.62
372.028	1044.62
372.254	1021.62
372.48	1015.62
372.706	1043.62
372.932	1068.62
373.158	1044.62
373.384	1021.62
373.61	1034.62
373.835	1071.62
374.061	1050.62
374.287	1022.62
374.513	1040.62
374.739	1061.62
374.965	1100.62
375.191	1082.62
375.416	1068.62
375.642	1046.62
375.868	1049.62
376.094	1052.62
376.319	1021.62
376.545	1005.62
376.771	983.62
376.997	1002.62
377.222	981.62
377.448	1004.62
377.674	989.62
377.899	999.62
378.125	998.62
378.35	996.62
378.576	1038.62
378.802	994.62
379.027	1022.62
379.253	1003.62
379.478	1032.62
379.704	978.62
379.929	996.62
380.155	987.62
380.38	967.62
380.606	1030.62
380.831	1012.62
381.057	1022.62
381.282	997.62
381.507	999.62
381.733	997.62
381.958	983.62
382.184	1003.62
382.409	1030.62
382.634	1028.62
382.86	1034.62
383.085	1037.62
383.31	1066.62
383.535	1072.62
383.761	1053.62
383.986	1081.62
384.211	1076.62
384.436	1100.62
384.662	1129.62
384.887	1130.62
385.112	1114.62
385.337	1112.62
385.562	1149.62
385.787	1149.62
386.013	1192.62
386.238	1142.62
386.463	1145.62
386.688	1154.62
386.913	1145.62
387.138	1147.62
387.363	1157.62
387.588	1146.62
387.813	1168.62
388.038	1154.62
388.263	1171.62
388.488	1194.62
388.713	1183.62
388.938	1169.62
389.163	1123.62
389.387	1138.62
389.612	1126.62
389.837	1154.62
390.062	1131.62
390.287	1154.62
390.512	1148.62
390.736	1162.62
390.961	1178.62
391.186	1185.62
391.411	1211.62
391.636	1230.62
391.86	1242.62
392.085	1277.62
392.31	1275.62
392.534	1227.62
392.759	1228.62
392.984	1213.62
393.208	1194.62
393.433	1211.62
393.658	1212.62
393.882	1212.62
394.107	1238.62
394.331	1222.62
394.556	1208.62
394.78	1212.62
395.005	1203.62
395.229	1215.62
395.454	1261.62
395.678	1274.62
395.903	1255.62
396.127	1238.62
396.352	1236.62
396.576	1254.62
396.801	1254.62
397.025	1262.62
397.249	1269.62
397.474	1310.62
397.698	1293.62
397.922	1318.62
398.147	1302.62
398.371	1308.62
398.595	1355.62
398.82	1387.62
399.044	1482.62
399.268	1582.62
399.492	1735.62
399.717	1826.62
399.941	1892.62
400.165	1751.62
400.389	1630.62
400.613	1574.62
400.837	1485.62
401.062	1469.62
401.286	1455.62
401.51	1438.62
401.734	1461.62
401.958	1459.62
402.182	1419.62
402.406	1488.62
402.63	1444.62
402.854	1460.62
403.078	1485.62
403.302	1496.62
403.526	1525.62
403.75	1521.62
403.974	1517.62
404.198	1546.62
404.422	1494.62
404.645	1527.62
404.869	1520.62
405.093	1513.62
405.317	1501.62
405.541	1511.62
405.765	1521.62
405.988	1529.62
406.212	1498.62
406.436	1549.62
406.66	1580.62
406.883	1560.62
407.107	1646.62
407.331	1671.62
407.555	1742.62
407.778	1744.62
408.002	1722.62
408.226	1706.62
408.449	1706.62
408.673	1617.62
408.896	1615.62
409.12	1584.62
409.344	1584.62
409.567	1552.62
409.791	1616.62
410.014	1561.62
410.238	1556.62
410.461	1543.62
410.685	1540.62
410.908	1516.62
411.132	1483.62
411.355	1468.62
411.578	1501.62
411.802	1511.62
412.025	1493.62
412.249	1487.62
412.472	1507.62
412.695	1470.62
412.919	1442.62
413.142	1467.62
413.365	1467.62
413.589	1416.62
413.812	1450.62
414.035	1429.62
414.258	1479.62
414.482	1471.62
414.705	1476.62
414.928	1464.62
415.151	1440.62
415.374	1430.62
415.597	1423.62
415.821	1427.62
416.044	1406.62
416.267	1410.62
416.49	1419.62
416.713	1432.62
416.936	1447.62
417.159	1399.62
417.382	1406.62
417.605	1390.62
417.828	1417.62
418.051	1421.62
418.274	1406.62
418.497	1369.62
418.72	1445.62
418.943	1424.62
419.166	1538.62
419.389	1624.62
419.611	1569.62
419.834	1526.62
420.057	1479.62
420.28	1442.62
420.503	1404.62
420.726	1419.62
420.948	1439.62
421.171	1400.62
421.394	1427.62
421.617	1397.62
421.839	1432.62
422.062	1404.62
422.285	1395.62
422.507	1430.62
422.73	1442.62
422.953	1425.62
423.175	1435.62
423.398	1460.62
423.621	1438.62
423.843	1472.62
424.066	1470.62
424.288	1477.62
424.511	1482.62
424.733	1426.62
424.956	1437.62
425.178	1448.62
425.401	1454.62
425.623	1432.62
425.846	1416.62
426.068	1411.62
426.291	1389.62
426.513	1404.62
426.735	1376.62
426.958	1359.62
427.18	1326.62
427.402	1360.62
427.625	1344.62
427.847	1356.62
428.069	1315.62
428.292	1360.62
428.514	1342.62
428.736	1331.62
428.958	1383.62
429.181	1363.62
429.403	1318.62
429.625	1292.62
429.847	1310.62
430.069	1319.62
430.292	1317.62
430.514	1300.62
430.736	1326.62
430.958	1333.62
431.18	1334.62
431.402	1325.62
431.624	1355.62
431.846	1367.62
432.068	1334.62
432.29	1364.62
432.512	1318.62
432.734	1358.62
432.956	1315.62
433.178	1386.62
433.4	1395.62
433.622	1363.62
433.844	1370.62
434.066	1421.62
434.287	1404.62
434.509	1404.62
434.731	1446.62
434.953	1462.62
435.175	1448.62
435.397	1482.62
435.618	1420.62
435.84	1366.62
436.062	1365.62
436.284	1379.62
436.505	1330.62
436.727	1367.62
436.949	1341.62
437.17	1309.62
437.392	1307.62
437.614	1324.62
437.835	1287.62
438.057	1334.62
438.278	1273.62
438.5	1301.62
438.721	1302.62
438.943	1318.62
439.165	1333.62
439.386	1323.62
439.608	1337.62
439.829	1322.62
440.05	1370.62
440.272	1359.62
440.493	1370.62
440.715	1375.62
440.936	1369.62
441.158	1410.62
441.379	1424.62
441.6	1462.62
441.822	1484.62
442.043	1480.62
442.264	1513.62
442.486	1431.62
442.707	1466.62
442.928	1442.62
443.149	1453.62
443.371	1462.62
443.592	1533.62
443.813	1480.62
444.034	1503.62
444.255	1526.62
444.476	1552.62
444.698	1622.62
444.919	1686.62
445.14	1712.62
445.361	1604.62
445.582	1548.62
445.803	1507.62
446.024	1433.62
446.245	1416.62
446.466	1408.62
446.687	1379.62
446.908	1391.62
447.129	1354.62
447.35	1350.62
447.571	1317.62
447.792	1311.62
448.013	1325.62
448.234	1278.62
448.455	1263.62
448.675	1263.62
448.896	1248.62
449.117	1246.62
449.338	1268.62
449.559	1252.62
449.779	1266.62
450	1258.62
450.221	1240.62
450.442	1247.62
450.662	1237.62
450.883	1275.62
451.104	1302.62
451.324	1292.62
451.545	1282.62
451.766	1267.62
451.986	1257.62
452.207	1243.62
452.428	1216.62
452.648	1254.62
452.869	1236.62
453.089	1255.62
453.31	1254.62
453.53	1218.62
453.751	1239.62
453.971	1216.62
454.192	1241.62
454.412	1192.62
454.633	1206.62
454.853	1226.62
455.073	1204.62
455.294	1227.62
455.514	1197.62
455.734	1190.62
455.955	1185.62
456.175	1197.62
456.395	1184.62
456.616	1176.62
456.836	1197.62
457.056	1195.62
457.276	1194.62
457.497	1206.62
457.717	1236.62
457.937	1234.62
458.157	1249.62
458.377	1232.62
458.598	1280.62
458.818	1295.62
459.038	1290.62
459.258	1339.62
459.478	1391.62
459.698	1460.62
459.918	1488.62
460.138	1500.62
460.358	1496.62
460.578	1574.62
460.798	1561.62
461.018	1568.62
461.238	1557.62
461.458	1590.62
461.678	1540.62
461.898	1567.62
462.118	1621.62
462.338	1619.62
462.558	1666.62
462.777	1738.62
462.997	1872.62
463.217	1951.62
463.437	1909.62
463.657	1853.62
463.876	1742.62
464.096	1754.62
464.316	1759.62
464.536	1759.62
464.755	1670.62
464.975	1678.62
465.195	1592.62
465.414	1519.62
465.634	1500.62
465.854	1468.62
466.073	1406.62
466.293	1411.62
466.512	1350.62
466.732	1377.62
466.951	1334.62
467.171	1376.62
467.391	1375.62
467.61	1347.62
467.829	1332.62
468.049	1361.62
468.268	1318.62
468.488	1282.62
468.707	1310.62
468.927	1306.62
469.146	1334.62
469.365	1341.62
469.585	1323.62
469.804	1339.62
470.023	1360.62
470.243	1347.62
470.462	1391.62
470.681	1364.62
470.901	1391.62
471.12	1359.62
471.339	1371.62
471.558	1358.62
471.777	1323.62
471.997	1312.62
472.216	1319.62
472.435	1328.62
472.654	1274.62
472.873	1292.62
473.092	1296.62
473.311	1302.62
473.53	1295.62
473.749	1258.62
473.968	1272.62
474.187	1270.62
474.406	1275.62
474.625	1303.62
474.844	1290.62
475.063	1274.62
475.282	1304.62
475.501	1323.62
475.72	1342.62
475.939	1334.62
476.158	1367.62
476.377	1402.62
476.596	1388.62
476.814	1357.62
477.033	1381.62
477.252	1412.62
477.471	1436.62
477.69	1406.62
477.908	1455.62
478.127	1500.62
478.346	1508.62
478.564	1531.62
478.783	1580.62
479.002	1590.62
479.22	1600.62
479.439	1629.62
479.658	1565.62
479.876	1607.62
480.095	1626.62
480.313	1643.62
480.532	1687.62
480.751	1680.62
480.969	1613.62
481.188	1568.62
481.406	1550.62
481.624	1538.62
481.843	1539.62
482.061	1532.62
482.28	1528.62
482.498	1520.62
482.717	1520.62
482.935	1545.62
483.153	1548.62
483.372	1504.62
483.59	1550.62
483.808	1536.62
484.027	1491.62
484.245	1524.62
484.463	1545.62
484.681	1554.62
484.9	1554.62
485.118	1544.62
485.336	1586.62
485.554	1592.62
485.772	1582.62
485.99	1560.62
486.209	1550.62
486.427	1582.62
486.645	1624.62
486.863	1568.62
487.081	1588.62
487.299	1573.62
487.517	1583.62
487.735	1580.62
487.953	1614.62
488.171	1582.62
488.389	1612.62
488.607	1566.62
488.825	1550.62
489.043	1558.62
489.261	1567.62
489.479	1564.62
489.696	1588.62
489.914	1604.62
490.132	1612.62
490.35	1589.62
490.568	1612.62
490.786	1614.62
491.003	1579.62
491.221	1643.62
491.439	1624.62
491.657	1599.62
491.874	1612.62
492.092	1650.62
492.31	1640.62
492.527	1665.62
492.745	1641.62
492.963	1643.62
493.18	1640.62
493.398	1642.62
493.615	1642.62
493.833	1688.62
494.05	1684.62
494.268	1679.62
494.485	1700.62
494.703	1661.62
494.92	1713.62
495.138	1707.62
495.355	1688.62
495.573	1694.62
495.79	1711.62
496.008	1717.62
496.225	1765.62
496.442	1747.62
496.66	1794.62
496.877	1826.62
497.094	1846.62
497.312	1855.62
497.529	1902.62
497.746	1926.62
497.963	1990.62
498.181	2056.62
498.398	2124.62
498.615	2197.62
498.832	2287.62
499.049	2378.62
499.267	2541.62
499.484	2690.62
499.701	2914.62
499.918	3065.62
500.135	3364.62
500.352	3661.62
500.569	3786.62
500.786	3750.62
501.003	3523.62
501.22	3330.62
501.437	3107.62
501.654	2858.62
501.871	2709.62
502.088	2552.62
502.305	2438.62
502.522	2275.62
502.739	2268.62
502.956	2179.62
503.172	2027.62
503.389	1941.62
503.606	1972.62
503.823	1941.62
504.04	1922.62
504.256	1900.62
504.473	1872.62
504.69	1919.62
504.907	1891.62
505.123	1769.62
505.34	1716.62
505.557	1708.62
505.773	1667.62
505.99	1624.62
506.207	1597.62
506.423	1563.62
506.64	1571.62
506.856	1553.62
507.073	1503.62
507.289	1483.62
507.506	1506.62
507.722	1471.62
507.939	1486.62
508.155	1487.62
508.372	1458.62
508.588	1385.62
508.805	1412.62
509.021	1422.62
509.238	1404.62
509.454	1404.62
509.67	1390.62
509.887	1376.62
510.103	1394.62
510.319	1374.62
510.536	1367.62
510.752	1380.62
510.968	1372.62
511.184	1370.62
511.401	1360.62
511.617	1334.62
511.833	1338.62
512.049	1351.62
512.265	1350.62
512.481	1332.62
512.698	1356.62
512.914	1314.62
513.13	1353.62
513.346	1348.62
513.562	1351.62
513.778	1393.62
513.994	1338.62
514.21	1362.62
514.426	1362.62
514.642	1350.62
514.858	1368.62
515.074	1359.62
515.29	1389.62
515.506	1402.62
515.721	1427.62
515.937	1428.62
516.153	1407.62
516.369	1443.62
516.585	1513.62
516.801	1519.62
517.016	1573.62
517.232	1637.62
517.448	1605.62
517.664	1664.62
517.879	1647.62
518.095	1688.62
518.311	1694.62
518.527	1596.62
518.742	1557.62
518.958	1538.62
519.173	1466.62
519.389	1476.62
519.605	1423.62
519.82	1381.62
520.036	1401.62
520.251	1322.62
520.467	1374.62
520.682	1345.62
520.898	1323.62
521.113	1302.62
521.329	1317.62
521.544	1310.62
521.76	1294.62
521.975	1289.62
522.19	1272.62
522.406	1263.62
522.621	1272.62
522.836	1238.62
523.052	1248.62
523.267	1244.62
523.482	1249.62
523.698	1231.62
523.913	1225.62
524.128	1231.62
524.343	1231.62
524.559	1222.62
524.774	1220.62
524.989	1226.62
525.204	1206.62
525.419	1214.62
525.634	1233.62
525.849	1220.62
526.064	1207.62
526.28	1222.62
526.495	1181.62
526.71	1171.62
526.925	1224.62
527.14	1171.62
527.355	1196.62
527.57	1189.62
527.785	1195.62
527.999	1173.62
528.214	1188.62
528.429	1174.62
528.644	1196.62
528.859	1173.62
529.074	1192.62
529.289	1209.62
529.503	1178.62
529.718	1175.62
529.933	1179.62
530.148	1152.62
530.363	1168.62
530.577	1173.62
530.792	1166.62
531.007	1150.62
531.221	1194.62
531.436	1170.62
531.651	1188.62
531.865	1182.62
532.08	1168.62
532.295	1158.62
532.509	1168.62
532.724	1140.62
532.938	1161.62
533.153	1173.62
533.367	1162.62
533.582	1139.62
533.796	1154.62
534.011	1151.62
534.225	1145.62
534.44	1128.62
534.654	1126.62
534.868	1156.62
535.083	1123.62
535.297	1129.62
535.511	1156.62
535.726	1114.62
535.94	1121.62
536.154	1096.62
536.369	1078.62
536.583	1078.62
536.797	1119.62
537.011	1096.62
537.225	1113.62
537.44	1080.62
537.654	1112.62
537.868	1072.62
538.082	1063.62
538.296	1090.62
538.51	1080.62
538.724	1068.62
538.938	1052.62
539.153	1063.62
539.367	1092.62
539.581	1068.62
539.795	1022.62
540.009	1074.62
540.222	1034.62
540.436	1059.62
540.65	1048.62
540.864	1031.62
541.078	1050.62
541.292	1076.62
541.506	1048.62
541.72	1077.62
541.934	1093.62
542.147	1054.62
542.361	1077.62
542.575	1046.62
542.789	1037.62
543.002	1035.62
543.216	1034.62
543.43	1072.62
543.644	1004.62
543.857	1046.62
544.071	1015.62
544.285	1049.62
544.498	1028.62
544.712	1060.62
544.925	1101.62
545.139	1067.62
545.352	1074.62
545.566	1079.62
545.779	1071.62
545.993	1060.62
546.206	1059.62
546.42	1036.62
546.633	1067.62
546.847	1095.62
547.06	1087.62
547.274	1042.62
547.487	1015.62
547.7	1040.62
547.914	1066.62
548.127	1076.62
548.34	1046.62
548.554	1058.62
548.767	1091.62
548.98	1074.62
549.193	1042.62
549.407	1032.62
549.62	1064.62
549.833	1074.62
550.046	1067.62
550.259	1055.62
550.473	1051.62
550.686	1081.62
550.899	1048.62
551.112	999.62
551.325	1034.62
551.538	1030.62
551.751	1031.62
551.964	1055.62
552.177	1045.62
552.39	1050.62
552.603	1089.62
552.816	1082.62
553.029	1090.62
553.242	1100.62
553.455	1119.62
553.667	1060.62
553.88	1068.62
554.093	1084.62
554.306	1081.62
554.519	1037.62
554.732	1038.62
554.944	1025.62
555.157	1016.62
555.37	1006.62
555.583	969.62
555.795	983.62
556.008	939.62
556.221	939.62
556.433	934.62
556.646	924.62
556.859	932.62
557.071	931.62
557.284	950.62
557.496	936.62
557.709	898.62
557.921	900.62
558.134	901.62
558.346	883.62
558.559	894.62
558.771	899.62
558.984	902.62
559.196	888.62
559.409	880.62
559.621	887.62
559.833	902.62
560.046	908.62
560.258	848.62
560.47	892.62
560.683	902.62
560.895	878.62
561.107	884.62
561.32	885.62
561.532	870.62
561.744	871.62
561.956	876.62
562.168	862.62
562.381	871.62
562.593	879.62
562.805	876.62
563.017	887.62
563.229	885.62
563.441	884.62
563.653	890.62
563.865	904.62
564.077	906.62
564.289	907.62
564.501	916.62
564.713	918.62
564.925	942.62
565.137	931.62
565.349	962.62
565.561	1013.62
565.773	1051.62
565.985	1034.62
566.197	1074.62
566.408	1117.62
566.62	1181.62
566.832	1220.62
567.044	1242.62
567.255	1230.62
567.467	1245.62
567.679	1298.62
567.891	1354.62
568.102	1324.62
568.314	1293.62
568.526	1230.62
568.737	1159.62
568.949	1114.62
569.161	1040.62
569.372	973.62
569.584	950.62
569.795	909.62
570.007	898.62
570.218	911.62
570.43	892.62
570.641	879.62
570.853	867.62
571.064	862.62
571.276	858.62
571.487	837.62
571.698	820.62
571.91	809.62
572.121	818.62
572.333	792.62
572.544	762.62
572.755	764.62
572.966	751.62
573.178	720.62
573.389	720.62
573.6	722.62
573.811	718.62
574.023	712.62
574.234	721.62
574.445	730.62
574.656	708.62
574.867	697.62
575.078	690.62
575.289	703.62
575.501	693.62
575.712	683.62
575.923	681.62
576.134	670.62
576.345	656.62
576.556	672.62
576.767	680.62
576.978	654.62
577.188	656.62
577.399	652.62
577.61	643.62
577.821	653.62
578.032	617.62
578.243	646.62
578.454	634.62
578.665	644.62
578.875	613.62
579.086	624.62
579.297	617.62
579.508	606.62
579.718	619.62
579.929	629.62
580.14	601.62
580.35	611.62
580.561	601.62
580.772	616.62
580.982	622.62
581.193	599.62
581.403	579.62
581.614	581.62
581.825	595.62
582.035	603.62
582.246	610.62
582.456	581.62
582.667	588.62
582.877	589.62
583.087	571.62
583.298	580.62
583.508	585.62
583.719	602.62
583.929	583.62
584.139	552.62
584.35	567.62
584.56	596.62
584.77	565.62
584.981	575.62
585.191	568.62
585.401	537.62
585.611	556.62
585.821	571.62
586.032	583.62
586.242	574.62
586.452	580.62
586.662	546.62
586.872	546.62
587.082	581.62
587.292	558.62
587.502	568.62
587.713	557.62
587.923	557.62
588.133	559.62
588.343	556.62
588.553	574.62
588.762	569.62
588.972	597.62
589.182	759.62
589.392	700.62
589.602	594.62
589.812	725.62
590.022	640.62
590.232	563.62
590.441	578.62
590.651	547.62
590.861	554.62
591.071	564.62
591.281	571.62
591.49	581.62
591.7	584.62
591.91	575.62
592.119	600.62
592.329	597.62
592.539	593.62
592.748	609.62
592.958	627.62
593.167	618.62
593.377	628.62
593.587	662.62
593.796	655.62
594.006	622.62
594.215	647.62
594.424	632.62
594.634	635.62
594.843	625.62
595.053	607.62
595.262	573.62
595.472	573.62
595.681	564.62
595.89	555.62
596.1	552.62
596.309	537.62
596.518	522.62
596.727	520.62
596.937	529.62
597.146	528.62
597.355	536.62
597.564	507.62
597.774	506.62
597.983	501.62
598.192	486.62
598.401	495.62
598.61	495.62
598.819	503.62
599.028	475.62
599.237	482.62
599.446	467.62
599.655	463.62
599.864	466.62
600.073	466.62
600.282	446.62
600.491	455.62
600.7	457.62
600.909	451.62
601.118	454.62
601.327	442.62
601.536	439.62
601.745	444.62
601.953	446.62
602.162	443.62
602.371	452.62
602.58	441.62
602.789	457.62
602.997	444.62
603.206	436.62
603.415	447.62
603.623	423.62
603.832	440.62
604.041	438.62
604.249	429.62
604.458	444.62
604.666	403.62
604.875	413.62
605.084	411.62
605.292	418.62
605.501	418.62
605.709	416.62
605.918	399.62
606.126	426.62
606.334	418.62
606.543	415.62
606.751	404.62
606.96	419.62
607.168	410.62
607.376	414.62
607.585	418.62
607.793	416.62
608.001	411.62
608.21	419.62
608.418	382.62
608.626	416.62
608.834	418.62
609.043	413.62
609.251	410.62
609.459	395.62
609.667	394.62
609.875	409.62
610.083	422.62
610.291	415.62
610.499	398.62
610.707	390.62
610.916	383.62
611.124	393.62
611.332	401.62
611.54	381.62
611.748	393.62
611.955	400.62
612.163	359.62
612.371	404.62
612.579	410.62
612.787	380.62
612.995	395.62
613.203	407.62
613.411	396.62
613.618	393.62
613.826	403.62
614.034	381.62
614.242	366.62
614.449	386.62
614.657	390.62
614.865	374.62
615.072	390.62
615.28	382.62
615.488	360.62
615.695	386.62
615.903	385.62
616.111	378.62
616.318	399.62
616.526	364.62
616.733	376.62
616.941	370.62
617.148	373.62
617.356	372.62
617.563	367.62
617.771	378.62
617.978	373.62
618.185	359.62
618.393	372.62
618.6	369.62
618.807	376.62
619.015	367.62
619.222	363.62
619.429	367.62
619.637	377.62
619.844	368.62
620.051	361.62
620.258	364.62
620.466	352.62
620.673	337.62
620.88	339.62
621.087	341.62
621.294	347.62
621.501	364.62
621.708	359.62
621.915	342.62
622.122	341.62
622.329	355.62
622.536	354.62
622.743	346.62
622.95	348.62
623.157	337.62
623.364	352.62
623.571	364.62
623.778	328.62
623.985	345.62
624.192	340.62
624.399	343.62
624.606	354.62
624.812	346.62
625.019	332.62
625.226	342.62
625.433	327.62
625.639	340.62
625.846	346.62
626.053	333.62
626.259	339.62
626.466	318.62
626.673	310.62
626.879	320.62
627.086	314.62
627.293	333.62
627.499	322.62
627.706	306.62
627.912	300.62
628.119	325.62
628.325	310.62
628.532	316.62
628.738	303.62
628.945	286.62
629.151	311.62
629.357	304.62
629.564	309.62
629.77	312.62
629.976	300.62
630.183	301.62
630.389	291.62
630.595	298.62
630.802	295.62
631.008	288.62
631.214	291.62
631.42	297.62
631.627	287.62
631.833	302.62
632.039	306.62
632.245	303.62
632.451	301.62
632.657	295.62
632.863	257.62
633.069	302.62
633.275	284.62
633.481	286.62
633.688	297.62
633.893	286.62
634.099	270.62
634.305	281.62
634.511	290.62
634.717	284.62
634.923	281.62
635.129	276.62
635.335	263.62
635.541	269.62
635.747	276.62
635.952	270.62
636.158	260.62
636.364	267.62
636.57	275.62
636.775	278.62
636.981	271.62
637.187	273.62
637.392	261.62
637.598	276.62
637.804	290.62
638.009	278.62
638.215	268.62
638.421	275.62
638.626	262.62
638.832	262.62
639.037	273.62
639.243	262.62
639.448	279.62
639.654	256.62
639.859	263.62
640.065	271.62
640.27	260.62
640.475	250.62
640.681	252.62
640.886	273.62
641.091	266.62
641.297	252.62
641.502	271.62
641.707	265.62
641.913	258.62
642.118	262.62
642.323	260.62
642.528	259.62
642.733	246.62
642.939	240.62
643.144	247.62
643.349	260.62
643.554	262.62
643.759	237.62
643.964	247.62
644.169	246.62
644.374	257.62
644.579	242.62
644.784	221.62
644.989	254.62
645.194	244.62
645.399	247.62
645.604	254.62
645.809	227.62
646.014	239.62
646.219	263.62
646.423	269.62
646.628	245.62
646.833	244.62
647.038	254.62
647.243	258.62
647.447	255.62
647.652	244.62
647.857	266.62
648.062	260.62
648.266	253.62
648.471	267.62
648.676	251.62
648.88	225.62
649.085	258.62
649.289	228.62
649.494	227.62
649.698	231.62
649.903	238.62
650.107	225.62
650.312	219.62
650.516	219.62
650.721	219.62
650.925	217.62
651.13	229.62
651.334	230.62
651.539	239.62
651.743	212.62
651.947	203.62
652.152	219.62
652.356	219.62
652.56	214.62
652.764	196.62
652.969	202.62
653.173	195.62
653.377	191.62
653.581	217.62
653.785	186.62
653.99	187.62
654.194	188.62
654.398	188.62
654.602	181.62
654.806	180.62
655.01	194.62
655.214	189.62
655.418	193.62
655.622	193.62
655.826	176.62
656.03	176.62
656.234	183.62
656.438	168.62
656.642	172.62
656.846	186.62
657.049	158.62
657.253	166.62
657.457	152.62
657.661	139.62
657.865	146.62
658.068	146.62
658.272	134.62
658.476	130.62
658.68	126.62
658.883	110.62
659.087	122.62
659.291	126.62
659.494	126.62
659.698	108.62
659.901	115.62
660.105	96.62
660.309	120.62
660.512	124.62
660.716	99.62
660.919	91.62
661.123	106.62
661.326	112.62
661.53	98.62
661.733	100.62
661.936	85.62
662.14	109.62
662.343	95.62
662.546	88.62
662.75	80.62
662.953	84.62
663.156	84.62
663.36	99.62
663.563	91.62
663.766	70.62
663.969	92.62
664.173	87.62
664.376	90.62
664.579	91.62
664.782	92.62
664.985	79.62
665.188	85.62
665.391	76.62
665.594	69.62
665.797	74.62
666	97.62
666.203	89.62
666.406	76.62
666.609	91.62
666.812	98.62
667.015	84.62
667.218	89.62
667.421	70.62
667.624	88.62
667.827	76.62
668.03	93.62
668.232	86.62
668.435	75.62
668.638	84.62
668.841	100.62
669.043	90.62
669.246	80.62
669.449	84.62
669.651	84.62
669.854	89.62
670.057	78.62
670.259	80.62
670.462	79.62
670.665	87.62
670.867	92.62
671.07	89.62
671.272	79.62
671.475	92.62
671.677	88.62
671.88	79.62
672.082	102.62
672.284	68.62
672.487	91.62
672.689	72.62
672.892	75.62
