Data from NiCl2@0.125M.TitratingCurve.Agarose3%dH2O.NegLispCup.LampEnergy10.LIBS07252019_HRD10591_18-29-09-575.txt Node
Date: Thu Jul 25 18:29:09 EDT 2019
User: cochatt
Spectrometer: HR+D1059
Trigger mode: 1
Integration Time (sec): 1.000000E-1
Scans to average: 1
Electric dark correction enabled: true
Nonlinearity correction enabled: false
Boxcar width: 0
XAxis mode: Wavelengths
Number of Pixels in Spectrum: 2048
>>>>>Begin Spectral Data<<<<<
223.165	-25.19
223.4	-25.19
223.635	-25.19
223.869	-21.19
224.104	-27.19
224.338	-15.19
224.573	-10.19
224.808	-5.19
225.042	-7.19
225.277	-6.19
225.511	-4.19
225.746	14.81
225.98	10.81
226.215	14.81
226.449	14.81
226.683	25.81
226.918	15.81
227.152	24.81
227.387	40.81
227.621	44.81
227.856	52.81
228.09	40.81
228.324	52.81
228.559	63.81
228.793	68.81
229.027	111.81
229.262	131.81
229.496	125.81
229.73	130.81
229.964	141.81
230.199	134.81
230.433	152.81
230.667	126.81
230.901	146.81
231.136	142.81
231.37	171.81
231.604	159.81
231.838	165.81
232.072	145.81
232.306	163.81
232.541	172.81
232.775	135.81
233.009	168.81
233.243	160.81
233.477	158.81
233.711	158.81
233.945	160.81
234.179	163.81
234.413	161.81
234.647	157.81
234.881	179.81
235.115	185.81
235.349	158.81
235.583	170.81
235.817	172.81
236.051	166.81
236.285	171.81
236.519	159.81
236.753	155.81
236.987	171.81
237.221	165.81
237.455	170.81
237.689	182.81
237.922	183.81
238.156	182.81
238.39	170.81
238.624	179.81
238.858	194.81
239.091	166.81
239.325	199.81
239.559	191.81
239.793	187.81
240.027	207.81
240.26	185.81
240.494	183.81
240.728	205.81
240.961	205.81
241.195	218.81
241.429	200.81
241.662	212.81
241.896	211.81
242.13	212.81
242.363	221.81
242.597	234.81
242.83	215.81
243.064	215.81
243.298	215.81
243.531	222.81
243.765	227.81
243.998	228.81
244.232	238.81
244.465	226.81
244.699	237.81
244.932	246.81
245.166	248.81
245.399	236.81
245.633	232.81
245.866	240.81
246.099	244.81
246.333	248.81
246.566	242.81
246.8	244.81
247.033	264.81
247.266	235.81
247.5	253.81
247.733	255.81
247.966	258.81
248.2	254.81
248.433	248.81
248.666	263.81
248.899	276.81
249.133	282.81
249.366	276.81
249.599	275.81
249.832	273.81
250.066	287.81
250.299	287.81
250.532	300.81
250.765	278.81
250.998	282.81
251.231	263.81
251.465	294.81
251.698	306.81
251.931	303.81
252.164	318.81
252.397	287.81
252.63	298.81
252.863	300.81
253.096	298.81
253.329	304.81
253.562	304.81
253.795	313.81
254.028	322.81
254.261	314.81
254.494	298.81
254.727	294.81
254.96	315.81
255.193	310.81
255.426	302.81
255.659	328.81
255.892	344.81
256.124	328.81
256.357	311.81
256.59	332.81
256.823	322.81
257.056	335.81
257.289	327.81
257.521	317.81
257.754	318.81
257.987	326.81
258.22	346.81
258.452	336.81
258.685	352.81
258.918	336.81
259.151	345.81
259.383	352.81
259.616	326.81
259.849	370.81
260.081	341.81
260.314	338.81
260.547	356.81
260.779	336.81
261.012	342.81
261.244	355.81
261.477	378.81
261.71	368.81
261.942	367.81
262.175	353.81
262.407	365.81
262.64	373.81
262.872	362.81
263.105	366.81
263.337	366.81
263.57	359.81
263.802	386.81
264.035	378.81
264.267	379.81
264.499	359.81
264.732	388.81
264.964	376.81
265.197	382.81
265.429	397.81
265.661	397.81
265.894	393.81
266.126	405.81
266.358	405.81
266.591	381.81
266.823	398.81
267.055	404.81
267.287	399.81
267.52	413.81
267.752	379.81
267.984	404.81
268.216	396.81
268.448	421.81
268.681	408.81
268.913	396.81
269.145	396.81
269.377	405.81
269.609	409.81
269.841	437.81
270.073	424.81
270.306	414.81
270.538	424.81
270.77	416.81
271.002	408.81
271.234	426.81
271.466	432.81
271.698	432.81
271.93	444.81
272.162	414.81
272.394	444.81
272.626	435.81
272.858	452.81
273.09	424.81
273.322	436.81
273.553	413.81
273.785	427.81
274.017	444.81
274.249	454.81
274.481	430.81
274.713	435.81
274.945	432.81
275.176	451.81
275.408	454.81
275.64	461.81
275.872	452.81
276.104	450.81
276.335	456.81
276.567	457.81
276.799	463.81
277.031	477.81
277.262	464.81
277.494	463.81
277.726	464.81
277.957	469.81
278.189	481.81
278.421	471.81
278.652	478.81
278.884	472.81
279.115	489.81
279.347	495.81
279.579	493.81
279.81	488.81
280.042	496.81
280.273	512.81
280.505	478.81
280.736	484.81
280.968	469.81
281.199	516.81
281.431	513.81
281.662	494.81
281.894	520.81
282.125	519.81
282.356	512.81
282.588	524.81
282.819	533.81
283.051	518.81
283.282	507.81
283.513	520.81
283.745	512.81
283.976	526.81
284.207	528.81
284.439	543.81
284.67	532.81
284.901	548.81
285.132	552.81
285.364	520.81
285.595	542.81
285.826	528.81
286.057	549.81
286.288	542.81
286.52	568.81
286.751	564.81
286.982	559.81
287.213	550.81
287.444	566.81
287.675	564.81
287.906	546.81
288.138	570.81
288.369	580.81
288.6	574.81
288.831	565.81
289.062	570.81
289.293	575.81
289.524	570.81
289.755	572.81
289.986	571.81
290.217	567.81
290.448	578.81
290.679	597.81
290.91	568.81
291.141	587.81
291.371	607.81
291.602	599.81
291.833	563.81
292.064	589.81
292.295	590.81
292.526	587.81
292.757	584.81
292.987	591.81
293.218	568.81
293.449	567.81
293.68	595.81
293.91	603.81
294.141	592.81
294.372	596.81
294.603	595.81
294.833	590.81
295.064	582.81
295.295	594.81
295.525	600.81
295.756	591.81
295.987	575.81
296.217	615.81
296.448	598.81
296.679	597.81
296.909	600.81
297.14	621.81
297.37	612.81
297.601	631.81
297.831	613.81
298.062	654.81
298.292	637.81
298.523	649.81
298.753	654.81
298.984	650.81
299.214	646.81
299.445	630.81
299.675	640.81
299.905	657.81
300.136	646.81
300.366	612.81
300.597	648.81
300.827	669.81
301.057	657.81
301.288	693.81
301.518	670.81
301.748	681.81
301.979	666.81
302.209	662.81
302.439	671.81
302.669	661.81
302.9	675.81
303.13	632.81
303.36	646.81
303.59	670.81
303.82	668.81
304.051	672.81
304.281	678.81
304.511	654.81
304.741	646.81
304.971	644.81
305.201	670.81
305.431	650.81
305.661	646.81
305.891	628.81
306.121	635.81
306.352	644.81
306.582	634.81
306.812	652.81
307.042	651.81
307.272	627.81
307.502	639.81
307.731	640.81
307.961	643.81
308.191	664.81
308.421	650.81
308.651	616.81
308.881	614.81
309.111	622.81
309.341	631.81
309.571	622.81
309.8	630.81
310.03	624.81
310.26	641.81
310.49	636.81
310.72	644.81
310.949	637.81
311.179	637.81
311.409	631.81
311.639	645.81
311.868	653.81
312.098	644.81
312.328	659.81
312.557	652.81
312.787	674.81
313.017	687.81
313.246	676.81
313.476	669.81
313.706	677.81
313.935	682.81
314.165	707.81
314.394	703.81
314.624	684.81
314.853	676.81
315.083	685.81
315.312	676.81
315.542	667.81
315.771	678.81
316.001	675.81
316.23	698.81
316.46	680.81
316.689	674.81
316.919	676.81
317.148	670.81
317.377	652.81
317.607	642.81
317.836	654.81
318.065	672.81
318.295	659.81
318.524	678.81
318.753	652.81
318.983	672.81
319.212	639.81
319.441	646.81
319.67	669.81
319.9	662.81
320.129	660.81
320.358	657.81
320.587	662.81
320.816	667.81
321.046	671.81
321.275	663.81
321.504	670.81
321.733	658.81
321.962	677.81
322.191	661.81
322.42	690.81
322.649	668.81
322.878	664.81
323.108	677.81
323.337	666.81
323.566	667.81
323.795	687.81
324.024	676.81
324.253	692.81
324.482	684.81
324.71	690.81
324.939	712.81
325.168	673.81
325.397	696.81
325.626	698.81
325.855	713.81
326.084	709.81
326.313	719.81
326.542	727.81
326.77	749.81
326.999	720.81
327.228	726.81
327.457	725.81
327.686	713.81
327.914	740.81
328.143	733.81
328.372	711.81
328.6	706.81
328.829	703.81
329.058	737.81
329.287	717.81
329.515	730.81
329.744	749.81
329.972	768.81
330.201	727.81
330.43	739.81
330.658	739.81
330.887	735.81
331.115	769.81
331.344	758.81
331.572	762.81
331.801	788.81
332.03	803.81
332.258	856.81
332.486	838.81
332.715	871.81
332.943	928.81
333.172	938.81
333.4	971.81
333.629	1028.81
333.857	1000.81
334.085	1014.81
334.314	954.81
334.542	936.81
334.771	923.81
334.999	933.81
335.227	907.81
335.455	932.81
335.684	937.81
335.912	879.81
336.14	887.81
336.369	896.81
336.597	889.81
336.825	862.81
337.053	913.81
337.281	861.81
337.51	852.81
337.738	846.81
337.966	796.81
338.194	798.81
338.422	776.81
338.65	783.81
338.878	766.81
339.106	801.81
339.334	812.81
339.562	802.81
339.79	743.81
340.018	755.81
340.246	765.81
340.474	755.81
340.702	758.81
340.93	778.81
341.158	734.81
341.386	781.81
341.614	766.81
341.842	735.81
342.07	733.81
342.298	729.81
342.526	778.81
342.754	752.81
342.981	739.81
343.209	791.81
343.437	808.81
343.665	869.81
343.893	933.81
344.12	976.81
344.348	940.81
344.576	843.81
344.804	828.81
345.031	777.81
345.259	785.81
345.487	760.81
345.714	752.81
345.942	740.81
346.17	743.81
346.397	760.81
346.625	742.81
346.853	725.81
347.08	735.81
347.308	755.81
347.535	764.81
347.763	775.81
347.99	778.81
348.218	784.81
348.445	774.81
348.673	731.81
348.9	741.81
349.128	750.81
349.355	750.81
349.583	733.81
349.81	733.81
350.037	721.81
350.265	726.81
350.492	686.81
350.72	686.81
350.947	706.81
351.174	706.81
351.402	717.81
351.629	690.81
351.856	710.81
352.083	720.81
352.311	714.81
352.538	686.81
352.765	686.81
352.992	681.81
353.22	678.81
353.447	675.81
353.674	688.81
353.901	690.81
354.128	686.81
354.355	686.81
354.583	705.81
354.81	686.81
355.037	702.81
355.264	711.81
355.491	717.81
355.718	675.81
355.945	706.81
356.172	686.81
356.399	702.81
356.626	703.81
356.853	702.81
357.08	703.81
357.307	712.81
357.534	700.81
357.761	698.81
357.988	675.81
358.215	694.81
358.441	684.81
358.668	725.81
358.895	698.81
359.122	698.81
359.349	688.81
359.576	724.81
359.802	705.81
360.029	699.81
360.256	723.81
360.483	696.81
360.709	690.81
360.936	707.81
361.163	706.81
361.39	698.81
361.616	703.81
361.843	698.81
362.07	695.81
362.296	711.81
362.523	687.81
362.749	711.81
362.976	701.81
363.203	711.81
363.429	695.81
363.656	718.81
363.882	680.81
364.109	699.81
364.335	692.81
364.562	690.81
364.788	692.81
365.015	704.81
365.241	698.81
365.468	679.81
365.694	694.81
365.92	676.81
366.147	700.81
366.373	726.81
366.599	698.81
366.826	701.81
367.052	696.81
367.278	729.81
367.505	691.81
367.731	700.81
367.957	686.81
368.184	713.81
368.41	744.81
368.636	700.81
368.862	714.81
369.089	722.81
369.315	717.81
369.541	722.81
369.767	743.81
369.993	711.81
370.219	728.81
370.445	746.81
370.672	750.81
370.898	730.81
371.124	744.81
371.35	766.81
371.576	784.81
371.802	775.81
372.028	746.81
372.254	744.81
372.48	776.81
372.706	793.81
372.932	798.81
373.158	785.81
373.384	796.81
373.61	765.81
373.835	763.81
374.061	762.81
374.287	771.81
374.513	756.81
374.739	813.81
374.965	843.81
375.191	883.81
375.416	863.81
375.642	850.81
375.868	822.81
376.094	829.81
376.319	791.81
376.545	773.81
376.771	771.81
376.997	778.81
377.222	773.81
377.448	778.81
377.674	771.81
377.899	752.81
378.125	754.81
378.35	782.81
378.576	774.81
378.802	742.81
379.027	741.81
379.253	737.81
379.478	754.81
379.704	765.81
379.929	769.81
380.155	769.81
380.38	771.81
380.606	750.81
380.831	760.81
381.057	759.81
381.282	781.81
381.507	781.81
381.733	742.81
381.958	791.81
382.184	764.81
382.409	778.81
382.634	777.81
382.86	800.81
383.085	832.81
383.31	798.81
383.535	836.81
383.761	842.81
383.986	840.81
384.211	879.81
384.436	926.81
384.662	906.81
384.887	934.81
385.112	924.81
385.337	941.81
385.562	911.81
385.787	924.81
386.013	941.81
386.238	941.81
386.463	939.81
386.688	969.81
386.913	917.81
387.138	918.81
387.363	907.81
387.588	923.81
387.813	917.81
388.038	883.81
388.263	903.81
388.488	912.81
388.713	912.81
388.938	899.81
389.163	888.81
389.387	901.81
389.612	908.81
389.837	931.81
390.062	887.81
390.287	888.81
390.512	904.81
390.736	906.81
390.961	930.81
391.186	907.81
391.411	995.81
391.636	995.81
391.86	1017.81
392.085	1028.81
392.31	1065.81
392.534	1028.81
392.759	1003.81
392.984	979.81
393.208	974.81
393.433	964.81
393.658	976.81
393.882	984.81
394.107	978.81
394.331	1004.81
394.556	992.81
394.78	1007.81
395.005	963.81
395.229	1013.81
395.454	1025.81
395.678	1027.81
395.903	1061.81
396.127	1014.81
396.352	963.81
396.576	950.81
396.801	970.81
397.025	989.81
397.249	1015.81
397.474	1047.81
397.698	1038.81
397.922	1059.81
398.147	1024.81
398.371	1039.81
398.595	1083.81
398.82	1126.81
399.044	1214.81
399.268	1363.81
399.492	1582.81
399.717	1827.81
399.941	1865.81
400.165	1616.81
400.389	1417.81
400.613	1280.81
400.837	1228.81
401.062	1208.81
401.286	1191.81
401.51	1146.81
401.734	1187.81
401.958	1181.81
402.182	1188.81
402.406	1195.81
402.63	1230.81
402.854	1252.81
403.078	1267.81
403.302	1298.81
403.526	1327.81
403.75	1369.81
403.974	1397.81
404.198	1353.81
404.422	1399.81
404.645	1389.81
404.869	1351.81
405.093	1336.81
405.317	1312.81
405.541	1288.81
405.765	1304.81
405.988	1275.81
406.212	1281.81
406.436	1299.81
406.66	1284.81
406.883	1322.81
407.107	1422.81
407.331	1507.81
407.555	1539.81
407.778	1544.81
408.002	1495.81
408.226	1399.81
408.449	1429.81
408.673	1367.81
408.896	1345.81
409.12	1317.81
409.344	1361.81
409.567	1341.81
409.791	1374.81
410.014	1350.81
410.238	1343.81
410.461	1312.81
410.685	1292.81
410.908	1254.81
411.132	1221.81
411.355	1200.81
411.578	1220.81
411.802	1162.81
412.025	1191.81
412.249	1245.81
412.472	1260.81
412.695	1220.81
412.919	1182.81
413.142	1164.81
413.365	1162.81
413.589	1198.81
413.812	1133.81
414.035	1144.81
414.258	1155.81
414.482	1162.81
414.705	1192.81
414.928	1203.81
415.151	1168.81
415.374	1204.81
415.597	1128.81
415.821	1159.81
416.044	1127.81
416.267	1131.81
416.49	1150.81
416.713	1158.81
416.936	1160.81
417.159	1144.81
417.382	1126.81
417.605	1142.81
417.828	1139.81
418.051	1156.81
418.274	1173.81
418.497	1168.81
418.72	1189.81
418.943	1223.81
419.166	1282.81
419.389	1433.81
419.611	1337.81
419.834	1302.81
420.057	1220.81
420.28	1194.81
420.503	1133.81
420.726	1147.81
420.948	1140.81
421.171	1150.81
421.394	1143.81
421.617	1145.81
421.839	1158.81
422.062	1147.81
422.285	1140.81
422.507	1192.81
422.73	1169.81
422.953	1216.81
423.175	1235.81
423.398	1230.81
423.621	1247.81
423.843	1251.81
424.066	1240.81
424.288	1238.81
424.511	1235.81
424.733	1221.81
424.956	1212.81
425.178	1186.81
425.401	1154.81
425.623	1154.81
425.846	1134.81
426.068	1160.81
426.291	1124.81
426.513	1080.81
426.735	1080.81
426.958	1106.81
427.18	1074.81
427.402	1048.81
427.625	1061.81
427.847	1015.81
428.069	1005.81
428.292	1054.81
428.514	1048.81
428.736	1026.81
428.958	1064.81
429.181	1010.81
429.403	999.81
429.625	1003.81
429.847	989.81
430.069	966.81
430.292	997.81
430.514	998.81
430.736	998.81
430.958	1016.81
431.18	1019.81
431.402	1008.81
431.624	1011.81
431.846	1030.81
432.068	1055.81
432.29	1058.81
432.512	1057.81
432.734	1027.81
432.956	1019.81
433.178	1022.81
433.4	1028.81
433.622	1008.81
433.844	1043.81
434.066	1060.81
434.287	1052.81
434.509	1071.81
434.731	1136.81
434.953	1167.81
435.175	1178.81
435.397	1169.81
435.618	1102.81
435.84	1071.81
436.062	1051.81
436.284	1053.81
436.505	1053.81
436.727	1069.81
436.949	1038.81
437.17	1031.81
437.392	1005.81
437.614	1004.81
437.835	968.81
438.057	998.81
438.278	973.81
438.5	965.81
438.721	990.81
438.943	983.81
439.165	1015.81
439.386	980.81
439.608	1028.81
439.829	1022.81
440.05	1012.81
440.272	1029.81
440.493	1035.81
440.715	1040.81
440.936	1102.81
441.158	1055.81
441.379	1106.81
441.6	1191.81
441.822	1193.81
442.043	1207.81
442.264	1174.81
442.486	1149.81
442.707	1127.81
442.928	1108.81
443.149	1135.81
443.371	1143.81
443.592	1156.81
443.813	1169.81
444.034	1182.81
444.255	1232.81
444.476	1296.81
444.698	1380.81
444.919	1456.81
445.14	1554.81
445.361	1377.81
445.582	1235.81
445.803	1144.81
446.024	1126.81
446.245	1128.81
446.466	1075.81
446.687	1044.81
446.908	1080.81
447.129	1045.81
447.35	1001.81
447.571	989.81
447.792	977.81
448.013	964.81
448.234	957.81
448.455	948.81
448.675	935.81
448.896	968.81
449.117	968.81
449.338	958.81
449.559	944.81
449.779	930.81
450	932.81
450.221	943.81
450.442	948.81
450.662	961.81
450.883	982.81
451.104	1001.81
451.324	971.81
451.545	998.81
451.766	980.81
451.986	973.81
452.207	959.81
452.428	979.81
452.648	978.81
452.869	941.81
453.089	928.81
453.31	937.81
453.53	944.81
453.751	961.81
453.971	928.81
454.192	918.81
454.412	894.81
454.633	876.81
454.853	882.81
455.073	901.81
455.294	884.81
455.514	907.81
455.734	926.81
455.955	901.81
456.175	894.81
456.395	873.81
456.616	876.81
456.836	909.81
457.056	900.81
457.276	857.81
457.497	904.81
457.717	889.81
457.937	892.81
458.157	918.81
458.377	938.81
458.598	909.81
458.818	932.81
459.038	982.81
459.258	1035.81
459.478	1067.81
459.698	1068.81
459.918	1125.81
460.138	1148.81
460.358	1228.81
460.578	1264.81
460.798	1236.81
461.018	1263.81
461.238	1240.81
461.458	1248.81
461.678	1219.81
461.898	1223.81
462.118	1192.81
462.338	1339.81
462.558	1340.81
462.777	1411.81
462.997	1539.81
463.217	1721.81
463.437	1774.81
463.657	1566.81
463.876	1469.81
464.096	1495.81
464.316	1456.81
464.536	1480.81
464.755	1430.81
464.975	1352.81
465.195	1284.81
465.414	1212.81
465.634	1154.81
465.854	1108.81
466.073	1076.81
466.293	1054.81
466.512	1023.81
466.732	999.81
466.951	1010.81
467.171	998.81
467.391	1022.81
467.61	997.81
467.829	985.81
468.049	988.81
468.268	940.81
468.488	952.81
468.707	972.81
468.927	977.81
469.146	974.81
469.365	983.81
469.585	935.81
469.804	1001.81
470.023	1018.81
470.243	1000.81
470.462	1053.81
470.681	1058.81
470.901	1048.81
471.12	1013.81
471.339	1037.81
471.558	970.81
471.777	968.81
471.997	925.81
472.216	916.81
472.435	930.81
472.654	907.81
472.873	910.81
473.092	939.81
473.311	912.81
473.53	918.81
473.749	897.81
473.968	910.81
474.187	927.81
474.406	904.81
474.625	916.81
474.844	913.81
475.063	944.81
475.282	898.81
475.501	957.81
475.72	937.81
475.939	937.81
476.158	943.81
476.377	963.81
476.596	962.81
476.814	951.81
477.033	979.81
477.252	989.81
477.471	1005.81
477.69	1025.81
477.908	1026.81
478.127	1074.81
478.346	1101.81
478.564	1139.81
478.783	1131.81
479.002	1165.81
479.22	1187.81
479.439	1180.81
479.658	1164.81
479.876	1138.81
480.095	1164.81
480.313	1212.81
480.532	1305.81
480.751	1280.81
480.969	1208.81
481.188	1140.81
481.406	1125.81
481.624	1076.81
481.843	1076.81
482.061	1040.81
482.28	1049.81
482.498	1048.81
482.717	1025.81
482.935	1054.81
483.153	1061.81
483.372	1038.81
483.59	1036.81
483.808	1082.81
484.027	1044.81
484.245	1046.81
484.463	1037.81
484.681	1065.81
484.9	1059.81
485.118	1085.81
485.336	1068.81
485.554	1100.81
485.772	1090.81
485.99	1084.81
486.209	1134.81
486.427	1137.81
486.645	1086.81
486.863	1115.81
487.081	1099.81
487.299	1092.81
487.517	1086.81
487.735	1092.81
487.953	1095.81
488.171	1066.81
488.389	1096.81
488.607	1066.81
488.825	1081.81
489.043	1072.81
489.261	1065.81
489.479	1096.81
489.696	1088.81
489.914	1053.81
490.132	1104.81
490.35	1095.81
490.568	1092.81
490.786	1091.81
491.003	1106.81
491.221	1091.81
491.439	1108.81
491.657	1107.81
491.874	1103.81
492.092	1141.81
492.31	1084.81
492.527	1108.81
492.745	1159.81
492.963	1130.81
493.18	1106.81
493.398	1135.81
493.615	1153.81
493.833	1147.81
494.05	1142.81
494.268	1210.81
494.485	1142.81
494.703	1177.81
494.92	1197.81
495.138	1158.81
495.355	1152.81
495.573	1174.81
495.79	1154.81
496.008	1197.81
496.225	1186.81
496.442	1212.81
496.66	1200.81
496.877	1219.81
497.094	1216.81
497.312	1232.81
497.529	1310.81
497.746	1306.81
497.963	1376.81
498.181	1402.81
498.398	1487.81
498.615	1538.81
498.832	1652.81
499.049	1766.81
499.267	1934.81
499.484	2198.81
499.701	2422.81
499.918	2678.81
500.135	3149.81
500.352	3634.81
500.569	3860.81
500.786	3835.81
501.003	3523.81
501.22	3108.81
501.437	2683.81
501.654	2367.81
501.871	2102.81
502.088	1936.81
502.305	1786.81
502.522	1690.81
502.739	1604.81
502.956	1560.81
503.172	1474.81
503.389	1390.81
503.606	1330.81
503.823	1342.81
504.04	1324.81
504.256	1335.81
504.473	1396.81
504.69	1436.81
504.907	1442.81
505.123	1320.81
505.34	1214.81
505.557	1180.81
505.773	1146.81
505.99	1125.81
506.207	1110.81
506.423	1107.81
506.64	1071.81
506.856	1044.81
507.073	1042.81
507.289	1071.81
507.506	1040.81
507.722	1016.81
507.939	1024.81
508.155	1043.81
508.372	986.81
508.588	980.81
508.805	972.81
509.021	964.81
509.238	982.81
509.454	950.81
509.67	962.81
509.887	975.81
510.103	944.81
510.319	959.81
510.536	953.81
510.752	955.81
510.968	943.81
511.184	981.81
511.401	932.81
511.617	947.81
511.833	908.81
512.049	925.81
512.265	938.81
512.481	927.81
512.698	925.81
512.914	960.81
513.13	960.81
513.346	935.81
513.562	938.81
513.778	952.81
513.994	913.81
514.21	950.81
514.426	915.81
514.642	953.81
514.858	964.81
515.074	964.81
515.29	959.81
515.506	1005.81
515.721	1003.81
515.937	989.81
516.153	1027.81
516.369	1052.81
516.585	1087.81
516.801	1096.81
517.016	1164.81
517.232	1219.81
517.448	1307.81
517.664	1376.81
517.879	1363.81
518.095	1387.81
518.311	1350.81
518.527	1274.81
518.742	1231.81
518.958	1181.81
519.173	1111.81
519.389	1060.81
519.605	1052.81
519.82	983.81
520.036	999.81
520.251	997.81
520.467	974.81
520.682	960.81
520.898	922.81
521.113	943.81
521.329	920.81
521.544	898.81
521.76	933.81
521.975	900.81
522.19	930.81
522.406	904.81
522.621	912.81
522.836	911.81
523.052	883.81
523.267	834.81
523.482	869.81
523.698	868.81
523.913	862.81
524.128	856.81
524.343	876.81
524.559	882.81
524.774	859.81
524.989	884.81
525.204	888.81
525.419	890.81
525.634	870.81
525.849	871.81
526.064	874.81
526.28	824.81
526.495	862.81
526.71	871.81
526.925	840.81
527.14	816.81
527.355	832.81
527.57	861.81
527.785	853.81
527.999	869.81
528.214	876.81
528.429	852.81
528.644	853.81
528.859	855.81
529.074	833.81
529.289	841.81
529.503	856.81
529.718	850.81
529.933	827.81
530.148	863.81
530.363	851.81
530.577	875.81
530.792	856.81
531.007	836.81
531.221	856.81
531.436	868.81
531.651	852.81
531.865	878.81
532.08	866.81
532.295	903.81
532.509	851.81
532.724	838.81
532.938	858.81
533.153	837.81
533.367	847.81
533.582	846.81
533.796	834.81
534.011	876.81
534.225	831.81
534.44	830.81
534.654	855.81
534.868	856.81
535.083	845.81
535.297	843.81
535.511	858.81
535.726	826.81
535.94	810.81
536.154	789.81
536.369	810.81
536.583	801.81
536.797	806.81
537.011	828.81
537.225	802.81
537.44	790.81
537.654	792.81
537.868	769.81
538.082	780.81
538.296	781.81
538.51	792.81
538.724	784.81
538.938	774.81
539.153	755.81
539.367	770.81
539.581	778.81
539.795	771.81
540.009	741.81
540.222	778.81
540.436	750.81
540.65	748.81
540.864	759.81
541.078	746.81
541.292	775.81
541.506	810.81
541.72	764.81
541.934	743.81
542.147	770.81
542.361	761.81
542.575	756.81
542.789	760.81
543.002	751.81
543.216	741.81
543.43	728.81
543.644	754.81
543.857	763.81
544.071	759.81
544.285	750.81
544.498	738.81
544.712	746.81
544.925	776.81
545.139	774.81
545.352	797.81
545.566	782.81
545.779	794.81
545.993	806.81
546.206	794.81
546.42	769.81
546.633	790.81
546.847	742.81
547.06	798.81
547.274	776.81
547.487	757.81
547.7	802.81
547.914	795.81
548.127	789.81
548.34	805.81
548.554	794.81
548.767	800.81
548.98	802.81
549.193	810.81
549.407	810.81
549.62	827.81
549.833	818.81
550.046	810.81
550.259	800.81
550.473	796.81
550.686	794.81
550.899	807.81
551.112	774.81
551.325	764.81
551.538	744.81
551.751	761.81
551.964	782.81
552.177	756.81
552.39	796.81
552.603	806.81
552.816	856.81
553.029	855.81
553.242	862.81
553.455	847.81
553.667	867.81
553.88	845.81
554.093	856.81
554.306	821.81
554.519	818.81
554.732	807.81
554.944	762.81
555.157	766.81
555.37	771.81
555.583	726.81
555.795	743.81
556.008	718.81
556.221	705.81
556.433	722.81
556.646	699.81
556.859	653.81
557.071	691.81
557.284	696.81
557.496	692.81
557.709	682.81
557.921	666.81
558.134	655.81
558.346	641.81
558.559	674.81
558.771	647.81
558.984	634.81
559.196	655.81
559.409	640.81
559.621	638.81
559.833	644.81
560.046	642.81
560.258	649.81
560.47	631.81
560.683	660.81
560.895	656.81
561.107	639.81
561.32	621.81
561.532	644.81
561.744	642.81
561.956	645.81
562.168	632.81
562.381	663.81
562.593	654.81
562.805	624.81
563.017	665.81
563.229	634.81
563.441	639.81
563.653	639.81
563.865	651.81
564.077	661.81
564.289	680.81
564.501	662.81
564.713	687.81
564.925	704.81
565.137	710.81
565.349	710.81
565.561	749.81
565.773	757.81
565.985	777.81
566.197	859.81
566.408	900.81
566.62	986.81
566.832	1070.81
567.044	1092.81
567.255	1120.81
567.467	1137.81
567.679	1207.81
567.891	1304.81
568.102	1406.81
568.314	1316.81
568.526	1150.81
568.737	1004.81
568.949	920.81
569.161	857.81
569.372	807.81
569.584	746.81
569.795	742.81
570.007	714.81
570.218	683.81
570.43	651.81
570.641	683.81
570.853	684.81
571.064	685.81
571.276	666.81
571.487	661.81
571.698	626.81
571.91	634.81
572.121	589.81
572.333	570.81
572.544	557.81
572.755	555.81
572.966	565.81
573.178	551.81
573.389	590.81
573.6	564.81
573.811	542.81
574.023	559.81
574.234	554.81
574.445	542.81
574.656	539.81
574.867	529.81
575.078	543.81
575.289	543.81
575.501	534.81
575.712	495.81
575.923	523.81
576.134	503.81
576.345	499.81
576.556	514.81
576.767	519.81
576.978	502.81
577.188	512.81
577.399	516.81
577.61	490.81
577.821	484.81
578.032	478.81
578.243	505.81
578.454	495.81
578.665	484.81
578.875	464.81
579.086	453.81
579.297	481.81
579.508	471.81
579.718	471.81
579.929	443.81
580.14	438.81
580.35	462.81
580.561	468.81
580.772	475.81
580.982	472.81
581.193	463.81
581.403	461.81
581.614	447.81
581.825	459.81
582.035	453.81
582.246	436.81
582.456	446.81
582.667	467.81
582.877	452.81
583.087	461.81
583.298	425.81
583.508	426.81
583.719	455.81
583.929	422.81
584.139	442.81
584.35	434.81
584.56	454.81
584.77	428.81
584.981	431.81
585.191	432.81
585.401	440.81
585.611	443.81
585.821	448.81
586.032	436.81
586.242	452.81
586.452	429.81
586.662	420.81
586.872	448.81
587.082	439.81
587.292	426.81
587.502	414.81
587.713	434.81
587.923	414.81
588.133	415.81
588.343	436.81
588.553	441.81
588.762	420.81
588.972	424.81
589.182	448.81
589.392	452.81
589.602	456.81
589.812	430.81
590.022	444.81
590.232	437.81
590.441	447.81
590.651	462.81
590.861	420.81
591.071	445.81
591.281	464.81
591.49	457.81
591.7	469.81
591.91	457.81
592.119	483.81
592.329	483.81
592.539	500.81
592.748	519.81
592.958	518.81
593.167	538.81
593.377	558.81
593.587	565.81
593.796	571.81
594.006	589.81
594.215	578.81
594.424	591.81
594.634	576.81
594.843	539.81
595.053	515.81
595.262	496.81
595.472	472.81
595.681	466.81
595.89	476.81
596.1	439.81
596.309	457.81
596.518	425.81
596.727	420.81
596.937	432.81
597.146	401.81
597.355	396.81
597.564	384.81
597.774	403.81
597.983	386.81
598.192	399.81
598.401	374.81
598.61	386.81
598.819	372.81
599.028	379.81
599.237	364.81
599.446	356.81
599.655	379.81
599.864	366.81
600.073	380.81
600.282	361.81
600.491	356.81
600.7	391.81
600.909	360.81
601.118	358.81
601.327	343.81
601.536	351.81
601.745	360.81
601.953	351.81
602.162	349.81
602.371	372.81
602.58	355.81
602.789	338.81
602.997	352.81
603.206	341.81
603.415	342.81
603.623	356.81
603.832	350.81
604.041	360.81
604.249	354.81
604.458	359.81
604.666	347.81
604.875	336.81
605.084	326.81
605.292	349.81
605.501	340.81
605.709	335.81
605.918	339.81
606.126	318.81
606.334	338.81
606.543	336.81
606.751	352.81
606.96	329.81
607.168	329.81
607.376	320.81
607.585	328.81
607.793	326.81
608.001	348.81
608.21	333.81
608.418	347.81
608.626	329.81
608.834	326.81
609.043	331.81
609.251	323.81
609.459	330.81
609.667	309.81
609.875	319.81
610.083	323.81
610.291	332.81
610.499	322.81
610.707	344.81
610.916	308.81
611.124	318.81
611.332	312.81
611.54	331.81
611.748	313.81
611.955	332.81
612.163	311.81
612.371	331.81
612.579	322.81
612.787	335.81
612.995	338.81
613.203	331.81
613.411	318.81
613.618	324.81
613.826	319.81
614.034	318.81
614.242	331.81
614.449	313.81
614.657	320.81
614.865	311.81
615.072	302.81
615.28	314.81
615.488	299.81
615.695	308.81
615.903	324.81
616.111	307.81
616.318	332.81
616.526	322.81
616.733	337.81
616.941	340.81
617.148	318.81
617.356	317.81
617.563	326.81
617.771	322.81
617.978	291.81
618.185	298.81
618.393	315.81
618.6	310.81
618.807	300.81
619.015	314.81
619.222	300.81
619.429	304.81
619.637	316.81
619.844	304.81
620.051	299.81
620.258	294.81
620.466	291.81
620.673	280.81
620.88	300.81
621.087	299.81
621.294	289.81
621.501	308.81
621.708	296.81
621.915	303.81
622.122	302.81
622.329	286.81
622.536	270.81
622.743	288.81
622.95	294.81
623.157	299.81
623.364	267.81
623.571	268.81
623.778	272.81
623.985	278.81
624.192	286.81
624.399	284.81
624.606	280.81
624.812	276.81
625.019	273.81
625.226	283.81
625.433	288.81
625.639	266.81
625.846	269.81
626.053	276.81
626.259	269.81
626.466	268.81
626.673	265.81
626.879	262.81
627.086	262.81
627.293	254.81
627.499	267.81
627.706	271.81
627.912	245.81
628.119	267.81
628.325	260.81
628.532	265.81
628.738	275.81
628.945	245.81
629.151	255.81
629.357	246.81
629.564	271.81
629.77	253.81
629.976	271.81
630.183	239.81
630.389	248.81
630.595	239.81
630.802	244.81
631.008	235.81
631.214	243.81
631.42	231.81
631.627	239.81
631.833	251.81
632.039	255.81
632.245	243.81
632.451	242.81
632.657	233.81
632.863	232.81
633.069	248.81
633.275	245.81
633.481	234.81
633.688	236.81
633.893	243.81
634.099	224.81
634.305	229.81
634.511	251.81
634.717	237.81
634.923	222.81
635.129	211.81
635.335	230.81
635.541	248.81
635.747	246.81
635.952	244.81
636.158	238.81
636.364	222.81
636.57	244.81
636.775	223.81
636.981	239.81
637.187	224.81
637.392	205.81
637.598	209.81
637.804	235.81
638.009	228.81
638.215	219.81
638.421	221.81
638.626	232.81
638.832	243.81
639.037	206.81
639.243	233.81
639.448	230.81
639.654	229.81
639.859	220.81
640.065	206.81
640.27	214.81
640.475	215.81
640.681	217.81
640.886	221.81
641.091	206.81
641.297	215.81
641.502	212.81
641.707	211.81
641.913	223.81
642.118	223.81
642.323	211.81
642.528	208.81
642.733	201.81
642.939	207.81
643.144	189.81
643.349	198.81
643.554	196.81
643.759	206.81
643.964	206.81
644.169	203.81
644.374	208.81
644.579	199.81
644.784	207.81
644.989	194.81
645.194	196.81
645.399	203.81
645.604	197.81
645.809	205.81
646.014	216.81
646.219	187.81
646.423	204.81
646.628	190.81
646.833	207.81
647.038	223.81
647.243	204.81
647.447	192.81
647.652	212.81
647.857	220.81
648.062	208.81
648.266	219.81
648.471	221.81
648.676	215.81
648.88	201.81
649.085	215.81
649.289	198.81
649.494	207.81
649.698	207.81
649.903	190.81
650.107	192.81
650.312	200.81
650.516	199.81
650.721	201.81
650.925	198.81
651.13	167.81
651.334	172.81
651.539	173.81
651.743	180.81
651.947	182.81
652.152	175.81
652.356	168.81
652.56	178.81
652.764	166.81
652.969	163.81
653.173	172.81
653.377	167.81
653.581	157.81
653.785	167.81
653.99	154.81
654.194	150.81
654.398	140.81
654.602	158.81
654.806	151.81
655.01	155.81
655.214	137.81
655.418	132.81
655.622	148.81
655.826	147.81
656.03	141.81
656.234	135.81
656.438	141.81
656.642	140.81
656.846	142.81
657.049	128.81
657.253	119.81
657.457	104.81
657.661	116.81
657.865	111.81
658.068	134.81
658.272	118.81
658.476	113.81
658.68	119.81
658.883	115.81
659.087	114.81
659.291	110.81
659.494	114.81
659.698	86.81
659.901	79.81
660.105	107.81
660.309	84.81
660.512	97.81
660.716	111.81
660.919	100.81
661.123	98.81
661.326	102.81
661.53	100.81
661.733	93.81
661.936	98.81
662.14	81.81
662.343	93.81
662.546	93.81
662.75	79.81
662.953	98.81
663.156	83.81
663.36	82.81
663.563	86.81
663.766	92.81
663.969	86.81
664.173	86.81
664.376	101.81
664.579	92.81
664.782	88.81
664.985	92.81
665.188	94.81
665.391	91.81
665.594	87.81
665.797	82.81
666	75.81
666.203	90.81
666.406	74.81
666.609	77.81
666.812	81.81
667.015	83.81
667.218	75.81
667.421	72.81
667.624	92.81
667.827	90.81
668.03	98.81
668.232	99.81
668.435	79.81
668.638	69.81
668.841	67.81
669.043	81.81
669.246	80.81
669.449	87.81
669.651	67.81
669.854	97.81
670.057	85.81
670.259	87.81
670.462	88.81
670.665	100.81
670.867	104.81
671.07	81.81
671.272	97.81
671.475	109.81
671.677	85.81
671.88	94.81
672.082	84.81
672.284	77.81
672.487	69.81
672.689	68.81
672.892	74.81
