Data from NiCl2@0.25M.TitratingCurve.Agarose3%dH2O.NegLispCup.LampEnergy10.LIBS07252019_HRD10591_18-25-03-575.txt Node
Date: Thu Jul 25 18:25:03 EDT 2019
User: cochatt
Spectrometer: HR+D1059
Trigger mode: 1
Integration Time (sec): 1.000000E-1
Scans to average: 1
Electric dark correction enabled: true
Nonlinearity correction enabled: false
Boxcar width: 0
XAxis mode: Wavelengths
Number of Pixels in Spectrum: 2048
>>>>>Begin Spectral Data<<<<<
223.165	-16.94
223.4	-16.94
223.635	-16.94
223.869	-9.94
224.104	-18.94
224.338	-19.94
224.573	-26.94
224.808	-16.94
225.042	-1.94
225.277	-11.94
225.511	-3.94
225.746	8.06
225.98	8.06
226.215	15.06
226.449	7.06
226.683	24.06
226.918	33.06
227.152	32.06
227.387	30.06
227.621	36.06
227.856	41.06
228.09	61.06
228.324	48.06
228.559	56.06
228.793	80.06
229.027	139.06
229.262	138.06
229.496	128.06
229.73	138.06
229.964	158.06
230.199	147.06
230.433	152.06
230.667	152.06
230.901	147.06
231.136	150.06
231.37	165.06
231.604	143.06
231.838	170.06
232.072	152.06
232.306	152.06
232.541	174.06
232.775	164.06
233.009	160.06
233.243	152.06
233.477	177.06
233.711	188.06
233.945	177.06
234.179	173.06
234.413	177.06
234.647	158.06
234.881	166.06
235.115	160.06
235.349	169.06
235.583	175.06
235.817	161.06
236.051	174.06
236.285	160.06
236.519	188.06
236.753	181.06
236.987	166.06
237.221	188.06
237.455	172.06
237.689	186.06
237.922	184.06
238.156	190.06
238.39	197.06
238.624	190.06
238.858	186.06
239.091	198.06
239.325	192.06
239.559	186.06
239.793	197.06
240.027	190.06
240.26	197.06
240.494	214.06
240.728	217.06
240.961	216.06
241.195	227.06
241.429	214.06
241.662	202.06
241.896	218.06
242.13	213.06
242.363	211.06
242.597	218.06
242.83	213.06
243.064	231.06
243.298	230.06
243.531	236.06
243.765	241.06
243.998	248.06
244.232	236.06
244.465	226.06
244.699	240.06
244.932	237.06
245.166	240.06
245.399	251.06
245.633	251.06
245.866	266.06
246.099	253.06
246.333	250.06
246.566	260.06
246.8	257.06
247.033	269.06
247.266	268.06
247.5	265.06
247.733	272.06
247.966	268.06
248.2	267.06
248.433	281.06
248.666	273.06
248.899	284.06
249.133	268.06
249.366	273.06
249.599	292.06
249.832	281.06
250.066	289.06
250.299	283.06
250.532	287.06
250.765	292.06
250.998	288.06
251.231	286.06
251.465	305.06
251.698	320.06
251.931	305.06
252.164	312.06
252.397	298.06
252.63	311.06
252.863	321.06
253.096	319.06
253.329	323.06
253.562	319.06
253.795	316.06
254.028	321.06
254.261	312.06
254.494	330.06
254.727	321.06
254.96	313.06
255.193	327.06
255.426	317.06
255.659	328.06
255.892	302.06
256.124	314.06
256.357	355.06
256.59	325.06
256.823	319.06
257.056	342.06
257.289	331.06
257.521	344.06
257.754	353.06
257.987	343.06
258.22	359.06
258.452	344.06
258.685	353.06
258.918	348.06
259.151	334.06
259.383	350.06
259.616	357.06
259.849	362.06
260.081	348.06
260.314	377.06
260.547	372.06
260.779	354.06
261.012	372.06
261.244	377.06
261.477	364.06
261.71	372.06
261.942	370.06
262.175	382.06
262.407	388.06
262.64	388.06
262.872	392.06
263.105	387.06
263.337	394.06
263.57	403.06
263.802	388.06
264.035	409.06
264.267	396.06
264.499	392.06
264.732	399.06
264.964	422.06
265.197	414.06
265.429	402.06
265.661	392.06
265.894	411.06
266.126	391.06
266.358	389.06
266.591	392.06
266.823	424.06
267.055	399.06
267.287	409.06
267.52	406.06
267.752	434.06
267.984	425.06
268.216	426.06
268.448	436.06
268.681	464.06
268.913	424.06
269.145	410.06
269.377	430.06
269.609	431.06
269.841	422.06
270.073	440.06
270.306	420.06
270.538	423.06
270.77	407.06
271.002	425.06
271.234	441.06
271.466	427.06
271.698	450.06
271.93	436.06
272.162	439.06
272.394	459.06
272.626	458.06
272.858	446.06
273.09	443.06
273.322	473.06
273.553	445.06
273.785	458.06
274.017	447.06
274.249	460.06
274.481	459.06
274.713	463.06
274.945	481.06
275.176	478.06
275.408	498.06
275.64	473.06
275.872	482.06
276.104	487.06
276.335	489.06
276.567	478.06
276.799	470.06
277.031	471.06
277.262	499.06
277.494	501.06
277.726	496.06
277.957	489.06
278.189	512.06
278.421	501.06
278.652	522.06
278.884	501.06
279.115	495.06
279.347	514.06
279.579	528.06
279.81	513.06
280.042	499.06
280.273	529.06
280.505	525.06
280.736	519.06
280.968	522.06
281.199	529.06
281.431	548.06
281.662	553.06
281.894	542.06
282.125	518.06
282.356	546.06
282.588	549.06
282.819	541.06
283.051	547.06
283.282	551.06
283.513	558.06
283.745	538.06
283.976	548.06
284.207	531.06
284.439	546.06
284.67	572.06
284.901	558.06
285.132	569.06
285.364	576.06
285.595	553.06
285.826	571.06
286.057	562.06
286.288	568.06
286.52	575.06
286.751	582.06
286.982	564.06
287.213	584.06
287.444	607.06
287.675	593.06
287.906	592.06
288.138	582.06
288.369	590.06
288.6	590.06
288.831	592.06
289.062	605.06
289.293	614.06
289.524	601.06
289.755	591.06
289.986	596.06
290.217	588.06
290.448	604.06
290.679	623.06
290.91	618.06
291.141	598.06
291.371	601.06
291.602	630.06
291.833	621.06
292.064	616.06
292.295	593.06
292.526	631.06
292.757	599.06
292.987	612.06
293.218	600.06
293.449	611.06
293.68	614.06
293.91	610.06
294.141	611.06
294.372	586.06
294.603	639.06
294.833	634.06
295.064	628.06
295.295	632.06
295.525	640.06
295.756	619.06
295.987	633.06
296.217	624.06
296.448	640.06
296.679	648.06
296.909	639.06
297.14	608.06
297.37	645.06
297.601	666.06
297.831	655.06
298.062	668.06
298.292	662.06
298.523	690.06
298.753	692.06
298.984	678.06
299.214	673.06
299.445	650.06
299.675	646.06
299.905	654.06
300.136	664.06
300.366	662.06
300.597	658.06
300.827	725.06
301.057	694.06
301.288	710.06
301.518	691.06
301.748	702.06
301.979	704.06
302.209	708.06
302.439	699.06
302.669	669.06
302.9	715.06
303.13	679.06
303.36	671.06
303.59	683.06
303.82	677.06
304.051	689.06
304.281	694.06
304.511	699.06
304.741	699.06
304.971	706.06
305.201	683.06
305.431	683.06
305.661	690.06
305.891	699.06
306.121	668.06
306.352	649.06
306.582	683.06
306.812	661.06
307.042	686.06
307.272	655.06
307.502	672.06
307.731	688.06
307.961	669.06
308.191	672.06
308.421	680.06
308.651	676.06
308.881	657.06
309.111	678.06
309.341	667.06
309.571	678.06
309.8	690.06
310.03	677.06
310.26	676.06
310.49	676.06
310.72	695.06
310.949	678.06
311.179	706.06
311.409	663.06
311.639	683.06
311.868	708.06
312.098	705.06
312.328	710.06
312.557	720.06
312.787	697.06
313.017	725.06
313.246	720.06
313.476	711.06
313.706	730.06
313.935	738.06
314.165	721.06
314.394	727.06
314.624	764.06
314.853	738.06
315.083	741.06
315.312	703.06
315.542	709.06
315.771	718.06
316.001	716.06
316.23	717.06
316.46	717.06
316.689	723.06
316.919	748.06
317.148	705.06
317.377	705.06
317.607	718.06
317.836	711.06
318.065	725.06
318.295	716.06
318.524	716.06
318.753	695.06
318.983	705.06
319.212	707.06
319.441	719.06
319.67	717.06
319.9	679.06
320.129	727.06
320.358	751.06
320.587	707.06
320.816	718.06
321.046	719.06
321.275	734.06
321.504	724.06
321.733	739.06
321.962	730.06
322.191	733.06
322.42	730.06
322.649	716.06
322.878	720.06
323.108	722.06
323.337	730.06
323.566	745.06
323.795	716.06
324.024	763.06
324.253	726.06
324.482	708.06
324.71	725.06
324.939	772.06
325.168	749.06
325.397	746.06
325.626	751.06
325.855	775.06
326.084	776.06
326.313	786.06
326.542	812.06
326.77	829.06
326.999	780.06
327.228	775.06
327.457	800.06
327.686	780.06
327.914	793.06
328.143	787.06
328.372	776.06
328.6	808.06
328.829	791.06
329.058	762.06
329.287	798.06
329.515	813.06
329.744	796.06
329.972	798.06
330.201	796.06
330.43	804.06
330.658	823.06
330.887	817.06
331.115	823.06
331.344	827.06
331.572	840.06
331.801	864.06
332.03	879.06
332.258	916.06
332.486	939.06
332.715	956.06
332.943	995.06
333.172	1020.06
333.4	1056.06
333.629	1112.06
333.857	1119.06
334.085	1098.06
334.314	1050.06
334.542	1013.06
334.771	1033.06
334.999	977.06
335.227	1005.06
335.455	996.06
335.684	992.06
335.912	1017.06
336.14	961.06
336.369	956.06
336.597	952.06
336.825	950.06
337.053	975.06
337.281	922.06
337.51	904.06
337.738	896.06
337.966	888.06
338.194	889.06
338.422	845.06
338.65	842.06
338.878	877.06
339.106	873.06
339.334	863.06
339.562	841.06
339.79	852.06
340.018	860.06
340.246	807.06
340.474	820.06
340.702	816.06
340.93	828.06
341.158	864.06
341.386	812.06
341.614	809.06
341.842	816.06
342.07	805.06
342.298	806.06
342.526	815.06
342.754	821.06
342.981	828.06
343.209	863.06
343.437	861.06
343.665	943.06
343.893	994.06
344.12	1043.06
344.348	1000.06
344.576	921.06
344.804	890.06
345.031	863.06
345.259	872.06
345.487	837.06
345.714	812.06
345.942	825.06
346.17	796.06
346.397	799.06
346.625	791.06
346.853	813.06
347.08	793.06
347.308	812.06
347.535	811.06
347.763	787.06
347.99	793.06
348.218	782.06
348.445	775.06
348.673	790.06
348.9	780.06
349.128	780.06
349.355	773.06
349.583	807.06
349.81	764.06
350.037	755.06
350.265	766.06
350.492	758.06
350.72	749.06
350.947	750.06
351.174	772.06
351.402	758.06
351.629	748.06
351.856	749.06
352.083	751.06
352.311	760.06
352.538	775.06
352.765	756.06
352.992	738.06
353.22	772.06
353.447	729.06
353.674	752.06
353.901	748.06
354.128	774.06
354.355	730.06
354.583	765.06
354.81	742.06
355.037	744.06
355.264	786.06
355.491	766.06
355.718	762.06
355.945	778.06
356.172	757.06
356.399	765.06
356.626	775.06
356.853	774.06
357.08	777.06
357.307	763.06
357.534	766.06
357.761	748.06
357.988	778.06
358.215	760.06
358.441	785.06
358.668	768.06
358.895	753.06
359.122	749.06
359.349	771.06
359.576	791.06
359.802	765.06
360.029	768.06
360.256	742.06
360.483	780.06
360.709	759.06
360.936	772.06
361.163	739.06
361.39	753.06
361.616	765.06
361.843	786.06
362.07	759.06
362.296	764.06
362.523	770.06
362.749	770.06
362.976	762.06
363.203	758.06
363.429	756.06
363.656	766.06
363.882	769.06
364.109	759.06
364.335	759.06
364.562	772.06
364.788	751.06
365.015	798.06
365.241	760.06
365.468	745.06
365.694	754.06
365.92	772.06
366.147	795.06
366.373	774.06
366.599	768.06
366.826	755.06
367.052	735.06
367.278	767.06
367.505	775.06
367.731	765.06
367.957	749.06
368.184	770.06
368.41	770.06
368.636	783.06
368.862	789.06
369.089	802.06
369.315	801.06
369.541	761.06
369.767	796.06
369.993	839.06
370.219	815.06
370.445	808.06
370.672	797.06
370.898	820.06
371.124	835.06
371.35	834.06
371.576	842.06
371.802	845.06
372.028	821.06
372.254	832.06
372.48	849.06
372.706	850.06
372.932	871.06
373.158	896.06
373.384	850.06
373.61	840.06
373.835	820.06
374.061	842.06
374.287	857.06
374.513	829.06
374.739	877.06
374.965	921.06
375.191	932.06
375.416	927.06
375.642	910.06
375.868	878.06
376.094	847.06
376.319	854.06
376.545	834.06
376.771	880.06
376.997	833.06
377.222	849.06
377.448	813.06
377.674	838.06
377.899	839.06
378.125	826.06
378.35	808.06
378.576	827.06
378.802	823.06
379.027	816.06
379.253	829.06
379.478	794.06
379.704	801.06
379.929	816.06
380.155	803.06
380.38	818.06
380.606	824.06
380.831	841.06
381.057	836.06
381.282	837.06
381.507	821.06
381.733	849.06
381.958	846.06
382.184	859.06
382.409	847.06
382.634	855.06
382.86	864.06
383.085	865.06
383.31	895.06
383.535	930.06
383.761	925.06
383.986	960.06
384.211	962.06
384.436	967.06
384.662	984.06
384.887	1000.06
385.112	993.06
385.337	1028.06
385.562	1007.06
385.787	1014.06
386.013	1024.06
386.238	1036.06
386.463	1023.06
386.688	1021.06
386.913	978.06
387.138	998.06
387.363	964.06
387.588	962.06
387.813	965.06
388.038	965.06
388.263	1000.06
388.488	1020.06
388.713	994.06
388.938	982.06
389.163	956.06
389.387	947.06
389.612	978.06
389.837	969.06
390.062	986.06
390.287	997.06
390.512	1006.06
390.736	994.06
390.961	1025.06
391.186	1030.06
391.411	1072.06
391.636	1084.06
391.86	1152.06
392.085	1170.06
392.31	1143.06
392.534	1104.06
392.759	1084.06
392.984	1089.06
393.208	1069.06
393.433	1076.06
393.658	1086.06
393.882	1082.06
394.107	1068.06
394.331	1064.06
394.556	1063.06
394.78	1086.06
395.005	1076.06
395.229	1072.06
395.454	1129.06
395.678	1145.06
395.903	1111.06
396.127	1104.06
396.352	1083.06
396.576	1055.06
396.801	1051.06
397.025	1066.06
397.249	1101.06
397.474	1130.06
397.698	1131.06
397.922	1109.06
398.147	1106.06
398.371	1157.06
398.595	1202.06
398.82	1255.06
399.044	1346.06
399.268	1473.06
399.492	1739.06
399.717	1982.06
399.941	1969.06
400.165	1702.06
400.389	1524.06
400.613	1376.06
400.837	1345.06
401.062	1291.06
401.286	1268.06
401.51	1266.06
401.734	1253.06
401.958	1290.06
402.182	1274.06
402.406	1313.06
402.63	1339.06
402.854	1357.06
403.078	1376.06
403.302	1404.06
403.526	1468.06
403.75	1498.06
403.974	1488.06
404.198	1495.06
404.422	1525.06
404.645	1476.06
404.869	1429.06
405.093	1452.06
405.317	1444.06
405.541	1431.06
405.765	1400.06
405.988	1365.06
406.212	1396.06
406.436	1400.06
406.66	1434.06
406.883	1468.06
407.107	1560.06
407.331	1606.06
407.555	1645.06
407.778	1638.06
408.002	1608.06
408.226	1563.06
408.449	1520.06
408.673	1472.06
408.896	1463.06
409.12	1437.06
409.344	1435.06
409.567	1416.06
409.791	1419.06
410.014	1421.06
410.238	1403.06
410.461	1437.06
410.685	1382.06
410.908	1384.06
411.132	1319.06
411.355	1330.06
411.578	1307.06
411.802	1320.06
412.025	1297.06
412.249	1337.06
412.472	1330.06
412.695	1278.06
412.919	1265.06
413.142	1259.06
413.365	1248.06
413.589	1258.06
413.812	1234.06
414.035	1245.06
414.258	1244.06
414.482	1256.06
414.705	1270.06
414.928	1277.06
415.151	1286.06
415.374	1257.06
415.597	1244.06
415.821	1252.06
416.044	1231.06
416.267	1233.06
416.49	1198.06
416.713	1218.06
416.936	1237.06
417.159	1246.06
417.382	1208.06
417.605	1248.06
417.828	1270.06
418.051	1252.06
418.274	1246.06
418.497	1273.06
418.72	1297.06
418.943	1288.06
419.166	1383.06
419.389	1456.06
419.611	1366.06
419.834	1328.06
420.057	1311.06
420.28	1259.06
420.503	1272.06
420.726	1263.06
420.948	1210.06
421.171	1223.06
421.394	1254.06
421.617	1218.06
421.839	1246.06
422.062	1239.06
422.285	1221.06
422.507	1264.06
422.73	1257.06
422.953	1304.06
423.175	1348.06
423.398	1319.06
423.621	1336.06
423.843	1362.06
424.066	1351.06
424.288	1309.06
424.511	1322.06
424.733	1290.06
424.956	1280.06
425.178	1308.06
425.401	1249.06
425.623	1241.06
425.846	1193.06
426.068	1193.06
426.291	1187.06
426.513	1145.06
426.735	1164.06
426.958	1156.06
427.18	1151.06
427.402	1149.06
427.625	1159.06
427.847	1112.06
428.069	1099.06
428.292	1123.06
428.514	1092.06
428.736	1093.06
428.958	1109.06
429.181	1066.06
429.403	1094.06
429.625	1077.06
429.847	1073.06
430.069	1068.06
430.292	1065.06
430.514	1037.06
430.736	1073.06
430.958	1066.06
431.18	1057.06
431.402	1070.06
431.624	1056.06
431.846	1093.06
432.068	1136.06
432.29	1116.06
432.512	1104.06
432.734	1114.06
432.956	1092.06
433.178	1084.06
433.4	1110.06
433.622	1097.06
433.844	1104.06
434.066	1118.06
434.287	1102.06
434.509	1145.06
434.731	1168.06
434.953	1252.06
435.175	1279.06
435.397	1238.06
435.618	1181.06
435.84	1110.06
436.062	1127.06
436.284	1073.06
436.505	1079.06
436.727	1084.06
436.949	1105.06
437.17	1046.06
437.392	1088.06
437.614	1071.06
437.835	1028.06
438.057	1041.06
438.278	1016.06
438.5	1047.06
438.721	1018.06
438.943	1056.06
439.165	1060.06
439.386	1048.06
439.608	1085.06
439.829	1099.06
440.05	1087.06
440.272	1104.06
440.493	1120.06
440.715	1093.06
440.936	1126.06
441.158	1152.06
441.379	1169.06
441.6	1227.06
441.822	1239.06
442.043	1241.06
442.264	1210.06
442.486	1177.06
442.707	1219.06
442.928	1191.06
443.149	1215.06
443.371	1193.06
443.592	1237.06
443.813	1225.06
444.034	1254.06
444.255	1295.06
444.476	1327.06
444.698	1464.06
444.919	1499.06
445.14	1579.06
445.361	1384.06
445.582	1245.06
445.803	1185.06
446.024	1170.06
446.245	1147.06
446.466	1106.06
446.687	1091.06
446.908	1078.06
447.129	1051.06
447.35	1023.06
447.571	993.06
447.792	1007.06
448.013	1014.06
448.234	982.06
448.455	1000.06
448.675	980.06
448.896	997.06
449.117	962.06
449.338	961.06
449.559	983.06
449.779	979.06
450	948.06
450.221	972.06
450.442	993.06
450.662	1001.06
450.883	1010.06
451.104	1030.06
451.324	973.06
451.545	988.06
451.766	1032.06
451.986	1022.06
452.207	1002.06
452.428	1004.06
452.648	958.06
452.869	974.06
453.089	976.06
453.31	981.06
453.53	974.06
453.751	928.06
453.971	965.06
454.192	986.06
454.412	936.06
454.633	938.06
454.853	935.06
455.073	930.06
455.294	932.06
455.514	927.06
455.734	908.06
455.955	916.06
456.175	907.06
456.395	913.06
456.616	913.06
456.836	914.06
457.056	938.06
457.276	900.06
457.497	918.06
457.717	916.06
457.937	932.06
458.157	964.06
458.377	965.06
458.598	978.06
458.818	976.06
459.038	1017.06
459.258	1058.06
459.478	1099.06
459.698	1112.06
459.918	1167.06
460.138	1212.06
460.358	1313.06
460.578	1297.06
460.798	1321.06
461.018	1319.06
461.238	1310.06
461.458	1276.06
461.678	1275.06
461.898	1285.06
462.118	1320.06
462.338	1404.06
462.558	1422.06
462.777	1458.06
462.997	1629.06
463.217	1832.06
463.437	1810.06
463.657	1622.06
463.876	1512.06
464.096	1544.06
464.316	1557.06
464.536	1550.06
464.755	1482.06
464.975	1416.06
465.195	1361.06
465.414	1264.06
465.634	1177.06
465.854	1120.06
466.073	1121.06
466.293	1080.06
466.512	1034.06
466.732	1035.06
466.951	1055.06
467.171	1036.06
467.391	1013.06
467.61	1046.06
467.829	1042.06
468.049	1043.06
468.268	1016.06
468.488	977.06
468.707	985.06
468.927	989.06
469.146	980.06
469.365	1018.06
469.585	992.06
469.804	1049.06
470.023	1083.06
470.243	1082.06
470.462	1048.06
470.681	1084.06
470.901	1066.06
471.12	1066.06
471.339	1042.06
471.558	1012.06
471.777	1012.06
471.997	1018.06
472.216	1015.06
472.435	964.06
472.654	972.06
472.873	984.06
473.092	958.06
473.311	963.06
473.53	979.06
473.749	957.06
473.968	954.06
474.187	957.06
474.406	960.06
474.625	968.06
474.844	949.06
475.063	949.06
475.282	985.06
475.501	968.06
475.72	986.06
475.939	1015.06
476.158	993.06
476.377	1000.06
476.596	988.06
476.814	1012.06
477.033	1003.06
477.252	1022.06
477.471	1088.06
477.69	1105.06
477.908	1112.06
478.127	1152.06
478.346	1175.06
478.564	1196.06
478.783	1196.06
479.002	1264.06
479.22	1213.06
479.439	1206.06
479.658	1209.06
479.876	1214.06
480.095	1269.06
480.313	1297.06
480.532	1300.06
480.751	1297.06
480.969	1239.06
481.188	1210.06
481.406	1184.06
481.624	1162.06
481.843	1116.06
482.061	1104.06
482.28	1101.06
482.498	1091.06
482.717	1099.06
482.935	1106.06
483.153	1080.06
483.372	1104.06
483.59	1109.06
483.808	1090.06
484.027	1115.06
484.245	1105.06
484.463	1091.06
484.681	1124.06
484.9	1151.06
485.118	1146.06
485.336	1121.06
485.554	1125.06
485.772	1194.06
485.99	1180.06
486.209	1189.06
486.427	1176.06
486.645	1174.06
486.863	1137.06
487.081	1135.06
487.299	1140.06
487.517	1137.06
487.735	1166.06
487.953	1140.06
488.171	1118.06
488.389	1141.06
488.607	1152.06
488.825	1142.06
489.043	1112.06
489.261	1120.06
489.479	1139.06
489.696	1128.06
489.914	1180.06
490.132	1159.06
490.35	1146.06
490.568	1179.06
490.786	1164.06
491.003	1145.06
491.221	1154.06
491.439	1144.06
491.657	1162.06
491.874	1164.06
492.092	1173.06
492.31	1219.06
492.527	1212.06
492.745	1180.06
492.963	1163.06
493.18	1194.06
493.398	1220.06
493.615	1208.06
493.833	1180.06
494.05	1234.06
494.268	1217.06
494.485	1225.06
494.703	1236.06
494.92	1247.06
495.138	1226.06
495.355	1258.06
495.573	1245.06
495.79	1266.06
496.008	1257.06
496.225	1277.06
496.442	1276.06
496.66	1296.06
496.877	1322.06
497.094	1309.06
497.312	1334.06
497.529	1344.06
497.746	1387.06
497.963	1492.06
498.181	1552.06
498.398	1557.06
498.615	1693.06
498.832	1793.06
499.049	1932.06
499.267	2140.06
499.484	2284.06
499.701	2541.06
499.918	2879.06
500.135	3324.06
500.352	3894.06
500.569	4073.06
500.786	3990.06
501.003	3694.06
501.22	3223.06
501.437	2862.06
501.654	2492.06
501.871	2225.06
502.088	2069.06
502.305	1946.06
502.522	1830.06
502.739	1747.06
502.956	1664.06
503.172	1574.06
503.389	1489.06
503.606	1438.06
503.823	1459.06
504.04	1429.06
504.256	1485.06
504.473	1494.06
504.69	1536.06
504.907	1485.06
505.123	1399.06
505.34	1327.06
505.557	1221.06
505.773	1207.06
505.99	1198.06
506.207	1163.06
506.423	1146.06
506.64	1126.06
506.856	1122.06
507.073	1112.06
507.289	1098.06
507.506	1111.06
507.722	1084.06
507.939	1068.06
508.155	1051.06
508.372	1073.06
508.588	1012.06
508.805	1032.06
509.021	1004.06
509.238	1064.06
509.454	1022.06
509.67	1029.06
509.887	1020.06
510.103	988.06
510.319	967.06
510.536	999.06
510.752	978.06
510.968	993.06
511.184	999.06
511.401	989.06
511.617	1012.06
511.833	973.06
512.049	973.06
512.265	1003.06
512.481	984.06
512.698	999.06
512.914	1003.06
513.13	978.06
513.346	981.06
513.562	1024.06
513.778	1002.06
513.994	976.06
514.21	979.06
514.426	1005.06
514.642	998.06
514.858	1005.06
515.074	1025.06
515.29	1049.06
515.506	1001.06
515.721	1077.06
515.937	1080.06
516.153	1101.06
516.369	1110.06
516.585	1141.06
516.801	1172.06
517.016	1238.06
517.232	1319.06
517.448	1392.06
517.664	1433.06
517.879	1424.06
518.095	1428.06
518.311	1435.06
518.527	1317.06
518.742	1272.06
518.958	1206.06
519.173	1156.06
519.389	1152.06
519.605	1128.06
519.82	1064.06
520.036	1063.06
520.251	1035.06
520.467	1013.06
520.682	1021.06
520.898	992.06
521.113	969.06
521.329	966.06
521.544	977.06
521.76	956.06
521.975	978.06
522.19	949.06
522.406	934.06
522.621	949.06
522.836	907.06
523.052	930.06
523.267	927.06
523.482	916.06
523.698	916.06
523.913	900.06
524.128	919.06
524.343	902.06
524.559	899.06
524.774	894.06
524.989	897.06
525.204	910.06
525.419	908.06
525.634	870.06
525.849	888.06
526.064	874.06
526.28	904.06
526.495	897.06
526.71	896.06
526.925	861.06
527.14	868.06
527.355	888.06
527.57	896.06
527.785	881.06
527.999	869.06
528.214	870.06
528.429	868.06
528.644	898.06
528.859	899.06
529.074	896.06
529.289	882.06
529.503	878.06
529.718	897.06
529.933	876.06
530.148	856.06
530.363	859.06
530.577	912.06
530.792	855.06
531.007	859.06
531.221	886.06
531.436	857.06
531.651	895.06
531.865	904.06
532.08	887.06
532.295	893.06
532.509	888.06
532.724	888.06
532.938	893.06
533.153	895.06
533.367	893.06
533.582	886.06
533.796	849.06
534.011	886.06
534.225	889.06
534.44	875.06
534.654	877.06
534.868	868.06
535.083	876.06
535.297	843.06
535.511	849.06
535.726	864.06
535.94	815.06
536.154	829.06
536.369	844.06
536.583	832.06
536.797	832.06
537.011	852.06
537.225	809.06
537.44	821.06
537.654	833.06
537.868	802.06
538.082	818.06
538.296	807.06
538.51	821.06
538.724	808.06
538.938	803.06
539.153	820.06
539.367	788.06
539.581	796.06
539.795	776.06
540.009	796.06
540.222	807.06
540.436	798.06
540.65	782.06
540.864	788.06
541.078	786.06
541.292	817.06
541.506	812.06
541.72	822.06
541.934	808.06
542.147	801.06
542.361	792.06
542.575	781.06
542.789	766.06
543.002	783.06
543.216	775.06
543.43	806.06
543.644	750.06
543.857	778.06
544.071	770.06
544.285	777.06
544.498	777.06
544.712	793.06
544.925	829.06
545.139	808.06
545.352	821.06
545.566	818.06
545.779	836.06
545.993	833.06
546.206	820.06
546.42	822.06
546.633	809.06
546.847	794.06
547.06	809.06
547.274	832.06
547.487	815.06
547.7	820.06
547.914	796.06
548.127	812.06
548.34	850.06
548.554	818.06
548.767	813.06
548.98	822.06
549.193	827.06
549.407	832.06
549.62	856.06
549.833	873.06
550.046	829.06
550.259	832.06
550.473	785.06
550.686	792.06
550.899	810.06
551.112	802.06
551.325	777.06
551.538	776.06
551.751	791.06
551.964	796.06
552.177	840.06
552.39	824.06
552.603	826.06
552.816	887.06
553.029	907.06
553.242	899.06
553.455	917.06
553.667	912.06
553.88	900.06
554.093	839.06
554.306	838.06
554.519	836.06
554.732	812.06
554.944	799.06
555.157	784.06
555.37	799.06
555.583	766.06
555.795	756.06
556.008	731.06
556.221	702.06
556.433	712.06
556.646	704.06
556.859	704.06
557.071	704.06
557.284	699.06
557.496	681.06
557.709	672.06
557.921	713.06
558.134	680.06
558.346	670.06
558.559	697.06
558.771	677.06
558.984	684.06
559.196	657.06
559.409	676.06
559.621	648.06
559.833	674.06
560.046	669.06
560.258	640.06
560.47	653.06
560.683	640.06
560.895	671.06
561.107	664.06
561.32	647.06
561.532	650.06
561.744	639.06
561.956	662.06
562.168	656.06
562.381	668.06
562.593	632.06
562.805	646.06
563.017	666.06
563.229	674.06
563.441	667.06
563.653	670.06
563.865	690.06
564.077	680.06
564.289	669.06
564.501	693.06
564.713	712.06
564.925	722.06
565.137	698.06
565.349	720.06
565.561	782.06
565.773	807.06
565.985	841.06
566.197	874.06
566.408	958.06
566.62	1038.06
566.832	1140.06
567.044	1176.06
567.255	1135.06
567.467	1204.06
567.679	1250.06
567.891	1396.06
568.102	1385.06
568.314	1302.06
568.526	1140.06
568.737	1053.06
568.949	968.06
569.161	874.06
569.372	807.06
569.584	745.06
569.795	722.06
570.007	687.06
570.218	698.06
570.43	705.06
570.641	696.06
570.853	714.06
571.064	702.06
571.276	701.06
571.487	684.06
571.698	647.06
571.91	619.06
572.121	617.06
572.333	586.06
572.544	607.06
572.755	566.06
572.966	576.06
573.178	572.06
573.389	560.06
573.6	541.06
573.811	543.06
574.023	565.06
574.234	557.06
574.445	560.06
574.656	530.06
574.867	548.06
575.078	531.06
575.289	535.06
575.501	544.06
575.712	516.06
575.923	531.06
576.134	538.06
576.345	514.06
576.556	537.06
576.767	528.06
576.978	498.06
577.188	514.06
577.399	498.06
577.61	484.06
577.821	490.06
578.032	494.06
578.243	488.06
578.454	486.06
578.665	480.06
578.875	490.06
579.086	475.06
579.297	472.06
579.508	495.06
579.718	473.06
579.929	496.06
580.14	455.06
580.35	470.06
580.561	477.06
580.772	471.06
580.982	459.06
581.193	456.06
581.403	446.06
581.614	462.06
581.825	467.06
582.035	455.06
582.246	448.06
582.456	449.06
582.667	436.06
582.877	455.06
583.087	445.06
583.298	453.06
583.508	438.06
583.719	451.06
583.929	459.06
584.139	442.06
584.35	453.06
584.56	449.06
584.77	447.06
584.981	430.06
585.191	434.06
585.401	434.06
585.611	442.06
585.821	445.06
586.032	433.06
586.242	446.06
586.452	437.06
586.662	454.06
586.872	430.06
587.082	441.06
587.292	415.06
587.502	415.06
587.713	431.06
587.923	449.06
588.133	447.06
588.343	443.06
588.553	415.06
588.762	433.06
588.972	424.06
589.182	437.06
589.392	426.06
589.602	436.06
589.812	426.06
590.022	428.06
590.232	426.06
590.441	441.06
590.651	438.06
590.861	440.06
591.071	436.06
591.281	451.06
591.49	449.06
591.7	443.06
591.91	474.06
592.119	483.06
592.329	480.06
592.539	493.06
592.748	517.06
592.958	535.06
593.167	581.06
593.377	559.06
593.587	562.06
593.796	578.06
594.006	580.06
594.215	582.06
594.424	606.06
594.634	571.06
594.843	524.06
595.053	496.06
595.262	488.06
595.472	488.06
595.681	461.06
595.89	459.06
596.1	436.06
596.309	440.06
596.518	416.06
596.727	384.06
596.937	440.06
597.146	406.06
597.355	395.06
597.564	398.06
597.774	384.06
597.983	365.06
598.192	380.06
598.401	391.06
598.61	380.06
598.819	392.06
599.028	378.06
599.237	379.06
599.446	385.06
599.655	375.06
599.864	383.06
600.073	348.06
600.282	358.06
600.491	359.06
600.7	367.06
600.909	366.06
601.118	375.06
601.327	352.06
601.536	354.06
601.745	358.06
601.953	354.06
602.162	367.06
602.371	357.06
602.58	354.06
602.789	357.06
602.997	344.06
603.206	359.06
603.415	337.06
603.623	335.06
603.832	348.06
604.041	364.06
604.249	349.06
604.458	347.06
604.666	345.06
604.875	348.06
605.084	325.06
605.292	324.06
605.501	344.06
605.709	333.06
605.918	347.06
606.126	338.06
606.334	346.06
606.543	330.06
606.751	338.06
606.96	333.06
607.168	332.06
607.376	314.06
607.585	332.06
607.793	325.06
608.001	335.06
608.21	325.06
608.418	319.06
608.626	311.06
608.834	331.06
609.043	327.06
609.251	319.06
609.459	318.06
609.667	333.06
609.875	314.06
610.083	329.06
610.291	338.06
610.499	326.06
610.707	316.06
610.916	336.06
611.124	311.06
611.332	314.06
611.54	324.06
611.748	330.06
611.955	289.06
612.163	315.06
612.371	318.06
612.579	323.06
612.787	310.06
612.995	321.06
613.203	326.06
613.411	331.06
613.618	320.06
613.826	296.06
614.034	310.06
614.242	322.06
614.449	305.06
614.657	314.06
614.865	303.06
615.072	298.06
615.28	313.06
615.488	324.06
615.695	307.06
615.903	314.06
616.111	314.06
616.318	305.06
616.526	319.06
616.733	308.06
616.941	305.06
617.148	314.06
617.356	332.06
617.563	321.06
617.771	324.06
617.978	321.06
618.185	294.06
618.393	294.06
618.6	330.06
618.807	299.06
619.015	306.06
619.222	314.06
619.429	322.06
619.637	320.06
619.844	314.06
620.051	298.06
620.258	298.06
620.466	297.06
620.673	302.06
620.88	284.06
621.087	279.06
621.294	289.06
621.501	274.06
621.708	306.06
621.915	300.06
622.122	293.06
622.329	308.06
622.536	281.06
622.743	299.06
622.95	286.06
623.157	282.06
623.364	292.06
623.571	291.06
623.778	273.06
623.985	271.06
624.192	290.06
624.399	286.06
624.606	279.06
624.812	277.06
625.019	278.06
625.226	253.06
625.433	277.06
625.639	269.06
625.846	268.06
626.053	266.06
626.259	289.06
626.466	256.06
626.673	267.06
626.879	254.06
627.086	248.06
627.293	264.06
627.499	265.06
627.706	280.06
627.912	277.06
628.119	271.06
628.325	235.06
628.532	254.06
628.738	268.06
628.945	258.06
629.151	264.06
629.357	229.06
629.564	245.06
629.77	250.06
629.976	257.06
630.183	248.06
630.389	231.06
630.595	263.06
630.802	251.06
631.008	242.06
631.214	233.06
631.42	228.06
631.627	236.06
631.833	241.06
632.039	248.06
632.245	239.06
632.451	224.06
632.657	245.06
632.863	236.06
633.069	231.06
633.275	262.06
633.481	239.06
633.688	220.06
633.893	233.06
634.099	250.06
634.305	244.06
634.511	227.06
634.717	244.06
634.923	235.06
635.129	218.06
635.335	235.06
635.541	238.06
635.747	223.06
635.952	217.06
636.158	241.06
636.364	228.06
636.57	235.06
636.775	221.06
636.981	219.06
637.187	227.06
637.392	223.06
637.598	215.06
637.804	231.06
638.009	237.06
638.215	222.06
638.421	235.06
638.626	224.06
638.832	219.06
639.037	224.06
639.243	204.06
639.448	221.06
639.654	224.06
639.859	234.06
640.065	236.06
640.27	222.06
640.475	193.06
640.681	202.06
640.886	204.06
641.091	224.06
641.297	203.06
641.502	206.06
641.707	202.06
641.913	196.06
642.118	221.06
642.323	188.06
642.528	200.06
642.733	226.06
642.939	208.06
643.144	205.06
643.349	202.06
643.554	210.06
643.759	218.06
643.964	211.06
644.169	196.06
644.374	193.06
644.579	207.06
644.784	200.06
644.989	198.06
645.194	205.06
645.399	196.06
645.604	211.06
645.809	198.06
646.014	213.06
646.219	190.06
646.423	216.06
646.628	194.06
646.833	219.06
647.038	201.06
647.243	210.06
647.447	196.06
647.652	205.06
647.857	202.06
648.062	223.06
648.266	207.06
648.471	215.06
648.676	223.06
648.88	203.06
649.085	209.06
649.289	206.06
649.494	205.06
649.698	202.06
649.903	193.06
650.107	180.06
650.312	207.06
650.516	200.06
650.721	185.06
650.925	181.06
651.13	172.06
651.334	184.06
651.539	176.06
651.743	190.06
651.947	172.06
652.152	184.06
652.356	168.06
652.56	191.06
652.764	190.06
652.969	163.06
653.173	158.06
653.377	162.06
653.581	153.06
653.785	151.06
653.99	152.06
654.194	143.06
654.398	159.06
654.602	153.06
654.806	133.06
655.01	144.06
655.214	150.06
655.418	135.06
655.622	153.06
655.826	141.06
656.03	144.06
656.234	144.06
656.438	153.06
656.642	148.06
656.846	142.06
657.049	142.06
657.253	140.06
657.457	127.06
657.661	136.06
657.865	131.06
658.068	115.06
658.272	121.06
658.476	117.06
658.68	112.06
658.883	116.06
659.087	117.06
659.291	112.06
659.494	110.06
659.698	85.06
659.901	117.06
660.105	105.06
660.309	100.06
660.512	116.06
660.716	103.06
660.919	104.06
661.123	101.06
661.326	104.06
661.53	96.06
661.733	96.06
661.936	105.06
662.14	91.06
662.343	104.06
662.546	88.06
662.75	102.06
662.953	99.06
663.156	95.06
663.36	91.06
663.563	98.06
663.766	96.06
663.969	93.06
664.173	98.06
664.376	90.06
664.579	77.06
664.782	82.06
664.985	93.06
665.188	90.06
665.391	81.06
665.594	90.06
665.797	77.06
666	84.06
666.203	86.06
666.406	84.06
666.609	84.06
666.812	79.06
667.015	77.06
667.218	93.06
667.421	93.06
667.624	78.06
667.827	101.06
668.03	86.06
668.232	84.06
668.435	91.06
668.638	87.06
668.841	100.06
669.043	80.06
669.246	85.06
669.449	100.06
669.651	80.06
669.854	92.06
670.057	99.06
670.259	95.06
670.462	91.06
670.665	87.06
670.867	70.06
671.07	82.06
671.272	83.06
671.475	96.06
671.677	87.06
671.88	100.06
672.082	90.06
672.284	96.06
672.487	83.06
672.689	90.06
672.892	98.06
