Data from NiCl2@0.0625M.TitratingCurve.Agarose3%dH2O.NegLispCup.LampEnergy10.LIBS07252019_HRD10591_18-34-36-577.txt Node
Date: Thu Jul 25 18:34:36 EDT 2019
User: cochatt
Spectrometer: HR+D1059
Trigger mode: 1
Integration Time (sec): 1.000000E-1
Scans to average: 1
Electric dark correction enabled: true
Nonlinearity correction enabled: false
Boxcar width: 0
XAxis mode: Wavelengths
Number of Pixels in Spectrum: 2048
>>>>>Begin Spectral Data<<<<<
223.165	-14.38
223.4	-14.38
223.635	-14.38
223.869	-19.38
224.104	-26.38
224.338	-15.38
224.573	4.62
224.808	-2.38
225.042	-9.38
225.277	3.62
225.511	-0.38
225.746	-7.38
225.98	-7.38
226.215	-1.38
226.449	10.62
226.683	25.62
226.918	37.62
227.152	21.62
227.387	40.62
227.621	28.62
227.856	52.62
228.09	54.62
228.324	42.62
228.559	66.62
228.793	86.62
229.027	144.62
229.262	141.62
229.496	142.62
229.73	160.62
229.964	155.62
230.199	161.62
230.433	174.62
230.667	177.62
230.901	189.62
231.136	176.62
231.37	193.62
231.604	178.62
231.838	194.62
232.072	203.62
232.306	205.62
232.541	203.62
232.775	211.62
233.009	210.62
233.243	203.62
233.477	204.62
233.711	206.62
233.945	203.62
234.179	208.62
234.413	214.62
234.647	208.62
234.881	209.62
235.115	220.62
235.349	207.62
235.583	220.62
235.817	215.62
236.051	215.62
236.285	219.62
236.519	237.62
236.753	235.62
236.987	219.62
237.221	241.62
237.455	224.62
237.689	221.62
237.922	227.62
238.156	244.62
238.39	239.62
238.624	245.62
238.858	249.62
239.091	265.62
239.325	269.62
239.559	242.62
239.793	267.62
240.027	261.62
240.26	270.62
240.494	270.62
240.728	259.62
240.961	270.62
241.195	268.62
241.429	287.62
241.662	270.62
241.896	286.62
242.13	293.62
242.363	281.62
242.597	293.62
242.83	319.62
243.064	300.62
243.298	308.62
243.531	308.62
243.765	331.62
243.998	308.62
244.232	334.62
244.465	322.62
244.699	321.62
244.932	329.62
245.166	334.62
245.399	344.62
245.633	323.62
245.866	357.62
246.099	344.62
246.333	356.62
246.566	341.62
246.8	333.62
247.033	338.62
247.266	362.62
247.5	362.62
247.733	360.62
247.966	361.62
248.2	371.62
248.433	372.62
248.666	375.62
248.899	396.62
249.133	370.62
249.366	398.62
249.599	387.62
249.832	384.62
250.066	398.62
250.299	396.62
250.532	405.62
250.765	412.62
250.998	412.62
251.231	435.62
251.465	416.62
251.698	419.62
251.931	414.62
252.164	414.62
252.397	413.62
252.63	423.62
252.863	430.62
253.096	453.62
253.329	443.62
253.562	432.62
253.795	448.62
254.028	446.62
254.261	453.62
254.494	476.62
254.727	433.62
254.96	468.62
255.193	460.62
255.426	446.62
255.659	473.62
255.892	474.62
256.124	448.62
256.357	472.62
256.59	482.62
256.823	466.62
257.056	481.62
257.289	499.62
257.521	488.62
257.754	481.62
257.987	499.62
258.22	494.62
258.452	496.62
258.685	500.62
258.918	500.62
259.151	492.62
259.383	518.62
259.616	510.62
259.849	513.62
260.081	516.62
260.314	545.62
260.547	524.62
260.779	522.62
261.012	539.62
261.244	522.62
261.477	529.62
261.71	545.62
261.942	536.62
262.175	535.62
262.407	546.62
262.64	538.62
262.872	549.62
263.105	545.62
263.337	552.62
263.57	571.62
263.802	577.62
264.035	581.62
264.267	563.62
264.499	566.62
264.732	582.62
264.964	571.62
265.197	569.62
265.429	568.62
265.661	564.62
265.894	581.62
266.126	585.62
266.358	598.62
266.591	616.62
266.823	608.62
267.055	593.62
267.287	615.62
267.52	617.62
267.752	622.62
267.984	587.62
268.216	621.62
268.448	619.62
268.681	619.62
268.913	633.62
269.145	624.62
269.377	611.62
269.609	646.62
269.841	612.62
270.073	623.62
270.306	637.62
270.538	631.62
270.77	618.62
271.002	635.62
271.234	631.62
271.466	655.62
271.698	645.62
271.93	662.62
272.162	637.62
272.394	654.62
272.626	663.62
272.858	675.62
273.09	673.62
273.322	702.62
273.553	688.62
273.785	696.62
274.017	713.62
274.249	681.62
274.481	678.62
274.713	683.62
274.945	693.62
275.176	689.62
275.408	701.62
275.64	722.62
275.872	704.62
276.104	734.62
276.335	699.62
276.567	741.62
276.799	701.62
277.031	724.62
277.262	733.62
277.494	735.62
277.726	744.62
277.957	752.62
278.189	734.62
278.421	744.62
278.652	729.62
278.884	748.62
279.115	742.62
279.347	735.62
279.579	754.62
279.81	770.62
280.042	736.62
280.273	747.62
280.505	788.62
280.736	758.62
280.968	780.62
281.199	775.62
281.431	782.62
281.662	805.62
281.894	793.62
282.125	804.62
282.356	788.62
282.588	827.62
282.819	781.62
283.051	794.62
283.282	805.62
283.513	816.62
283.745	800.62
283.976	837.62
284.207	824.62
284.439	822.62
284.67	813.62
284.901	818.62
285.132	854.62
285.364	845.62
285.595	844.62
285.826	856.62
286.057	824.62
286.288	836.62
286.52	860.62
286.751	860.62
286.982	869.62
287.213	859.62
287.444	846.62
287.675	850.62
287.906	894.62
288.138	891.62
288.369	853.62
288.6	895.62
288.831	877.62
289.062	853.62
289.293	858.62
289.524	868.62
289.755	867.62
289.986	902.62
290.217	902.62
290.448	907.62
290.679	901.62
290.91	894.62
291.141	897.62
291.371	885.62
291.602	876.62
291.833	869.62
292.064	901.62
292.295	907.62
292.526	875.62
292.757	899.62
292.987	894.62
293.218	901.62
293.449	911.62
293.68	888.62
293.91	907.62
294.141	922.62
294.372	884.62
294.603	901.62
294.833	895.62
295.064	909.62
295.295	923.62
295.525	905.62
295.756	914.62
295.987	899.62
296.217	905.62
296.448	924.62
296.679	908.62
296.909	899.62
297.14	955.62
297.37	954.62
297.601	954.62
297.831	956.62
298.062	950.62
298.292	974.62
298.523	984.62
298.753	980.62
298.984	979.62
299.214	985.62
299.445	969.62
299.675	949.62
299.905	1008.62
300.136	972.62
300.366	997.62
300.597	1017.62
300.827	1026.62
301.057	1019.62
301.288	1039.62
301.518	1028.62
301.748	1006.62
301.979	1056.62
302.209	1047.62
302.439	1037.62
302.669	1008.62
302.9	1034.62
303.13	985.62
303.36	1029.62
303.59	1036.62
303.82	1029.62
304.051	1050.62
304.281	1038.62
304.511	1018.62
304.741	1052.62
304.971	1048.62
305.201	1042.62
305.431	1021.62
305.661	1049.62
305.891	1036.62
306.121	1024.62
306.352	1013.62
306.582	988.62
306.812	1005.62
307.042	1024.62
307.272	1022.62
307.502	1000.62
307.731	1012.62
307.961	1022.62
308.191	1008.62
308.421	1005.62
308.651	974.62
308.881	995.62
309.111	1014.62
309.341	1008.62
309.571	1014.62
309.8	1020.62
310.03	1003.62
310.26	1019.62
310.49	991.62
310.72	1025.62
310.949	994.62
311.179	1022.62
311.409	1037.62
311.639	1049.62
311.868	1047.62
312.098	1074.62
312.328	1056.62
312.557	1102.62
312.787	1037.62
313.017	1051.62
313.246	1072.62
313.476	1065.62
313.706	1100.62
313.935	1109.62
314.165	1118.62
314.394	1121.62
314.624	1112.62
314.853	1092.62
315.083	1094.62
315.312	1097.62
315.542	1089.62
315.771	1106.62
316.001	1073.62
316.23	1099.62
316.46	1093.62
316.689	1094.62
316.919	1079.62
317.148	1068.62
317.377	1077.62
317.607	1096.62
317.836	1095.62
318.065	1090.62
318.295	1097.62
318.524	1099.62
318.753	1106.62
318.983	1049.62
319.212	1099.62
319.441	1093.62
319.67	1050.62
319.9	1078.62
320.129	1083.62
320.358	1080.62
320.587	1082.62
320.816	1086.62
321.046	1115.62
321.275	1110.62
321.504	1090.62
321.733	1101.62
321.962	1110.62
322.191	1109.62
322.42	1101.62
322.649	1105.62
322.878	1117.62
323.108	1108.62
323.337	1148.62
323.566	1102.62
323.795	1116.62
324.024	1123.62
324.253	1137.62
324.482	1132.62
324.71	1146.62
324.939	1139.62
325.168	1166.62
325.397	1140.62
325.626	1132.62
325.855	1144.62
326.084	1185.62
326.313	1196.62
326.542	1225.62
326.77	1224.62
326.999	1175.62
327.228	1182.62
327.457	1142.62
327.686	1162.62
327.914	1185.62
328.143	1163.62
328.372	1178.62
328.6	1181.62
328.829	1159.62
329.058	1172.62
329.287	1204.62
329.515	1182.62
329.744	1184.62
329.972	1223.62
330.201	1201.62
330.43	1230.62
330.658	1201.62
330.887	1233.62
331.115	1225.62
331.344	1227.62
331.572	1248.62
331.801	1272.62
332.03	1248.62
332.258	1308.62
332.486	1321.62
332.715	1378.62
332.943	1426.62
333.172	1426.62
333.4	1517.62
333.629	1518.62
333.857	1516.62
334.085	1496.62
334.314	1511.62
334.542	1532.62
334.771	1490.62
334.999	1436.62
335.227	1456.62
335.455	1468.62
335.684	1486.62
335.912	1451.62
336.14	1425.62
336.369	1433.62
336.597	1436.62
336.825	1438.62
337.053	1443.62
337.281	1377.62
337.51	1368.62
337.738	1379.62
337.966	1347.62
338.194	1350.62
338.422	1314.62
338.65	1324.62
338.878	1295.62
339.106	1300.62
339.334	1295.62
339.562	1302.62
339.79	1255.62
340.018	1272.62
340.246	1253.62
340.474	1229.62
340.702	1256.62
340.93	1273.62
341.158	1252.62
341.386	1226.62
341.614	1237.62
341.842	1252.62
342.07	1230.62
342.298	1227.62
342.526	1220.62
342.754	1241.62
342.981	1248.62
343.209	1273.62
343.437	1307.62
343.665	1373.62
343.893	1414.62
344.12	1441.62
344.348	1420.62
344.576	1403.62
344.804	1362.62
345.031	1293.62
345.259	1296.62
345.487	1264.62
345.714	1236.62
345.942	1238.62
346.17	1228.62
346.397	1252.62
346.625	1193.62
346.853	1172.62
347.08	1182.62
347.308	1176.62
347.535	1206.62
347.763	1208.62
347.99	1187.62
348.218	1193.62
348.445	1200.62
348.673	1179.62
348.9	1194.62
349.128	1177.62
349.355	1190.62
349.583	1186.62
349.81	1175.62
350.037	1163.62
350.265	1188.62
350.492	1166.62
350.72	1155.62
350.947	1174.62
351.174	1148.62
351.402	1148.62
351.629	1172.62
351.856	1139.62
352.083	1161.62
352.311	1123.62
352.538	1154.62
352.765	1142.62
352.992	1133.62
353.22	1114.62
353.447	1167.62
353.674	1121.62
353.901	1140.62
354.128	1127.62
354.355	1135.62
354.583	1139.62
354.81	1149.62
355.037	1169.62
355.264	1139.62
355.491	1170.62
355.718	1157.62
355.945	1131.62
356.172	1156.62
356.399	1160.62
356.626	1155.62
356.853	1177.62
357.08	1155.62
357.307	1145.62
357.534	1159.62
357.761	1151.62
357.988	1166.62
358.215	1134.62
358.441	1130.62
358.668	1162.62
358.895	1150.62
359.122	1149.62
359.349	1156.62
359.576	1154.62
359.802	1132.62
360.029	1160.62
360.256	1149.62
360.483	1148.62
360.709	1133.62
360.936	1173.62
361.163	1136.62
361.39	1154.62
361.616	1139.62
361.843	1154.62
362.07	1165.62
362.296	1155.62
362.523	1167.62
362.749	1140.62
362.976	1166.62
363.203	1170.62
363.429	1150.62
363.656	1165.62
363.882	1151.62
364.109	1124.62
364.335	1152.62
364.562	1150.62
364.788	1158.62
365.015	1142.62
365.241	1148.62
365.468	1141.62
365.694	1182.62
365.92	1143.62
366.147	1164.62
366.373	1152.62
366.599	1188.62
366.826	1153.62
367.052	1148.62
367.278	1160.62
367.505	1148.62
367.731	1216.62
367.957	1164.62
368.184	1166.62
368.41	1185.62
368.636	1191.62
368.862	1187.62
369.089	1220.62
369.315	1194.62
369.541	1216.62
369.767	1196.62
369.993	1225.62
370.219	1175.62
370.445	1212.62
370.672	1237.62
370.898	1214.62
371.124	1227.62
371.35	1251.62
371.576	1236.62
371.802	1257.62
372.028	1245.62
372.254	1248.62
372.48	1257.62
372.706	1277.62
372.932	1284.62
373.158	1305.62
373.384	1258.62
373.61	1268.62
373.835	1272.62
374.061	1250.62
374.287	1275.62
374.513	1280.62
374.739	1307.62
374.965	1340.62
375.191	1386.62
375.416	1351.62
375.642	1300.62
375.868	1336.62
376.094	1288.62
376.319	1278.62
376.545	1256.62
376.771	1256.62
376.997	1253.62
377.222	1296.62
377.448	1266.62
377.674	1295.62
377.899	1240.62
378.125	1245.62
378.35	1253.62
378.576	1280.62
378.802	1176.62
379.027	1228.62
379.253	1246.62
379.478	1197.62
379.704	1234.62
379.929	1212.62
380.155	1230.62
380.38	1244.62
380.606	1240.62
380.831	1233.62
381.057	1259.62
381.282	1260.62
381.507	1215.62
381.733	1264.62
381.958	1255.62
382.184	1289.62
382.409	1308.62
382.634	1298.62
382.86	1334.62
383.085	1336.62
383.31	1357.62
383.535	1366.62
383.761	1316.62
383.986	1386.62
384.211	1398.62
384.436	1428.62
384.662	1458.62
384.887	1475.62
385.112	1427.62
385.337	1486.62
385.562	1513.62
385.787	1477.62
386.013	1468.62
386.238	1487.62
386.463	1512.62
386.688	1482.62
386.913	1490.62
387.138	1489.62
387.363	1494.62
387.588	1470.62
387.813	1474.62
388.038	1481.62
388.263	1493.62
388.488	1520.62
388.713	1513.62
388.938	1467.62
389.163	1459.62
389.387	1460.62
389.612	1462.62
389.837	1473.62
390.062	1474.62
390.287	1472.62
390.512	1510.62
390.736	1517.62
390.961	1535.62
391.186	1562.62
391.411	1576.62
391.636	1593.62
391.86	1620.62
392.085	1660.62
392.31	1635.62
392.534	1624.62
392.759	1648.62
392.984	1574.62
393.208	1572.62
393.433	1524.62
393.658	1569.62
393.882	1563.62
394.107	1536.62
394.331	1551.62
394.556	1597.62
394.78	1574.62
395.005	1613.62
395.229	1614.62
395.454	1623.62
395.678	1639.62
395.903	1655.62
396.127	1653.62
396.352	1631.62
396.576	1560.62
396.801	1580.62
397.025	1603.62
397.249	1648.62
397.474	1705.62
397.698	1668.62
397.922	1665.62
398.147	1678.62
398.371	1759.62
398.595	1740.62
398.82	1824.62
399.044	1952.62
399.268	2084.62
399.492	2379.62
399.717	2526.62
399.941	2612.62
400.165	2386.62
400.389	2228.62
400.613	2069.62
400.837	1972.62
401.062	1908.62
401.286	1897.62
401.51	1860.62
401.734	1819.62
401.958	1856.62
402.182	1906.62
402.406	1824.62
402.63	1883.62
402.854	1935.62
403.078	1950.62
403.302	1993.62
403.526	2000.62
403.75	2017.62
403.974	2054.62
404.198	2030.62
404.422	2054.62
404.645	1980.62
404.869	1986.62
405.093	2006.62
405.317	2004.62
405.541	2040.62
405.765	2014.62
405.988	1997.62
406.212	2033.62
406.436	1982.62
406.66	2049.62
406.883	2078.62
407.107	2204.62
407.331	2232.62
407.555	2309.62
407.778	2283.62
408.002	2305.62
408.226	2260.62
408.449	2214.62
408.673	2113.62
408.896	2081.62
409.12	2077.62
409.344	2103.62
409.567	2061.62
409.791	2077.62
410.014	2017.62
410.238	2042.62
410.461	2012.62
410.685	1996.62
410.908	1988.62
411.132	1971.62
411.355	1931.62
411.578	1933.62
411.802	1907.62
412.025	1915.62
412.249	1961.62
412.472	1955.62
412.695	1884.62
412.919	1859.62
413.142	1891.62
413.365	1884.62
413.589	1858.62
413.812	1852.62
414.035	1861.62
414.258	1850.62
414.482	1873.62
414.705	1888.62
414.928	1858.62
415.151	1834.62
415.374	1836.62
415.597	1828.62
415.821	1841.62
416.044	1793.62
416.267	1802.62
416.49	1809.62
416.713	1764.62
416.936	1791.62
417.159	1793.62
417.382	1736.62
417.605	1771.62
417.828	1753.62
418.051	1777.62
418.274	1829.62
418.497	1752.62
418.72	1793.62
418.943	1806.62
419.166	1911.62
419.389	2089.62
419.611	1992.62
419.834	1958.62
420.057	1906.62
420.28	1817.62
420.503	1762.62
420.726	1757.62
420.948	1764.62
421.171	1774.62
421.394	1778.62
421.617	1784.62
421.839	1783.62
422.062	1789.62
422.285	1767.62
422.507	1797.62
422.73	1767.62
422.953	1794.62
423.175	1841.62
423.398	1830.62
423.621	1803.62
423.843	1856.62
424.066	1879.62
424.288	1781.62
424.511	1817.62
424.733	1802.62
424.956	1773.62
425.178	1768.62
425.401	1768.62
425.623	1780.62
425.846	1772.62
426.068	1755.62
426.291	1762.62
426.513	1707.62
426.735	1676.62
426.958	1686.62
427.18	1636.62
427.402	1662.62
427.625	1689.62
427.847	1655.62
428.069	1630.62
428.292	1661.62
428.514	1639.62
428.736	1624.62
428.958	1613.62
429.181	1570.62
429.403	1598.62
429.625	1572.62
429.847	1574.62
430.069	1573.62
430.292	1573.62
430.514	1564.62
430.736	1575.62
430.958	1573.62
431.18	1601.62
431.402	1602.62
431.624	1561.62
431.846	1651.62
432.068	1656.62
432.29	1664.62
432.512	1640.62
432.734	1690.62
432.956	1654.62
433.178	1669.62
433.4	1650.62
433.622	1659.62
433.844	1689.62
434.066	1678.62
434.287	1705.62
434.509	1745.62
434.731	1752.62
434.953	1801.62
435.175	1802.62
435.397	1800.62
435.618	1708.62
435.84	1675.62
436.062	1641.62
436.284	1632.62
436.505	1626.62
436.727	1624.62
436.949	1629.62
437.17	1614.62
437.392	1563.62
437.614	1575.62
437.835	1570.62
438.057	1573.62
438.278	1537.62
438.5	1526.62
438.721	1542.62
438.943	1577.62
439.165	1557.62
439.386	1528.62
439.608	1576.62
439.829	1573.62
440.05	1624.62
440.272	1584.62
440.493	1617.62
440.715	1630.62
440.936	1657.62
441.158	1628.62
441.379	1670.62
441.6	1716.62
441.822	1781.62
442.043	1779.62
442.264	1748.62
442.486	1693.62
442.707	1745.62
442.928	1723.62
443.149	1747.62
443.371	1718.62
443.592	1784.62
443.813	1737.62
444.034	1744.62
444.255	1840.62
444.476	1861.62
444.698	1928.62
444.919	2020.62
445.14	2067.62
445.361	1932.62
445.582	1797.62
445.803	1749.62
446.024	1678.62
446.245	1660.62
446.466	1632.62
446.687	1611.62
446.908	1632.62
447.129	1554.62
447.35	1563.62
447.571	1545.62
447.792	1504.62
448.013	1472.62
448.234	1486.62
448.455	1433.62
448.675	1441.62
448.896	1457.62
449.117	1377.62
449.338	1470.62
449.559	1440.62
449.779	1440.62
450	1430.62
450.221	1428.62
450.442	1466.62
450.662	1449.62
450.883	1434.62
451.104	1464.62
451.324	1440.62
451.545	1451.62
451.766	1465.62
451.986	1446.62
452.207	1441.62
452.428	1418.62
452.648	1421.62
452.869	1422.62
453.089	1408.62
453.31	1420.62
453.53	1379.62
453.751	1392.62
453.971	1389.62
454.192	1408.62
454.412	1357.62
454.633	1368.62
454.853	1330.62
455.073	1335.62
455.294	1365.62
455.514	1368.62
455.734	1365.62
455.955	1318.62
456.175	1373.62
456.395	1355.62
456.616	1357.62
456.836	1379.62
457.056	1378.62
457.276	1311.62
457.497	1389.62
457.717	1368.62
457.937	1386.62
458.157	1374.62
458.377	1386.62
458.598	1440.62
458.818	1498.62
459.038	1503.62
459.258	1539.62
459.478	1580.62
459.698	1652.62
459.918	1671.62
460.138	1708.62
460.358	1777.62
460.578	1795.62
460.798	1854.62
461.018	1849.62
461.238	1795.62
461.458	1793.62
461.678	1822.62
461.898	1820.62
462.118	1851.62
462.338	1963.62
462.558	1979.62
462.777	2048.62
462.997	2154.62
463.217	2283.62
463.437	2300.62
463.657	2163.62
463.876	2099.62
464.096	2111.62
464.316	2065.62
464.536	2097.62
464.755	2026.62
464.975	1964.62
465.195	1890.62
465.414	1816.62
465.634	1702.62
465.854	1654.62
466.073	1608.62
466.293	1562.62
466.512	1546.62
466.732	1534.62
466.951	1509.62
467.171	1536.62
467.391	1527.62
467.61	1533.62
467.829	1524.62
468.049	1478.62
468.268	1465.62
468.488	1462.62
468.707	1444.62
468.927	1462.62
469.146	1443.62
469.365	1485.62
469.585	1502.62
469.804	1510.62
470.023	1508.62
470.243	1537.62
470.462	1579.62
470.681	1551.62
470.901	1558.62
471.12	1530.62
471.339	1479.62
471.558	1490.62
471.777	1529.62
471.997	1480.62
472.216	1485.62
472.435	1499.62
472.654	1454.62
472.873	1451.62
473.092	1474.62
473.311	1443.62
473.53	1469.62
473.749	1432.62
473.968	1422.62
474.187	1436.62
474.406	1432.62
474.625	1462.62
474.844	1483.62
475.063	1434.62
475.282	1469.62
475.501	1487.62
475.72	1477.62
475.939	1488.62
476.158	1530.62
476.377	1540.62
476.596	1543.62
476.814	1560.62
477.033	1566.62
477.252	1565.62
477.471	1633.62
477.69	1610.62
477.908	1679.62
478.127	1732.62
478.346	1688.62
478.564	1754.62
478.783	1727.62
479.002	1832.62
479.22	1827.62
479.439	1800.62
479.658	1801.62
479.876	1827.62
480.095	1828.62
480.313	1879.62
480.532	1926.62
480.751	1964.62
480.969	1901.62
481.188	1849.62
481.406	1798.62
481.624	1757.62
481.843	1760.62
482.061	1757.62
482.28	1784.62
482.498	1768.62
482.717	1741.62
482.935	1769.62
483.153	1770.62
483.372	1757.62
483.59	1811.62
483.808	1804.62
484.027	1847.62
484.245	1867.62
484.463	1860.62
484.681	1874.62
484.9	1924.62
485.118	1921.62
485.336	1940.62
485.554	1981.62
485.772	1957.62
485.99	1937.62
486.209	1985.62
486.427	1954.62
486.645	1926.62
486.863	1895.62
487.081	1904.62
487.299	1928.62
487.517	1912.62
487.735	1875.62
487.953	1897.62
488.171	1908.62
488.389	1895.62
488.607	1832.62
488.825	1833.62
489.043	1833.62
489.261	1834.62
489.479	1812.62
489.696	1856.62
489.914	1852.62
490.132	1826.62
490.35	1840.62
490.568	1822.62
490.786	1819.62
491.003	1817.62
491.221	1835.62
491.439	1832.62
491.657	1820.62
491.874	1856.62
492.092	1777.62
492.31	1820.62
492.527	1824.62
492.745	1853.62
492.963	1876.62
493.18	1833.62
493.398	1835.62
493.615	1867.62
493.833	1854.62
494.05	1856.62
494.268	1845.62
494.485	1878.62
494.703	1853.62
494.92	1863.62
495.138	1848.62
495.355	1871.62
495.573	1880.62
495.79	1872.62
496.008	1908.62
496.225	1975.62
496.442	1948.62
496.66	1948.62
496.877	1963.62
497.094	2035.62
497.312	2010.62
497.529	2062.62
497.746	2126.62
497.963	2159.62
498.181	2253.62
498.398	2358.62
498.615	2391.62
498.832	2614.62
499.049	2756.62
499.267	2968.62
499.484	3173.62
499.701	3396.62
499.918	3729.62
500.135	4123.62
500.352	4564.62
500.569	4658.62
500.786	4710.62
501.003	4452.62
501.22	4104.62
501.437	3756.62
501.654	3381.62
501.871	3143.62
502.088	2899.62
502.305	2727.62
502.522	2608.62
502.739	2501.62
502.956	2388.62
503.172	2304.62
503.389	2200.62
503.606	2141.62
503.823	2100.62
504.04	2104.62
504.256	2084.62
504.473	2126.62
504.69	2133.62
504.907	2090.62
505.123	1988.62
505.34	1915.62
505.557	1818.62
505.773	1760.62
505.99	1731.62
506.207	1723.62
506.423	1691.62
506.64	1635.62
506.856	1656.62
507.073	1633.62
507.289	1644.62
507.506	1611.62
507.722	1591.62
507.939	1585.62
508.155	1558.62
508.372	1564.62
508.588	1504.62
508.805	1565.62
509.021	1513.62
509.238	1539.62
509.454	1493.62
509.67	1507.62
509.887	1511.62
510.103	1475.62
510.319	1471.62
510.536	1458.62
510.752	1423.62
510.968	1433.62
511.184	1437.62
511.401	1451.62
511.617	1478.62
511.833	1475.62
512.049	1463.62
512.265	1447.62
512.481	1491.62
512.698	1478.62
512.914	1506.62
513.13	1444.62
513.346	1474.62
513.562	1475.62
513.778	1430.62
513.994	1420.62
514.21	1447.62
514.426	1475.62
514.642	1483.62
514.858	1513.62
515.074	1496.62
515.29	1524.62
515.506	1520.62
515.721	1552.62
515.937	1576.62
516.153	1557.62
516.369	1591.62
516.585	1685.62
516.801	1714.62
517.016	1747.62
517.232	1814.62
517.448	1824.62
517.664	1856.62
517.879	1885.62
518.095	1871.62
518.311	1867.62
518.527	1802.62
518.742	1768.62
518.958	1676.62
519.173	1697.62
519.389	1625.62
519.605	1566.62
519.82	1492.62
520.036	1511.62
520.251	1463.62
520.467	1483.62
520.682	1442.62
520.898	1442.62
521.113	1457.62
521.329	1414.62
521.544	1415.62
521.76	1375.62
521.975	1423.62
522.19	1384.62
522.406	1394.62
522.621	1348.62
522.836	1340.62
523.052	1341.62
523.267	1350.62
523.482	1359.62
523.698	1319.62
523.913	1354.62
524.128	1315.62
524.343	1346.62
524.559	1303.62
524.774	1310.62
524.989	1307.62
525.204	1302.62
525.419	1309.62
525.634	1281.62
525.849	1273.62
526.064	1293.62
526.28	1308.62
526.495	1260.62
526.71	1277.62
526.925	1304.62
527.14	1269.62
527.355	1273.62
527.57	1285.62
527.785	1282.62
527.999	1260.62
528.214	1270.62
528.429	1259.62
528.644	1307.62
528.859	1279.62
529.074	1268.62
529.289	1269.62
529.503	1265.62
529.718	1263.62
529.933	1246.62
530.148	1278.62
530.363	1243.62
530.577	1263.62
530.792	1266.62
531.007	1259.62
531.221	1238.62
531.436	1251.62
531.651	1278.62
531.865	1275.62
532.08	1255.62
532.295	1262.62
532.509	1221.62
532.724	1231.62
532.938	1270.62
533.153	1268.62
533.367	1244.62
533.582	1264.62
533.796	1237.62
534.011	1293.62
534.225	1239.62
534.44	1218.62
534.654	1249.62
534.868	1236.62
535.083	1214.62
535.297	1216.62
535.511	1224.62
535.726	1228.62
535.94	1206.62
536.154	1186.62
536.369	1174.62
536.583	1167.62
536.797	1189.62
537.011	1177.62
537.225	1150.62
537.44	1154.62
537.654	1182.62
537.868	1156.62
538.082	1145.62
538.296	1134.62
538.51	1137.62
538.724	1146.62
538.938	1113.62
539.153	1143.62
539.367	1130.62
539.581	1131.62
539.795	1102.62
540.009	1125.62
540.222	1145.62
540.436	1110.62
540.65	1137.62
540.864	1102.62
541.078	1136.62
541.292	1129.62
541.506	1117.62
541.72	1097.62
541.934	1105.62
542.147	1133.62
542.361	1118.62
542.575	1097.62
542.789	1111.62
543.002	1094.62
543.216	1084.62
543.43	1090.62
543.644	1112.62
543.857	1123.62
544.071	1108.62
544.285	1112.62
544.498	1110.62
544.712	1084.62
544.925	1133.62
545.139	1144.62
545.352	1129.62
545.566	1147.62
545.779	1130.62
545.993	1110.62
546.206	1142.62
546.42	1144.62
546.633	1121.62
546.847	1136.62
547.06	1140.62
547.274	1136.62
547.487	1091.62
547.7	1144.62
547.914	1143.62
548.127	1122.62
548.34	1149.62
548.554	1126.62
548.767	1099.62
548.98	1131.62
549.193	1138.62
549.407	1143.62
549.62	1160.62
549.833	1128.62
550.046	1116.62
550.259	1133.62
550.473	1110.62
550.686	1085.62
550.899	1134.62
551.112	1114.62
551.325	1114.62
551.538	1105.62
551.751	1079.62
551.964	1117.62
552.177	1156.62
552.39	1144.62
552.603	1169.62
552.816	1186.62
553.029	1200.62
553.242	1202.62
553.455	1210.62
553.667	1227.62
553.88	1206.62
554.093	1186.62
554.306	1141.62
554.519	1138.62
554.732	1122.62
554.944	1099.62
555.157	1089.62
555.37	1091.62
555.583	1072.62
555.795	1030.62
556.008	1024.62
556.221	1038.62
556.433	1012.62
556.646	1005.62
556.859	981.62
557.071	992.62
557.284	981.62
557.496	974.62
557.709	974.62
557.921	964.62
558.134	956.62
558.346	966.62
558.559	967.62
558.771	978.62
558.984	915.62
559.196	928.62
559.409	930.62
559.621	970.62
559.833	944.62
560.046	923.62
560.258	930.62
560.47	930.62
560.683	959.62
560.895	941.62
561.107	917.62
561.32	911.62
561.532	922.62
561.744	936.62
561.956	928.62
562.168	924.62
562.381	928.62
562.593	951.62
562.805	946.62
563.017	941.62
563.229	948.62
563.441	943.62
563.653	957.62
563.865	963.62
564.077	930.62
564.289	985.62
564.501	963.62
564.713	1017.62
564.925	1000.62
565.137	1028.62
565.349	1052.62
565.561	1080.62
565.773	1104.62
565.985	1163.62
566.197	1193.62
566.408	1308.62
566.62	1360.62
566.832	1415.62
567.044	1436.62
567.255	1467.62
567.467	1500.62
567.679	1571.62
567.891	1622.62
568.102	1617.62
568.314	1531.62
568.526	1429.62
568.737	1335.62
568.949	1294.62
569.161	1166.62
569.372	1115.62
569.584	1068.62
569.795	1025.62
570.007	996.62
570.218	964.62
570.43	969.62
570.641	949.62
570.853	958.62
571.064	975.62
571.276	950.62
571.487	917.62
571.698	901.62
571.91	865.62
572.121	853.62
572.333	809.62
572.544	818.62
572.755	835.62
572.966	820.62
573.178	788.62
573.389	785.62
573.6	789.62
573.811	758.62
574.023	777.62
574.234	761.62
574.445	770.62
574.656	740.62
574.867	748.62
575.078	758.62
575.289	736.62
575.501	772.62
575.712	748.62
575.923	739.62
576.134	716.62
576.345	722.62
576.556	742.62
576.767	698.62
576.978	714.62
577.188	696.62
577.399	680.62
577.61	713.62
577.821	704.62
578.032	671.62
578.243	674.62
578.454	673.62
578.665	688.62
578.875	676.62
579.086	680.62
579.297	658.62
579.508	671.62
579.718	690.62
579.929	643.62
580.14	638.62
580.35	676.62
580.561	655.62
580.772	651.62
580.982	654.62
581.193	649.62
581.403	640.62
581.614	641.62
581.825	644.62
582.035	641.62
582.246	644.62
582.456	635.62
582.667	640.62
582.877	644.62
583.087	636.62
583.298	650.62
583.508	648.62
583.719	641.62
583.929	637.62
584.139	615.62
584.35	626.62
584.56	617.62
584.77	612.62
584.981	592.62
585.191	615.62
585.401	612.62
585.611	588.62
585.821	588.62
586.032	628.62
586.242	626.62
586.452	599.62
586.662	585.62
586.872	592.62
587.082	599.62
587.292	597.62
587.502	605.62
587.713	605.62
587.923	582.62
588.133	613.62
588.343	601.62
588.553	605.62
588.762	605.62
588.972	600.62
589.182	624.62
589.392	612.62
589.602	597.62
589.812	617.62
590.022	605.62
590.232	586.62
590.441	577.62
590.651	621.62
590.861	586.62
591.071	624.62
591.281	614.62
591.49	611.62
591.7	668.62
591.91	652.62
592.119	655.62
592.329	638.62
592.539	660.62
592.748	667.62
592.958	685.62
593.167	710.62
593.377	725.62
593.587	726.62
593.796	732.62
594.006	732.62
594.215	740.62
594.424	739.62
594.634	733.62
594.843	707.62
595.053	706.62
595.262	652.62
595.472	655.62
595.681	614.62
595.89	636.62
596.1	598.62
596.309	588.62
596.518	567.62
596.727	562.62
596.937	574.62
597.146	566.62
597.355	557.62
597.564	543.62
597.774	552.62
597.983	546.62
598.192	516.62
598.401	512.62
598.61	523.62
598.819	529.62
599.028	537.62
599.237	522.62
599.446	502.62
599.655	538.62
599.864	496.62
600.073	508.62
600.282	501.62
600.491	503.62
600.7	489.62
600.909	520.62
601.118	510.62
601.327	480.62
601.536	468.62
601.745	500.62
601.953	482.62
602.162	481.62
602.371	465.62
602.58	471.62
602.789	488.62
602.997	488.62
603.206	496.62
603.415	487.62
603.623	472.62
603.832	480.62
604.041	473.62
604.249	477.62
604.458	485.62
604.666	482.62
604.875	477.62
605.084	454.62
605.292	458.62
605.501	468.62
605.709	467.62
605.918	462.62
606.126	453.62
606.334	446.62
606.543	452.62
606.751	442.62
606.96	454.62
607.168	446.62
607.376	448.62
607.585	448.62
607.793	452.62
608.001	454.62
608.21	450.62
608.418	441.62
608.626	434.62
608.834	429.62
609.043	464.62
609.251	454.62
609.459	456.62
609.667	432.62
609.875	435.62
610.083	426.62
610.291	438.62
610.499	437.62
610.707	438.62
610.916	429.62
611.124	442.62
611.332	429.62
611.54	447.62
611.748	431.62
611.955	421.62
612.163	436.62
612.371	422.62
612.579	436.62
612.787	420.62
612.995	399.62
613.203	418.62
613.411	418.62
613.618	419.62
613.826	423.62
614.034	427.62
614.242	424.62
614.449	446.62
614.657	410.62
614.865	401.62
615.072	417.62
615.28	414.62
615.488	419.62
615.695	428.62
615.903	418.62
616.111	432.62
616.318	439.62
616.526	437.62
616.733	427.62
616.941	439.62
617.148	434.62
617.356	428.62
617.563	426.62
617.771	412.62
617.978	398.62
618.185	422.62
618.393	423.62
618.6	422.62
618.807	418.62
619.015	404.62
619.222	409.62
619.429	411.62
619.637	414.62
619.844	397.62
620.051	398.62
620.258	395.62
620.466	395.62
620.673	376.62
620.88	395.62
621.087	404.62
621.294	378.62
621.501	375.62
621.708	385.62
621.915	391.62
622.122	388.62
622.329	382.62
622.536	390.62
622.743	379.62
622.95	368.62
623.157	364.62
623.364	377.62
623.571	354.62
623.778	372.62
623.985	375.62
624.192	365.62
624.399	374.62
624.606	369.62
624.812	361.62
625.019	365.62
625.226	352.62
625.433	379.62
625.639	372.62
625.846	353.62
626.053	338.62
626.259	351.62
626.466	354.62
626.673	355.62
626.879	347.62
627.086	342.62
627.293	340.62
627.499	335.62
627.706	349.62
627.912	336.62
628.119	338.62
628.325	349.62
628.532	321.62
628.738	353.62
628.945	338.62
629.151	356.62
629.357	347.62
629.564	336.62
629.77	332.62
629.976	337.62
630.183	329.62
630.389	318.62
630.595	327.62
630.802	338.62
631.008	313.62
631.214	319.62
631.42	324.62
631.627	327.62
631.833	322.62
632.039	305.62
632.245	299.62
632.451	317.62
632.657	312.62
632.863	330.62
633.069	308.62
633.275	298.62
633.481	309.62
633.688	300.62
633.893	302.62
634.099	310.62
634.305	311.62
634.511	316.62
634.717	312.62
634.923	318.62
635.129	308.62
635.335	305.62
635.541	294.62
635.747	315.62
635.952	309.62
636.158	311.62
636.364	310.62
636.57	309.62
636.775	306.62
636.981	304.62
637.187	295.62
637.392	316.62
637.598	296.62
637.804	314.62
638.009	306.62
638.215	293.62
638.421	296.62
638.626	292.62
638.832	278.62
639.037	284.62
639.243	274.62
639.448	279.62
639.654	276.62
639.859	276.62
640.065	294.62
640.27	291.62
640.475	281.62
640.681	285.62
640.886	265.62
641.091	292.62
641.297	299.62
641.502	286.62
641.707	273.62
641.913	276.62
642.118	285.62
642.323	284.62
642.528	270.62
642.733	278.62
642.939	281.62
643.144	278.62
643.349	277.62
643.554	278.62
643.759	280.62
643.964	267.62
644.169	286.62
644.374	291.62
644.579	276.62
644.784	277.62
644.989	275.62
645.194	285.62
645.399	285.62
645.604	259.62
645.809	270.62
646.014	289.62
646.219	296.62
646.423	305.62
646.628	265.62
646.833	305.62
647.038	288.62
647.243	282.62
647.447	285.62
647.652	276.62
647.857	296.62
648.062	312.62
648.266	301.62
648.471	313.62
648.676	295.62
648.88	289.62
649.085	300.62
649.289	296.62
649.494	285.62
649.698	286.62
649.903	282.62
650.107	293.62
650.312	285.62
650.516	277.62
650.721	284.62
650.925	285.62
651.13	287.62
651.334	268.62
651.539	289.62
651.743	277.62
651.947	285.62
652.152	264.62
652.356	244.62
652.56	258.62
652.764	269.62
652.969	261.62
653.173	271.62
653.377	256.62
653.581	270.62
653.785	265.62
653.99	264.62
654.194	273.62
654.398	269.62
654.602	293.62
654.806	279.62
655.01	283.62
655.214	281.62
655.418	284.62
655.622	301.62
655.826	336.62
656.03	337.62
656.234	363.62
656.438	400.62
656.642	416.62
656.846	387.62
657.049	337.62
657.253	301.62
657.457	285.62
657.661	247.62
657.865	232.62
658.068	216.62
658.272	195.62
658.476	192.62
658.68	168.62
658.883	184.62
659.087	150.62
659.291	149.62
659.494	155.62
659.698	133.62
659.901	128.62
660.105	116.62
660.309	129.62
660.512	122.62
660.716	128.62
660.919	114.62
661.123	112.62
661.326	102.62
661.53	112.62
661.733	97.62
661.936	96.62
662.14	85.62
662.343	77.62
662.546	89.62
662.75	90.62
662.953	104.62
663.156	87.62
663.36	100.62
663.563	85.62
663.766	85.62
663.969	84.62
664.173	72.62
664.376	84.62
664.579	83.62
664.782	87.62
664.985	94.62
665.188	81.62
665.391	84.62
665.594	90.62
665.797	89.62
666	88.62
666.203	77.62
666.406	72.62
666.609	86.62
666.812	82.62
667.015	76.62
667.218	88.62
667.421	81.62
667.624	77.62
667.827	81.62
668.03	84.62
668.232	84.62
668.435	91.62
668.638	79.62
668.841	82.62
669.043	74.62
669.246	84.62
669.449	92.62
669.651	77.62
669.854	70.62
670.057	87.62
670.259	88.62
670.462	84.62
670.665	88.62
670.867	91.62
671.07	70.62
671.272	80.62
671.475	77.62
671.677	77.62
671.88	81.62
672.082	90.62
672.284	81.62
672.487	78.62
672.689	90.62
672.892	75.62
