Data from NiCl2@0.5M.TitratingCurve.Agarose3%dH2O.NegLispCup.LampEnergy10.LIBS07252019_HRD10591_18-21-21-572.txt Node
Date: Thu Jul 25 18:21:21 EDT 2019
User: cochatt
Spectrometer: HR+D1059
Trigger mode: 1
Integration Time (sec): 1.000000E-1
Scans to average: 1
Electric dark correction enabled: true
Nonlinearity correction enabled: false
Boxcar width: 0
XAxis mode: Wavelengths
Number of Pixels in Spectrum: 2048
>>>>>Begin Spectral Data<<<<<
223.165	-21.62
223.4	-21.62
223.635	-21.62
223.869	-22.62
224.104	-15.62
224.338	-19.62
224.573	-15.62
224.808	-14.62
225.042	-5.62
225.277	8.38
225.511	-7.62
225.746	-1.62
225.98	21.38
226.215	18.38
226.449	7.38
226.683	19.38
226.918	20.38
227.152	29.38
227.387	41.38
227.621	34.38
227.856	53.38
228.09	43.38
228.324	45.38
228.559	60.38
228.793	66.38
229.027	88.38
229.262	109.38
229.496	98.38
229.73	117.38
229.964	97.38
230.199	119.38
230.433	97.38
230.667	127.38
230.901	123.38
231.136	122.38
231.37	112.38
231.604	121.38
231.838	129.38
232.072	129.38
232.306	129.38
232.541	126.38
232.775	128.38
233.009	133.38
233.243	128.38
233.477	139.38
233.711	139.38
233.945	133.38
234.179	135.38
234.413	133.38
234.647	140.38
234.881	133.38
235.115	145.38
235.349	129.38
235.583	132.38
235.817	134.38
236.051	133.38
236.285	129.38
236.519	123.38
236.753	131.38
236.987	143.38
237.221	133.38
237.455	147.38
237.689	141.38
237.922	151.38
238.156	132.38
238.39	154.38
238.624	147.38
238.858	141.38
239.091	135.38
239.325	151.38
239.559	138.38
239.793	151.38
240.027	149.38
240.26	154.38
240.494	145.38
240.728	151.38
240.961	142.38
241.195	154.38
241.429	164.38
241.662	155.38
241.896	157.38
242.13	167.38
242.363	173.38
242.597	171.38
242.83	173.38
243.064	173.38
243.298	172.38
243.531	171.38
243.765	186.38
243.998	165.38
244.232	183.38
244.465	191.38
244.699	189.38
244.932	185.38
245.166	187.38
245.399	195.38
245.633	200.38
245.866	181.38
246.099	166.38
246.333	194.38
246.566	191.38
246.8	198.38
247.033	198.38
247.266	176.38
247.5	184.38
247.733	204.38
247.966	207.38
248.2	204.38
248.433	199.38
248.666	196.38
248.899	218.38
249.133	199.38
249.366	207.38
249.599	214.38
249.832	221.38
250.066	213.38
250.299	216.38
250.532	209.38
250.765	215.38
250.998	216.38
251.231	205.38
251.465	236.38
251.698	222.38
251.931	216.38
252.164	218.38
252.397	227.38
252.63	224.38
252.863	232.38
253.096	227.38
253.329	253.38
253.562	237.38
253.795	221.38
254.028	237.38
254.261	263.38
254.494	249.38
254.727	249.38
254.96	253.38
255.193	221.38
255.426	230.38
255.659	248.38
255.892	248.38
256.124	243.38
256.357	248.38
256.59	237.38
256.823	245.38
257.056	258.38
257.289	261.38
257.521	256.38
257.754	250.38
257.987	239.38
258.22	250.38
258.452	237.38
258.685	250.38
258.918	271.38
259.151	255.38
259.383	257.38
259.616	277.38
259.849	275.38
260.081	271.38
260.314	274.38
260.547	271.38
260.779	278.38
261.012	279.38
261.244	284.38
261.477	282.38
261.71	290.38
261.942	275.38
262.175	272.38
262.407	262.38
262.64	277.38
262.872	265.38
263.105	280.38
263.337	300.38
263.57	297.38
263.802	275.38
264.035	293.38
264.267	294.38
264.499	287.38
264.732	307.38
264.964	296.38
265.197	294.38
265.429	293.38
265.661	296.38
265.894	297.38
266.126	301.38
266.358	314.38
266.591	292.38
266.823	315.38
267.055	284.38
267.287	316.38
267.52	321.38
267.752	292.38
267.984	302.38
268.216	301.38
268.448	319.38
268.681	303.38
268.913	326.38
269.145	318.38
269.377	321.38
269.609	309.38
269.841	320.38
270.073	317.38
270.306	321.38
270.538	306.38
270.77	321.38
271.002	335.38
271.234	311.38
271.466	328.38
271.698	315.38
271.93	353.38
272.162	325.38
272.394	349.38
272.626	327.38
272.858	332.38
273.09	320.38
273.322	336.38
273.553	344.38
273.785	333.38
274.017	333.38
274.249	344.38
274.481	358.38
274.713	347.38
274.945	344.38
275.176	345.38
275.408	354.38
275.64	364.38
275.872	353.38
276.104	356.38
276.335	336.38
276.567	331.38
276.799	356.38
277.031	356.38
277.262	380.38
277.494	366.38
277.726	366.38
277.957	351.38
278.189	381.38
278.421	358.38
278.652	368.38
278.884	375.38
279.115	371.38
279.347	367.38
279.579	393.38
279.81	375.38
280.042	397.38
280.273	403.38
280.505	346.38
280.736	378.38
280.968	373.38
281.199	390.38
281.431	392.38
281.662	389.38
281.894	399.38
282.125	402.38
282.356	406.38
282.588	405.38
282.819	414.38
283.051	409.38
283.282	411.38
283.513	394.38
283.745	400.38
283.976	405.38
284.207	422.38
284.439	421.38
284.67	413.38
284.901	420.38
285.132	408.38
285.364	407.38
285.595	415.38
285.826	426.38
286.057	429.38
286.288	438.38
286.52	407.38
286.751	430.38
286.982	437.38
287.213	427.38
287.444	417.38
287.675	424.38
287.906	447.38
288.138	450.38
288.369	437.38
288.6	441.38
288.831	454.38
289.062	421.38
289.293	429.38
289.524	417.38
289.755	426.38
289.986	440.38
290.217	445.38
290.448	437.38
290.679	432.38
290.91	447.38
291.141	453.38
291.371	455.38
291.602	440.38
291.833	441.38
292.064	456.38
292.295	445.38
292.526	459.38
292.757	454.38
292.987	434.38
293.218	432.38
293.449	428.38
293.68	471.38
293.91	438.38
294.141	474.38
294.372	451.38
294.603	449.38
294.833	457.38
295.064	479.38
295.295	454.38
295.525	467.38
295.756	474.38
295.987	464.38
296.217	469.38
296.448	452.38
296.679	463.38
296.909	470.38
297.14	468.38
297.37	459.38
297.601	493.38
297.831	469.38
298.062	481.38
298.292	477.38
298.523	487.38
298.753	492.38
298.984	486.38
299.214	515.38
299.445	495.38
299.675	490.38
299.905	499.38
300.136	475.38
300.366	507.38
300.597	500.38
300.827	521.38
301.057	514.38
301.288	536.38
301.518	515.38
301.748	508.38
301.979	529.38
302.209	542.38
302.439	508.38
302.669	527.38
302.9	521.38
303.13	506.38
303.36	510.38
303.59	495.38
303.82	519.38
304.051	539.38
304.281	513.38
304.511	500.38
304.741	514.38
304.971	512.38
305.201	531.38
305.431	534.38
305.661	502.38
305.891	494.38
306.121	522.38
306.352	502.38
306.582	499.38
306.812	506.38
307.042	538.38
307.272	487.38
307.502	509.38
307.731	506.38
307.961	515.38
308.191	513.38
308.421	508.38
308.651	514.38
308.881	495.38
309.111	510.38
309.341	499.38
309.571	535.38
309.8	505.38
310.03	513.38
310.26	527.38
310.49	531.38
310.72	516.38
310.949	511.38
311.179	523.38
311.409	513.38
311.639	520.38
311.868	520.38
312.098	539.38
312.328	547.38
312.557	535.38
312.787	535.38
313.017	515.38
313.246	557.38
313.476	555.38
313.706	560.38
313.935	553.38
314.165	560.38
314.394	553.38
314.624	545.38
314.853	571.38
315.083	543.38
315.312	551.38
315.542	553.38
315.771	547.38
316.001	544.38
316.23	541.38
316.46	523.38
316.689	547.38
316.919	553.38
317.148	546.38
317.377	547.38
317.607	545.38
317.836	516.38
318.065	552.38
318.295	517.38
318.524	553.38
318.753	548.38
318.983	559.38
319.212	551.38
319.441	539.38
319.67	553.38
319.9	547.38
320.129	541.38
320.358	534.38
320.587	537.38
320.816	558.38
321.046	555.38
321.275	558.38
321.504	573.38
321.733	551.38
321.962	571.38
322.191	545.38
322.42	560.38
322.649	580.38
322.878	544.38
323.108	543.38
323.337	565.38
323.566	568.38
323.795	574.38
324.024	584.38
324.253	547.38
324.482	561.38
324.71	570.38
324.939	566.38
325.168	578.38
325.397	564.38
325.626	567.38
325.855	577.38
326.084	583.38
326.313	584.38
326.542	584.38
326.77	593.38
326.999	591.38
327.228	605.38
327.457	566.38
327.686	563.38
327.914	584.38
328.143	584.38
328.372	587.38
328.6	618.38
328.829	615.38
329.058	609.38
329.287	606.38
329.515	600.38
329.744	620.38
329.972	583.38
330.201	602.38
330.43	616.38
330.658	610.38
330.887	621.38
331.115	611.38
331.344	633.38
331.572	641.38
331.801	643.38
332.03	658.38
332.258	678.38
332.486	682.38
332.715	712.38
332.943	727.38
333.172	751.38
333.4	782.38
333.629	778.38
333.857	806.38
334.085	813.38
334.314	781.38
334.542	763.38
334.771	761.38
334.999	738.38
335.227	736.38
335.455	724.38
335.684	723.38
335.912	756.38
336.14	709.38
336.369	710.38
336.597	731.38
336.825	713.38
337.053	692.38
337.281	694.38
337.51	699.38
337.738	682.38
337.966	672.38
338.194	669.38
338.422	650.38
338.65	648.38
338.878	659.38
339.106	659.38
339.334	656.38
339.562	652.38
339.79	634.38
340.018	632.38
340.246	603.38
340.474	614.38
340.702	629.38
340.93	630.38
341.158	624.38
341.386	643.38
341.614	650.38
341.842	647.38
342.07	626.38
342.298	641.38
342.526	611.38
342.754	634.38
342.981	623.38
343.209	612.38
343.437	697.38
343.665	689.38
343.893	738.38
344.12	773.38
344.348	746.38
344.576	720.38
344.804	689.38
345.031	688.38
345.259	616.38
345.487	641.38
345.714	623.38
345.942	637.38
346.17	635.38
346.397	622.38
346.625	602.38
346.853	587.38
347.08	590.38
347.308	609.38
347.535	627.38
347.763	616.38
347.99	609.38
348.218	617.38
348.445	585.38
348.673	602.38
348.9	600.38
349.128	591.38
349.355	614.38
349.583	618.38
349.81	569.38
350.037	592.38
350.265	600.38
350.492	580.38
350.72	570.38
350.947	602.38
351.174	605.38
351.402	605.38
351.629	601.38
351.856	591.38
352.083	565.38
352.311	579.38
352.538	585.38
352.765	581.38
352.992	574.38
353.22	574.38
353.447	557.38
353.674	583.38
353.901	533.38
354.128	581.38
354.355	569.38
354.583	586.38
354.81	602.38
355.037	568.38
355.264	590.38
355.491	582.38
355.718	566.38
355.945	605.38
356.172	603.38
356.399	585.38
356.626	608.38
356.853	610.38
357.08	578.38
357.307	577.38
357.534	589.38
357.761	571.38
357.988	592.38
358.215	576.38
358.441	562.38
358.668	574.38
358.895	584.38
359.122	597.38
359.349	580.38
359.576	591.38
359.802	583.38
360.029	584.38
360.256	587.38
360.483	584.38
360.709	573.38
360.936	589.38
361.163	589.38
361.39	599.38
361.616	576.38
361.843	570.38
362.07	576.38
362.296	575.38
362.523	582.38
362.749	598.38
362.976	581.38
363.203	582.38
363.429	586.38
363.656	606.38
363.882	567.38
364.109	572.38
364.335	574.38
364.562	574.38
364.788	582.38
365.015	576.38
365.241	569.38
365.468	579.38
365.694	566.38
365.92	563.38
366.147	574.38
366.373	555.38
366.599	591.38
366.826	584.38
367.052	579.38
367.278	568.38
367.505	579.38
367.731	569.38
367.957	579.38
368.184	576.38
368.41	576.38
368.636	593.38
368.862	594.38
369.089	570.38
369.315	608.38
369.541	611.38
369.767	585.38
369.993	599.38
370.219	607.38
370.445	608.38
370.672	597.38
370.898	588.38
371.124	630.38
371.35	617.38
371.576	635.38
371.802	636.38
372.028	621.38
372.254	628.38
372.48	626.38
372.706	622.38
372.932	641.38
373.158	659.38
373.384	617.38
373.61	601.38
373.835	622.38
374.061	603.38
374.287	635.38
374.513	647.38
374.739	667.38
374.965	686.38
375.191	689.38
375.416	671.38
375.642	631.38
375.868	654.38
376.094	645.38
376.319	649.38
376.545	643.38
376.771	640.38
376.997	639.38
377.222	625.38
377.448	622.38
377.674	619.38
377.899	611.38
378.125	613.38
378.35	623.38
378.576	618.38
378.802	599.38
379.027	613.38
379.253	643.38
379.478	612.38
379.704	601.38
379.929	610.38
380.155	621.38
380.38	613.38
380.606	618.38
380.831	617.38
381.057	614.38
381.282	615.38
381.507	628.38
381.733	609.38
381.958	637.38
382.184	633.38
382.409	633.38
382.634	629.38
382.86	657.38
383.085	666.38
383.31	658.38
383.535	649.38
383.761	669.38
383.986	670.38
384.211	716.38
384.436	711.38
384.662	730.38
384.887	743.38
385.112	733.38
385.337	726.38
385.562	750.38
385.787	729.38
386.013	751.38
386.238	726.38
386.463	755.38
386.688	747.38
386.913	707.38
387.138	735.38
387.363	725.38
387.588	722.38
387.813	714.38
388.038	732.38
388.263	719.38
388.488	734.38
388.713	721.38
388.938	704.38
389.163	732.38
389.387	711.38
389.612	694.38
389.837	698.38
390.062	700.38
390.287	730.38
390.512	729.38
390.736	725.38
390.961	738.38
391.186	749.38
391.411	793.38
391.636	816.38
391.86	821.38
392.085	808.38
392.31	805.38
392.534	808.38
392.759	807.38
392.984	769.38
393.208	771.38
393.433	746.38
393.658	767.38
393.882	769.38
394.107	772.38
394.331	789.38
394.556	769.38
394.78	791.38
395.005	781.38
395.229	781.38
395.454	846.38
395.678	821.38
395.903	834.38
396.127	822.38
396.352	780.38
396.576	776.38
396.801	793.38
397.025	794.38
397.249	785.38
397.474	821.38
397.698	825.38
397.922	840.38
398.147	854.38
398.371	853.38
398.595	858.38
398.82	899.38
399.044	982.38
399.268	1083.38
399.492	1248.38
399.717	1337.38
399.941	1304.38
400.165	1206.38
400.389	1081.38
400.613	1014.38
400.837	939.38
401.062	940.38
401.286	929.38
401.51	901.38
401.734	921.38
401.958	936.38
402.182	912.38
402.406	921.38
402.63	929.38
402.854	986.38
403.078	994.38
403.302	1003.38
403.526	1042.38
403.75	1022.38
403.974	1060.38
404.198	1061.38
404.422	1031.38
404.645	1002.38
404.869	1047.38
405.093	1009.38
405.317	1001.38
405.541	1018.38
405.765	1006.38
405.988	1002.38
406.212	996.38
406.436	1009.38
406.66	1028.38
406.883	1057.38
407.107	1115.38
407.331	1155.38
407.555	1187.38
407.778	1181.38
408.002	1127.38
408.226	1109.38
408.449	1078.38
408.673	1059.38
408.896	1030.38
409.12	1031.38
409.344	1044.38
409.567	1023.38
409.791	1045.38
410.014	1046.38
410.238	1016.38
410.461	1052.38
410.685	1033.38
410.908	977.38
411.132	958.38
411.355	943.38
411.578	969.38
411.802	967.38
412.025	976.38
412.249	946.38
412.472	964.38
412.695	934.38
412.919	921.38
413.142	925.38
413.365	928.38
413.589	917.38
413.812	918.38
414.035	903.38
414.258	910.38
414.482	910.38
414.705	942.38
414.928	961.38
415.151	915.38
415.374	917.38
415.597	921.38
415.821	889.38
416.044	907.38
416.267	916.38
416.49	875.38
416.713	875.38
416.936	902.38
417.159	895.38
417.382	912.38
417.605	894.38
417.828	895.38
418.051	872.38
418.274	914.38
418.497	917.38
418.72	915.38
418.943	924.38
419.166	990.38
419.389	1048.38
419.611	1049.38
419.834	988.38
420.057	930.38
420.28	936.38
420.503	921.38
420.726	929.38
420.948	906.38
421.171	892.38
421.394	908.38
421.617	905.38
421.839	901.38
422.062	908.38
422.285	895.38
422.507	920.38
422.73	952.38
422.953	952.38
423.175	934.38
423.398	935.38
423.621	948.38
423.843	935.38
424.066	970.38
424.288	947.38
424.511	930.38
424.733	934.38
424.956	941.38
425.178	941.38
425.401	942.38
425.623	888.38
425.846	881.38
426.068	855.38
426.291	890.38
426.513	852.38
426.735	883.38
426.958	873.38
427.18	842.38
427.402	865.38
427.625	832.38
427.847	832.38
428.069	833.38
428.292	827.38
428.514	821.38
428.736	797.38
428.958	850.38
429.181	832.38
429.403	823.38
429.625	832.38
429.847	778.38
430.069	801.38
430.292	804.38
430.514	794.38
430.736	798.38
430.958	793.38
431.18	810.38
431.402	822.38
431.624	798.38
431.846	827.38
432.068	834.38
432.29	836.38
432.512	809.38
432.734	831.38
432.956	827.38
433.178	828.38
433.4	863.38
433.622	841.38
433.844	851.38
434.066	827.38
434.287	844.38
434.509	873.38
434.731	908.38
434.953	913.38
435.175	927.38
435.397	910.38
435.618	886.38
435.84	849.38
436.062	819.38
436.284	849.38
436.505	822.38
436.727	838.38
436.949	849.38
437.17	832.38
437.392	826.38
437.614	829.38
437.835	775.38
438.057	780.38
438.278	776.38
438.5	788.38
438.721	791.38
438.943	807.38
439.165	821.38
439.386	808.38
439.608	814.38
439.829	817.38
440.05	807.38
440.272	819.38
440.493	865.38
440.715	830.38
440.936	862.38
441.158	890.38
441.379	901.38
441.6	935.38
441.822	962.38
442.043	959.38
442.264	939.38
442.486	899.38
442.707	922.38
442.928	911.38
443.149	902.38
443.371	892.38
443.592	905.38
443.813	930.38
444.034	935.38
444.255	964.38
444.476	987.38
444.698	1045.38
444.919	1105.38
445.14	1136.38
445.361	1046.38
445.582	969.38
445.803	893.38
446.024	897.38
446.245	917.38
446.466	874.38
446.687	833.38
446.908	845.38
447.129	811.38
447.35	792.38
447.571	798.38
447.792	807.38
448.013	785.38
448.234	787.38
448.455	797.38
448.675	784.38
448.896	785.38
449.117	786.38
449.338	749.38
449.559	771.38
449.779	761.38
450	759.38
450.221	776.38
450.442	789.38
450.662	780.38
450.883	766.38
451.104	779.38
451.324	772.38
451.545	773.38
451.766	797.38
451.986	755.38
452.207	751.38
452.428	769.38
452.648	739.38
452.869	751.38
453.089	746.38
453.31	765.38
453.53	773.38
453.751	735.38
453.971	760.38
454.192	760.38
454.412	730.38
454.633	722.38
454.853	729.38
455.073	758.38
455.294	733.38
455.514	711.38
455.734	729.38
455.955	703.38
456.175	719.38
456.395	703.38
456.616	734.38
456.836	726.38
457.056	711.38
457.276	726.38
457.497	727.38
457.717	723.38
457.937	706.38
458.157	738.38
458.377	769.38
458.598	757.38
458.818	787.38
459.038	785.38
459.258	809.38
459.478	817.38
459.698	870.38
459.918	893.38
460.138	918.38
460.358	950.38
460.578	958.38
460.798	969.38
461.018	992.38
461.238	970.38
461.458	943.38
461.678	972.38
461.898	1013.38
462.118	975.38
462.338	1041.38
462.558	1071.38
462.777	1118.38
462.997	1228.38
463.217	1270.38
463.437	1289.38
463.657	1149.38
463.876	1140.38
464.096	1109.38
464.316	1119.38
464.536	1147.38
464.755	1099.38
464.975	1035.38
465.195	1016.38
465.414	954.38
465.634	914.38
465.854	862.38
466.073	840.38
466.293	843.38
466.512	840.38
466.732	815.38
466.951	825.38
467.171	813.38
467.391	821.38
467.61	804.38
467.829	788.38
468.049	802.38
468.268	775.38
468.488	784.38
468.707	785.38
468.927	796.38
469.146	752.38
469.365	823.38
469.585	784.38
469.804	813.38
470.023	821.38
470.243	819.38
470.462	859.38
470.681	836.38
470.901	854.38
471.12	829.38
471.339	794.38
471.558	801.38
471.777	817.38
471.997	819.38
472.216	799.38
472.435	780.38
472.654	760.38
472.873	751.38
473.092	783.38
473.311	767.38
473.53	790.38
473.749	758.38
473.968	736.38
474.187	739.38
474.406	776.38
474.625	771.38
474.844	744.38
475.063	781.38
475.282	764.38
475.501	751.38
475.72	779.38
475.939	790.38
476.158	815.38
476.377	814.38
476.596	795.38
476.814	823.38
477.033	815.38
477.252	829.38
477.471	816.38
477.69	847.38
477.908	908.38
478.127	889.38
478.346	911.38
478.564	948.38
478.783	934.38
479.002	953.38
479.22	967.38
479.439	941.38
479.658	952.38
479.876	950.38
480.095	962.38
480.313	1027.38
480.532	1012.38
480.751	1007.38
480.969	972.38
481.188	938.38
481.406	934.38
481.624	874.38
481.843	889.38
482.061	869.38
482.28	868.38
482.498	875.38
482.717	862.38
482.935	871.38
483.153	879.38
483.372	897.38
483.59	902.38
483.808	884.38
484.027	878.38
484.245	907.38
484.463	906.38
484.681	920.38
484.9	927.38
485.118	947.38
485.336	926.38
485.554	909.38
485.772	920.38
485.99	918.38
486.209	922.38
486.427	932.38
486.645	900.38
486.863	919.38
487.081	912.38
487.299	927.38
487.517	949.38
487.735	905.38
487.953	938.38
488.171	933.38
488.389	922.38
488.607	893.38
488.825	921.38
489.043	901.38
489.261	900.38
489.479	910.38
489.696	905.38
489.914	913.38
490.132	905.38
490.35	919.38
490.568	928.38
490.786	929.38
491.003	916.38
491.221	947.38
491.439	938.38
491.657	935.38
491.874	948.38
492.092	963.38
492.31	956.38
492.527	949.38
492.745	960.38
492.963	945.38
493.18	958.38
493.398	965.38
493.615	986.38
493.833	983.38
494.05	976.38
494.268	1003.38
494.485	996.38
494.703	967.38
494.92	1012.38
495.138	973.38
495.355	970.38
495.573	1003.38
495.79	991.38
496.008	1017.38
496.225	986.38
496.442	958.38
496.66	1049.38
496.877	1043.38
497.094	1010.38
497.312	1081.38
497.529	1065.38
497.746	1106.38
497.963	1133.38
498.181	1173.38
498.398	1254.38
498.615	1270.38
498.832	1362.38
499.049	1466.38
499.267	1580.38
499.484	1732.38
499.701	1905.38
499.918	2047.38
500.135	2349.38
500.352	2681.38
500.569	2763.38
500.786	2716.38
501.003	2559.38
501.22	2333.38
501.437	1976.38
501.654	1857.38
501.871	1695.38
502.088	1565.38
502.305	1451.38
502.522	1359.38
502.739	1346.38
502.956	1281.38
503.172	1221.38
503.389	1155.38
503.606	1113.38
503.823	1105.38
504.04	1081.38
504.256	1101.38
504.473	1137.38
504.69	1143.38
504.907	1124.38
505.123	1042.38
505.34	1002.38
505.557	950.38
505.773	952.38
505.99	941.38
506.207	893.38
506.423	898.38
506.64	865.38
506.856	847.38
507.073	888.38
507.289	870.38
507.506	887.38
507.722	859.38
507.939	831.38
508.155	824.38
508.372	824.38
508.588	834.38
508.805	826.38
509.021	804.38
509.238	803.38
509.454	819.38
509.67	811.38
509.887	803.38
510.103	776.38
510.319	738.38
510.536	802.38
510.752	782.38
510.968	795.38
511.184	759.38
511.401	801.38
511.617	762.38
511.833	770.38
512.049	765.38
512.265	802.38
512.481	744.38
512.698	754.38
512.914	780.38
513.13	797.38
513.346	790.38
513.562	793.38
513.778	788.38
513.994	798.38
514.21	770.38
514.426	763.38
514.642	768.38
514.858	805.38
515.074	772.38
515.29	814.38
515.506	801.38
515.721	810.38
515.937	858.38
516.153	823.38
516.369	861.38
516.585	862.38
516.801	922.38
517.016	925.38
517.232	977.38
517.448	1019.38
517.664	1048.38
517.879	1048.38
518.095	1050.38
518.311	1034.38
518.527	977.38
518.742	955.38
518.958	921.38
519.173	881.38
519.389	868.38
519.605	850.38
519.82	789.38
520.036	808.38
520.251	792.38
520.467	784.38
520.682	780.38
520.898	757.38
521.113	777.38
521.329	767.38
521.544	758.38
521.76	757.38
521.975	752.38
522.19	731.38
522.406	733.38
522.621	722.38
522.836	721.38
523.052	734.38
523.267	738.38
523.482	712.38
523.698	719.38
523.913	701.38
524.128	736.38
524.343	706.38
524.559	702.38
524.774	701.38
524.989	712.38
525.204	678.38
525.419	691.38
525.634	706.38
525.849	688.38
526.064	720.38
526.28	685.38
526.495	682.38
526.71	693.38
526.925	670.38
527.14	642.38
527.355	682.38
527.57	668.38
527.785	697.38
527.999	703.38
528.214	677.38
528.429	685.38
528.644	698.38
528.859	705.38
529.074	686.38
529.289	706.38
529.503	685.38
529.718	707.38
529.933	717.38
530.148	681.38
530.363	690.38
530.577	673.38
530.792	672.38
531.007	695.38
531.221	685.38
531.436	675.38
531.651	681.38
531.865	678.38
532.08	670.38
532.295	689.38
532.509	665.38
532.724	687.38
532.938	653.38
533.153	668.38
533.367	683.38
533.582	690.38
533.796	691.38
534.011	667.38
534.225	685.38
534.44	675.38
534.654	665.38
534.868	692.38
535.083	678.38
535.297	680.38
535.511	656.38
535.726	645.38
535.94	690.38
536.154	647.38
536.369	639.38
536.583	647.38
536.797	651.38
537.011	658.38
537.225	643.38
537.44	645.38
537.654	661.38
537.868	612.38
538.082	621.38
538.296	598.38
538.51	641.38
538.724	641.38
538.938	640.38
539.153	635.38
539.367	648.38
539.581	613.38
539.795	644.38
540.009	625.38
540.222	601.38
540.436	610.38
540.65	602.38
540.864	611.38
541.078	611.38
541.292	625.38
541.506	635.38
541.72	630.38
541.934	626.38
542.147	645.38
542.361	606.38
542.575	605.38
542.789	623.38
543.002	613.38
543.216	621.38
543.43	617.38
543.644	630.38
543.857	639.38
544.071	619.38
544.285	628.38
544.498	603.38
544.712	625.38
544.925	621.38
545.139	655.38
545.352	643.38
545.566	641.38
545.779	659.38
545.993	645.38
546.206	648.38
546.42	621.38
546.633	621.38
546.847	624.38
547.06	618.38
547.274	631.38
547.487	657.38
547.7	652.38
547.914	622.38
548.127	663.38
548.34	651.38
548.554	634.38
548.767	644.38
548.98	647.38
549.193	633.38
549.407	657.38
549.62	662.38
549.833	645.38
550.046	651.38
550.259	633.38
550.473	619.38
550.686	647.38
550.899	638.38
551.112	633.38
551.325	621.38
551.538	633.38
551.751	595.38
551.964	593.38
552.177	615.38
552.39	639.38
552.603	644.38
552.816	694.38
553.029	692.38
553.242	693.38
553.455	699.38
553.667	711.38
553.88	687.38
554.093	680.38
554.306	664.38
554.519	635.38
554.732	629.38
554.944	633.38
555.157	631.38
555.37	597.38
555.583	597.38
555.795	589.38
556.008	570.38
556.221	569.38
556.433	584.38
556.646	536.38
556.859	567.38
557.071	559.38
557.284	564.38
557.496	537.38
557.709	542.38
557.921	567.38
558.134	535.38
558.346	547.38
558.559	535.38
558.771	532.38
558.984	551.38
559.196	536.38
559.409	518.38
559.621	551.38
559.833	543.38
560.046	519.38
560.258	523.38
560.47	532.38
560.683	529.38
560.895	508.38
561.107	512.38
561.32	527.38
561.532	520.38
561.744	524.38
561.956	518.38
562.168	537.38
562.381	534.38
562.593	528.38
562.805	520.38
563.017	540.38
563.229	543.38
563.441	507.38
563.653	538.38
563.865	541.38
564.077	535.38
564.289	544.38
564.501	548.38
564.713	560.38
564.925	543.38
565.137	563.38
565.349	565.38
565.561	599.38
565.773	633.38
565.985	641.38
566.197	666.38
566.408	717.38
566.62	777.38
566.832	811.38
567.044	829.38
567.255	851.38
567.467	865.38
567.679	885.38
567.891	955.38
568.102	963.38
568.314	923.38
568.526	828.38
568.737	751.38
568.949	717.38
569.161	658.38
569.372	604.38
569.584	590.38
569.795	567.38
570.007	552.38
570.218	554.38
570.43	535.38
570.641	532.38
570.853	518.38
571.064	526.38
571.276	564.38
571.487	529.38
571.698	495.38
571.91	482.38
572.121	495.38
572.333	463.38
572.544	435.38
572.755	450.38
572.966	463.38
573.178	435.38
573.389	446.38
573.6	443.38
573.811	428.38
574.023	437.38
574.234	427.38
574.445	439.38
574.656	422.38
574.867	406.38
575.078	425.38
575.289	424.38
575.501	430.38
575.712	413.38
575.923	419.38
576.134	416.38
576.345	386.38
576.556	413.38
576.767	413.38
576.978	406.38
577.188	396.38
577.399	404.38
577.61	385.38
577.821	388.38
578.032	373.38
578.243	393.38
578.454	398.38
578.665	390.38
578.875	375.38
579.086	375.38
579.297	374.38
579.508	389.38
579.718	389.38
579.929	372.38
580.14	367.38
580.35	378.38
580.561	396.38
580.772	377.38
580.982	363.38
581.193	360.38
581.403	368.38
581.614	363.38
581.825	375.38
582.035	363.38
582.246	357.38
582.456	356.38
582.667	361.38
582.877	357.38
583.087	344.38
583.298	371.38
583.508	368.38
583.719	355.38
583.929	375.38
584.139	365.38
584.35	354.38
584.56	369.38
584.77	368.38
584.981	365.38
585.191	361.38
585.401	344.38
585.611	339.38
585.821	360.38
586.032	341.38
586.242	342.38
586.452	347.38
586.662	354.38
586.872	340.38
587.082	355.38
587.292	357.38
587.502	355.38
587.713	339.38
587.923	336.38
588.133	352.38
588.343	360.38
588.553	346.38
588.762	341.38
588.972	335.38
589.182	399.38
589.392	400.38
589.602	358.38
589.812	389.38
590.022	358.38
590.232	372.38
590.441	362.38
590.651	354.38
590.861	355.38
591.071	372.38
591.281	351.38
591.49	352.38
591.7	382.38
591.91	359.38
592.119	374.38
592.329	385.38
592.539	376.38
592.748	405.38
592.958	422.38
593.167	426.38
593.377	418.38
593.587	437.38
593.796	435.38
594.006	435.38
594.215	427.38
594.424	432.38
594.634	435.38
594.843	414.38
595.053	392.38
595.262	367.38
595.472	367.38
595.681	358.38
595.89	373.38
596.1	355.38
596.309	345.38
596.518	349.38
596.727	345.38
596.937	313.38
597.146	311.38
597.355	320.38
597.564	316.38
597.774	308.38
597.983	323.38
598.192	320.38
598.401	291.38
598.61	299.38
598.819	308.38
599.028	295.38
599.237	298.38
599.446	304.38
599.655	304.38
599.864	293.38
600.073	290.38
600.282	272.38
600.491	291.38
600.7	307.38
600.909	280.38
601.118	285.38
601.327	287.38
601.536	283.38
601.745	278.38
601.953	279.38
602.162	286.38
602.371	282.38
602.58	284.38
602.789	297.38
602.997	275.38
603.206	279.38
603.415	282.38
603.623	287.38
603.832	291.38
604.041	278.38
604.249	276.38
604.458	287.38
604.666	267.38
604.875	265.38
605.084	293.38
605.292	273.38
605.501	271.38
605.709	276.38
605.918	261.38
606.126	271.38
606.334	254.38
606.543	257.38
606.751	263.38
606.96	274.38
607.168	273.38
607.376	257.38
607.585	266.38
607.793	257.38
608.001	265.38
608.21	270.38
608.418	253.38
608.626	260.38
608.834	278.38
609.043	262.38
609.251	272.38
609.459	255.38
609.667	273.38
609.875	258.38
610.083	265.38
610.291	260.38
610.499	249.38
610.707	271.38
610.916	240.38
611.124	251.38
611.332	239.38
611.54	240.38
611.748	238.38
611.955	245.38
612.163	240.38
612.371	263.38
612.579	255.38
612.787	264.38
612.995	256.38
613.203	249.38
613.411	245.38
613.618	256.38
613.826	243.38
614.034	262.38
614.242	241.38
614.449	250.38
614.657	253.38
614.865	255.38
615.072	236.38
615.28	251.38
615.488	235.38
615.695	268.38
615.903	250.38
616.111	245.38
616.318	274.38
616.526	265.38
616.733	257.38
616.941	247.38
617.148	248.38
617.356	254.38
617.563	255.38
617.771	272.38
617.978	252.38
618.185	245.38
618.393	245.38
618.6	244.38
618.807	239.38
619.015	261.38
619.222	234.38
619.429	249.38
619.637	250.38
619.844	233.38
620.051	213.38
620.258	256.38
620.466	229.38
620.673	241.38
620.88	225.38
621.087	230.38
621.294	215.38
621.501	240.38
621.708	241.38
621.915	246.38
622.122	232.38
622.329	232.38
622.536	230.38
622.743	215.38
622.95	238.38
623.157	210.38
623.364	213.38
623.571	232.38
623.778	235.38
623.985	238.38
624.192	234.38
624.399	221.38
624.606	218.38
624.812	236.38
625.019	224.38
625.226	230.38
625.433	222.38
625.639	226.38
625.846	225.38
626.053	221.38
626.259	213.38
626.466	218.38
626.673	213.38
626.879	205.38
627.086	201.38
627.293	219.38
627.499	220.38
627.706	233.38
627.912	213.38
628.119	221.38
628.325	222.38
628.532	198.38
628.738	213.38
628.945	216.38
629.151	208.38
629.357	210.38
629.564	205.38
629.77	215.38
629.976	201.38
630.183	210.38
630.389	197.38
630.595	209.38
630.802	186.38
631.008	202.38
631.214	196.38
631.42	209.38
631.627	208.38
631.833	190.38
632.039	195.38
632.245	208.38
632.451	198.38
632.657	198.38
632.863	191.38
633.069	190.38
633.275	188.38
633.481	192.38
633.688	196.38
633.893	195.38
634.099	207.38
634.305	192.38
634.511	183.38
634.717	197.38
634.923	189.38
635.129	188.38
635.335	199.38
635.541	187.38
635.747	185.38
635.952	188.38
636.158	196.38
636.364	201.38
636.57	177.38
636.775	173.38
636.981	163.38
637.187	196.38
637.392	202.38
637.598	189.38
637.804	183.38
638.009	190.38
638.215	176.38
638.421	172.38
638.626	177.38
638.832	184.38
639.037	170.38
639.243	183.38
639.448	181.38
639.654	174.38
639.859	172.38
640.065	155.38
640.27	177.38
640.475	191.38
640.681	179.38
640.886	178.38
641.091	169.38
641.297	166.38
641.502	177.38
641.707	188.38
641.913	151.38
642.118	163.38
642.323	184.38
642.528	176.38
642.733	168.38
642.939	179.38
643.144	171.38
643.349	179.38
643.554	165.38
643.759	163.38
643.964	147.38
644.169	161.38
644.374	167.38
644.579	163.38
644.784	162.38
644.989	181.38
645.194	175.38
645.399	168.38
645.604	183.38
645.809	179.38
646.014	174.38
646.219	171.38
646.423	177.38
646.628	180.38
646.833	167.38
647.038	180.38
647.243	169.38
647.447	197.38
647.652	185.38
647.857	181.38
648.062	170.38
648.266	185.38
648.471	183.38
648.676	186.38
648.88	171.38
649.085	190.38
649.289	199.38
649.494	178.38
649.698	173.38
649.903	183.38
650.107	186.38
650.312	158.38
650.516	166.38
650.721	165.38
650.925	175.38
651.13	177.38
651.334	161.38
651.539	167.38
651.743	163.38
651.947	166.38
652.152	140.38
652.356	165.38
652.56	131.38
652.764	153.38
652.969	171.38
653.173	141.38
653.377	154.38
653.581	149.38
653.785	161.38
653.99	157.38
654.194	143.38
654.398	143.38
654.602	143.38
654.806	146.38
655.01	155.38
655.214	149.38
655.418	146.38
655.622	160.38
655.826	145.38
656.03	157.38
656.234	153.38
656.438	160.38
656.642	161.38
656.846	150.38
657.049	157.38
657.253	135.38
657.457	119.38
657.661	137.38
657.865	133.38
658.068	119.38
658.272	113.38
658.476	118.38
658.68	121.38
658.883	105.38
659.087	117.38
659.291	106.38
659.494	111.38
659.698	106.38
659.901	99.38
660.105	88.38
660.309	103.38
660.512	95.38
660.716	85.38
660.919	83.38
661.123	89.38
661.326	87.38
661.53	98.38
661.733	65.38
661.936	94.38
662.14	90.38
662.343	79.38
662.546	82.38
662.75	79.38
662.953	88.38
663.156	88.38
663.36	70.38
663.563	80.38
663.766	96.38
663.969	83.38
664.173	77.38
664.376	86.38
664.579	78.38
664.782	74.38
664.985	82.38
665.188	74.38
665.391	72.38
665.594	82.38
665.797	90.38
666	71.38
666.203	77.38
666.406	90.38
666.609	81.38
666.812	64.38
667.015	77.38
667.218	87.38
667.421	83.38
667.624	79.38
667.827	78.38
668.03	80.38
668.232	89.38
668.435	79.38
668.638	84.38
668.841	84.38
669.043	82.38
669.246	86.38
669.449	79.38
669.651	82.38
669.854	85.38
670.057	89.38
670.259	82.38
670.462	74.38
670.665	80.38
670.867	78.38
671.07	85.38
671.272	89.38
671.475	73.38
671.677	72.38
671.88	84.38
672.082	78.38
672.284	88.38
672.487	88.38
672.689	70.38
672.892	88.38
