Data from NiCl2@0.25M.TitratingCurve.Agarose3%dH2O.NegLispCup.LampEnergy10.LIBS07252019_HRD10591_18-24-33-572.txt Node
Date: Thu Jul 25 18:24:33 EDT 2019
User: cochatt
Spectrometer: HR+D1059
Trigger mode: 1
Integration Time (sec): 1.000000E-1
Scans to average: 1
Electric dark correction enabled: true
Nonlinearity correction enabled: false
Boxcar width: 0
XAxis mode: Wavelengths
Number of Pixels in Spectrum: 2048
>>>>>Begin Spectral Data<<<<<
223.165	-14.62
223.4	-14.62
223.635	-14.62
223.869	-21.62
224.104	-23.62
224.338	-26.62
224.573	-15.62
224.808	-12.62
225.042	-10.62
225.277	9.38
225.511	3.38
225.746	21.38
225.98	8.38
226.215	13.38
226.449	11.38
226.683	14.38
226.918	21.38
227.152	22.38
227.387	35.38
227.621	36.38
227.856	43.38
228.09	33.38
228.324	30.38
228.559	48.38
228.793	78.38
229.027	122.38
229.262	126.38
229.496	125.38
229.73	141.38
229.964	140.38
230.199	144.38
230.433	152.38
230.667	144.38
230.901	149.38
231.136	155.38
231.37	161.38
231.604	160.38
231.838	164.38
232.072	166.38
232.306	156.38
232.541	178.38
232.775	153.38
233.009	164.38
233.243	167.38
233.477	171.38
233.711	170.38
233.945	169.38
234.179	161.38
234.413	158.38
234.647	186.38
234.881	181.38
235.115	179.38
235.349	181.38
235.583	182.38
235.817	197.38
236.051	171.38
236.285	185.38
236.519	201.38
236.753	196.38
236.987	174.38
237.221	177.38
237.455	194.38
237.689	181.38
237.922	183.38
238.156	205.38
238.39	201.38
238.624	185.38
238.858	183.38
239.091	196.38
239.325	195.38
239.559	204.38
239.793	198.38
240.027	204.38
240.26	219.38
240.494	209.38
240.728	214.38
240.961	192.38
241.195	220.38
241.429	225.38
241.662	229.38
241.896	235.38
242.13	222.38
242.363	228.38
242.597	217.38
242.83	220.38
243.064	226.38
243.298	222.38
243.531	233.38
243.765	258.38
243.998	263.38
244.232	264.38
244.465	260.38
244.699	264.38
244.932	253.38
245.166	248.38
245.399	260.38
245.633	251.38
245.866	261.38
246.099	259.38
246.333	268.38
246.566	274.38
246.8	264.38
247.033	255.38
247.266	255.38
247.5	269.38
247.733	279.38
247.966	284.38
248.2	295.38
248.433	312.38
248.666	269.38
248.899	292.38
249.133	288.38
249.366	285.38
249.599	304.38
249.832	296.38
250.066	294.38
250.299	299.38
250.532	306.38
250.765	306.38
250.998	288.38
251.231	306.38
251.465	323.38
251.698	328.38
251.931	334.38
252.164	329.38
252.397	324.38
252.63	316.38
252.863	324.38
253.096	330.38
253.329	342.38
253.562	317.38
253.795	336.38
254.028	340.38
254.261	351.38
254.494	340.38
254.727	349.38
254.96	339.38
255.193	333.38
255.426	344.38
255.659	346.38
255.892	339.38
256.124	347.38
256.357	354.38
256.59	361.38
256.823	365.38
257.056	342.38
257.289	355.38
257.521	360.38
257.754	349.38
257.987	371.38
258.22	363.38
258.452	364.38
258.685	375.38
258.918	376.38
259.151	370.38
259.383	380.38
259.616	374.38
259.849	385.38
260.081	390.38
260.314	378.38
260.547	387.38
260.779	384.38
261.012	374.38
261.244	391.38
261.477	399.38
261.71	406.38
261.942	381.38
262.175	391.38
262.407	388.38
262.64	392.38
262.872	405.38
263.105	399.38
263.337	421.38
263.57	418.38
263.802	399.38
264.035	439.38
264.267	419.38
264.499	415.38
264.732	415.38
264.964	417.38
265.197	439.38
265.429	426.38
265.661	401.38
265.894	451.38
266.126	413.38
266.358	436.38
266.591	421.38
266.823	448.38
267.055	464.38
267.287	444.38
267.52	442.38
267.752	448.38
267.984	452.38
268.216	438.38
268.448	451.38
268.681	441.38
268.913	435.38
269.145	460.38
269.377	466.38
269.609	453.38
269.841	461.38
270.073	471.38
270.306	454.38
270.538	472.38
270.77	462.38
271.002	480.38
271.234	471.38
271.466	476.38
271.698	471.38
271.93	487.38
272.162	490.38
272.394	481.38
272.626	450.38
272.858	488.38
273.09	507.38
273.322	494.38
273.553	485.38
273.785	505.38
274.017	531.38
274.249	484.38
274.481	502.38
274.713	501.38
274.945	501.38
275.176	512.38
275.408	526.38
275.64	511.38
275.872	516.38
276.104	509.38
276.335	501.38
276.567	520.38
276.799	526.38
277.031	521.38
277.262	506.38
277.494	533.38
277.726	523.38
277.957	519.38
278.189	549.38
278.421	527.38
278.652	550.38
278.884	550.38
279.115	545.38
279.347	550.38
279.579	565.38
279.81	548.38
280.042	566.38
280.273	566.38
280.505	563.38
280.736	559.38
280.968	546.38
281.199	560.38
281.431	594.38
281.662	573.38
281.894	571.38
282.125	566.38
282.356	595.38
282.588	574.38
282.819	587.38
283.051	581.38
283.282	562.38
283.513	588.38
283.745	598.38
283.976	599.38
284.207	592.38
284.439	588.38
284.67	603.38
284.901	603.38
285.132	605.38
285.364	618.38
285.595	624.38
285.826	617.38
286.057	628.38
286.288	596.38
286.52	632.38
286.751	628.38
286.982	619.38
287.213	617.38
287.444	630.38
287.675	633.38
287.906	623.38
288.138	632.38
288.369	621.38
288.6	636.38
288.831	667.38
289.062	614.38
289.293	635.38
289.524	638.38
289.755	636.38
289.986	659.38
290.217	637.38
290.448	660.38
290.679	659.38
290.91	658.38
291.141	655.38
291.371	643.38
291.602	638.38
291.833	647.38
292.064	649.38
292.295	654.38
292.526	650.38
292.757	652.38
292.987	621.38
293.218	641.38
293.449	660.38
293.68	665.38
293.91	678.38
294.141	652.38
294.372	655.38
294.603	640.38
294.833	660.38
295.064	666.38
295.295	673.38
295.525	664.38
295.756	672.38
295.987	644.38
296.217	688.38
296.448	668.38
296.679	665.38
296.909	679.38
297.14	680.38
297.37	676.38
297.601	702.38
297.831	704.38
298.062	688.38
298.292	692.38
298.523	733.38
298.753	746.38
298.984	714.38
299.214	708.38
299.445	695.38
299.675	697.38
299.905	701.38
300.136	693.38
300.366	722.38
300.597	729.38
300.827	748.38
301.057	744.38
301.288	734.38
301.518	767.38
301.748	745.38
301.979	769.38
302.209	738.38
302.439	758.38
302.669	741.38
302.9	728.38
303.13	720.38
303.36	724.38
303.59	739.38
303.82	768.38
304.051	757.38
304.281	760.38
304.511	747.38
304.741	743.38
304.971	758.38
305.201	756.38
305.431	721.38
305.661	725.38
305.891	724.38
306.121	748.38
306.352	720.38
306.582	717.38
306.812	710.38
307.042	732.38
307.272	749.38
307.502	706.38
307.731	740.38
307.961	747.38
308.191	727.38
308.421	713.38
308.651	714.38
308.881	706.38
309.111	734.38
309.341	705.38
309.571	726.38
309.8	715.38
310.03	709.38
310.26	737.38
310.49	709.38
310.72	731.38
310.949	722.38
311.179	719.38
311.409	738.38
311.639	747.38
311.868	775.38
312.098	735.38
312.328	749.38
312.557	748.38
312.787	781.38
313.017	777.38
313.246	781.38
313.476	772.38
313.706	806.38
313.935	802.38
314.165	773.38
314.394	805.38
314.624	790.38
314.853	829.38
315.083	793.38
315.312	759.38
315.542	768.38
315.771	740.38
316.001	783.38
316.23	745.38
316.46	759.38
316.689	792.38
316.919	777.38
317.148	770.38
317.377	730.38
317.607	765.38
317.836	770.38
318.065	754.38
318.295	788.38
318.524	762.38
318.753	769.38
318.983	744.38
319.212	769.38
319.441	756.38
319.67	755.38
319.9	738.38
320.129	780.38
320.358	768.38
320.587	747.38
320.816	760.38
321.046	779.38
321.275	779.38
321.504	788.38
321.733	798.38
321.962	771.38
322.191	760.38
322.42	796.38
322.649	793.38
322.878	786.38
323.108	788.38
323.337	795.38
323.566	790.38
323.795	820.38
324.024	804.38
324.253	787.38
324.482	817.38
324.71	789.38
324.939	805.38
325.168	808.38
325.397	806.38
325.626	799.38
325.855	828.38
326.084	857.38
326.313	845.38
326.542	854.38
326.77	854.38
326.999	856.38
327.228	824.38
327.457	861.38
327.686	863.38
327.914	809.38
328.143	840.38
328.372	827.38
328.6	827.38
328.829	846.38
329.058	847.38
329.287	830.38
329.515	853.38
329.744	869.38
329.972	864.38
330.201	864.38
330.43	876.38
330.658	859.38
330.887	896.38
331.115	873.38
331.344	916.38
331.572	909.38
331.801	920.38
332.03	951.38
332.258	951.38
332.486	997.38
332.715	996.38
332.943	1067.38
333.172	1080.38
333.4	1113.38
333.629	1143.38
333.857	1206.38
334.085	1152.38
334.314	1131.38
334.542	1124.38
334.771	1092.38
334.999	1104.38
335.227	1080.38
335.455	1078.38
335.684	1059.38
335.912	1068.38
336.14	1017.38
336.369	1024.38
336.597	1042.38
336.825	1042.38
337.053	992.38
337.281	1030.38
337.51	993.38
337.738	965.38
337.966	983.38
338.194	954.38
338.422	953.38
338.65	921.38
338.878	955.38
339.106	941.38
339.334	948.38
339.562	919.38
339.79	876.38
340.018	900.38
340.246	869.38
340.474	911.38
340.702	890.38
340.93	917.38
341.158	897.38
341.386	892.38
341.614	895.38
341.842	898.38
342.07	897.38
342.298	882.38
342.526	874.38
342.754	899.38
342.981	881.38
343.209	926.38
343.437	955.38
343.665	993.38
343.893	1096.38
344.12	1124.38
344.348	1089.38
344.576	1014.38
344.804	956.38
345.031	945.38
345.259	928.38
345.487	886.38
345.714	900.38
345.942	871.38
346.17	855.38
346.397	869.38
346.625	864.38
346.853	843.38
347.08	881.38
347.308	812.38
347.535	854.38
347.763	861.38
347.99	861.38
348.218	873.38
348.445	843.38
348.673	852.38
348.9	842.38
349.128	826.38
349.355	842.38
349.583	866.38
349.81	827.38
350.037	805.38
350.265	826.38
350.492	842.38
350.72	800.38
350.947	827.38
351.174	815.38
351.402	822.38
351.629	831.38
351.856	802.38
352.083	790.38
352.311	814.38
352.538	824.38
352.765	821.38
352.992	821.38
353.22	811.38
353.447	799.38
353.674	819.38
353.901	811.38
354.128	811.38
354.355	829.38
354.583	805.38
354.81	849.38
355.037	822.38
355.264	808.38
355.491	814.38
355.718	807.38
355.945	844.38
356.172	803.38
356.399	818.38
356.626	824.38
356.853	828.38
357.08	818.38
357.307	836.38
357.534	837.38
357.761	826.38
357.988	856.38
358.215	826.38
358.441	817.38
358.668	806.38
358.895	812.38
359.122	822.38
359.349	810.38
359.576	806.38
359.802	795.38
360.029	836.38
360.256	834.38
360.483	833.38
360.709	829.38
360.936	828.38
361.163	822.38
361.39	853.38
361.616	788.38
361.843	827.38
362.07	824.38
362.296	832.38
362.523	841.38
362.749	824.38
362.976	828.38
363.203	809.38
363.429	814.38
363.656	812.38
363.882	824.38
364.109	837.38
364.335	812.38
364.562	822.38
364.788	835.38
365.015	810.38
365.241	807.38
365.468	795.38
365.694	832.38
365.92	822.38
366.147	807.38
366.373	843.38
366.599	826.38
366.826	818.38
367.052	830.38
367.278	823.38
367.505	821.38
367.731	833.38
367.957	789.38
368.184	817.38
368.41	848.38
368.636	813.38
368.862	824.38
369.089	821.38
369.315	875.38
369.541	856.38
369.767	882.38
369.993	869.38
370.219	862.38
370.445	857.38
370.672	870.38
370.898	885.38
371.124	908.38
371.35	898.38
371.576	896.38
371.802	882.38
372.028	884.38
372.254	889.38
372.48	914.38
372.706	917.38
372.932	956.38
373.158	935.38
373.384	889.38
373.61	891.38
373.835	911.38
374.061	893.38
374.287	911.38
374.513	925.38
374.739	957.38
374.965	1003.38
375.191	1014.38
375.416	989.38
375.642	944.38
375.868	930.38
376.094	914.38
376.319	924.38
376.545	909.38
376.771	902.38
376.997	902.38
377.222	908.38
377.448	890.38
377.674	896.38
377.899	887.38
378.125	890.38
378.35	891.38
378.576	890.38
378.802	910.38
379.027	903.38
379.253	897.38
379.478	918.38
379.704	888.38
379.929	874.38
380.155	863.38
380.38	873.38
380.606	880.38
380.831	858.38
381.057	900.38
381.282	866.38
381.507	888.38
381.733	914.38
381.958	898.38
382.184	921.38
382.409	931.38
382.634	946.38
382.86	964.38
383.085	947.38
383.31	965.38
383.535	975.38
383.761	986.38
383.986	1018.38
384.211	1014.38
384.436	1049.38
384.662	1063.38
384.887	1061.38
385.112	1083.38
385.337	1075.38
385.562	1106.38
385.787	1128.38
386.013	1081.38
386.238	1089.38
386.463	1106.38
386.688	1088.38
386.913	1060.38
387.138	1083.38
387.363	1097.38
387.588	1062.38
387.813	1096.38
388.038	1055.38
388.263	1093.38
388.488	1093.38
388.713	1069.38
388.938	1053.38
389.163	1057.38
389.387	1047.38
389.612	1046.38
389.837	1076.38
390.062	1028.38
390.287	1064.38
390.512	1055.38
390.736	1049.38
390.961	1086.38
391.186	1112.38
391.411	1120.38
391.636	1188.38
391.86	1218.38
392.085	1245.38
392.31	1256.38
392.534	1194.38
392.759	1170.38
392.984	1134.38
393.208	1118.38
393.433	1120.38
393.658	1136.38
393.882	1121.38
394.107	1137.38
394.331	1158.38
394.556	1142.38
394.78	1158.38
395.005	1156.38
395.229	1162.38
395.454	1170.38
395.678	1210.38
395.903	1240.38
396.127	1187.38
396.352	1166.38
396.576	1145.38
396.801	1120.38
397.025	1180.38
397.249	1180.38
397.474	1220.38
397.698	1223.38
397.922	1206.38
398.147	1222.38
398.371	1235.38
398.595	1287.38
398.82	1355.38
399.044	1449.38
399.268	1586.38
399.492	1838.38
399.717	2161.38
399.941	2133.38
400.165	1865.38
400.389	1693.38
400.613	1544.38
400.837	1443.38
401.062	1389.38
401.286	1395.38
401.51	1376.38
401.734	1367.38
401.958	1355.38
402.182	1409.38
402.406	1445.38
402.63	1448.38
402.854	1424.38
403.078	1465.38
403.302	1504.38
403.526	1564.38
403.75	1556.38
403.974	1610.38
404.198	1605.38
404.422	1602.38
404.645	1606.38
404.869	1540.38
405.093	1567.38
405.317	1509.38
405.541	1513.38
405.765	1472.38
405.988	1492.38
406.212	1486.38
406.436	1504.38
406.66	1523.38
406.883	1569.38
407.107	1681.38
407.331	1774.38
407.555	1815.38
407.778	1779.38
408.002	1738.38
408.226	1718.38
408.449	1659.38
408.673	1596.38
408.896	1598.38
409.12	1551.38
409.344	1548.38
409.567	1504.38
409.791	1561.38
410.014	1520.38
410.238	1526.38
410.461	1513.38
410.685	1507.38
410.908	1436.38
411.132	1440.38
411.355	1443.38
411.578	1429.38
411.802	1399.38
412.025	1441.38
412.249	1446.38
412.472	1424.38
412.695	1374.38
412.919	1386.38
413.142	1358.38
413.365	1348.38
413.589	1404.38
413.812	1360.38
414.035	1330.38
414.258	1349.38
414.482	1361.38
414.705	1410.38
414.928	1378.38
415.151	1359.38
415.374	1352.38
415.597	1376.38
415.821	1330.38
416.044	1331.38
416.267	1345.38
416.49	1302.38
416.713	1329.38
416.936	1338.38
417.159	1337.38
417.382	1362.38
417.605	1328.38
417.828	1345.38
418.051	1369.38
418.274	1337.38
418.497	1364.38
418.72	1385.38
418.943	1413.38
419.166	1484.38
419.389	1572.38
419.611	1509.38
419.834	1456.38
420.057	1418.38
420.28	1374.38
420.503	1336.38
420.726	1320.38
420.948	1324.38
421.171	1398.38
421.394	1328.38
421.617	1329.38
421.839	1357.38
422.062	1347.38
422.285	1312.38
422.507	1361.38
422.73	1385.38
422.953	1428.38
423.175	1397.38
423.398	1401.38
423.621	1405.38
423.843	1451.38
424.066	1459.38
424.288	1442.38
424.511	1416.38
424.733	1425.38
424.956	1361.38
425.178	1369.38
425.401	1342.38
425.623	1372.38
425.846	1284.38
426.068	1328.38
426.291	1282.38
426.513	1302.38
426.735	1268.38
426.958	1230.38
427.18	1217.38
427.402	1205.38
427.625	1217.38
427.847	1218.38
428.069	1199.38
428.292	1186.38
428.514	1169.38
428.736	1186.38
428.958	1214.38
429.181	1184.38
429.403	1142.38
429.625	1149.38
429.847	1148.38
430.069	1140.38
430.292	1156.38
430.514	1136.38
430.736	1147.38
430.958	1180.38
431.18	1153.38
431.402	1190.38
431.624	1138.38
431.846	1170.38
432.068	1171.38
432.29	1198.38
432.512	1164.38
432.734	1185.38
432.956	1173.38
433.178	1166.38
433.4	1172.38
433.622	1179.38
433.844	1204.38
434.066	1186.38
434.287	1221.38
434.509	1240.38
434.731	1302.38
434.953	1338.38
435.175	1321.38
435.397	1345.38
435.618	1270.38
435.84	1223.38
436.062	1216.38
436.284	1171.38
436.505	1170.38
436.727	1146.38
436.949	1186.38
437.17	1182.38
437.392	1185.38
437.614	1166.38
437.835	1180.38
438.057	1127.38
438.278	1113.38
438.5	1143.38
438.721	1102.38
438.943	1166.38
439.165	1144.38
439.386	1125.38
439.608	1162.38
439.829	1108.38
440.05	1129.38
440.272	1156.38
440.493	1142.38
440.715	1192.38
440.936	1176.38
441.158	1197.38
441.379	1242.38
441.6	1336.38
441.822	1344.38
442.043	1339.38
442.264	1312.38
442.486	1272.38
442.707	1307.38
442.928	1293.38
443.149	1299.38
443.371	1286.38
443.592	1323.38
443.813	1336.38
444.034	1334.38
444.255	1399.38
444.476	1460.38
444.698	1501.38
444.919	1581.38
445.14	1662.38
445.361	1489.38
445.582	1381.38
445.803	1298.38
446.024	1260.38
446.245	1209.38
446.466	1207.38
446.687	1207.38
446.908	1203.38
447.129	1184.38
447.35	1105.38
447.571	1125.38
447.792	1108.38
448.013	1126.38
448.234	1100.38
448.455	1077.38
448.675	1077.38
448.896	1046.38
449.117	1029.38
449.338	1072.38
449.559	1048.38
449.779	1038.38
450	1025.38
450.221	1068.38
450.442	1072.38
450.662	1084.38
450.883	1086.38
451.104	1105.38
451.324	1101.38
451.545	1084.38
451.766	1073.38
451.986	1088.38
452.207	1073.38
452.428	1084.38
452.648	1065.38
452.869	1042.38
453.089	1029.38
453.31	1061.38
453.53	1045.38
453.751	1038.38
453.971	1012.38
454.192	1024.38
454.412	991.38
454.633	988.38
454.853	995.38
455.073	995.38
455.294	1021.38
455.514	989.38
455.734	1000.38
455.955	981.38
456.175	991.38
456.395	992.38
456.616	995.38
456.836	998.38
457.056	996.38
457.276	1004.38
457.497	1025.38
457.717	996.38
457.937	1008.38
458.157	1042.38
458.377	1031.38
458.598	1060.38
458.818	1086.38
459.038	1123.38
459.258	1126.38
459.478	1192.38
459.698	1220.38
459.918	1267.38
460.138	1320.38
460.358	1388.38
460.578	1401.38
460.798	1397.38
461.018	1449.38
461.238	1381.38
461.458	1395.38
461.678	1400.38
461.898	1425.38
462.118	1439.38
462.338	1469.38
462.558	1548.38
462.777	1569.38
462.997	1737.38
463.217	1866.38
463.437	1901.38
463.657	1749.38
463.876	1690.38
464.096	1641.38
464.316	1647.38
464.536	1674.38
464.755	1605.38
464.975	1510.38
465.195	1419.38
465.414	1362.38
465.634	1264.38
465.854	1239.38
466.073	1202.38
466.293	1175.38
466.512	1170.38
466.732	1144.38
466.951	1156.38
467.171	1110.38
467.391	1111.38
467.61	1136.38
467.829	1085.38
468.049	1097.38
468.268	1087.38
468.488	1075.38
468.707	1109.38
468.927	1044.38
469.146	1067.38
469.365	1076.38
469.585	1117.38
469.804	1145.38
470.023	1144.38
470.243	1154.38
470.462	1184.38
470.681	1180.38
470.901	1159.38
471.12	1186.38
471.339	1145.38
471.558	1138.38
471.777	1078.38
471.997	1074.38
472.216	1086.38
472.435	1064.38
472.654	1067.38
472.873	1038.38
473.092	1050.38
473.311	1047.38
473.53	1078.38
473.749	1042.38
473.968	1049.38
474.187	1024.38
474.406	1038.38
474.625	1035.38
474.844	1045.38
475.063	1072.38
475.282	1056.38
475.501	1080.38
475.72	1072.38
475.939	1084.38
476.158	1068.38
476.377	1073.38
476.596	1100.38
476.814	1133.38
477.033	1132.38
477.252	1132.38
477.471	1154.38
477.69	1180.38
477.908	1256.38
478.127	1240.38
478.346	1273.38
478.564	1270.38
478.783	1304.38
479.002	1344.38
479.22	1314.38
479.439	1363.38
479.658	1296.38
479.876	1320.38
480.095	1365.38
480.313	1408.38
480.532	1423.38
480.751	1430.38
480.969	1341.38
481.188	1325.38
481.406	1288.38
481.624	1234.38
481.843	1216.38
482.061	1243.38
482.28	1215.38
482.498	1214.38
482.717	1199.38
482.935	1207.38
483.153	1162.38
483.372	1187.38
483.59	1211.38
483.808	1227.38
484.027	1220.38
484.245	1247.38
484.463	1243.38
484.681	1234.38
484.9	1216.38
485.118	1230.38
485.336	1245.38
485.554	1275.38
485.772	1220.38
485.99	1245.38
486.209	1300.38
486.427	1262.38
486.645	1298.38
486.863	1279.38
487.081	1260.38
487.299	1248.38
487.517	1264.38
487.735	1257.38
487.953	1257.38
488.171	1267.38
488.389	1256.38
488.607	1231.38
488.825	1202.38
489.043	1220.38
489.261	1226.38
489.479	1241.38
489.696	1244.38
489.914	1262.38
490.132	1261.38
490.35	1252.38
490.568	1242.38
490.786	1268.38
491.003	1251.38
491.221	1258.38
491.439	1284.38
491.657	1264.38
491.874	1291.38
492.092	1299.38
492.31	1284.38
492.527	1323.38
492.745	1320.38
492.963	1334.38
493.18	1277.38
493.398	1310.38
493.615	1306.38
493.833	1330.38
494.05	1341.38
494.268	1330.38
494.485	1347.38
494.703	1363.38
494.92	1368.38
495.138	1334.38
495.355	1338.38
495.573	1353.38
495.79	1349.38
496.008	1385.38
496.225	1377.38
496.442	1405.38
496.66	1412.38
496.877	1424.38
497.094	1444.38
497.312	1495.38
497.529	1486.38
497.746	1551.38
497.963	1631.38
498.181	1661.38
498.398	1752.38
498.615	1820.38
498.832	2004.38
499.049	2147.38
499.267	2343.38
499.484	2581.38
499.701	2837.38
499.918	3139.38
500.135	3608.38
500.352	4063.38
500.569	4333.38
500.786	4218.38
501.003	3968.38
501.22	3598.38
501.437	3140.38
501.654	2744.38
501.871	2456.38
502.088	2276.38
502.305	2132.38
502.522	2012.38
502.739	1917.38
502.956	1835.38
503.172	1753.38
503.389	1688.38
503.606	1602.38
503.823	1568.38
504.04	1573.38
504.256	1556.38
504.473	1611.38
504.69	1656.38
504.907	1626.38
505.123	1512.38
505.34	1453.38
505.557	1369.38
505.773	1338.38
505.99	1305.38
506.207	1246.38
506.423	1253.38
506.64	1239.38
506.856	1227.38
507.073	1194.38
507.289	1206.38
507.506	1168.38
507.722	1150.38
507.939	1170.38
508.155	1150.38
508.372	1182.38
508.588	1152.38
508.805	1116.38
509.021	1125.38
509.238	1116.38
509.454	1104.38
509.67	1121.38
509.887	1103.38
510.103	1095.38
510.319	1056.38
510.536	1104.38
510.752	1082.38
510.968	1136.38
511.184	1064.38
511.401	1080.38
511.617	1089.38
511.833	1114.38
512.049	1086.38
512.265	1061.38
512.481	1084.38
512.698	1044.38
512.914	1070.38
513.13	1059.38
513.346	1089.38
513.562	1085.38
513.778	1104.38
513.994	1074.38
514.21	1091.38
514.426	1118.38
514.642	1097.38
514.858	1122.38
515.074	1132.38
515.29	1120.38
515.506	1107.38
515.721	1160.38
515.937	1210.38
516.153	1200.38
516.369	1217.38
516.585	1285.38
516.801	1285.38
517.016	1341.38
517.232	1403.38
517.448	1473.38
517.664	1543.38
517.879	1540.38
518.095	1546.38
518.311	1566.38
518.527	1454.38
518.742	1405.38
518.958	1315.38
519.173	1282.38
519.389	1242.38
519.605	1195.38
519.82	1156.38
520.036	1162.38
520.251	1114.38
520.467	1107.38
520.682	1079.38
520.898	1084.38
521.113	1085.38
521.329	1049.38
521.544	1055.38
521.76	1051.38
521.975	1068.38
522.19	1029.38
522.406	1018.38
522.621	1001.38
522.836	1003.38
523.052	1018.38
523.267	1014.38
523.482	1045.38
523.698	1006.38
523.913	991.38
524.128	1008.38
524.343	1013.38
524.559	983.38
524.774	1014.38
524.989	970.38
525.204	998.38
525.419	1000.38
525.634	988.38
525.849	1000.38
526.064	967.38
526.28	960.38
526.495	961.38
526.71	966.38
526.925	972.38
527.14	962.38
527.355	972.38
527.57	972.38
527.785	988.38
527.999	1000.38
528.214	951.38
528.429	974.38
528.644	981.38
528.859	960.38
529.074	988.38
529.289	955.38
529.503	980.38
529.718	966.38
529.933	968.38
530.148	940.38
530.363	955.38
530.577	930.38
530.792	946.38
531.007	948.38
531.221	958.38
531.436	972.38
531.651	976.38
531.865	964.38
532.08	921.38
532.295	976.38
532.509	978.38
532.724	964.38
532.938	994.38
533.153	954.38
533.367	973.38
533.582	957.38
533.796	986.38
534.011	941.38
534.225	972.38
534.44	961.38
534.654	936.38
534.868	923.38
535.083	954.38
535.297	939.38
535.511	936.38
535.726	916.38
535.94	902.38
536.154	915.38
536.369	911.38
536.583	902.38
536.797	878.38
537.011	884.38
537.225	904.38
537.44	868.38
537.654	893.38
537.868	892.38
538.082	883.38
538.296	875.38
538.51	885.38
538.724	898.38
538.938	896.38
539.153	857.38
539.367	884.38
539.581	868.38
539.795	857.38
540.009	888.38
540.222	874.38
540.436	872.38
540.65	858.38
540.864	861.38
541.078	877.38
541.292	867.38
541.506	861.38
541.72	847.38
541.934	844.38
542.147	837.38
542.361	847.38
542.575	855.38
542.789	842.38
543.002	842.38
543.216	849.38
543.43	846.38
543.644	829.38
543.857	836.38
544.071	846.38
544.285	846.38
544.498	842.38
544.712	867.38
544.925	886.38
545.139	871.38
545.352	866.38
545.566	885.38
545.779	888.38
545.993	874.38
546.206	878.38
546.42	873.38
546.633	875.38
546.847	897.38
547.06	870.38
547.274	881.38
547.487	892.38
547.7	885.38
547.914	908.38
548.127	909.38
548.34	914.38
548.554	903.38
548.767	894.38
548.98	912.38
549.193	892.38
549.407	893.38
549.62	902.38
549.833	908.38
550.046	905.38
550.259	874.38
550.473	865.38
550.686	876.38
550.899	876.38
551.112	845.38
551.325	852.38
551.538	881.38
551.751	867.38
551.964	900.38
552.177	882.38
552.39	898.38
552.603	940.38
552.816	934.38
553.029	971.38
553.242	992.38
553.455	994.38
553.667	957.38
553.88	981.38
554.093	952.38
554.306	924.38
554.519	925.38
554.732	874.38
554.944	861.38
555.157	828.38
555.37	826.38
555.583	819.38
555.795	798.38
556.008	813.38
556.221	789.38
556.433	796.38
556.646	793.38
556.859	772.38
557.071	762.38
557.284	774.38
557.496	757.38
557.709	756.38
557.921	739.38
558.134	754.38
558.346	742.38
558.559	721.38
558.771	719.38
558.984	712.38
559.196	727.38
559.409	711.38
559.621	731.38
559.833	718.38
560.046	737.38
560.258	722.38
560.47	721.38
560.683	742.38
560.895	722.38
561.107	721.38
561.32	729.38
561.532	744.38
561.744	728.38
561.956	714.38
562.168	728.38
562.381	733.38
562.593	744.38
562.805	742.38
563.017	702.38
563.229	727.38
563.441	747.38
563.653	703.38
563.865	757.38
564.077	739.38
564.289	761.38
564.501	747.38
564.713	773.38
564.925	788.38
565.137	780.38
565.349	789.38
565.561	842.38
565.773	862.38
565.985	932.38
566.197	971.38
566.408	1009.38
566.62	1105.38
566.832	1181.38
567.044	1255.38
567.255	1205.38
567.467	1259.38
567.679	1364.38
567.891	1461.38
568.102	1456.38
568.314	1385.38
568.526	1246.38
568.737	1137.38
568.949	1028.38
569.161	960.38
569.372	876.38
569.584	849.38
569.795	808.38
570.007	780.38
570.218	760.38
570.43	750.38
570.641	759.38
570.853	772.38
571.064	754.38
571.276	757.38
571.487	743.38
571.698	698.38
571.91	674.38
572.121	678.38
572.333	670.38
572.544	645.38
572.755	626.38
572.966	629.38
573.178	628.38
573.389	635.38
573.6	616.38
573.811	603.38
574.023	577.38
574.234	595.38
574.445	583.38
574.656	590.38
574.867	568.38
575.078	602.38
575.289	588.38
575.501	600.38
575.712	549.38
575.923	581.38
576.134	553.38
576.345	542.38
576.556	558.38
576.767	585.38
576.978	550.38
577.188	537.38
577.399	532.38
577.61	532.38
577.821	546.38
578.032	550.38
578.243	526.38
578.454	526.38
578.665	521.38
578.875	519.38
579.086	517.38
579.297	513.38
579.508	524.38
579.718	539.38
579.929	535.38
580.14	510.38
580.35	484.38
580.561	508.38
580.772	525.38
580.982	490.38
581.193	497.38
581.403	503.38
581.614	463.38
581.825	501.38
582.035	505.38
582.246	491.38
582.456	483.38
582.667	474.38
582.877	490.38
583.087	464.38
583.298	501.38
583.508	496.38
583.719	501.38
583.929	487.38
584.139	473.38
584.35	489.38
584.56	479.38
584.77	466.38
584.981	470.38
585.191	476.38
585.401	470.38
585.611	479.38
585.821	483.38
586.032	480.38
586.242	490.38
586.452	473.38
586.662	462.38
586.872	458.38
587.082	475.38
587.292	468.38
587.502	468.38
587.713	477.38
587.923	477.38
588.133	461.38
588.343	484.38
588.553	493.38
588.762	465.38
588.972	464.38
589.182	472.38
589.392	498.38
589.602	476.38
589.812	480.38
590.022	498.38
590.232	465.38
590.441	450.38
590.651	490.38
590.861	465.38
591.071	463.38
591.281	474.38
591.49	492.38
591.7	529.38
591.91	515.38
592.119	502.38
592.329	533.38
592.539	553.38
592.748	567.38
592.958	570.38
593.167	585.38
593.377	597.38
593.587	615.38
593.796	619.38
594.006	610.38
594.215	616.38
594.424	631.38
594.634	602.38
594.843	578.38
595.053	560.38
595.262	545.38
595.472	533.38
595.681	492.38
595.89	494.38
596.1	485.38
596.309	462.38
596.518	469.38
596.727	454.38
596.937	449.38
597.146	450.38
597.355	444.38
597.564	432.38
597.774	427.38
597.983	424.38
598.192	394.38
598.401	447.38
598.61	395.38
598.819	407.38
599.028	408.38
599.237	439.38
599.446	396.38
599.655	412.38
599.864	392.38
600.073	390.38
600.282	393.38
600.491	390.38
600.7	387.38
600.909	405.38
601.118	393.38
601.327	374.38
601.536	386.38
601.745	382.38
601.953	386.38
602.162	390.38
602.371	392.38
602.58	378.38
602.789	374.38
602.997	368.38
603.206	381.38
603.415	372.38
603.623	371.38
603.832	377.38
604.041	346.38
604.249	340.38
604.458	385.38
604.666	368.38
604.875	360.38
605.084	368.38
605.292	360.38
605.501	380.38
605.709	379.38
605.918	370.38
606.126	373.38
606.334	345.38
606.543	377.38
606.751	349.38
606.96	333.38
607.168	347.38
607.376	358.38
607.585	358.38
607.793	361.38
608.001	353.38
608.21	342.38
608.418	341.38
608.626	341.38
608.834	347.38
609.043	365.38
609.251	355.38
609.459	345.38
609.667	342.38
609.875	337.38
610.083	346.38
610.291	346.38
610.499	357.38
610.707	338.38
610.916	343.38
611.124	333.38
611.332	348.38
611.54	336.38
611.748	342.38
611.955	344.38
612.163	336.38
612.371	339.38
612.579	328.38
612.787	335.38
612.995	334.38
613.203	336.38
613.411	348.38
613.618	336.38
613.826	344.38
614.034	341.38
614.242	342.38
614.449	335.38
614.657	343.38
614.865	336.38
615.072	320.38
615.28	326.38
615.488	329.38
615.695	316.38
615.903	328.38
616.111	353.38
616.318	329.38
616.526	334.38
616.733	338.38
616.941	320.38
617.148	352.38
617.356	335.38
617.563	347.38
617.771	337.38
617.978	338.38
618.185	324.38
618.393	322.38
618.6	338.38
618.807	331.38
619.015	324.38
619.222	326.38
619.429	314.38
619.637	321.38
619.844	333.38
620.051	342.38
620.258	313.38
620.466	325.38
620.673	303.38
620.88	315.38
621.087	316.38
621.294	312.38
621.501	319.38
621.708	305.38
621.915	316.38
622.122	308.38
622.329	295.38
622.536	302.38
622.743	313.38
622.95	289.38
623.157	295.38
623.364	310.38
623.571	296.38
623.778	292.38
623.985	290.38
624.192	308.38
624.399	296.38
624.606	292.38
624.812	301.38
625.019	287.38
625.226	293.38
625.433	299.38
625.639	309.38
625.846	280.38
626.053	285.38
626.259	291.38
626.466	292.38
626.673	280.38
626.879	278.38
627.086	275.38
627.293	265.38
627.499	277.38
627.706	282.38
627.912	294.38
628.119	286.38
628.325	278.38
628.532	279.38
628.738	281.38
628.945	270.38
629.151	267.38
629.357	260.38
629.564	268.38
629.77	265.38
629.976	266.38
630.183	274.38
630.389	258.38
630.595	244.38
630.802	252.38
631.008	273.38
631.214	258.38
631.42	256.38
631.627	267.38
631.833	251.38
632.039	249.38
632.245	263.38
632.451	241.38
632.657	259.38
632.863	234.38
633.069	251.38
633.275	247.38
633.481	241.38
633.688	241.38
633.893	250.38
634.099	248.38
634.305	221.38
634.511	239.38
634.717	230.38
634.923	236.38
635.129	233.38
635.335	237.38
635.541	234.38
635.747	244.38
635.952	213.38
636.158	238.38
636.364	251.38
636.57	233.38
636.775	258.38
636.981	249.38
637.187	227.38
637.392	208.38
637.598	235.38
637.804	228.38
638.009	242.38
638.215	242.38
638.421	237.38
638.626	231.38
638.832	226.38
639.037	221.38
639.243	230.38
639.448	225.38
639.654	228.38
639.859	222.38
640.065	216.38
640.27	241.38
640.475	210.38
640.681	227.38
640.886	227.38
641.091	201.38
641.297	220.38
641.502	221.38
641.707	212.38
641.913	207.38
642.118	213.38
642.323	225.38
642.528	222.38
642.733	228.38
642.939	216.38
643.144	221.38
643.349	222.38
643.554	221.38
643.759	205.38
643.964	202.38
644.169	224.38
644.374	227.38
644.579	216.38
644.784	218.38
644.989	207.38
645.194	207.38
645.399	201.38
645.604	200.38
645.809	227.38
646.014	220.38
646.219	217.38
646.423	213.38
646.628	197.38
646.833	216.38
647.038	218.38
647.243	218.38
647.447	229.38
647.652	218.38
647.857	217.38
648.062	201.38
648.266	222.38
648.471	220.38
648.676	210.38
648.88	206.38
649.085	224.38
649.289	212.38
649.494	201.38
649.698	184.38
649.903	221.38
650.107	201.38
650.312	204.38
650.516	188.38
650.721	202.38
650.925	183.38
651.13	177.38
651.334	191.38
651.539	189.38
651.743	172.38
651.947	194.38
652.152	184.38
652.356	179.38
652.56	157.38
652.764	168.38
652.969	158.38
653.173	177.38
653.377	166.38
653.581	150.38
653.785	157.38
653.99	162.38
654.194	169.38
654.398	162.38
654.602	148.38
654.806	164.38
655.01	153.38
655.214	136.38
655.418	145.38
655.622	146.38
655.826	134.38
656.03	150.38
656.234	152.38
656.438	137.38
656.642	142.38
656.846	152.38
657.049	132.38
657.253	140.38
657.457	121.38
657.661	134.38
657.865	138.38
658.068	130.38
658.272	118.38
658.476	109.38
658.68	125.38
658.883	103.38
659.087	119.38
659.291	113.38
659.494	112.38
659.698	115.38
659.901	123.38
660.105	106.38
660.309	101.38
660.512	94.38
660.716	106.38
660.919	100.38
661.123	96.38
661.326	83.38
661.53	108.38
661.733	89.38
661.936	85.38
662.14	89.38
662.343	97.38
662.546	84.38
662.75	70.38
662.953	91.38
663.156	93.38
663.36	87.38
663.563	80.38
663.766	76.38
663.969	72.38
664.173	72.38
664.376	85.38
664.579	92.38
664.782	74.38
664.985	72.38
665.188	81.38
665.391	68.38
665.594	89.38
665.797	94.38
666	77.38
666.203	69.38
666.406	76.38
666.609	77.38
666.812	103.38
667.015	80.38
667.218	79.38
667.421	85.38
667.624	83.38
667.827	78.38
668.03	84.38
668.232	77.38
668.435	76.38
668.638	80.38
668.841	97.38
669.043	84.38
669.246	73.38
669.449	82.38
669.651	86.38
669.854	85.38
670.057	88.38
670.259	78.38
670.462	76.38
670.665	78.38
670.867	82.38
671.07	92.38
671.272	84.38
671.475	90.38
671.677	95.38
671.88	80.38
672.082	78.38
672.284	77.38
672.487	82.38
672.689	80.38
672.892	80.38
