Data from NiCl2@0.25M.TitratingCurve.Agarose3%dH2O.NegLispCup.LampEnergy10.LIBS07252019_HRD10591_18-24-48-572.txt Node
Date: Thu Jul 25 18:24:48 EDT 2019
User: cochatt
Spectrometer: HR+D1059
Trigger mode: 1
Integration Time (sec): 1.000000E-1
Scans to average: 1
Electric dark correction enabled: true
Nonlinearity correction enabled: false
Boxcar width: 0
XAxis mode: Wavelengths
Number of Pixels in Spectrum: 2048
>>>>>Begin Spectral Data<<<<<
223.165	-14.75
223.4	-14.75
223.635	-14.75
223.869	-17.75
224.104	-13.75
224.338	-28.75
224.573	-13.75
224.808	4.25
225.042	-16.75
225.277	-34.75
225.511	0.25
225.746	-4.75
225.98	6.25
226.215	5.25
226.449	24.25
226.683	26.25
226.918	39.25
227.152	39.25
227.387	28.25
227.621	34.25
227.856	42.25
228.09	44.25
228.324	55.25
228.559	47.25
228.793	80.25
229.027	115.25
229.262	126.25
229.496	122.25
229.73	134.25
229.964	132.25
230.199	150.25
230.433	140.25
230.667	157.25
230.901	141.25
231.136	145.25
231.37	162.25
231.604	152.25
231.838	155.25
232.072	163.25
232.306	160.25
232.541	148.25
232.775	162.25
233.009	171.25
233.243	178.25
233.477	172.25
233.711	148.25
233.945	164.25
234.179	172.25
234.413	179.25
234.647	162.25
234.881	177.25
235.115	175.25
235.349	179.25
235.583	179.25
235.817	168.25
236.051	174.25
236.285	158.25
236.519	180.25
236.753	193.25
236.987	172.25
237.221	183.25
237.455	174.25
237.689	181.25
237.922	159.25
238.156	174.25
238.39	200.25
238.624	186.25
238.858	187.25
239.091	193.25
239.325	200.25
239.559	198.25
239.793	186.25
240.027	202.25
240.26	183.25
240.494	210.25
240.728	201.25
240.961	203.25
241.195	203.25
241.429	219.25
241.662	196.25
241.896	224.25
242.13	226.25
242.363	222.25
242.597	233.25
242.83	230.25
243.064	229.25
243.298	230.25
243.531	225.25
243.765	234.25
243.998	241.25
244.232	223.25
244.465	250.25
244.699	230.25
244.932	266.25
245.166	242.25
245.399	263.25
245.633	256.25
245.866	254.25
246.099	259.25
246.333	246.25
246.566	281.25
246.8	259.25
247.033	270.25
247.266	252.25
247.5	249.25
247.733	260.25
247.966	274.25
248.2	277.25
248.433	284.25
248.666	283.25
248.899	292.25
249.133	280.25
249.366	279.25
249.599	304.25
249.832	290.25
250.066	293.25
250.299	298.25
250.532	295.25
250.765	289.25
250.998	286.25
251.231	304.25
251.465	316.25
251.698	318.25
251.931	311.25
252.164	317.25
252.397	312.25
252.63	327.25
252.863	313.25
253.096	332.25
253.329	323.25
253.562	315.25
253.795	298.25
254.028	312.25
254.261	327.25
254.494	319.25
254.727	316.25
254.96	341.25
255.193	334.25
255.426	349.25
255.659	336.25
255.892	342.25
256.124	352.25
256.357	343.25
256.59	346.25
256.823	328.25
257.056	340.25
257.289	351.25
257.521	346.25
257.754	359.25
257.987	356.25
258.22	360.25
258.452	361.25
258.685	362.25
258.918	355.25
259.151	367.25
259.383	366.25
259.616	356.25
259.849	355.25
260.081	390.25
260.314	370.25
260.547	372.25
260.779	364.25
261.012	386.25
261.244	370.25
261.477	380.25
261.71	392.25
261.942	373.25
262.175	376.25
262.407	393.25
262.64	376.25
262.872	400.25
263.105	415.25
263.337	414.25
263.57	408.25
263.802	406.25
264.035	383.25
264.267	416.25
264.499	397.25
264.732	406.25
264.964	404.25
265.197	400.25
265.429	413.25
265.661	425.25
265.894	421.25
266.126	430.25
266.358	436.25
266.591	443.25
266.823	418.25
267.055	420.25
267.287	422.25
267.52	435.25
267.752	424.25
267.984	436.25
268.216	437.25
268.448	444.25
268.681	443.25
268.913	445.25
269.145	443.25
269.377	446.25
269.609	434.25
269.841	452.25
270.073	450.25
270.306	457.25
270.538	435.25
270.77	435.25
271.002	460.25
271.234	451.25
271.466	438.25
271.698	464.25
271.93	466.25
272.162	439.25
272.394	471.25
272.626	458.25
272.858	468.25
273.09	464.25
273.322	475.25
273.553	471.25
273.785	479.25
274.017	491.25
274.249	498.25
274.481	479.25
274.713	468.25
274.945	511.25
275.176	475.25
275.408	486.25
275.64	491.25
275.872	494.25
276.104	502.25
276.335	504.25
276.567	496.25
276.799	506.25
277.031	517.25
277.262	500.25
277.494	509.25
277.726	514.25
277.957	493.25
278.189	514.25
278.421	510.25
278.652	528.25
278.884	543.25
279.115	528.25
279.347	540.25
279.579	539.25
279.81	544.25
280.042	534.25
280.273	538.25
280.505	542.25
280.736	560.25
280.968	530.25
281.199	536.25
281.431	538.25
281.662	557.25
281.894	556.25
282.125	544.25
282.356	572.25
282.588	588.25
282.819	563.25
283.051	565.25
283.282	565.25
283.513	568.25
283.745	567.25
283.976	576.25
284.207	588.25
284.439	576.25
284.67	595.25
284.901	570.25
285.132	592.25
285.364	588.25
285.595	591.25
285.826	586.25
286.057	594.25
286.288	585.25
286.52	620.25
286.751	583.25
286.982	614.25
287.213	619.25
287.444	624.25
287.675	612.25
287.906	617.25
288.138	608.25
288.369	597.25
288.6	614.25
288.831	634.25
289.062	624.25
289.293	634.25
289.524	620.25
289.755	640.25
289.986	625.25
290.217	640.25
290.448	655.25
290.679	636.25
290.91	652.25
291.141	635.25
291.371	638.25
291.602	638.25
291.833	616.25
292.064	635.25
292.295	625.25
292.526	634.25
292.757	629.25
292.987	639.25
293.218	634.25
293.449	628.25
293.68	641.25
293.91	648.25
294.141	654.25
294.372	650.25
294.603	653.25
294.833	656.25
295.064	636.25
295.295	646.25
295.525	649.25
295.756	635.25
295.987	643.25
296.217	662.25
296.448	658.25
296.679	669.25
296.909	667.25
297.14	698.25
297.37	670.25
297.601	711.25
297.831	658.25
298.062	690.25
298.292	668.25
298.523	719.25
298.753	692.25
298.984	696.25
299.214	714.25
299.445	711.25
299.675	688.25
299.905	704.25
300.136	686.25
300.366	702.25
300.597	710.25
300.827	710.25
301.057	719.25
301.288	726.25
301.518	720.25
301.748	735.25
301.979	763.25
302.209	750.25
302.439	734.25
302.669	736.25
302.9	741.25
303.13	712.25
303.36	722.25
303.59	712.25
303.82	728.25
304.051	690.25
304.281	738.25
304.511	730.25
304.741	738.25
304.971	727.25
305.201	722.25
305.431	712.25
305.661	702.25
305.891	719.25
306.121	724.25
306.352	714.25
306.582	726.25
306.812	695.25
307.042	722.25
307.272	704.25
307.502	693.25
307.731	694.25
307.961	700.25
308.191	666.25
308.421	682.25
308.651	676.25
308.881	682.25
309.111	695.25
309.341	707.25
309.571	690.25
309.8	715.25
310.03	700.25
310.26	720.25
310.49	702.25
310.72	736.25
310.949	711.25
311.179	744.25
311.409	736.25
311.639	723.25
311.868	713.25
312.098	729.25
312.328	744.25
312.557	731.25
312.787	779.25
313.017	759.25
313.246	738.25
313.476	772.25
313.706	747.25
313.935	770.25
314.165	763.25
314.394	759.25
314.624	758.25
314.853	742.25
315.083	747.25
315.312	742.25
315.542	748.25
315.771	745.25
316.001	775.25
316.23	750.25
316.46	750.25
316.689	752.25
316.919	730.25
317.148	770.25
317.377	752.25
317.607	729.25
317.836	736.25
318.065	720.25
318.295	731.25
318.524	716.25
318.753	732.25
318.983	746.25
319.212	720.25
319.441	734.25
319.67	730.25
319.9	740.25
320.129	751.25
320.358	734.25
320.587	727.25
320.816	760.25
321.046	742.25
321.275	754.25
321.504	745.25
321.733	764.25
321.962	733.25
322.191	750.25
322.42	750.25
322.649	755.25
322.878	765.25
323.108	759.25
323.337	747.25
323.566	777.25
323.795	759.25
324.024	776.25
324.253	767.25
324.482	785.25
324.71	766.25
324.939	795.25
325.168	778.25
325.397	796.25
325.626	785.25
325.855	796.25
326.084	828.25
326.313	811.25
326.542	818.25
326.77	852.25
326.999	817.25
327.228	819.25
327.457	807.25
327.686	810.25
327.914	827.25
328.143	818.25
328.372	812.25
328.6	811.25
328.829	826.25
329.058	824.25
329.287	823.25
329.515	824.25
329.744	832.25
329.972	827.25
330.201	831.25
330.43	836.25
330.658	812.25
330.887	854.25
331.115	854.25
331.344	853.25
331.572	888.25
331.801	878.25
332.03	890.25
332.258	898.25
332.486	953.25
332.715	959.25
332.943	987.25
333.172	1027.25
333.4	1082.25
333.629	1110.25
333.857	1121.25
334.085	1121.25
334.314	1102.25
334.542	1092.25
334.771	1096.25
334.999	1062.25
335.227	1048.25
335.455	1075.25
335.684	1075.25
335.912	1046.25
336.14	1021.25
336.369	994.25
336.597	1022.25
336.825	983.25
337.053	1017.25
337.281	968.25
337.51	969.25
337.738	950.25
337.966	945.25
338.194	903.25
338.422	915.25
338.65	898.25
338.878	875.25
339.106	891.25
339.334	912.25
339.562	869.25
339.79	839.25
340.018	868.25
340.246	859.25
340.474	867.25
340.702	868.25
340.93	842.25
341.158	856.25
341.386	882.25
341.614	894.25
341.842	862.25
342.07	812.25
342.298	836.25
342.526	856.25
342.754	854.25
342.981	862.25
343.209	876.25
343.437	904.25
343.665	969.25
343.893	1034.25
344.12	1074.25
344.348	1048.25
344.576	997.25
344.804	952.25
345.031	909.25
345.259	883.25
345.487	871.25
345.714	843.25
345.942	871.25
346.17	849.25
346.397	834.25
346.625	850.25
346.853	818.25
347.08	838.25
347.308	834.25
347.535	838.25
347.763	842.25
347.99	835.25
348.218	850.25
348.445	854.25
348.673	821.25
348.9	822.25
349.128	797.25
349.355	786.25
349.583	797.25
349.81	819.25
350.037	796.25
350.265	800.25
350.492	836.25
350.72	808.25
350.947	776.25
351.174	789.25
351.402	788.25
351.629	769.25
351.856	816.25
352.083	792.25
352.311	783.25
352.538	795.25
352.765	792.25
352.992	792.25
353.22	799.25
353.447	788.25
353.674	770.25
353.901	782.25
354.128	788.25
354.355	789.25
354.583	794.25
354.81	786.25
355.037	780.25
355.264	788.25
355.491	808.25
355.718	791.25
355.945	780.25
356.172	779.25
356.399	793.25
356.626	795.25
356.853	812.25
357.08	800.25
357.307	796.25
357.534	797.25
357.761	795.25
357.988	802.25
358.215	785.25
358.441	822.25
358.668	801.25
358.895	778.25
359.122	794.25
359.349	795.25
359.576	791.25
359.802	815.25
360.029	775.25
360.256	788.25
360.483	772.25
360.709	798.25
360.936	794.25
361.163	763.25
361.39	809.25
361.616	796.25
361.843	805.25
362.07	798.25
362.296	798.25
362.523	793.25
362.749	788.25
362.976	778.25
363.203	801.25
363.429	778.25
363.656	795.25
363.882	803.25
364.109	803.25
364.335	797.25
364.562	775.25
364.788	790.25
365.015	802.25
365.241	798.25
365.468	794.25
365.694	812.25
365.92	804.25
366.147	796.25
366.373	798.25
366.599	786.25
366.826	799.25
367.052	791.25
367.278	801.25
367.505	788.25
367.731	781.25
367.957	778.25
368.184	802.25
368.41	804.25
368.636	820.25
368.862	782.25
369.089	836.25
369.315	800.25
369.541	838.25
369.767	820.25
369.993	827.25
370.219	845.25
370.445	822.25
370.672	832.25
370.898	843.25
371.124	845.25
371.35	863.25
371.576	858.25
371.802	859.25
372.028	880.25
372.254	894.25
372.48	883.25
372.706	869.25
372.932	890.25
373.158	894.25
373.384	874.25
373.61	866.25
373.835	867.25
374.061	879.25
374.287	880.25
374.513	892.25
374.739	912.25
374.965	961.25
375.191	966.25
375.416	963.25
375.642	955.25
375.868	914.25
376.094	949.25
376.319	867.25
376.545	893.25
376.771	860.25
376.997	856.25
377.222	858.25
377.448	864.25
377.674	858.25
377.899	832.25
378.125	867.25
378.35	848.25
378.576	857.25
378.802	828.25
379.027	848.25
379.253	884.25
379.478	846.25
379.704	886.25
379.929	879.25
380.155	835.25
380.38	857.25
380.606	862.25
380.831	869.25
381.057	879.25
381.282	850.25
381.507	845.25
381.733	866.25
381.958	881.25
382.184	876.25
382.409	889.25
382.634	886.25
382.86	908.25
383.085	940.25
383.31	916.25
383.535	930.25
383.761	939.25
383.986	935.25
384.211	980.25
384.436	981.25
384.662	1026.25
384.887	1049.25
385.112	1018.25
385.337	1031.25
385.562	1074.25
385.787	1081.25
386.013	1078.25
386.238	1058.25
386.463	1068.25
386.688	1059.25
386.913	1033.25
387.138	1043.25
387.363	1070.25
387.588	1036.25
387.813	1054.25
388.038	1034.25
388.263	1026.25
388.488	1076.25
388.713	1090.25
388.938	1065.25
389.163	1044.25
389.387	1044.25
389.612	1036.25
389.837	1028.25
390.062	1035.25
390.287	1016.25
390.512	1046.25
390.736	1049.25
390.961	1070.25
391.186	1081.25
391.411	1118.25
391.636	1136.25
391.86	1184.25
392.085	1164.25
392.31	1196.25
392.534	1162.25
392.759	1170.25
392.984	1127.25
393.208	1098.25
393.433	1092.25
393.658	1099.25
393.882	1131.25
394.107	1144.25
394.331	1148.25
394.556	1107.25
394.78	1126.25
395.005	1123.25
395.229	1148.25
395.454	1162.25
395.678	1179.25
395.903	1181.25
396.127	1163.25
396.352	1169.25
396.576	1131.25
396.801	1134.25
397.025	1146.25
397.249	1148.25
397.474	1219.25
397.698	1204.25
397.922	1200.25
398.147	1222.25
398.371	1235.25
398.595	1264.25
398.82	1335.25
399.044	1435.25
399.268	1560.25
399.492	1787.25
399.717	1966.25
399.941	2016.25
400.165	1869.25
400.389	1667.25
400.613	1566.25
400.837	1448.25
401.062	1461.25
401.286	1401.25
401.51	1345.25
401.734	1343.25
401.958	1374.25
402.182	1380.25
402.406	1387.25
402.63	1410.25
402.854	1447.25
403.078	1442.25
403.302	1458.25
403.526	1494.25
403.75	1524.25
403.974	1543.25
404.198	1505.25
404.422	1556.25
404.645	1562.25
404.869	1490.25
405.093	1551.25
405.317	1480.25
405.541	1498.25
405.765	1492.25
405.988	1482.25
406.212	1490.25
406.436	1519.25
406.66	1538.25
406.883	1504.25
407.107	1598.25
407.331	1704.25
407.555	1782.25
407.778	1776.25
408.002	1720.25
408.226	1691.25
408.449	1651.25
408.673	1587.25
408.896	1552.25
409.12	1507.25
409.344	1521.25
409.567	1473.25
409.791	1526.25
410.014	1497.25
410.238	1484.25
410.461	1474.25
410.685	1429.25
410.908	1449.25
411.132	1402.25
411.355	1378.25
411.578	1411.25
411.802	1365.25
412.025	1400.25
412.249	1394.25
412.472	1446.25
412.695	1397.25
412.919	1373.25
413.142	1357.25
413.365	1360.25
413.589	1341.25
413.812	1347.25
414.035	1315.25
414.258	1338.25
414.482	1350.25
414.705	1375.25
414.928	1376.25
415.151	1326.25
415.374	1353.25
415.597	1373.25
415.821	1321.25
416.044	1324.25
416.267	1266.25
416.49	1315.25
416.713	1263.25
416.936	1304.25
417.159	1315.25
417.382	1271.25
417.605	1310.25
417.828	1318.25
418.051	1353.25
418.274	1343.25
418.497	1291.25
418.72	1355.25
418.943	1352.25
419.166	1454.25
419.389	1539.25
419.611	1509.25
419.834	1447.25
420.057	1383.25
420.28	1346.25
420.503	1332.25
420.726	1330.25
420.948	1330.25
421.171	1313.25
421.394	1332.25
421.617	1320.25
421.839	1303.25
422.062	1346.25
422.285	1272.25
422.507	1346.25
422.73	1341.25
422.953	1360.25
423.175	1379.25
423.398	1371.25
423.621	1356.25
423.843	1375.25
424.066	1366.25
424.288	1369.25
424.511	1337.25
424.733	1350.25
424.956	1367.25
425.178	1354.25
425.401	1307.25
425.623	1318.25
425.846	1305.25
426.068	1274.25
426.291	1279.25
426.513	1252.25
426.735	1225.25
426.958	1224.25
427.18	1203.25
427.402	1216.25
427.625	1204.25
427.847	1188.25
428.069	1178.25
428.292	1168.25
428.514	1162.25
428.736	1152.25
428.958	1156.25
429.181	1136.25
429.403	1164.25
429.625	1127.25
429.847	1154.25
430.069	1123.25
430.292	1119.25
430.514	1112.25
430.736	1138.25
430.958	1161.25
431.18	1168.25
431.402	1174.25
431.624	1153.25
431.846	1180.25
432.068	1174.25
432.29	1178.25
432.512	1140.25
432.734	1164.25
432.956	1166.25
433.178	1156.25
433.4	1154.25
433.622	1194.25
433.844	1221.25
434.066	1163.25
434.287	1172.25
434.509	1200.25
434.731	1313.25
434.953	1321.25
435.175	1352.25
435.397	1310.25
435.618	1245.25
435.84	1215.25
436.062	1182.25
436.284	1158.25
436.505	1150.25
436.727	1164.25
436.949	1141.25
437.17	1146.25
437.392	1121.25
437.614	1143.25
437.835	1121.25
438.057	1140.25
438.278	1095.25
438.5	1106.25
438.721	1121.25
438.943	1152.25
439.165	1122.25
439.386	1150.25
439.608	1124.25
439.829	1157.25
440.05	1138.25
440.272	1139.25
440.493	1179.25
440.715	1189.25
440.936	1192.25
441.158	1219.25
441.379	1238.25
441.6	1300.25
441.822	1318.25
442.043	1330.25
442.264	1276.25
442.486	1280.25
442.707	1274.25
442.928	1225.25
443.149	1263.25
443.371	1274.25
443.592	1265.25
443.813	1318.25
444.034	1298.25
444.255	1352.25
444.476	1394.25
444.698	1482.25
444.919	1518.25
445.14	1627.25
445.361	1497.25
445.582	1393.25
445.803	1291.25
446.024	1224.25
446.245	1218.25
446.466	1189.25
446.687	1178.25
446.908	1163.25
447.129	1152.25
447.35	1117.25
447.571	1154.25
447.792	1103.25
448.013	1100.25
448.234	1065.25
448.455	1074.25
448.675	1062.25
448.896	1072.25
449.117	1043.25
449.338	1031.25
449.559	1016.25
449.779	1050.25
450	1026.25
450.221	1018.25
450.442	1061.25
450.662	1074.25
450.883	1074.25
451.104	1088.25
451.324	1079.25
451.545	1057.25
451.766	1072.25
451.986	1065.25
452.207	1050.25
452.428	1040.25
452.648	1059.25
452.869	1034.25
453.089	1030.25
453.31	1068.25
453.53	1014.25
453.751	1024.25
453.971	998.25
454.192	1018.25
454.412	1035.25
454.633	985.25
454.853	996.25
455.073	982.25
455.294	1002.25
455.514	996.25
455.734	998.25
455.955	976.25
456.175	967.25
456.395	972.25
456.616	966.25
456.836	982.25
457.056	981.25
457.276	979.25
457.497	999.25
457.717	1008.25
457.937	1008.25
458.157	1003.25
458.377	1022.25
458.598	1080.25
458.818	1053.25
459.038	1101.25
459.258	1138.25
459.478	1187.25
459.698	1201.25
459.918	1236.25
460.138	1289.25
460.358	1366.25
460.578	1384.25
460.798	1413.25
461.018	1428.25
461.238	1390.25
461.458	1397.25
461.678	1400.25
461.898	1426.25
462.118	1423.25
462.338	1464.25
462.558	1523.25
462.777	1607.25
462.997	1738.25
463.217	1806.25
463.437	1839.25
463.657	1723.25
463.876	1670.25
464.096	1660.25
464.316	1625.25
464.536	1631.25
464.755	1563.25
464.975	1505.25
465.195	1471.25
465.414	1370.25
465.634	1299.25
465.854	1248.25
466.073	1193.25
466.293	1159.25
466.512	1149.25
466.732	1099.25
466.951	1142.25
467.171	1097.25
467.391	1120.25
467.61	1118.25
467.829	1104.25
468.049	1108.25
468.268	1095.25
468.488	1057.25
468.707	1074.25
468.927	1098.25
469.146	1046.25
469.365	1102.25
469.585	1127.25
469.804	1111.25
470.023	1152.25
470.243	1149.25
470.462	1162.25
470.681	1140.25
470.901	1150.25
471.12	1136.25
471.339	1141.25
471.558	1068.25
471.777	1107.25
471.997	1070.25
472.216	1084.25
472.435	1059.25
472.654	1056.25
472.873	1032.25
473.092	1042.25
473.311	1037.25
473.53	1024.25
473.749	1040.25
473.968	1035.25
474.187	993.25
474.406	1015.25
474.625	1048.25
474.844	1027.25
475.063	1043.25
475.282	1059.25
475.501	1056.25
475.72	1059.25
475.939	1052.25
476.158	1067.25
476.377	1077.25
476.596	1050.25
476.814	1116.25
477.033	1104.25
477.252	1109.25
477.471	1149.25
477.69	1170.25
477.908	1219.25
478.127	1235.25
478.346	1249.25
478.564	1253.25
478.783	1265.25
479.002	1306.25
479.22	1289.25
479.439	1313.25
479.658	1301.25
479.876	1301.25
480.095	1306.25
480.313	1414.25
480.532	1394.25
480.751	1383.25
480.969	1343.25
481.188	1344.25
481.406	1256.25
481.624	1249.25
481.843	1207.25
482.061	1196.25
482.28	1187.25
482.498	1193.25
482.717	1154.25
482.935	1196.25
483.153	1164.25
483.372	1171.25
483.59	1192.25
483.808	1198.25
484.027	1176.25
484.245	1203.25
484.463	1187.25
484.681	1201.25
484.9	1242.25
485.118	1242.25
485.336	1227.25
485.554	1203.25
485.772	1249.25
485.99	1244.25
486.209	1241.25
486.427	1258.25
486.645	1268.25
486.863	1280.25
487.081	1284.25
487.299	1219.25
487.517	1260.25
487.735	1249.25
487.953	1236.25
488.171	1237.25
488.389	1246.25
488.607	1217.25
488.825	1193.25
489.043	1227.25
489.261	1170.25
489.479	1260.25
489.696	1225.25
489.914	1269.25
490.132	1241.25
490.35	1284.25
490.568	1241.25
490.786	1279.25
491.003	1262.25
491.221	1231.25
491.439	1279.25
491.657	1264.25
491.874	1274.25
492.092	1276.25
492.31	1262.25
492.527	1290.25
492.745	1292.25
492.963	1281.25
493.18	1298.25
493.398	1293.25
493.615	1285.25
493.833	1326.25
494.05	1306.25
494.268	1321.25
494.485	1324.25
494.703	1333.25
494.92	1355.25
495.138	1320.25
495.355	1375.25
495.573	1352.25
495.79	1311.25
496.008	1357.25
496.225	1355.25
496.442	1384.25
496.66	1395.25
496.877	1454.25
497.094	1431.25
497.312	1476.25
497.529	1516.25
497.746	1560.25
497.963	1615.25
498.181	1688.25
498.398	1776.25
498.615	1867.25
498.832	2011.25
499.049	2139.25
499.267	2362.25
499.484	2599.25
499.701	2849.25
499.918	3172.25
500.135	3540.25
500.352	3940.25
500.569	4062.25
500.786	4046.25
501.003	3853.25
501.22	3560.25
501.437	3145.25
501.654	2831.25
501.871	2534.25
502.088	2328.25
502.305	2182.25
502.522	2032.25
502.739	1941.25
502.956	1858.25
503.172	1759.25
503.389	1714.25
503.606	1627.25
503.823	1606.25
504.04	1604.25
504.256	1617.25
504.473	1632.25
504.69	1609.25
504.907	1594.25
505.123	1528.25
505.34	1423.25
505.557	1378.25
505.773	1355.25
505.99	1307.25
506.207	1282.25
506.423	1272.25
506.64	1250.25
506.856	1209.25
507.073	1185.25
507.289	1202.25
507.506	1171.25
507.722	1176.25
507.939	1173.25
508.155	1156.25
508.372	1137.25
508.588	1144.25
508.805	1137.25
509.021	1133.25
509.238	1119.25
509.454	1123.25
509.67	1101.25
509.887	1074.25
510.103	1087.25
510.319	1072.25
510.536	1075.25
510.752	1102.25
510.968	1065.25
511.184	1092.25
511.401	1059.25
511.617	1099.25
511.833	1074.25
512.049	1056.25
512.265	1074.25
512.481	1069.25
512.698	1078.25
512.914	1059.25
513.13	1058.25
513.346	1108.25
513.562	1087.25
513.778	1066.25
513.994	1086.25
514.21	1097.25
514.426	1075.25
514.642	1082.25
514.858	1091.25
515.074	1112.25
515.29	1130.25
515.506	1148.25
515.721	1171.25
515.937	1144.25
516.153	1170.25
516.369	1228.25
516.585	1274.25
516.801	1264.25
517.016	1336.25
517.232	1413.25
517.448	1483.25
517.664	1539.25
517.879	1540.25
518.095	1534.25
518.311	1486.25
518.527	1414.25
518.742	1382.25
518.958	1323.25
519.173	1258.25
519.389	1235.25
519.605	1213.25
519.82	1153.25
520.036	1150.25
520.251	1108.25
520.467	1095.25
520.682	1080.25
520.898	1082.25
521.113	1096.25
521.329	1067.25
521.544	1054.25
521.76	1053.25
521.975	1023.25
522.19	1055.25
522.406	1001.25
522.621	1029.25
522.836	995.25
523.052	1036.25
523.267	1026.25
523.482	1002.25
523.698	989.25
523.913	988.25
524.128	982.25
524.343	979.25
524.559	960.25
524.774	974.25
524.989	986.25
525.204	999.25
525.419	987.25
525.634	976.25
525.849	959.25
526.064	962.25
526.28	981.25
526.495	940.25
526.71	962.25
526.925	953.25
527.14	949.25
527.355	942.25
527.57	934.25
527.785	948.25
527.999	973.25
528.214	960.25
528.429	996.25
528.644	954.25
528.859	976.25
529.074	952.25
529.289	974.25
529.503	978.25
529.718	972.25
529.933	967.25
530.148	946.25
530.363	979.25
530.577	966.25
530.792	949.25
531.007	956.25
531.221	964.25
531.436	992.25
531.651	962.25
531.865	955.25
532.08	984.25
532.295	948.25
532.509	996.25
532.724	946.25
532.938	953.25
533.153	972.25
533.367	962.25
533.582	930.25
533.796	935.25
534.011	926.25
534.225	908.25
534.44	953.25
534.654	946.25
534.868	954.25
535.083	924.25
535.297	943.25
535.511	925.25
535.726	934.25
535.94	903.25
536.154	938.25
536.369	904.25
536.583	900.25
536.797	903.25
537.011	905.25
537.225	885.25
537.44	885.25
537.654	907.25
537.868	898.25
538.082	842.25
538.296	865.25
538.51	898.25
538.724	890.25
538.938	894.25
539.153	872.25
539.367	867.25
539.581	886.25
539.795	838.25
540.009	883.25
540.222	851.25
540.436	835.25
540.65	875.25
540.864	864.25
541.078	875.25
541.292	830.25
541.506	848.25
541.72	842.25
541.934	871.25
542.147	875.25
542.361	879.25
542.575	858.25
542.789	871.25
543.002	863.25
543.216	875.25
543.43	862.25
543.644	835.25
543.857	836.25
544.071	837.25
544.285	875.25
544.498	891.25
544.712	854.25
544.925	864.25
545.139	864.25
545.352	884.25
545.566	887.25
545.779	854.25
545.993	879.25
546.206	879.25
546.42	856.25
546.633	867.25
546.847	888.25
547.06	854.25
547.274	894.25
547.487	876.25
547.7	888.25
547.914	876.25
548.127	898.25
548.34	891.25
548.554	912.25
548.767	876.25
548.98	868.25
549.193	891.25
549.407	913.25
549.62	931.25
549.833	938.25
550.046	914.25
550.259	890.25
550.473	870.25
550.686	898.25
550.899	875.25
551.112	896.25
551.325	861.25
551.538	852.25
551.751	868.25
551.964	902.25
552.177	887.25
552.39	894.25
552.603	932.25
552.816	961.25
553.029	947.25
553.242	971.25
553.455	985.25
553.667	990.25
553.88	957.25
554.093	950.25
554.306	927.25
554.519	888.25
554.732	883.25
554.944	871.25
555.157	874.25
555.37	823.25
555.583	851.25
555.795	812.25
556.008	788.25
556.221	801.25
556.433	768.25
556.646	770.25
556.859	776.25
557.071	768.25
557.284	734.25
557.496	770.25
557.709	739.25
557.921	753.25
558.134	733.25
558.346	743.25
558.559	744.25
558.771	741.25
558.984	730.25
559.196	742.25
559.409	732.25
559.621	714.25
559.833	733.25
560.046	739.25
560.258	732.25
560.47	720.25
560.683	714.25
560.895	716.25
561.107	727.25
561.32	729.25
561.532	707.25
561.744	722.25
561.956	688.25
562.168	726.25
562.381	715.25
562.593	724.25
562.805	727.25
563.017	723.25
563.229	731.25
563.441	741.25
563.653	768.25
563.865	737.25
564.077	770.25
564.289	755.25
564.501	743.25
564.713	774.25
564.925	795.25
565.137	825.25
565.349	833.25
565.561	854.25
565.773	894.25
565.985	938.25
566.197	984.25
566.408	1079.25
566.62	1151.25
566.832	1200.25
567.044	1216.25
567.255	1235.25
567.467	1260.25
567.679	1345.25
567.891	1368.25
568.102	1386.25
568.314	1344.25
568.526	1238.25
568.737	1142.25
568.949	1041.25
569.161	936.25
569.372	922.25
569.584	851.25
569.795	808.25
570.007	810.25
570.218	779.25
570.43	768.25
570.641	759.25
570.853	754.25
571.064	770.25
571.276	763.25
571.487	741.25
571.698	704.25
571.91	694.25
572.121	667.25
572.333	666.25
572.544	649.25
572.755	632.25
572.966	635.25
573.178	630.25
573.389	585.25
573.6	600.25
573.811	593.25
574.023	594.25
574.234	606.25
574.445	601.25
574.656	583.25
574.867	607.25
575.078	593.25
575.289	580.25
575.501	588.25
575.712	570.25
575.923	562.25
576.134	569.25
576.345	577.25
576.556	582.25
576.767	559.25
576.978	549.25
577.188	563.25
577.399	562.25
577.61	552.25
577.821	538.25
578.032	539.25
578.243	535.25
578.454	545.25
578.665	511.25
578.875	532.25
579.086	522.25
579.297	516.25
579.508	544.25
579.718	514.25
579.929	526.25
580.14	521.25
580.35	520.25
580.561	526.25
580.772	498.25
580.982	511.25
581.193	483.25
581.403	491.25
581.614	520.25
581.825	504.25
582.035	515.25
582.246	483.25
582.456	499.25
582.667	508.25
582.877	503.25
583.087	492.25
583.298	494.25
583.508	494.25
583.719	474.25
583.929	491.25
584.139	487.25
584.35	472.25
584.56	482.25
584.77	491.25
584.981	481.25
585.191	501.25
585.401	484.25
585.611	484.25
585.821	461.25
586.032	482.25
586.242	474.25
586.452	475.25
586.662	461.25
586.872	478.25
587.082	480.25
587.292	478.25
587.502	472.25
587.713	481.25
587.923	465.25
588.133	452.25
588.343	481.25
588.553	471.25
588.762	464.25
588.972	488.25
589.182	486.25
589.392	486.25
589.602	485.25
589.812	495.25
590.022	475.25
590.232	479.25
590.441	485.25
590.651	495.25
590.861	500.25
591.071	495.25
591.281	512.25
591.49	508.25
591.7	515.25
591.91	505.25
592.119	527.25
592.329	557.25
592.539	545.25
592.748	552.25
592.958	586.25
593.167	580.25
593.377	594.25
593.587	591.25
593.796	616.25
594.006	630.25
594.215	602.25
594.424	603.25
594.634	592.25
594.843	590.25
595.053	556.25
595.262	560.25
595.472	514.25
595.681	504.25
595.89	502.25
596.1	500.25
596.309	486.25
596.518	470.25
596.727	463.25
596.937	458.25
597.146	447.25
597.355	420.25
597.564	442.25
597.774	419.25
597.983	432.25
598.192	426.25
598.401	439.25
598.61	426.25
598.819	398.25
599.028	421.25
599.237	396.25
599.446	402.25
599.655	414.25
599.864	415.25
600.073	419.25
600.282	395.25
600.491	396.25
600.7	401.25
600.909	388.25
601.118	392.25
601.327	388.25
601.536	360.25
601.745	394.25
601.953	383.25
602.162	390.25
602.371	406.25
602.58	379.25
602.789	387.25
602.997	397.25
603.206	398.25
603.415	373.25
603.623	379.25
603.832	396.25
604.041	380.25
604.249	367.25
604.458	373.25
604.666	350.25
604.875	366.25
605.084	371.25
605.292	368.25
605.501	348.25
605.709	376.25
605.918	345.25
606.126	392.25
606.334	372.25
606.543	370.25
606.751	369.25
606.96	356.25
607.168	380.25
607.376	356.25
607.585	366.25
607.793	352.25
608.001	351.25
608.21	331.25
608.418	356.25
608.626	350.25
608.834	363.25
609.043	357.25
609.251	359.25
609.459	353.25
609.667	371.25
609.875	369.25
610.083	347.25
610.291	343.25
610.499	341.25
610.707	355.25
610.916	357.25
611.124	339.25
611.332	335.25
611.54	343.25
611.748	330.25
611.955	361.25
612.163	338.25
612.371	329.25
612.579	334.25
612.787	347.25
612.995	336.25
613.203	336.25
613.411	325.25
613.618	331.25
613.826	343.25
614.034	338.25
614.242	344.25
614.449	325.25
614.657	335.25
614.865	325.25
615.072	327.25
615.28	344.25
615.488	330.25
615.695	341.25
615.903	328.25
616.111	343.25
616.318	327.25
616.526	344.25
616.733	328.25
616.941	314.25
617.148	339.25
617.356	324.25
617.563	341.25
617.771	336.25
617.978	319.25
618.185	332.25
618.393	333.25
618.6	318.25
618.807	335.25
619.015	338.25
619.222	320.25
619.429	322.25
619.637	311.25
619.844	320.25
620.051	327.25
620.258	322.25
620.466	326.25
620.673	333.25
620.88	321.25
621.087	318.25
621.294	312.25
621.501	330.25
621.708	317.25
621.915	307.25
622.122	303.25
622.329	307.25
622.536	306.25
622.743	289.25
622.95	304.25
623.157	286.25
623.364	304.25
623.571	313.25
623.778	310.25
623.985	295.25
624.192	319.25
624.399	305.25
624.606	288.25
624.812	294.25
625.019	306.25
625.226	270.25
625.433	290.25
625.639	289.25
625.846	275.25
626.053	276.25
626.259	300.25
626.466	278.25
626.673	290.25
626.879	266.25
627.086	279.25
627.293	282.25
627.499	284.25
627.706	275.25
627.912	275.25
628.119	286.25
628.325	281.25
628.532	281.25
628.738	253.25
628.945	271.25
629.151	274.25
629.357	272.25
629.564	277.25
629.77	262.25
629.976	260.25
630.183	249.25
630.389	246.25
630.595	262.25
630.802	253.25
631.008	246.25
631.214	271.25
631.42	255.25
631.627	260.25
631.833	261.25
632.039	260.25
632.245	273.25
632.451	250.25
632.657	236.25
632.863	272.25
633.069	244.25
633.275	264.25
633.481	234.25
633.688	258.25
633.893	252.25
634.099	259.25
634.305	236.25
634.511	246.25
634.717	247.25
634.923	260.25
635.129	245.25
635.335	234.25
635.541	243.25
635.747	243.25
635.952	244.25
636.158	236.25
636.364	231.25
636.57	242.25
636.775	246.25
636.981	245.25
637.187	235.25
637.392	237.25
637.598	246.25
637.804	252.25
638.009	247.25
638.215	221.25
638.421	232.25
638.626	211.25
638.832	224.25
639.037	205.25
639.243	224.25
639.448	222.25
639.654	235.25
639.859	219.25
640.065	223.25
640.27	227.25
640.475	217.25
640.681	224.25
640.886	214.25
641.091	209.25
641.297	230.25
641.502	212.25
641.707	223.25
641.913	222.25
642.118	231.25
642.323	217.25
642.528	210.25
642.733	224.25
642.939	220.25
643.144	221.25
643.349	204.25
643.554	215.25
643.759	219.25
643.964	212.25
644.169	202.25
644.374	225.25
644.579	207.25
644.784	208.25
644.989	204.25
645.194	204.25
645.399	210.25
645.604	205.25
645.809	214.25
646.014	213.25
646.219	219.25
646.423	203.25
646.628	212.25
646.833	214.25
647.038	220.25
647.243	204.25
647.447	227.25
647.652	212.25
647.857	218.25
648.062	227.25
648.266	206.25
648.471	228.25
648.676	214.25
648.88	214.25
649.085	225.25
649.289	214.25
649.494	212.25
649.698	216.25
649.903	189.25
650.107	198.25
650.312	209.25
650.516	198.25
650.721	185.25
650.925	165.25
651.13	191.25
651.334	184.25
651.539	186.25
651.743	182.25
651.947	184.25
652.152	182.25
652.356	178.25
652.56	171.25
652.764	156.25
652.969	147.25
653.173	163.25
653.377	165.25
653.581	167.25
653.785	168.25
653.99	153.25
654.194	149.25
654.398	145.25
654.602	161.25
654.806	151.25
655.01	138.25
655.214	151.25
655.418	147.25
655.622	134.25
655.826	146.25
656.03	141.25
656.234	138.25
656.438	122.25
656.642	132.25
656.846	130.25
657.049	120.25
657.253	126.25
657.457	138.25
657.661	124.25
657.865	119.25
658.068	120.25
658.272	129.25
658.476	122.25
658.68	102.25
658.883	97.25
659.087	96.25
659.291	91.25
659.494	103.25
659.698	87.25
659.901	104.25
660.105	88.25
660.309	99.25
660.512	103.25
660.716	96.25
660.919	110.25
661.123	97.25
661.326	87.25
661.53	96.25
661.733	88.25
661.936	83.25
662.14	77.25
662.343	79.25
662.546	88.25
662.75	89.25
662.953	91.25
663.156	82.25
663.36	72.25
663.563	79.25
663.766	84.25
663.969	83.25
664.173	87.25
664.376	87.25
664.579	90.25
664.782	105.25
664.985	74.25
665.188	70.25
665.391	77.25
665.594	86.25
665.797	88.25
666	95.25
666.203	73.25
666.406	92.25
666.609	81.25
666.812	75.25
667.015	83.25
667.218	81.25
667.421	82.25
667.624	86.25
667.827	74.25
668.03	83.25
668.232	87.25
668.435	80.25
668.638	64.25
668.841	64.25
669.043	74.25
669.246	93.25
669.449	89.25
669.651	77.25
669.854	71.25
670.057	87.25
670.259	84.25
670.462	72.25
670.665	82.25
670.867	67.25
671.07	68.25
671.272	79.25
671.475	76.25
671.677	82.25
671.88	83.25
672.082	62.25
672.284	80.25
672.487	86.25
672.689	68.25
672.892	74.25
