Data from NiCl2@0.0625M.TitratingCurve.Agarose3%dH2O.NegLispCup.LampEnergy10.LIBS07252019_HRD10591_18-35-34-576.txt Node
Date: Thu Jul 25 18:35:34 EDT 2019
User: cochatt
Spectrometer: HR+D1059
Trigger mode: 1
Integration Time (sec): 1.000000E-1
Scans to average: 1
Electric dark correction enabled: true
Nonlinearity correction enabled: false
Boxcar width: 0
XAxis mode: Wavelengths
Number of Pixels in Spectrum: 2048
>>>>>Begin Spectral Data<<<<<
223.165	-20.5
223.4	-20.5
223.635	-20.5
223.869	-7.5
224.104	-17.5
224.338	-20.5
224.573	-7.5
224.808	-11.5
225.042	-6.5
225.277	-7.5
225.511	-10.5
225.746	8.5
225.98	-3.5
226.215	16.5
226.449	17.5
226.683	23.5
226.918	26.5
227.152	20.5
227.387	23.5
227.621	9.5
227.856	29.5
228.09	32.5
228.324	55.5
228.559	48.5
228.793	87.5
229.027	129.5
229.262	160.5
229.496	134.5
229.73	146.5
229.964	140.5
230.199	164.5
230.433	169.5
230.667	176.5
230.901	165.5
231.136	169.5
231.37	170.5
231.604	176.5
231.838	180.5
232.072	186.5
232.306	192.5
232.541	187.5
232.775	181.5
233.009	182.5
233.243	180.5
233.477	194.5
233.711	200.5
233.945	210.5
234.179	201.5
234.413	202.5
234.647	193.5
234.881	216.5
235.115	196.5
235.349	183.5
235.583	194.5
235.817	197.5
236.051	214.5
236.285	212.5
236.519	207.5
236.753	202.5
236.987	214.5
237.221	204.5
237.455	213.5
237.689	215.5
237.922	242.5
238.156	223.5
238.39	249.5
238.624	229.5
238.858	225.5
239.091	225.5
239.325	244.5
239.559	252.5
239.793	234.5
240.027	250.5
240.26	249.5
240.494	245.5
240.728	251.5
240.961	258.5
241.195	278.5
241.429	262.5
241.662	260.5
241.896	276.5
242.13	279.5
242.363	266.5
242.597	273.5
242.83	274.5
243.064	278.5
243.298	290.5
243.531	310.5
243.765	272.5
243.998	303.5
244.232	288.5
244.465	299.5
244.699	289.5
244.932	316.5
245.166	312.5
245.399	315.5
245.633	315.5
245.866	313.5
246.099	312.5
246.333	304.5
246.566	320.5
246.8	328.5
247.033	327.5
247.266	319.5
247.5	320.5
247.733	326.5
247.966	322.5
248.2	342.5
248.433	351.5
248.666	338.5
248.899	343.5
249.133	350.5
249.366	351.5
249.599	376.5
249.832	352.5
250.066	372.5
250.299	371.5
250.532	359.5
250.765	378.5
250.998	367.5
251.231	373.5
251.465	399.5
251.698	395.5
251.931	371.5
252.164	390.5
252.397	410.5
252.63	403.5
252.863	387.5
253.096	406.5
253.329	395.5
253.562	403.5
253.795	396.5
254.028	401.5
254.261	398.5
254.494	404.5
254.727	412.5
254.96	403.5
255.193	407.5
255.426	431.5
255.659	435.5
255.892	414.5
256.124	443.5
256.357	440.5
256.59	421.5
256.823	428.5
257.056	456.5
257.289	438.5
257.521	442.5
257.754	436.5
257.987	455.5
258.22	434.5
258.452	458.5
258.685	460.5
258.918	445.5
259.151	466.5
259.383	455.5
259.616	468.5
259.849	462.5
260.081	492.5
260.314	478.5
260.547	475.5
260.779	461.5
261.012	483.5
261.244	479.5
261.477	495.5
261.71	496.5
261.942	492.5
262.175	495.5
262.407	516.5
262.64	487.5
262.872	507.5
263.105	515.5
263.337	478.5
263.57	496.5
263.802	506.5
264.035	515.5
264.267	497.5
264.499	515.5
264.732	498.5
264.964	504.5
265.197	522.5
265.429	538.5
265.661	538.5
265.894	530.5
266.126	524.5
266.358	536.5
266.591	532.5
266.823	553.5
267.055	551.5
267.287	540.5
267.52	546.5
267.752	547.5
267.984	565.5
268.216	561.5
268.448	544.5
268.681	548.5
268.913	565.5
269.145	583.5
269.377	577.5
269.609	579.5
269.841	569.5
270.073	593.5
270.306	597.5
270.538	551.5
270.77	566.5
271.002	572.5
271.234	584.5
271.466	584.5
271.698	589.5
271.93	602.5
272.162	595.5
272.394	593.5
272.626	602.5
272.858	604.5
273.09	630.5
273.322	606.5
273.553	617.5
273.785	617.5
274.017	628.5
274.249	628.5
274.481	627.5
274.713	605.5
274.945	637.5
275.176	661.5
275.408	657.5
275.64	638.5
275.872	645.5
276.104	638.5
276.335	617.5
276.567	636.5
276.799	664.5
277.031	669.5
277.262	688.5
277.494	652.5
277.726	661.5
277.957	632.5
278.189	681.5
278.421	640.5
278.652	678.5
278.884	678.5
279.115	675.5
279.347	674.5
279.579	679.5
279.81	686.5
280.042	689.5
280.273	697.5
280.505	676.5
280.736	720.5
280.968	731.5
281.199	726.5
281.431	719.5
281.662	694.5
281.894	725.5
282.125	736.5
282.356	695.5
282.588	722.5
282.819	735.5
283.051	730.5
283.282	740.5
283.513	747.5
283.745	756.5
283.976	764.5
284.207	730.5
284.439	747.5
284.67	750.5
284.901	762.5
285.132	778.5
285.364	772.5
285.595	760.5
285.826	744.5
286.057	766.5
286.288	774.5
286.52	771.5
286.751	757.5
286.982	766.5
287.213	782.5
287.444	780.5
287.675	798.5
287.906	797.5
288.138	799.5
288.369	813.5
288.6	790.5
288.831	802.5
289.062	793.5
289.293	779.5
289.524	788.5
289.755	803.5
289.986	814.5
290.217	824.5
290.448	780.5
290.679	780.5
290.91	806.5
291.141	799.5
291.371	808.5
291.602	808.5
291.833	804.5
292.064	834.5
292.295	803.5
292.526	821.5
292.757	792.5
292.987	816.5
293.218	804.5
293.449	811.5
293.68	804.5
293.91	822.5
294.141	828.5
294.372	824.5
294.603	806.5
294.833	816.5
295.064	825.5
295.295	830.5
295.525	812.5
295.756	810.5
295.987	845.5
296.217	822.5
296.448	847.5
296.679	843.5
296.909	843.5
297.14	840.5
297.37	863.5
297.601	865.5
297.831	860.5
298.062	887.5
298.292	881.5
298.523	894.5
298.753	891.5
298.984	881.5
299.214	871.5
299.445	873.5
299.675	844.5
299.905	864.5
300.136	865.5
300.366	866.5
300.597	904.5
300.827	896.5
301.057	897.5
301.288	901.5
301.518	907.5
301.748	932.5
301.979	945.5
302.209	958.5
302.439	932.5
302.669	939.5
302.9	935.5
303.13	908.5
303.36	928.5
303.59	925.5
303.82	936.5
304.051	949.5
304.281	926.5
304.511	930.5
304.741	925.5
304.971	927.5
305.201	954.5
305.431	951.5
305.661	940.5
305.891	948.5
306.121	935.5
306.352	900.5
306.582	910.5
306.812	909.5
307.042	936.5
307.272	943.5
307.502	930.5
307.731	878.5
307.961	909.5
308.191	910.5
308.421	901.5
308.651	929.5
308.881	884.5
309.111	910.5
309.341	919.5
309.571	928.5
309.8	928.5
310.03	929.5
310.26	910.5
310.49	920.5
310.72	902.5
310.949	918.5
311.179	938.5
311.409	884.5
311.639	933.5
311.868	956.5
312.098	930.5
312.328	942.5
312.557	984.5
312.787	975.5
313.017	960.5
313.246	952.5
313.476	968.5
313.706	1025.5
313.935	992.5
314.165	955.5
314.394	989.5
314.624	1004.5
314.853	968.5
315.083	977.5
315.312	980.5
315.542	973.5
315.771	986.5
316.001	962.5
316.23	975.5
316.46	992.5
316.689	985.5
316.919	981.5
317.148	976.5
317.377	1003.5
317.607	997.5
317.836	971.5
318.065	990.5
318.295	993.5
318.524	1008.5
318.753	972.5
318.983	964.5
319.212	963.5
319.441	970.5
319.67	985.5
319.9	968.5
320.129	1014.5
320.358	951.5
320.587	951.5
320.816	969.5
321.046	966.5
321.275	992.5
321.504	979.5
321.733	970.5
321.962	991.5
322.191	1004.5
322.42	969.5
322.649	991.5
322.878	1012.5
323.108	1000.5
323.337	982.5
323.566	998.5
323.795	1003.5
324.024	1014.5
324.253	1020.5
324.482	1019.5
324.71	1020.5
324.939	1040.5
325.168	1034.5
325.397	1030.5
325.626	1042.5
325.855	1054.5
326.084	1054.5
326.313	1063.5
326.542	1056.5
326.77	1113.5
326.999	1054.5
327.228	1080.5
327.457	1091.5
327.686	1047.5
327.914	1058.5
328.143	1067.5
328.372	1050.5
328.6	1048.5
328.829	1092.5
329.058	1044.5
329.287	1078.5
329.515	1095.5
329.744	1111.5
329.972	1111.5
330.201	1108.5
330.43	1094.5
330.658	1084.5
330.887	1103.5
331.115	1131.5
331.344	1134.5
331.572	1146.5
331.801	1147.5
332.03	1176.5
332.258	1141.5
332.486	1183.5
332.715	1214.5
332.943	1275.5
333.172	1261.5
333.4	1284.5
333.629	1346.5
333.857	1348.5
334.085	1382.5
334.314	1371.5
334.542	1353.5
334.771	1348.5
334.999	1363.5
335.227	1322.5
335.455	1312.5
335.684	1347.5
335.912	1326.5
336.14	1288.5
336.369	1277.5
336.597	1291.5
336.825	1247.5
337.053	1266.5
337.281	1257.5
337.51	1241.5
337.738	1218.5
337.966	1175.5
338.194	1198.5
338.422	1164.5
338.65	1161.5
338.878	1160.5
339.106	1160.5
339.334	1136.5
339.562	1167.5
339.79	1146.5
340.018	1152.5
340.246	1111.5
340.474	1146.5
340.702	1126.5
340.93	1138.5
341.158	1126.5
341.386	1146.5
341.614	1116.5
341.842	1145.5
342.07	1105.5
342.298	1148.5
342.526	1115.5
342.754	1122.5
342.981	1119.5
343.209	1174.5
343.437	1196.5
343.665	1265.5
343.893	1306.5
344.12	1332.5
344.348	1282.5
344.576	1269.5
344.804	1237.5
345.031	1186.5
345.259	1146.5
345.487	1139.5
345.714	1105.5
345.942	1120.5
346.17	1113.5
346.397	1092.5
346.625	1081.5
346.853	1063.5
347.08	1089.5
347.308	1059.5
347.535	1075.5
347.763	1102.5
347.99	1061.5
348.218	1071.5
348.445	1075.5
348.673	1068.5
348.9	1085.5
349.128	1077.5
349.355	1058.5
349.583	1084.5
349.81	1064.5
350.037	1046.5
350.265	1047.5
350.492	1037.5
350.72	1050.5
350.947	1023.5
351.174	1057.5
351.402	1043.5
351.629	1042.5
351.856	1025.5
352.083	1009.5
352.311	1029.5
352.538	1032.5
352.765	1049.5
352.992	1050.5
353.22	1037.5
353.447	1042.5
353.674	1019.5
353.901	1023.5
354.128	1028.5
354.355	1035.5
354.583	1041.5
354.81	1022.5
355.037	1038.5
355.264	1033.5
355.491	1056.5
355.718	1050.5
355.945	1042.5
356.172	1043.5
356.399	1004.5
356.626	1035.5
356.853	1047.5
357.08	1019.5
357.307	1033.5
357.534	1026.5
357.761	1041.5
357.988	1047.5
358.215	1038.5
358.441	1028.5
358.668	1038.5
358.895	1043.5
359.122	1046.5
359.349	1025.5
359.576	1058.5
359.802	1048.5
360.029	1060.5
360.256	1036.5
360.483	1029.5
360.709	1040.5
360.936	1040.5
361.163	1024.5
361.39	1030.5
361.616	1046.5
361.843	1023.5
362.07	1050.5
362.296	1026.5
362.523	1032.5
362.749	1042.5
362.976	1061.5
363.203	1061.5
363.429	1030.5
363.656	1024.5
363.882	1010.5
364.109	1036.5
364.335	1049.5
364.562	1041.5
364.788	1033.5
365.015	1026.5
365.241	1038.5
365.468	1027.5
365.694	1035.5
365.92	1031.5
366.147	1053.5
366.373	1061.5
366.599	1030.5
366.826	1027.5
367.052	1042.5
367.278	1067.5
367.505	1057.5
367.731	1028.5
367.957	1063.5
368.184	1070.5
368.41	1056.5
368.636	1080.5
368.862	1067.5
369.089	1094.5
369.315	1076.5
369.541	1091.5
369.767	1082.5
369.993	1072.5
370.219	1070.5
370.445	1105.5
370.672	1118.5
370.898	1087.5
371.124	1114.5
371.35	1100.5
371.576	1109.5
371.802	1147.5
372.028	1135.5
372.254	1111.5
372.48	1148.5
372.706	1132.5
372.932	1152.5
373.158	1160.5
373.384	1173.5
373.61	1181.5
373.835	1139.5
374.061	1137.5
374.287	1164.5
374.513	1138.5
374.739	1196.5
374.965	1231.5
375.191	1232.5
375.416	1222.5
375.642	1214.5
375.868	1203.5
376.094	1175.5
376.319	1139.5
376.545	1137.5
376.771	1167.5
376.997	1158.5
377.222	1128.5
377.448	1146.5
377.674	1121.5
377.899	1123.5
378.125	1146.5
378.35	1138.5
378.576	1107.5
378.802	1076.5
379.027	1132.5
379.253	1141.5
379.478	1106.5
379.704	1106.5
379.929	1120.5
380.155	1122.5
380.38	1134.5
380.606	1117.5
380.831	1123.5
381.057	1108.5
381.282	1133.5
381.507	1119.5
381.733	1136.5
381.958	1152.5
382.184	1142.5
382.409	1158.5
382.634	1155.5
382.86	1179.5
383.085	1153.5
383.31	1186.5
383.535	1234.5
383.761	1206.5
383.986	1242.5
384.211	1269.5
384.436	1287.5
384.662	1278.5
384.887	1304.5
385.112	1303.5
385.337	1347.5
385.562	1345.5
385.787	1320.5
386.013	1364.5
386.238	1321.5
386.463	1312.5
386.688	1329.5
386.913	1315.5
387.138	1338.5
387.363	1343.5
387.588	1343.5
387.813	1345.5
388.038	1316.5
388.263	1322.5
388.488	1351.5
388.713	1333.5
388.938	1328.5
389.163	1342.5
389.387	1327.5
389.612	1327.5
389.837	1344.5
390.062	1323.5
390.287	1310.5
390.512	1318.5
390.736	1362.5
390.961	1363.5
391.186	1382.5
391.411	1394.5
391.636	1424.5
391.86	1476.5
392.085	1516.5
392.31	1443.5
392.534	1454.5
392.759	1421.5
392.984	1446.5
393.208	1394.5
393.433	1383.5
393.658	1376.5
393.882	1401.5
394.107	1393.5
394.331	1427.5
394.556	1426.5
394.78	1432.5
395.005	1466.5
395.229	1432.5
395.454	1462.5
395.678	1490.5
395.903	1469.5
396.127	1456.5
396.352	1444.5
396.576	1433.5
396.801	1442.5
397.025	1453.5
397.249	1456.5
397.474	1486.5
397.698	1522.5
397.922	1513.5
398.147	1496.5
398.371	1550.5
398.595	1591.5
398.82	1668.5
399.044	1784.5
399.268	1875.5
399.492	2081.5
399.717	2216.5
399.941	2324.5
400.165	2136.5
400.389	1954.5
400.613	1801.5
400.837	1739.5
401.062	1711.5
401.286	1708.5
401.51	1658.5
401.734	1641.5
401.958	1667.5
402.182	1644.5
402.406	1680.5
402.63	1706.5
402.854	1688.5
403.078	1730.5
403.302	1748.5
403.526	1740.5
403.75	1800.5
403.974	1796.5
404.198	1810.5
404.422	1802.5
404.645	1764.5
404.869	1770.5
405.093	1809.5
405.317	1817.5
405.541	1829.5
405.765	1774.5
405.988	1739.5
406.212	1817.5
406.436	1829.5
406.66	1850.5
406.883	1859.5
407.107	1970.5
407.331	2004.5
407.555	2070.5
407.778	2085.5
408.002	2089.5
408.226	2009.5
408.449	2036.5
408.673	1892.5
408.896	1859.5
409.12	1820.5
409.344	1850.5
409.567	1819.5
409.791	1848.5
410.014	1814.5
410.238	1786.5
410.461	1806.5
410.685	1800.5
410.908	1786.5
411.132	1747.5
411.355	1720.5
411.578	1732.5
411.802	1758.5
412.025	1738.5
412.249	1777.5
412.472	1741.5
412.695	1692.5
412.919	1665.5
413.142	1685.5
413.365	1667.5
413.589	1710.5
413.812	1656.5
414.035	1653.5
414.258	1671.5
414.482	1626.5
414.705	1637.5
414.928	1658.5
415.151	1712.5
415.374	1640.5
415.597	1639.5
415.821	1602.5
416.044	1589.5
416.267	1562.5
416.49	1590.5
416.713	1550.5
416.936	1603.5
417.159	1570.5
417.382	1586.5
417.605	1571.5
417.828	1566.5
418.051	1600.5
418.274	1622.5
418.497	1582.5
418.72	1608.5
418.943	1635.5
419.166	1763.5
419.389	1810.5
419.611	1809.5
419.834	1719.5
420.057	1671.5
420.28	1607.5
420.503	1599.5
420.726	1593.5
420.948	1625.5
421.171	1573.5
421.394	1599.5
421.617	1553.5
421.839	1554.5
422.062	1575.5
422.285	1600.5
422.507	1617.5
422.73	1579.5
422.953	1606.5
423.175	1633.5
423.398	1642.5
423.621	1594.5
423.843	1648.5
424.066	1671.5
424.288	1665.5
424.511	1643.5
424.733	1632.5
424.956	1623.5
425.178	1609.5
425.401	1578.5
425.623	1613.5
425.846	1562.5
426.068	1576.5
426.291	1539.5
426.513	1514.5
426.735	1536.5
426.958	1542.5
427.18	1494.5
427.402	1486.5
427.625	1504.5
427.847	1485.5
428.069	1428.5
428.292	1507.5
428.514	1466.5
428.736	1449.5
428.958	1507.5
429.181	1420.5
429.403	1425.5
429.625	1433.5
429.847	1413.5
430.069	1426.5
430.292	1460.5
430.514	1439.5
430.736	1434.5
430.958	1451.5
431.18	1443.5
431.402	1451.5
431.624	1447.5
431.846	1439.5
432.068	1487.5
432.29	1522.5
432.512	1467.5
432.734	1476.5
432.956	1466.5
433.178	1483.5
433.4	1471.5
433.622	1500.5
433.844	1522.5
434.066	1510.5
434.287	1536.5
434.509	1592.5
434.731	1606.5
434.953	1650.5
435.175	1642.5
435.397	1666.5
435.618	1537.5
435.84	1526.5
436.062	1475.5
436.284	1457.5
436.505	1445.5
436.727	1516.5
436.949	1461.5
437.17	1425.5
437.392	1415.5
437.614	1411.5
437.835	1394.5
438.057	1412.5
438.278	1396.5
438.5	1403.5
438.721	1400.5
438.943	1423.5
439.165	1409.5
439.386	1412.5
439.608	1436.5
439.829	1447.5
440.05	1405.5
440.272	1416.5
440.493	1455.5
440.715	1446.5
440.936	1466.5
441.158	1492.5
441.379	1541.5
441.6	1556.5
441.822	1629.5
442.043	1601.5
442.264	1549.5
442.486	1539.5
442.707	1552.5
442.928	1539.5
443.149	1558.5
443.371	1539.5
443.592	1554.5
443.813	1567.5
444.034	1627.5
444.255	1618.5
444.476	1700.5
444.698	1755.5
444.919	1742.5
445.14	1863.5
445.361	1713.5
445.582	1606.5
445.803	1561.5
446.024	1553.5
446.245	1493.5
446.466	1465.5
446.687	1418.5
446.908	1458.5
447.129	1436.5
447.35	1398.5
447.571	1389.5
447.792	1365.5
448.013	1377.5
448.234	1328.5
448.455	1310.5
448.675	1279.5
448.896	1338.5
449.117	1310.5
449.338	1308.5
449.559	1293.5
449.779	1281.5
450	1299.5
450.221	1280.5
450.442	1280.5
450.662	1287.5
450.883	1314.5
451.104	1315.5
451.324	1335.5
451.545	1286.5
451.766	1310.5
451.986	1291.5
452.207	1322.5
452.428	1286.5
452.648	1284.5
452.869	1248.5
453.089	1223.5
453.31	1294.5
453.53	1239.5
453.751	1259.5
453.971	1266.5
454.192	1268.5
454.412	1223.5
454.633	1232.5
454.853	1236.5
455.073	1192.5
455.294	1249.5
455.514	1220.5
455.734	1227.5
455.955	1214.5
456.175	1191.5
456.395	1202.5
456.616	1219.5
456.836	1249.5
457.056	1198.5
457.276	1198.5
457.497	1274.5
457.717	1235.5
457.937	1234.5
458.157	1245.5
458.377	1248.5
458.598	1301.5
458.818	1352.5
459.038	1382.5
459.258	1376.5
459.478	1414.5
459.698	1468.5
459.918	1490.5
460.138	1533.5
460.358	1599.5
460.578	1584.5
460.798	1640.5
461.018	1637.5
461.238	1636.5
461.458	1642.5
461.678	1615.5
461.898	1678.5
462.118	1668.5
462.338	1714.5
462.558	1776.5
462.777	1850.5
462.997	1936.5
463.217	2042.5
463.437	2043.5
463.657	1924.5
463.876	1895.5
464.096	1868.5
464.316	1894.5
464.536	1886.5
464.755	1822.5
464.975	1778.5
465.195	1684.5
465.414	1609.5
465.634	1530.5
465.854	1489.5
466.073	1464.5
466.293	1449.5
466.512	1440.5
466.732	1396.5
466.951	1402.5
467.171	1397.5
467.391	1373.5
467.61	1355.5
467.829	1328.5
468.049	1383.5
468.268	1335.5
468.488	1342.5
468.707	1307.5
468.927	1321.5
469.146	1328.5
469.365	1337.5
469.585	1342.5
469.804	1383.5
470.023	1418.5
470.243	1390.5
470.462	1398.5
470.681	1394.5
470.901	1406.5
471.12	1395.5
471.339	1367.5
471.558	1393.5
471.777	1370.5
471.997	1318.5
472.216	1354.5
472.435	1298.5
472.654	1317.5
472.873	1323.5
473.092	1314.5
473.311	1330.5
473.53	1306.5
473.749	1323.5
473.968	1321.5
474.187	1298.5
474.406	1284.5
474.625	1305.5
474.844	1281.5
475.063	1343.5
475.282	1357.5
475.501	1334.5
475.72	1308.5
475.939	1357.5
476.158	1371.5
476.377	1347.5
476.596	1346.5
476.814	1397.5
477.033	1392.5
477.252	1433.5
477.471	1450.5
477.69	1498.5
477.908	1475.5
478.127	1548.5
478.346	1556.5
478.564	1574.5
478.783	1628.5
479.002	1639.5
479.22	1656.5
479.439	1641.5
479.658	1637.5
479.876	1650.5
480.095	1642.5
480.313	1736.5
480.532	1732.5
480.751	1726.5
480.969	1691.5
481.188	1705.5
481.406	1633.5
481.624	1624.5
481.843	1604.5
482.061	1597.5
482.28	1574.5
482.498	1590.5
482.717	1563.5
482.935	1606.5
483.153	1610.5
483.372	1609.5
483.59	1627.5
483.808	1590.5
484.027	1622.5
484.245	1668.5
484.463	1654.5
484.681	1684.5
484.9	1742.5
485.118	1703.5
485.336	1728.5
485.554	1758.5
485.772	1750.5
485.99	1743.5
486.209	1762.5
486.427	1734.5
486.645	1738.5
486.863	1756.5
487.081	1719.5
487.299	1728.5
487.517	1712.5
487.735	1720.5
487.953	1706.5
488.171	1680.5
488.389	1703.5
488.607	1690.5
488.825	1684.5
489.043	1656.5
489.261	1655.5
489.479	1685.5
489.696	1660.5
489.914	1672.5
490.132	1683.5
490.35	1667.5
490.568	1627.5
490.786	1651.5
491.003	1670.5
491.221	1666.5
491.439	1641.5
491.657	1650.5
491.874	1684.5
492.092	1618.5
492.31	1632.5
492.527	1675.5
492.745	1680.5
492.963	1651.5
493.18	1653.5
493.398	1682.5
493.615	1674.5
493.833	1672.5
494.05	1652.5
494.268	1647.5
494.485	1684.5
494.703	1706.5
494.92	1704.5
495.138	1670.5
495.355	1699.5
495.573	1677.5
495.79	1730.5
496.008	1732.5
496.225	1740.5
496.442	1708.5
496.66	1759.5
496.877	1791.5
497.094	1782.5
497.312	1790.5
497.529	1845.5
497.746	1904.5
497.963	1946.5
498.181	2018.5
498.398	2115.5
498.615	2247.5
498.832	2348.5
499.049	2468.5
499.267	2676.5
499.484	2895.5
499.701	3076.5
499.918	3307.5
500.135	3640.5
500.352	3966.5
500.569	4096.5
500.786	4047.5
501.003	3928.5
501.22	3606.5
501.437	3294.5
501.654	3022.5
501.871	2815.5
502.088	2604.5
502.305	2415.5
502.522	2342.5
502.739	2294.5
502.956	2125.5
503.172	2051.5
503.389	1983.5
503.606	1920.5
503.823	1874.5
504.04	1854.5
504.256	1881.5
504.473	1852.5
504.69	1914.5
504.907	1818.5
505.123	1774.5
505.34	1717.5
505.557	1630.5
505.773	1650.5
505.99	1571.5
506.207	1515.5
506.423	1521.5
506.64	1502.5
506.856	1489.5
507.073	1468.5
507.289	1475.5
507.506	1436.5
507.722	1432.5
507.939	1448.5
508.155	1421.5
508.372	1420.5
508.588	1379.5
508.805	1390.5
509.021	1374.5
509.238	1357.5
509.454	1337.5
509.67	1339.5
509.887	1350.5
510.103	1344.5
510.319	1318.5
510.536	1330.5
510.752	1292.5
510.968	1332.5
511.184	1351.5
511.401	1319.5
511.617	1306.5
511.833	1359.5
512.049	1265.5
512.265	1276.5
512.481	1318.5
512.698	1304.5
512.914	1296.5
513.13	1318.5
513.346	1306.5
513.562	1328.5
513.778	1311.5
513.994	1342.5
514.21	1319.5
514.426	1317.5
514.642	1307.5
514.858	1329.5
515.074	1336.5
515.29	1340.5
515.506	1346.5
515.721	1414.5
515.937	1391.5
516.153	1440.5
516.369	1438.5
516.585	1476.5
516.801	1498.5
517.016	1558.5
517.232	1600.5
517.448	1637.5
517.664	1673.5
517.879	1740.5
518.095	1710.5
518.311	1691.5
518.527	1627.5
518.742	1546.5
518.958	1525.5
519.173	1486.5
519.389	1442.5
519.605	1386.5
519.82	1366.5
520.036	1375.5
520.251	1334.5
520.467	1338.5
520.682	1318.5
520.898	1285.5
521.113	1286.5
521.329	1260.5
521.544	1251.5
521.76	1282.5
521.975	1254.5
522.19	1234.5
522.406	1223.5
522.621	1228.5
522.836	1237.5
523.052	1206.5
523.267	1190.5
523.482	1195.5
523.698	1181.5
523.913	1200.5
524.128	1215.5
524.343	1209.5
524.559	1206.5
524.774	1186.5
524.989	1184.5
525.204	1178.5
525.419	1167.5
525.634	1171.5
525.849	1156.5
526.064	1199.5
526.28	1172.5
526.495	1178.5
526.71	1161.5
526.925	1159.5
527.14	1137.5
527.355	1139.5
527.57	1152.5
527.785	1151.5
527.999	1150.5
528.214	1152.5
528.429	1138.5
528.644	1146.5
528.859	1143.5
529.074	1128.5
529.289	1142.5
529.503	1145.5
529.718	1167.5
529.933	1134.5
530.148	1131.5
530.363	1122.5
530.577	1136.5
530.792	1146.5
531.007	1156.5
531.221	1145.5
531.436	1160.5
531.651	1153.5
531.865	1139.5
532.08	1109.5
532.295	1160.5
532.509	1160.5
532.724	1143.5
532.938	1122.5
533.153	1127.5
533.367	1126.5
533.582	1138.5
533.796	1135.5
534.011	1113.5
534.225	1111.5
534.44	1135.5
534.654	1079.5
534.868	1102.5
535.083	1123.5
535.297	1059.5
535.511	1107.5
535.726	1104.5
535.94	1063.5
536.154	1075.5
536.369	1071.5
536.583	1064.5
536.797	1062.5
537.011	1087.5
537.225	1051.5
537.44	1043.5
537.654	1059.5
537.868	1027.5
538.082	1021.5
538.296	1034.5
538.51	1027.5
538.724	1053.5
538.938	1001.5
539.153	1028.5
539.367	1024.5
539.581	1044.5
539.795	1014.5
540.009	1028.5
540.222	1049.5
540.436	1042.5
540.65	1013.5
540.864	1015.5
541.078	1000.5
541.292	1058.5
541.506	999.5
541.72	1017.5
541.934	1022.5
542.147	1042.5
542.361	1019.5
542.575	996.5
542.789	1009.5
543.002	990.5
543.216	991.5
543.43	985.5
543.644	1024.5
543.857	968.5
544.071	996.5
544.285	1011.5
544.498	991.5
544.712	1016.5
544.925	1048.5
545.139	1017.5
545.352	1007.5
545.566	1020.5
545.779	1013.5
545.993	1023.5
546.206	1019.5
546.42	1001.5
546.633	997.5
546.847	1035.5
547.06	1023.5
547.274	1019.5
547.487	1015.5
547.7	1050.5
547.914	1022.5
548.127	1023.5
548.34	1030.5
548.554	1034.5
548.767	1050.5
548.98	1038.5
549.193	1051.5
549.407	1019.5
549.62	1026.5
549.833	1049.5
550.046	1054.5
550.259	1030.5
550.473	996.5
550.686	985.5
550.899	1051.5
551.112	988.5
551.325	1018.5
551.538	971.5
551.751	1017.5
551.964	1010.5
552.177	1003.5
552.39	1034.5
552.603	1058.5
552.816	1094.5
553.029	1068.5
553.242	1100.5
553.455	1098.5
553.667	1075.5
553.88	1092.5
554.093	1052.5
554.306	1010.5
554.519	1029.5
554.732	1010.5
554.944	1022.5
555.157	948.5
555.37	972.5
555.583	961.5
555.795	940.5
556.008	918.5
556.221	922.5
556.433	922.5
556.646	892.5
556.859	886.5
557.071	907.5
557.284	872.5
557.496	887.5
557.709	880.5
557.921	867.5
558.134	864.5
558.346	861.5
558.559	883.5
558.771	860.5
558.984	870.5
559.196	863.5
559.409	853.5
559.621	865.5
559.833	845.5
560.046	882.5
560.258	852.5
560.47	843.5
560.683	856.5
560.895	856.5
561.107	815.5
561.32	834.5
561.532	826.5
561.744	846.5
561.956	827.5
562.168	842.5
562.381	850.5
562.593	821.5
562.805	826.5
563.017	869.5
563.229	872.5
563.441	850.5
563.653	866.5
563.865	894.5
564.077	895.5
564.289	888.5
564.501	886.5
564.713	886.5
564.925	935.5
565.137	930.5
565.349	906.5
565.561	983.5
565.773	991.5
565.985	1052.5
566.197	1103.5
566.408	1139.5
566.62	1182.5
566.832	1252.5
567.044	1290.5
567.255	1304.5
567.467	1319.5
567.679	1387.5
567.891	1444.5
568.102	1440.5
568.314	1392.5
568.526	1262.5
568.737	1202.5
568.949	1136.5
569.161	1049.5
569.372	1012.5
569.584	948.5
569.795	943.5
570.007	892.5
570.218	849.5
570.43	859.5
570.641	863.5
570.853	872.5
571.064	889.5
571.276	843.5
571.487	830.5
571.698	800.5
571.91	809.5
572.121	788.5
572.333	774.5
572.544	740.5
572.755	744.5
572.966	734.5
573.178	716.5
573.389	704.5
573.6	711.5
573.811	705.5
574.023	673.5
574.234	686.5
574.445	681.5
574.656	702.5
574.867	680.5
575.078	684.5
575.289	672.5
575.501	678.5
575.712	657.5
575.923	649.5
576.134	647.5
576.345	687.5
576.556	654.5
576.767	658.5
576.978	651.5
577.188	653.5
577.399	633.5
577.61	632.5
577.821	613.5
578.032	625.5
578.243	627.5
578.454	620.5
578.665	628.5
578.875	622.5
579.086	612.5
579.297	622.5
579.508	587.5
579.718	608.5
579.929	610.5
580.14	588.5
580.35	599.5
580.561	588.5
580.772	611.5
580.982	579.5
581.193	594.5
581.403	580.5
581.614	583.5
581.825	606.5
582.035	586.5
582.246	585.5
582.456	595.5
582.667	580.5
582.877	584.5
583.087	577.5
583.298	559.5
583.508	585.5
583.719	579.5
583.929	559.5
584.139	559.5
584.35	552.5
584.56	580.5
584.77	577.5
584.981	550.5
585.191	563.5
585.401	547.5
585.611	534.5
585.821	546.5
586.032	539.5
586.242	570.5
586.452	532.5
586.662	543.5
586.872	534.5
587.082	533.5
587.292	541.5
587.502	552.5
587.713	528.5
587.923	556.5
588.133	546.5
588.343	548.5
588.553	521.5
588.762	546.5
588.972	540.5
589.182	553.5
589.392	572.5
589.602	551.5
589.812	547.5
590.022	561.5
590.232	559.5
590.441	534.5
590.651	558.5
590.861	571.5
591.071	570.5
591.281	577.5
591.49	576.5
591.7	572.5
591.91	600.5
592.119	589.5
592.329	582.5
592.539	643.5
592.748	608.5
592.958	622.5
593.167	644.5
593.377	642.5
593.587	670.5
593.796	665.5
594.006	673.5
594.215	683.5
594.424	663.5
594.634	660.5
594.843	628.5
595.053	602.5
595.262	624.5
595.472	562.5
595.681	577.5
595.89	562.5
596.1	533.5
596.309	541.5
596.518	553.5
596.727	533.5
596.937	516.5
597.146	524.5
597.355	536.5
597.564	489.5
597.774	477.5
597.983	470.5
598.192	473.5
598.401	470.5
598.61	476.5
598.819	487.5
599.028	484.5
599.237	478.5
599.446	458.5
599.655	467.5
599.864	466.5
600.073	452.5
600.282	459.5
600.491	458.5
600.7	451.5
600.909	466.5
601.118	461.5
601.327	435.5
601.536	454.5
601.745	460.5
601.953	481.5
602.162	453.5
602.371	450.5
602.58	448.5
602.789	458.5
602.997	450.5
603.206	452.5
603.415	440.5
603.623	434.5
603.832	414.5
604.041	442.5
604.249	438.5
604.458	438.5
604.666	423.5
604.875	425.5
605.084	415.5
605.292	430.5
605.501	407.5
605.709	448.5
605.918	412.5
606.126	411.5
606.334	422.5
606.543	407.5
606.751	406.5
606.96	427.5
607.168	397.5
607.376	402.5
607.585	411.5
607.793	422.5
608.001	413.5
608.21	390.5
608.418	404.5
608.626	407.5
608.834	420.5
609.043	417.5
609.251	390.5
609.459	409.5
609.667	391.5
609.875	388.5
610.083	398.5
610.291	401.5
610.499	406.5
610.707	386.5
610.916	378.5
611.124	384.5
611.332	380.5
611.54	375.5
611.748	382.5
611.955	402.5
612.163	396.5
612.371	386.5
612.579	381.5
612.787	373.5
612.995	402.5
613.203	389.5
613.411	370.5
613.618	400.5
613.826	378.5
614.034	350.5
614.242	369.5
614.449	379.5
614.657	372.5
614.865	367.5
615.072	371.5
615.28	399.5
615.488	397.5
615.695	392.5
615.903	402.5
616.111	378.5
616.318	402.5
616.526	372.5
616.733	404.5
616.941	394.5
617.148	379.5
617.356	379.5
617.563	387.5
617.771	380.5
617.978	380.5
618.185	372.5
618.393	379.5
618.6	368.5
618.807	402.5
619.015	378.5
619.222	384.5
619.429	376.5
619.637	377.5
619.844	340.5
620.051	369.5
620.258	354.5
620.466	356.5
620.673	340.5
620.88	358.5
621.087	359.5
621.294	376.5
621.501	353.5
621.708	345.5
621.915	375.5
622.122	368.5
622.329	353.5
622.536	354.5
622.743	356.5
622.95	346.5
623.157	339.5
623.364	331.5
623.571	331.5
623.778	343.5
623.985	363.5
624.192	330.5
624.399	333.5
624.606	344.5
624.812	343.5
625.019	346.5
625.226	330.5
625.433	341.5
625.639	332.5
625.846	321.5
626.053	339.5
626.259	318.5
626.466	338.5
626.673	324.5
626.879	334.5
627.086	319.5
627.293	341.5
627.499	326.5
627.706	346.5
627.912	330.5
628.119	315.5
628.325	310.5
628.532	295.5
628.738	315.5
628.945	318.5
629.151	311.5
629.357	314.5
629.564	319.5
629.77	306.5
629.976	291.5
630.183	312.5
630.389	292.5
630.595	314.5
630.802	283.5
631.008	283.5
631.214	309.5
631.42	291.5
631.627	276.5
631.833	307.5
632.039	275.5
632.245	288.5
632.451	296.5
632.657	314.5
632.863	296.5
633.069	290.5
633.275	291.5
633.481	286.5
633.688	299.5
633.893	287.5
634.099	283.5
634.305	291.5
634.511	297.5
634.717	294.5
634.923	301.5
635.129	292.5
635.335	294.5
635.541	279.5
635.747	277.5
635.952	284.5
636.158	275.5
636.364	275.5
636.57	281.5
636.775	272.5
636.981	282.5
637.187	288.5
637.392	285.5
637.598	283.5
637.804	271.5
638.009	272.5
638.215	267.5
638.421	270.5
638.626	268.5
638.832	267.5
639.037	275.5
639.243	264.5
639.448	275.5
639.654	271.5
639.859	274.5
640.065	274.5
640.27	259.5
640.475	268.5
640.681	259.5
640.886	287.5
641.091	259.5
641.297	243.5
641.502	270.5
641.707	265.5
641.913	251.5
642.118	268.5
642.323	272.5
642.528	255.5
642.733	266.5
642.939	264.5
643.144	256.5
643.349	272.5
643.554	251.5
643.759	251.5
643.964	243.5
644.169	262.5
644.374	251.5
644.579	262.5
644.784	245.5
644.989	266.5
645.194	228.5
645.399	254.5
645.604	254.5
645.809	242.5
646.014	242.5
646.219	263.5
646.423	256.5
646.628	255.5
646.833	260.5
647.038	257.5
647.243	255.5
647.447	274.5
647.652	277.5
647.857	278.5
648.062	264.5
648.266	273.5
648.471	274.5
648.676	257.5
648.88	275.5
649.085	278.5
649.289	275.5
649.494	272.5
649.698	262.5
649.903	274.5
650.107	266.5
650.312	262.5
650.516	261.5
650.721	255.5
650.925	255.5
651.13	245.5
651.334	264.5
651.539	258.5
651.743	264.5
651.947	262.5
652.152	275.5
652.356	235.5
652.56	256.5
652.764	240.5
652.969	272.5
653.173	264.5
653.377	245.5
653.581	247.5
653.785	266.5
653.99	251.5
654.194	266.5
654.398	257.5
654.602	264.5
654.806	260.5
655.01	274.5
655.214	258.5
655.418	287.5
655.622	300.5
655.826	300.5
656.03	310.5
656.234	349.5
656.438	372.5
656.642	368.5
656.846	322.5
657.049	304.5
657.253	275.5
657.457	252.5
657.661	229.5
657.865	209.5
658.068	200.5
658.272	184.5
658.476	180.5
658.68	168.5
658.883	158.5
659.087	159.5
659.291	166.5
659.494	132.5
659.698	135.5
659.901	121.5
660.105	118.5
660.309	117.5
660.512	116.5
660.716	116.5
660.919	108.5
661.123	111.5
661.326	103.5
661.53	91.5
661.733	91.5
661.936	89.5
662.14	94.5
662.343	94.5
662.546	101.5
662.75	84.5
662.953	81.5
663.156	86.5
663.36	80.5
663.563	84.5
663.766	73.5
663.969	95.5
664.173	76.5
664.376	79.5
664.579	86.5
664.782	70.5
664.985	82.5
665.188	79.5
665.391	73.5
665.594	84.5
665.797	75.5
666	82.5
666.203	99.5
666.406	94.5
666.609	70.5
666.812	79.5
667.015	86.5
667.218	86.5
667.421	76.5
667.624	85.5
667.827	86.5
668.03	80.5
668.232	76.5
668.435	78.5
668.638	82.5
668.841	79.5
669.043	80.5
669.246	80.5
669.449	89.5
669.651	91.5
669.854	73.5
670.057	85.5
670.259	85.5
670.462	86.5
670.665	86.5
670.867	95.5
671.07	75.5
671.272	78.5
671.475	89.5
671.677	80.5
671.88	74.5
672.082	77.5
672.284	70.5
672.487	70.5
672.689	74.5
672.892	90.5
