Data from NiCl2@0.5M.TitratingCurve.Agarose3%dH2O.NegLispCup.LampEnergy10.LIBS07252019_HRD10591_18-20-34-572.txt Node
Date: Thu Jul 25 18:20:34 EDT 2019
User: cochatt
Spectrometer: HR+D1059
Trigger mode: 1
Integration Time (sec): 1.000000E-1
Scans to average: 1
Electric dark correction enabled: true
Nonlinearity correction enabled: false
Boxcar width: 0
XAxis mode: Wavelengths
Number of Pixels in Spectrum: 2048
>>>>>Begin Spectral Data<<<<<
223.165	-9.44
223.4	-9.44
223.635	-9.44
223.869	-13.44
224.104	-19.44
224.338	-18.44
224.573	-22.44
224.808	-10.44
225.042	-4.44
225.277	-13.44
225.511	12.56
225.746	2.56
225.98	-8.44
226.215	21.56
226.449	13.56
226.683	-0.44
226.918	32.56
227.152	37.56
227.387	36.56
227.621	40.56
227.856	38.56
228.09	37.56
228.324	43.56
228.559	52.56
228.793	76.56
229.027	107.56
229.262	155.56
229.496	168.56
229.73	157.56
229.964	169.56
230.199	179.56
230.433	180.56
230.667	171.56
230.901	173.56
231.136	177.56
231.37	181.56
231.604	198.56
231.838	192.56
232.072	202.56
232.306	182.56
232.541	194.56
232.775	192.56
233.009	187.56
233.243	162.56
233.477	195.56
233.711	186.56
233.945	190.56
234.179	194.56
234.413	192.56
234.647	203.56
234.881	204.56
235.115	209.56
235.349	212.56
235.583	205.56
235.817	204.56
236.051	213.56
236.285	205.56
236.519	195.56
236.753	211.56
236.987	192.56
237.221	195.56
237.455	201.56
237.689	228.56
237.922	222.56
238.156	217.56
238.39	197.56
238.624	214.56
238.858	210.56
239.091	236.56
239.325	233.56
239.559	236.56
239.793	243.56
240.027	230.56
240.26	245.56
240.494	236.56
240.728	239.56
240.961	230.56
241.195	237.56
241.429	249.56
241.662	258.56
241.896	265.56
242.13	261.56
242.363	256.56
242.597	280.56
242.83	249.56
243.064	270.56
243.298	280.56
243.531	276.56
243.765	287.56
243.998	290.56
244.232	299.56
244.465	282.56
244.699	292.56
244.932	294.56
245.166	285.56
245.399	312.56
245.633	298.56
245.866	281.56
246.099	305.56
246.333	309.56
246.566	313.56
246.8	295.56
247.033	292.56
247.266	320.56
247.5	306.56
247.733	317.56
247.966	325.56
248.2	323.56
248.433	307.56
248.666	318.56
248.899	334.56
249.133	331.56
249.366	310.56
249.599	333.56
249.832	329.56
250.066	329.56
250.299	349.56
250.532	350.56
250.765	343.56
250.998	358.56
251.231	358.56
251.465	386.56
251.698	380.56
251.931	357.56
252.164	352.56
252.397	377.56
252.63	356.56
252.863	372.56
253.096	389.56
253.329	375.56
253.562	371.56
253.795	419.56
254.028	383.56
254.261	394.56
254.494	381.56
254.727	407.56
254.96	408.56
255.193	403.56
255.426	399.56
255.659	392.56
255.892	414.56
256.124	413.56
256.357	396.56
256.59	408.56
256.823	414.56
257.056	412.56
257.289	420.56
257.521	422.56
257.754	418.56
257.987	418.56
258.22	429.56
258.452	435.56
258.685	421.56
258.918	410.56
259.151	439.56
259.383	456.56
259.616	442.56
259.849	441.56
260.081	426.56
260.314	442.56
260.547	433.56
260.779	430.56
261.012	455.56
261.244	457.56
261.477	465.56
261.71	469.56
261.942	463.56
262.175	467.56
262.407	462.56
262.64	449.56
262.872	457.56
263.105	483.56
263.337	488.56
263.57	478.56
263.802	487.56
264.035	479.56
264.267	487.56
264.499	465.56
264.732	474.56
264.964	505.56
265.197	500.56
265.429	493.56
265.661	501.56
265.894	499.56
266.126	490.56
266.358	504.56
266.591	526.56
266.823	518.56
267.055	525.56
267.287	540.56
267.52	512.56
267.752	511.56
267.984	510.56
268.216	518.56
268.448	510.56
268.681	537.56
268.913	542.56
269.145	523.56
269.377	542.56
269.609	552.56
269.841	554.56
270.073	516.56
270.306	545.56
270.538	562.56
270.77	557.56
271.002	565.56
271.234	548.56
271.466	562.56
271.698	562.56
271.93	548.56
272.162	586.56
272.394	546.56
272.626	563.56
272.858	565.56
273.09	590.56
273.322	588.56
273.553	593.56
273.785	571.56
274.017	574.56
274.249	589.56
274.481	585.56
274.713	585.56
274.945	596.56
275.176	589.56
275.408	597.56
275.64	628.56
275.872	596.56
276.104	599.56
276.335	610.56
276.567	600.56
276.799	617.56
277.031	617.56
277.262	637.56
277.494	631.56
277.726	638.56
277.957	643.56
278.189	644.56
278.421	638.56
278.652	658.56
278.884	644.56
279.115	628.56
279.347	644.56
279.579	668.56
279.81	650.56
280.042	647.56
280.273	640.56
280.505	669.56
280.736	670.56
280.968	654.56
281.199	663.56
281.431	671.56
281.662	701.56
281.894	676.56
282.125	693.56
282.356	701.56
282.588	704.56
282.819	674.56
283.051	702.56
283.282	699.56
283.513	723.56
283.745	707.56
283.976	709.56
284.207	705.56
284.439	718.56
284.67	708.56
284.901	704.56
285.132	696.56
285.364	729.56
285.595	729.56
285.826	717.56
286.057	713.56
286.288	708.56
286.52	725.56
286.751	732.56
286.982	740.56
287.213	747.56
287.444	756.56
287.675	731.56
287.906	713.56
288.138	743.56
288.369	752.56
288.6	750.56
288.831	757.56
289.062	742.56
289.293	731.56
289.524	744.56
289.755	749.56
289.986	746.56
290.217	756.56
290.448	741.56
290.679	807.56
290.91	762.56
291.141	781.56
291.371	783.56
291.602	770.56
291.833	747.56
292.064	780.56
292.295	784.56
292.526	782.56
292.757	788.56
292.987	770.56
293.218	789.56
293.449	793.56
293.68	759.56
293.91	755.56
294.141	778.56
294.372	789.56
294.603	791.56
294.833	790.56
295.064	788.56
295.295	785.56
295.525	762.56
295.756	796.56
295.987	760.56
296.217	786.56
296.448	833.56
296.679	800.56
296.909	800.56
297.14	803.56
297.37	838.56
297.601	835.56
297.831	840.56
298.062	853.56
298.292	859.56
298.523	856.56
298.753	840.56
298.984	825.56
299.214	840.56
299.445	845.56
299.675	859.56
299.905	835.56
300.136	881.56
300.366	906.56
300.597	899.56
300.827	894.56
301.057	892.56
301.288	881.56
301.518	902.56
301.748	897.56
301.979	907.56
302.209	914.56
302.439	906.56
302.669	884.56
302.9	882.56
303.13	884.56
303.36	895.56
303.59	902.56
303.82	892.56
304.051	926.56
304.281	921.56
304.511	901.56
304.741	906.56
304.971	944.56
305.201	933.56
305.431	922.56
305.661	928.56
305.891	937.56
306.121	907.56
306.352	892.56
306.582	863.56
306.812	850.56
307.042	858.56
307.272	874.56
307.502	859.56
307.731	875.56
307.961	940.56
308.191	896.56
308.421	885.56
308.651	864.56
308.881	872.56
309.111	892.56
309.341	882.56
309.571	885.56
309.8	894.56
310.03	905.56
310.26	906.56
310.49	953.56
310.72	893.56
310.949	884.56
311.179	897.56
311.409	903.56
311.639	924.56
311.868	928.56
312.098	902.56
312.328	923.56
312.557	955.56
312.787	934.56
313.017	930.56
313.246	932.56
313.476	950.56
313.706	965.56
313.935	945.56
314.165	966.56
314.394	946.56
314.624	980.56
314.853	945.56
315.083	940.56
315.312	941.56
315.542	973.56
315.771	968.56
316.001	935.56
316.23	939.56
316.46	961.56
316.689	969.56
316.919	937.56
317.148	940.56
317.377	939.56
317.607	917.56
317.836	923.56
318.065	956.56
318.295	954.56
318.524	972.56
318.753	972.56
318.983	984.56
319.212	956.56
319.441	933.56
319.67	940.56
319.9	934.56
320.129	938.56
320.358	964.56
320.587	939.56
320.816	941.56
321.046	956.56
321.275	966.56
321.504	960.56
321.733	956.56
321.962	931.56
322.191	974.56
322.42	963.56
322.649	962.56
322.878	960.56
323.108	962.56
323.337	986.56
323.566	978.56
323.795	979.56
324.024	977.56
324.253	974.56
324.482	1005.56
324.71	974.56
324.939	989.56
325.168	1004.56
325.397	1001.56
325.626	984.56
325.855	1002.56
326.084	1056.56
326.313	1022.56
326.542	1044.56
326.77	1043.56
326.999	1046.56
327.228	1027.56
327.457	1052.56
327.686	1038.56
327.914	1016.56
328.143	1082.56
328.372	1036.56
328.6	1039.56
328.829	1049.56
329.058	1052.56
329.287	1037.56
329.515	1054.56
329.744	1051.56
329.972	1050.56
330.201	1066.56
330.43	1062.56
330.658	1044.56
330.887	1054.56
331.115	1058.56
331.344	1108.56
331.572	1125.56
331.801	1117.56
332.03	1140.56
332.258	1144.56
332.486	1166.56
332.715	1140.56
332.943	1194.56
333.172	1224.56
333.4	1227.56
333.629	1263.56
333.857	1315.56
334.085	1329.56
334.314	1319.56
334.542	1306.56
334.771	1323.56
334.999	1312.56
335.227	1276.56
335.455	1263.56
335.684	1301.56
335.912	1280.56
336.14	1298.56
336.369	1295.56
336.597	1273.56
336.825	1300.56
337.053	1332.56
337.281	1286.56
337.51	1260.56
337.738	1256.56
337.966	1197.56
338.194	1221.56
338.422	1212.56
338.65	1150.56
338.878	1161.56
339.106	1163.56
339.334	1179.56
339.562	1176.56
339.79	1132.56
340.018	1122.56
340.246	1116.56
340.474	1110.56
340.702	1117.56
340.93	1121.56
341.158	1094.56
341.386	1145.56
341.614	1184.56
341.842	1152.56
342.07	1083.56
342.298	1106.56
342.526	1116.56
342.754	1116.56
342.981	1102.56
343.209	1087.56
343.437	1178.56
343.665	1218.56
343.893	1250.56
344.12	1276.56
344.348	1236.56
344.576	1200.56
344.804	1224.56
345.031	1163.56
345.259	1183.56
345.487	1116.56
345.714	1128.56
345.942	1128.56
346.17	1161.56
346.397	1138.56
346.625	1080.56
346.853	1078.56
347.08	1018.56
347.308	1053.56
347.535	1082.56
347.763	1054.56
347.99	1037.56
348.218	1053.56
348.445	1032.56
348.673	1036.56
348.9	1046.56
349.128	1043.56
349.355	1097.56
349.583	1072.56
349.81	1030.56
350.037	1018.56
350.265	1013.56
350.492	1030.56
350.72	1034.56
350.947	1031.56
351.174	1012.56
351.402	1084.56
351.629	1083.56
351.856	1070.56
352.083	1028.56
352.311	1085.56
352.538	1066.56
352.765	1086.56
352.992	994.56
353.22	969.56
353.447	968.56
353.674	968.56
353.901	993.56
354.128	987.56
354.355	989.56
354.583	990.56
354.81	1011.56
355.037	992.56
355.264	977.56
355.491	991.56
355.718	977.56
355.945	968.56
356.172	1013.56
356.399	1004.56
356.626	1038.56
356.853	1048.56
357.08	1001.56
357.307	994.56
357.534	1014.56
357.761	984.56
357.988	972.56
358.215	987.56
358.441	984.56
358.668	995.56
358.895	1008.56
359.122	1005.56
359.349	951.56
359.576	1030.56
359.802	966.56
360.029	970.56
360.256	956.56
360.483	976.56
360.709	1008.56
360.936	1014.56
361.163	1015.56
361.39	1034.56
361.616	1013.56
361.843	1024.56
362.07	1068.56
362.296	1060.56
362.523	1001.56
362.749	1019.56
362.976	996.56
363.203	980.56
363.429	974.56
363.656	981.56
363.882	969.56
364.109	978.56
364.335	968.56
364.562	986.56
364.788	964.56
365.015	1008.56
365.241	973.56
365.468	984.56
365.694	996.56
365.92	993.56
366.147	963.56
366.373	988.56
366.599	1008.56
366.826	970.56
367.052	980.56
367.278	979.56
367.505	1005.56
367.731	977.56
367.957	988.56
368.184	1005.56
368.41	992.56
368.636	993.56
368.862	984.56
369.089	1010.56
369.315	1032.56
369.541	1003.56
369.767	1032.56
369.993	1010.56
370.219	1005.56
370.445	1048.56
370.672	1013.56
370.898	1036.56
371.124	1050.56
371.35	1053.56
371.576	1048.56
371.802	1054.56
372.028	1044.56
372.254	1073.56
372.48	1101.56
372.706	1059.56
372.932	1102.56
373.158	1095.56
373.384	1080.56
373.61	1106.56
373.835	1070.56
374.061	1070.56
374.287	1082.56
374.513	1081.56
374.739	1102.56
374.965	1132.56
375.191	1095.56
375.416	1154.56
375.642	1136.56
375.868	1092.56
376.094	1085.56
376.319	1080.56
376.545	1045.56
376.771	1063.56
376.997	1049.56
377.222	1025.56
377.448	1049.56
377.674	1064.56
377.899	1028.56
378.125	1031.56
378.35	1017.56
378.576	1031.56
378.802	1030.56
379.027	1065.56
379.253	1037.56
379.478	1028.56
379.704	1032.56
379.929	1048.56
380.155	1016.56
380.38	1056.56
380.606	1029.56
380.831	1020.56
381.057	1056.56
381.282	1027.56
381.507	1030.56
381.733	1065.56
381.958	1057.56
382.184	1069.56
382.409	1104.56
382.634	1084.56
382.86	1069.56
383.085	1088.56
383.31	1114.56
383.535	1176.56
383.761	1120.56
383.986	1130.56
384.211	1149.56
384.436	1182.56
384.662	1156.56
384.887	1191.56
385.112	1222.56
385.337	1223.56
385.562	1218.56
385.787	1232.56
386.013	1238.56
386.238	1270.56
386.463	1254.56
386.688	1245.56
386.913	1283.56
387.138	1284.56
387.363	1246.56
387.588	1213.56
387.813	1240.56
388.038	1207.56
388.263	1206.56
388.488	1275.56
388.713	1268.56
388.938	1257.56
389.163	1251.56
389.387	1248.56
389.612	1233.56
389.837	1313.56
390.062	1257.56
390.287	1250.56
390.512	1210.56
390.736	1257.56
390.961	1270.56
391.186	1304.56
391.411	1325.56
391.636	1337.56
391.86	1348.56
392.085	1372.56
392.31	1347.56
392.534	1381.56
392.759	1409.56
392.984	1346.56
393.208	1345.56
393.433	1330.56
393.658	1338.56
393.882	1308.56
394.107	1320.56
394.331	1345.56
394.556	1320.56
394.78	1344.56
395.005	1335.56
395.229	1359.56
395.454	1393.56
395.678	1383.56
395.903	1370.56
396.127	1364.56
396.352	1395.56
396.576	1364.56
396.801	1355.56
397.025	1354.56
397.249	1405.56
397.474	1397.56
397.698	1430.56
397.922	1449.56
398.147	1426.56
398.371	1509.56
398.595	1518.56
398.82	1556.56
399.044	1614.56
399.268	1720.56
399.492	1899.56
399.717	1976.56
399.941	2027.56
400.165	1922.56
400.389	1833.56
400.613	1761.56
400.837	1694.56
401.062	1621.56
401.286	1590.56
401.51	1579.56
401.734	1569.56
401.958	1590.56
402.182	1587.56
402.406	1606.56
402.63	1602.56
402.854	1592.56
403.078	1612.56
403.302	1628.56
403.526	1628.56
403.75	1641.56
403.974	1661.56
404.198	1645.56
404.422	1649.56
404.645	1671.56
404.869	1666.56
405.093	1653.56
405.317	1646.56
405.541	1656.56
405.765	1684.56
405.988	1688.56
406.212	1709.56
406.436	1701.56
406.66	1728.56
406.883	1746.56
407.107	1811.56
407.331	1845.56
407.555	1925.56
407.778	1942.56
408.002	1889.56
408.226	1900.56
408.449	1862.56
408.673	1780.56
408.896	1796.56
409.12	1750.56
409.344	1792.56
409.567	1714.56
409.791	1759.56
410.014	1731.56
410.238	1717.56
410.461	1687.56
410.685	1704.56
410.908	1700.56
411.132	1682.56
411.355	1634.56
411.578	1643.56
411.802	1668.56
412.025	1640.56
412.249	1651.56
412.472	1652.56
412.695	1629.56
412.919	1582.56
413.142	1610.56
413.365	1594.56
413.589	1624.56
413.812	1604.56
414.035	1569.56
414.258	1564.56
414.482	1597.56
414.705	1611.56
414.928	1573.56
415.151	1590.56
415.374	1581.56
415.597	1563.56
415.821	1545.56
416.044	1523.56
416.267	1513.56
416.49	1513.56
416.713	1528.56
416.936	1498.56
417.159	1516.56
417.382	1509.56
417.605	1482.56
417.828	1502.56
418.051	1533.56
418.274	1501.56
418.497	1538.56
418.72	1536.56
418.943	1548.56
419.166	1651.56
419.389	1724.56
419.611	1719.56
419.834	1638.56
420.057	1588.56
420.28	1572.56
420.503	1511.56
420.726	1532.56
420.948	1547.56
421.171	1545.56
421.394	1491.56
421.617	1501.56
421.839	1558.56
422.062	1582.56
422.285	1510.56
422.507	1532.56
422.73	1540.56
422.953	1523.56
423.175	1549.56
423.398	1587.56
423.621	1540.56
423.843	1551.56
424.066	1556.56
424.288	1571.56
424.511	1535.56
424.733	1550.56
424.956	1514.56
425.178	1532.56
425.401	1544.56
425.623	1522.56
425.846	1487.56
426.068	1482.56
426.291	1453.56
426.513	1493.56
426.735	1460.56
426.958	1479.56
427.18	1428.56
427.402	1458.56
427.625	1450.56
427.847	1421.56
428.069	1413.56
428.292	1432.56
428.514	1421.56
428.736	1409.56
428.958	1447.56
429.181	1409.56
429.403	1398.56
429.625	1448.56
429.847	1381.56
430.069	1440.56
430.292	1385.56
430.514	1379.56
430.736	1388.56
430.958	1443.56
431.18	1419.56
431.402	1435.56
431.624	1412.56
431.846	1419.56
432.068	1416.56
432.29	1442.56
432.512	1434.56
432.734	1438.56
432.956	1420.56
433.178	1405.56
433.4	1452.56
433.622	1464.56
433.844	1470.56
434.066	1465.56
434.287	1505.56
434.509	1495.56
434.731	1485.56
434.953	1572.56
435.175	1566.56
435.397	1565.56
435.618	1520.56
435.84	1486.56
436.062	1463.56
436.284	1448.56
436.505	1423.56
436.727	1448.56
436.949	1444.56
437.17	1417.56
437.392	1403.56
437.614	1411.56
437.835	1352.56
438.057	1388.56
438.278	1329.56
438.5	1396.56
438.721	1348.56
438.943	1378.56
439.165	1384.56
439.386	1376.56
439.608	1400.56
439.829	1396.56
440.05	1403.56
440.272	1409.56
440.493	1429.56
440.715	1460.56
440.936	1476.56
441.158	1480.56
441.379	1524.56
441.6	1537.56
441.822	1562.56
442.043	1555.56
442.264	1526.56
442.486	1520.56
442.707	1550.56
442.928	1529.56
443.149	1521.56
443.371	1528.56
443.592	1541.56
443.813	1586.56
444.034	1572.56
444.255	1584.56
444.476	1583.56
444.698	1692.56
444.919	1716.56
445.14	1792.56
445.361	1731.56
445.582	1618.56
445.803	1594.56
446.024	1515.56
446.245	1514.56
446.466	1498.56
446.687	1446.56
446.908	1437.56
447.129	1402.56
447.35	1380.56
447.571	1390.56
447.792	1350.56
448.013	1415.56
448.234	1317.56
448.455	1314.56
448.675	1309.56
448.896	1297.56
449.117	1308.56
449.338	1305.56
449.559	1315.56
449.779	1286.56
450	1301.56
450.221	1301.56
450.442	1292.56
450.662	1332.56
450.883	1343.56
451.104	1347.56
451.324	1343.56
451.545	1281.56
451.766	1306.56
451.986	1314.56
452.207	1296.56
452.428	1298.56
452.648	1273.56
452.869	1282.56
453.089	1264.56
453.31	1298.56
453.53	1245.56
453.751	1273.56
453.971	1257.56
454.192	1295.56
454.412	1243.56
454.633	1239.56
454.853	1278.56
455.073	1218.56
455.294	1248.56
455.514	1245.56
455.734	1241.56
455.955	1229.56
456.175	1243.56
456.395	1236.56
456.616	1222.56
456.836	1215.56
457.056	1230.56
457.276	1251.56
457.497	1292.56
457.717	1269.56
457.937	1274.56
458.157	1270.56
458.377	1273.56
458.598	1288.56
458.818	1341.56
459.038	1385.56
459.258	1368.56
459.478	1426.56
459.698	1526.56
459.918	1524.56
460.138	1562.56
460.358	1597.56
460.578	1609.56
460.798	1657.56
461.018	1653.56
461.238	1670.56
461.458	1662.56
461.678	1636.56
461.898	1676.56
462.118	1705.56
462.338	1730.56
462.558	1755.56
462.777	1862.56
462.997	1971.56
463.217	1966.56
463.437	2032.56
463.657	1928.56
463.876	1868.56
464.096	1896.56
464.316	1886.56
464.536	1858.56
464.755	1792.56
464.975	1737.56
465.195	1666.56
465.414	1652.56
465.634	1579.56
465.854	1513.56
466.073	1490.56
466.293	1456.56
466.512	1397.56
466.732	1399.56
466.951	1414.56
467.171	1424.56
467.391	1396.56
467.61	1392.56
467.829	1408.56
468.049	1370.56
468.268	1329.56
468.488	1353.56
468.707	1338.56
468.927	1360.56
469.146	1366.56
469.365	1385.56
469.585	1382.56
469.804	1368.56
470.023	1427.56
470.243	1408.56
470.462	1387.56
470.681	1420.56
470.901	1410.56
471.12	1390.56
471.339	1348.56
471.558	1354.56
471.777	1398.56
471.997	1388.56
472.216	1341.56
472.435	1348.56
472.654	1338.56
472.873	1333.56
473.092	1324.56
473.311	1318.56
473.53	1345.56
473.749	1352.56
473.968	1322.56
474.187	1290.56
474.406	1343.56
474.625	1343.56
474.844	1358.56
475.063	1331.56
475.282	1334.56
475.501	1357.56
475.72	1397.56
475.939	1382.56
476.158	1364.56
476.377	1371.56
476.596	1362.56
476.814	1422.56
477.033	1404.56
477.252	1441.56
477.471	1488.56
477.69	1485.56
477.908	1523.56
478.127	1553.56
478.346	1548.56
478.564	1602.56
478.783	1595.56
479.002	1669.56
479.22	1666.56
479.439	1668.56
479.658	1637.56
479.876	1653.56
480.095	1680.56
480.313	1692.56
480.532	1697.56
480.751	1726.56
480.969	1666.56
481.188	1621.56
481.406	1619.56
481.624	1593.56
481.843	1619.56
482.061	1593.56
482.28	1602.56
482.498	1580.56
482.717	1551.56
482.935	1573.56
483.153	1607.56
483.372	1619.56
483.59	1619.56
483.808	1626.56
484.027	1576.56
484.245	1610.56
484.463	1578.56
484.681	1659.56
484.9	1620.56
485.118	1625.56
485.336	1635.56
485.554	1614.56
485.772	1658.56
485.99	1616.56
486.209	1637.56
486.427	1673.56
486.645	1664.56
486.863	1658.56
487.081	1639.56
487.299	1672.56
487.517	1672.56
487.735	1653.56
487.953	1678.56
488.171	1627.56
488.389	1657.56
488.607	1632.56
488.825	1624.56
489.043	1630.56
489.261	1605.56
489.479	1633.56
489.696	1628.56
489.914	1643.56
490.132	1626.56
490.35	1649.56
490.568	1660.56
490.786	1629.56
491.003	1650.56
491.221	1638.56
491.439	1669.56
491.657	1656.56
491.874	1663.56
492.092	1692.56
492.31	1661.56
492.527	1708.56
492.745	1668.56
492.963	1713.56
493.18	1715.56
493.398	1719.56
493.615	1710.56
493.833	1685.56
494.05	1740.56
494.268	1744.56
494.485	1767.56
494.703	1757.56
494.92	1763.56
495.138	1750.56
495.355	1731.56
495.573	1747.56
495.79	1763.56
496.008	1808.56
496.225	1794.56
496.442	1831.56
496.66	1820.56
496.877	1893.56
497.094	1927.56
497.312	1937.56
497.529	1953.56
497.746	2016.56
497.963	2110.56
498.181	2170.56
498.398	2213.56
498.615	2352.56
498.832	2460.56
499.049	2558.56
499.267	2734.56
499.484	2890.56
499.701	3105.56
499.918	3294.56
500.135	3616.56
500.352	3816.56
500.569	3872.56
500.786	3909.56
501.003	3809.56
501.22	3580.56
501.437	3339.56
501.654	3110.56
501.871	2915.56
502.088	2739.56
502.305	2577.56
502.522	2466.56
502.739	2379.56
502.956	2208.56
503.172	2197.56
503.389	2114.56
503.606	2044.56
503.823	2001.56
504.04	1985.56
504.256	1964.56
504.473	1956.56
504.69	1965.56
504.907	1940.56
505.123	1805.56
505.34	1794.56
505.557	1728.56
505.773	1685.56
505.99	1639.56
506.207	1593.56
506.423	1608.56
506.64	1583.56
506.856	1580.56
507.073	1552.56
507.289	1520.56
507.506	1515.56
507.722	1480.56
507.939	1498.56
508.155	1489.56
508.372	1482.56
508.588	1459.56
508.805	1427.56
509.021	1452.56
509.238	1404.56
509.454	1424.56
509.67	1431.56
509.887	1388.56
510.103	1404.56
510.319	1380.56
510.536	1382.56
510.752	1346.56
510.968	1357.56
511.184	1393.56
511.401	1367.56
511.617	1346.56
511.833	1381.56
512.049	1330.56
512.265	1365.56
512.481	1334.56
512.698	1324.56
512.914	1343.56
513.13	1332.56
513.346	1355.56
513.562	1378.56
513.778	1406.56
513.994	1372.56
514.21	1366.56
514.426	1402.56
514.642	1398.56
514.858	1405.56
515.074	1409.56
515.29	1443.56
515.506	1459.56
515.721	1445.56
515.937	1438.56
516.153	1476.56
516.369	1517.56
516.585	1528.56
516.801	1536.56
517.016	1632.56
517.232	1644.56
517.448	1677.56
517.664	1763.56
517.879	1743.56
518.095	1721.56
518.311	1699.56
518.527	1651.56
518.742	1638.56
518.958	1603.56
519.173	1540.56
519.389	1547.56
519.605	1469.56
519.82	1448.56
520.036	1442.56
520.251	1409.56
520.467	1344.56
520.682	1325.56
520.898	1358.56
521.113	1316.56
521.329	1300.56
521.544	1291.56
521.76	1292.56
521.975	1297.56
522.19	1273.56
522.406	1257.56
522.621	1269.56
522.836	1280.56
523.052	1269.56
523.267	1242.56
523.482	1242.56
523.698	1244.56
523.913	1244.56
524.128	1236.56
524.343	1224.56
524.559	1214.56
524.774	1210.56
524.989	1238.56
525.204	1230.56
525.419	1248.56
525.634	1205.56
525.849	1206.56
526.064	1205.56
526.28	1229.56
526.495	1219.56
526.71	1205.56
526.925	1181.56
527.14	1177.56
527.355	1171.56
527.57	1186.56
527.785	1184.56
527.999	1179.56
528.214	1187.56
528.429	1184.56
528.644	1190.56
528.859	1166.56
529.074	1226.56
529.289	1186.56
529.503	1186.56
529.718	1176.56
529.933	1161.56
530.148	1162.56
530.363	1183.56
530.577	1164.56
530.792	1145.56
531.007	1143.56
531.221	1185.56
531.436	1182.56
531.651	1148.56
531.865	1147.56
532.08	1183.56
532.295	1182.56
532.509	1156.56
532.724	1184.56
532.938	1160.56
533.153	1174.56
533.367	1164.56
533.582	1156.56
533.796	1157.56
534.011	1138.56
534.225	1142.56
534.44	1164.56
534.654	1134.56
534.868	1152.56
535.083	1139.56
535.297	1150.56
535.511	1102.56
535.726	1139.56
535.94	1115.56
536.154	1118.56
536.369	1083.56
536.583	1100.56
536.797	1114.56
537.011	1095.56
537.225	1081.56
537.44	1101.56
537.654	1098.56
537.868	1095.56
538.082	1060.56
538.296	1107.56
538.51	1066.56
538.724	1064.56
538.938	1048.56
539.153	1067.56
539.367	1055.56
539.581	1080.56
539.795	1059.56
540.009	1053.56
540.222	1067.56
540.436	1074.56
540.65	1047.56
540.864	1061.56
541.078	1084.56
541.292	1057.56
541.506	1060.56
541.72	1059.56
541.934	1060.56
542.147	1099.56
542.361	1087.56
542.575	1069.56
542.789	1041.56
543.002	1012.56
543.216	1064.56
543.43	1063.56
543.644	1011.56
543.857	1025.56
544.071	1038.56
544.285	1066.56
544.498	1045.56
544.712	1042.56
544.925	1042.56
545.139	1077.56
545.352	1088.56
545.566	1062.56
545.779	1070.56
545.993	1082.56
546.206	1067.56
546.42	1059.56
546.633	1068.56
546.847	1074.56
547.06	1056.56
547.274	1058.56
547.487	1077.56
547.7	1097.56
547.914	1074.56
548.127	1085.56
548.34	1045.56
548.554	1067.56
548.767	1067.56
548.98	1099.56
549.193	1059.56
549.407	1097.56
549.62	1123.56
549.833	1086.56
550.046	1085.56
550.259	1091.56
550.473	1078.56
550.686	1078.56
550.899	1080.56
551.112	1078.56
551.325	1064.56
551.538	1036.56
551.751	1068.56
551.964	1076.56
552.177	1068.56
552.39	1060.56
552.603	1094.56
552.816	1087.56
553.029	1110.56
553.242	1106.56
553.455	1119.56
553.667	1127.56
553.88	1096.56
554.093	1078.56
554.306	1076.56
554.519	1091.56
554.732	1029.56
554.944	1000.56
555.157	997.56
555.37	1042.56
555.583	973.56
555.795	974.56
556.008	977.56
556.221	977.56
556.433	937.56
556.646	945.56
556.859	968.56
557.071	944.56
557.284	916.56
557.496	910.56
557.709	933.56
557.921	907.56
558.134	923.56
558.346	885.56
558.559	884.56
558.771	916.56
558.984	896.56
559.196	881.56
559.409	889.56
559.621	886.56
559.833	881.56
560.046	884.56
560.258	899.56
560.47	890.56
560.683	866.56
560.895	886.56
561.107	884.56
561.32	885.56
561.532	891.56
561.744	865.56
561.956	900.56
562.168	866.56
562.381	887.56
562.593	884.56
562.805	854.56
563.017	901.56
563.229	916.56
563.441	907.56
563.653	915.56
563.865	912.56
564.077	929.56
564.289	934.56
564.501	925.56
564.713	949.56
564.925	993.56
565.137	989.56
565.349	1009.56
565.561	1002.56
565.773	1063.56
565.985	1125.56
566.197	1168.56
566.408	1153.56
566.62	1240.56
566.832	1248.56
567.044	1273.56
567.255	1310.56
567.467	1383.56
567.679	1336.56
567.891	1397.56
568.102	1372.56
568.314	1358.56
568.526	1244.56
568.737	1189.56
568.949	1136.56
569.161	1085.56
569.372	1070.56
569.584	1010.56
569.795	971.56
570.007	932.56
570.218	893.56
570.43	916.56
570.641	905.56
570.853	880.56
571.064	884.56
571.276	868.56
571.487	866.56
571.698	805.56
571.91	793.56
572.121	789.56
572.333	801.56
572.544	752.56
572.755	769.56
572.966	761.56
573.178	732.56
573.389	744.56
573.6	740.56
573.811	684.56
574.023	713.56
574.234	737.56
574.445	710.56
574.656	733.56
574.867	699.56
575.078	695.56
575.289	691.56
575.501	690.56
575.712	678.56
575.923	694.56
576.134	688.56
576.345	681.56
576.556	686.56
576.767	670.56
576.978	672.56
577.188	676.56
577.399	681.56
577.61	655.56
577.821	650.56
578.032	660.56
578.243	634.56
578.454	658.56
578.665	638.56
578.875	637.56
579.086	640.56
579.297	624.56
579.508	629.56
579.718	626.56
579.929	612.56
580.14	608.56
580.35	607.56
580.561	626.56
580.772	598.56
580.982	611.56
581.193	577.56
581.403	599.56
581.614	603.56
581.825	604.56
582.035	580.56
582.246	615.56
582.456	593.56
582.667	601.56
582.877	598.56
583.087	601.56
583.298	592.56
583.508	587.56
583.719	589.56
583.929	600.56
584.139	579.56
584.35	584.56
584.56	594.56
584.77	565.56
584.981	581.56
585.191	599.56
585.401	576.56
585.611	547.56
585.821	559.56
586.032	566.56
586.242	595.56
586.452	576.56
586.662	565.56
586.872	564.56
587.082	562.56
587.292	554.56
587.502	581.56
587.713	568.56
587.923	582.56
588.133	541.56
588.343	566.56
588.553	574.56
588.762	558.56
588.972	572.56
589.182	638.56
589.392	671.56
589.602	602.56
589.812	651.56
590.022	617.56
590.232	584.56
590.441	574.56
590.651	564.56
590.861	553.56
591.071	576.56
591.281	585.56
591.49	613.56
591.7	594.56
591.91	590.56
592.119	602.56
592.329	608.56
592.539	628.56
592.748	631.56
592.958	630.56
593.167	646.56
593.377	640.56
593.587	657.56
593.796	647.56
594.006	652.56
594.215	646.56
594.424	657.56
594.634	637.56
594.843	619.56
595.053	621.56
595.262	578.56
595.472	592.56
595.681	575.56
595.89	554.56
596.1	566.56
596.309	570.56
596.518	556.56
596.727	540.56
596.937	537.56
597.146	522.56
597.355	514.56
597.564	502.56
597.774	507.56
597.983	498.56
598.192	503.56
598.401	484.56
598.61	473.56
598.819	485.56
599.028	486.56
599.237	475.56
599.446	474.56
599.655	461.56
599.864	474.56
600.073	482.56
600.282	477.56
600.491	473.56
600.7	467.56
600.909	467.56
601.118	465.56
601.327	423.56
601.536	455.56
601.745	435.56
601.953	446.56
602.162	443.56
602.371	434.56
602.58	426.56
602.789	452.56
602.997	433.56
603.206	436.56
603.415	422.56
603.623	440.56
603.832	428.56
604.041	429.56
604.249	442.56
604.458	452.56
604.666	426.56
604.875	441.56
605.084	405.56
605.292	429.56
605.501	428.56
605.709	417.56
605.918	432.56
606.126	418.56
606.334	428.56
606.543	408.56
606.751	414.56
606.96	414.56
607.168	409.56
607.376	435.56
607.585	424.56
607.793	418.56
608.001	407.56
608.21	412.56
608.418	402.56
608.626	411.56
608.834	400.56
609.043	402.56
609.251	419.56
609.459	416.56
609.667	375.56
609.875	408.56
610.083	400.56
610.291	402.56
610.499	397.56
610.707	412.56
610.916	376.56
611.124	389.56
611.332	393.56
611.54	402.56
611.748	397.56
611.955	406.56
612.163	392.56
612.371	405.56
612.579	386.56
612.787	392.56
612.995	405.56
613.203	400.56
613.411	384.56
613.618	388.56
613.826	363.56
614.034	401.56
614.242	377.56
614.449	384.56
614.657	405.56
614.865	397.56
615.072	361.56
615.28	380.56
615.488	394.56
615.695	382.56
615.903	370.56
616.111	372.56
616.318	390.56
616.526	375.56
616.733	380.56
616.941	371.56
617.148	386.56
617.356	374.56
617.563	387.56
617.771	386.56
617.978	351.56
618.185	369.56
618.393	391.56
618.6	392.56
618.807	388.56
619.015	385.56
619.222	353.56
619.429	353.56
619.637	361.56
619.844	357.56
620.051	353.56
620.258	360.56
620.466	343.56
620.673	343.56
620.88	354.56
621.087	354.56
621.294	354.56
621.501	340.56
621.708	353.56
621.915	351.56
622.122	345.56
622.329	352.56
622.536	337.56
622.743	342.56
622.95	343.56
623.157	334.56
623.364	333.56
623.571	328.56
623.778	362.56
623.985	337.56
624.192	336.56
624.399	347.56
624.606	330.56
624.812	339.56
625.019	340.56
625.226	324.56
625.433	330.56
625.639	314.56
625.846	326.56
626.053	327.56
626.259	315.56
626.466	322.56
626.673	321.56
626.879	324.56
627.086	321.56
627.293	307.56
627.499	326.56
627.706	320.56
627.912	298.56
628.119	308.56
628.325	312.56
628.532	326.56
628.738	318.56
628.945	309.56
629.151	292.56
629.357	292.56
629.564	308.56
629.77	310.56
629.976	324.56
630.183	302.56
630.389	290.56
630.595	317.56
630.802	300.56
631.008	298.56
631.214	301.56
631.42	297.56
631.627	290.56
631.833	295.56
632.039	291.56
632.245	304.56
632.451	282.56
632.657	285.56
632.863	290.56
633.069	279.56
633.275	292.56
633.481	281.56
633.688	280.56
633.893	278.56
634.099	268.56
634.305	285.56
634.511	276.56
634.717	286.56
634.923	274.56
635.129	263.56
635.335	262.56
635.541	275.56
635.747	284.56
635.952	266.56
636.158	280.56
636.364	275.56
636.57	273.56
636.775	272.56
636.981	256.56
637.187	276.56
637.392	267.56
637.598	272.56
637.804	276.56
638.009	262.56
638.215	269.56
638.421	264.56
638.626	260.56
638.832	266.56
639.037	253.56
639.243	277.56
639.448	253.56
639.654	276.56
639.859	267.56
640.065	260.56
640.27	250.56
640.475	258.56
640.681	249.56
640.886	268.56
641.091	252.56
641.297	259.56
641.502	244.56
641.707	241.56
641.913	240.56
642.118	278.56
642.323	254.56
642.528	258.56
642.733	255.56
642.939	252.56
643.144	242.56
643.349	236.56
643.554	260.56
643.759	249.56
643.964	230.56
644.169	244.56
644.374	243.56
644.579	236.56
644.784	236.56
644.989	230.56
645.194	263.56
645.399	242.56
645.604	252.56
645.809	236.56
646.014	248.56
646.219	242.56
646.423	256.56
646.628	249.56
646.833	235.56
647.038	240.56
647.243	242.56
647.447	253.56
647.652	255.56
647.857	285.56
648.062	254.56
648.266	250.56
648.471	277.56
648.676	254.56
648.88	253.56
649.085	247.56
649.289	269.56
649.494	257.56
649.698	240.56
649.903	242.56
650.107	231.56
650.312	244.56
650.516	232.56
650.721	219.56
650.925	229.56
651.13	230.56
651.334	217.56
651.539	225.56
651.743	234.56
651.947	229.56
652.152	220.56
652.356	220.56
652.56	217.56
652.764	227.56
652.969	210.56
653.173	211.56
653.377	209.56
653.581	221.56
653.785	227.56
653.99	228.56
654.194	224.56
654.398	204.56
654.602	203.56
654.806	221.56
655.01	210.56
655.214	208.56
655.418	210.56
655.622	239.56
655.826	237.56
656.03	244.56
656.234	228.56
656.438	241.56
656.642	220.56
656.846	211.56
657.049	220.56
657.253	207.56
657.457	201.56
657.661	185.56
657.865	159.56
658.068	163.56
658.272	170.56
658.476	155.56
658.68	145.56
658.883	132.56
659.087	134.56
659.291	147.56
659.494	123.56
659.698	114.56
659.901	126.56
660.105	104.56
660.309	107.56
660.512	104.56
660.716	116.56
660.919	123.56
661.123	91.56
661.326	87.56
661.53	94.56
661.733	96.56
661.936	105.56
662.14	91.56
662.343	96.56
662.546	85.56
662.75	91.56
662.953	102.56
663.156	85.56
663.36	79.56
663.563	78.56
663.766	76.56
663.969	90.56
664.173	83.56
664.376	85.56
664.579	85.56
664.782	92.56
664.985	87.56
665.188	77.56
665.391	73.56
665.594	86.56
665.797	82.56
666	82.56
666.203	81.56
666.406	72.56
666.609	90.56
666.812	88.56
667.015	83.56
667.218	69.56
667.421	70.56
667.624	85.56
667.827	90.56
668.03	79.56
668.232	90.56
668.435	86.56
668.638	74.56
668.841	82.56
669.043	85.56
669.246	84.56
669.449	85.56
669.651	81.56
669.854	73.56
670.057	88.56
670.259	92.56
670.462	84.56
670.665	70.56
670.867	81.56
671.07	81.56
671.272	77.56
671.475	73.56
671.677	78.56
671.88	85.56
672.082	82.56
672.284	79.56
672.487	89.56
672.689	82.56
672.892	98.56
