Data from NiCl2@0.25M.TitratingCurve.Agarose3%dH2O.NegLispCup.LampEnergy10.LIBS07252019_HRD10591_18-23-56-573.txt Node
Date: Thu Jul 25 18:23:56 EDT 2019
User: cochatt
Spectrometer: HR+D1059
Trigger mode: 1
Integration Time (sec): 1.000000E-1
Scans to average: 1
Electric dark correction enabled: true
Nonlinearity correction enabled: false
Boxcar width: 0
XAxis mode: Wavelengths
Number of Pixels in Spectrum: 2048
>>>>>Begin Spectral Data<<<<<
223.165	-14.62
223.4	-14.62
223.635	-14.62
223.869	-12.62
224.104	-1.62
224.338	-12.62
224.573	-19.62
224.808	-14.62
225.042	-24.62
225.277	-18.62
225.511	-1.62
225.746	-8.62
225.98	9.38
226.215	7.38
226.449	17.38
226.683	24.38
226.918	32.38
227.152	38.38
227.387	26.38
227.621	40.38
227.856	49.38
228.09	43.38
228.324	42.38
228.559	53.38
228.793	81.38
229.027	109.38
229.262	129.38
229.496	113.38
229.73	119.38
229.964	135.38
230.199	134.38
230.433	123.38
230.667	129.38
230.901	137.38
231.136	125.38
231.37	139.38
231.604	134.38
231.838	151.38
232.072	144.38
232.306	158.38
232.541	155.38
232.775	136.38
233.009	157.38
233.243	153.38
233.477	152.38
233.711	166.38
233.945	167.38
234.179	160.38
234.413	166.38
234.647	155.38
234.881	157.38
235.115	163.38
235.349	156.38
235.583	157.38
235.817	162.38
236.051	139.38
236.285	153.38
236.519	161.38
236.753	159.38
236.987	182.38
237.221	193.38
237.455	177.38
237.689	165.38
237.922	173.38
238.156	172.38
238.39	167.38
238.624	167.38
238.858	187.38
239.091	174.38
239.325	190.38
239.559	181.38
239.793	193.38
240.027	204.38
240.26	183.38
240.494	182.38
240.728	204.38
240.961	186.38
241.195	182.38
241.429	190.38
241.662	188.38
241.896	203.38
242.13	200.38
242.363	207.38
242.597	189.38
242.83	210.38
243.064	206.38
243.298	224.38
243.531	226.38
243.765	212.38
243.998	211.38
244.232	207.38
244.465	226.38
244.699	213.38
244.932	224.38
245.166	213.38
245.399	226.38
245.633	226.38
245.866	213.38
246.099	230.38
246.333	245.38
246.566	230.38
246.8	238.38
247.033	229.38
247.266	238.38
247.5	253.38
247.733	236.38
247.966	235.38
248.2	260.38
248.433	257.38
248.666	242.38
248.899	244.38
249.133	263.38
249.366	268.38
249.599	261.38
249.832	254.38
250.066	265.38
250.299	259.38
250.532	266.38
250.765	283.38
250.998	265.38
251.231	284.38
251.465	269.38
251.698	265.38
251.931	293.38
252.164	266.38
252.397	272.38
252.63	285.38
252.863	295.38
253.096	280.38
253.329	297.38
253.562	292.38
253.795	292.38
254.028	313.38
254.261	291.38
254.494	300.38
254.727	297.38
254.96	289.38
255.193	291.38
255.426	293.38
255.659	298.38
255.892	307.38
256.124	291.38
256.357	283.38
256.59	288.38
256.823	304.38
257.056	285.38
257.289	302.38
257.521	305.38
257.754	316.38
257.987	316.38
258.22	300.38
258.452	318.38
258.685	333.38
258.918	311.38
259.151	308.38
259.383	325.38
259.616	326.38
259.849	317.38
260.081	324.38
260.314	316.38
260.547	344.38
260.779	333.38
261.012	333.38
261.244	338.38
261.477	338.38
261.71	348.38
261.942	339.38
262.175	316.38
262.407	339.38
262.64	340.38
262.872	344.38
263.105	343.38
263.337	346.38
263.57	364.38
263.802	351.38
264.035	349.38
264.267	346.38
264.499	365.38
264.732	377.38
264.964	350.38
265.197	351.38
265.429	376.38
265.661	363.38
265.894	380.38
266.126	373.38
266.358	380.38
266.591	373.38
266.823	393.38
267.055	383.38
267.287	374.38
267.52	384.38
267.752	379.38
267.984	376.38
268.216	385.38
268.448	361.38
268.681	377.38
268.913	420.38
269.145	393.38
269.377	391.38
269.609	371.38
269.841	377.38
270.073	393.38
270.306	397.38
270.538	406.38
270.77	382.38
271.002	389.38
271.234	395.38
271.466	391.38
271.698	393.38
271.93	375.38
272.162	412.38
272.394	421.38
272.626	408.38
272.858	430.38
273.09	399.38
273.322	415.38
273.553	416.38
273.785	423.38
274.017	422.38
274.249	439.38
274.481	415.38
274.713	425.38
274.945	431.38
275.176	426.38
275.408	427.38
275.64	439.38
275.872	466.38
276.104	441.38
276.335	421.38
276.567	419.38
276.799	438.38
277.031	442.38
277.262	454.38
277.494	456.38
277.726	457.38
277.957	454.38
278.189	460.38
278.421	430.38
278.652	451.38
278.884	428.38
279.115	467.38
279.347	454.38
279.579	461.38
279.81	468.38
280.042	472.38
280.273	476.38
280.505	462.38
280.736	468.38
280.968	468.38
281.199	472.38
281.431	465.38
281.662	472.38
281.894	465.38
282.125	471.38
282.356	489.38
282.588	475.38
282.819	485.38
283.051	493.38
283.282	482.38
283.513	492.38
283.745	522.38
283.976	501.38
284.207	501.38
284.439	492.38
284.67	515.38
284.901	492.38
285.132	499.38
285.364	497.38
285.595	507.38
285.826	522.38
286.057	519.38
286.288	506.38
286.52	519.38
286.751	512.38
286.982	515.38
287.213	510.38
287.444	507.38
287.675	548.38
287.906	537.38
288.138	539.38
288.369	534.38
288.6	565.38
288.831	537.38
289.062	543.38
289.293	544.38
289.524	551.38
289.755	551.38
289.986	523.38
290.217	558.38
290.448	559.38
290.679	570.38
290.91	547.38
291.141	546.38
291.371	556.38
291.602	580.38
291.833	552.38
292.064	554.38
292.295	539.38
292.526	540.38
292.757	533.38
292.987	555.38
293.218	542.38
293.449	558.38
293.68	540.38
293.91	526.38
294.141	567.38
294.372	576.38
294.603	588.38
294.833	581.38
295.064	565.38
295.295	568.38
295.525	568.38
295.756	570.38
295.987	579.38
296.217	581.38
296.448	577.38
296.679	567.38
296.909	580.38
297.14	574.38
297.37	584.38
297.601	585.38
297.831	579.38
298.062	601.38
298.292	591.38
298.523	603.38
298.753	597.38
298.984	615.38
299.214	606.38
299.445	596.38
299.675	593.38
299.905	625.38
300.136	598.38
300.366	600.38
300.597	599.38
300.827	614.38
301.057	638.38
301.288	644.38
301.518	641.38
301.748	630.38
301.979	619.38
302.209	645.38
302.439	643.38
302.669	626.38
302.9	625.38
303.13	616.38
303.36	609.38
303.59	632.38
303.82	619.38
304.051	634.38
304.281	632.38
304.511	603.38
304.741	626.38
304.971	642.38
305.201	619.38
305.431	630.38
305.661	638.38
305.891	630.38
306.121	646.38
306.352	630.38
306.582	604.38
306.812	592.38
307.042	635.38
307.272	601.38
307.502	618.38
307.731	614.38
307.961	604.38
308.191	602.38
308.421	605.38
308.651	623.38
308.881	599.38
309.111	614.38
309.341	597.38
309.571	595.38
309.8	613.38
310.03	622.38
310.26	645.38
310.49	613.38
310.72	617.38
310.949	636.38
311.179	611.38
311.409	623.38
311.639	632.38
311.868	638.38
312.098	639.38
312.328	641.38
312.557	673.38
312.787	630.38
313.017	629.38
313.246	630.38
313.476	654.38
313.706	671.38
313.935	673.38
314.165	673.38
314.394	691.38
314.624	652.38
314.853	647.38
315.083	637.38
315.312	640.38
315.542	653.38
315.771	652.38
316.001	658.38
316.23	659.38
316.46	644.38
316.689	648.38
316.919	641.38
317.148	669.38
317.377	658.38
317.607	637.38
317.836	641.38
318.065	616.38
318.295	629.38
318.524	641.38
318.753	622.38
318.983	643.38
319.212	636.38
319.441	664.38
319.67	642.38
319.9	639.38
320.129	655.38
320.358	646.38
320.587	643.38
320.816	641.38
321.046	645.38
321.275	653.38
321.504	663.38
321.733	663.38
321.962	654.38
322.191	665.38
322.42	647.38
322.649	650.38
322.878	672.38
323.108	671.38
323.337	663.38
323.566	667.38
323.795	680.38
324.024	683.38
324.253	678.38
324.482	649.38
324.71	654.38
324.939	664.38
325.168	678.38
325.397	684.38
325.626	667.38
325.855	700.38
326.084	704.38
326.313	725.38
326.542	721.38
326.77	711.38
326.999	718.38
327.228	699.38
327.457	699.38
327.686	679.38
327.914	715.38
328.143	715.38
328.372	704.38
328.6	701.38
328.829	681.38
329.058	699.38
329.287	726.38
329.515	729.38
329.744	739.38
329.972	738.38
330.201	734.38
330.43	721.38
330.658	703.38
330.887	735.38
331.115	734.38
331.344	742.38
331.572	762.38
331.801	759.38
332.03	781.38
332.258	803.38
332.486	843.38
332.715	843.38
332.943	878.38
333.172	921.38
333.4	945.38
333.629	954.38
333.857	965.38
334.085	984.38
334.314	947.38
334.542	918.38
334.771	932.38
334.999	913.38
335.227	897.38
335.455	881.38
335.684	891.38
335.912	891.38
336.14	867.38
336.369	877.38
336.597	867.38
336.825	860.38
337.053	859.38
337.281	840.38
337.51	829.38
337.738	833.38
337.966	780.38
338.194	800.38
338.422	772.38
338.65	776.38
338.878	779.38
339.106	756.38
339.334	808.38
339.562	794.38
339.79	756.38
340.018	755.38
340.246	725.38
340.474	735.38
340.702	758.38
340.93	735.38
341.158	775.38
341.386	758.38
341.614	755.38
341.842	726.38
342.07	720.38
342.298	742.38
342.526	738.38
342.754	737.38
342.981	731.38
343.209	755.38
343.437	787.38
343.665	856.38
343.893	910.38
344.12	927.38
344.348	875.38
344.576	852.38
344.804	825.38
345.031	793.38
345.259	758.38
345.487	737.38
345.714	759.38
345.942	755.38
346.17	762.38
346.397	743.38
346.625	728.38
346.853	733.38
347.08	678.38
347.308	725.38
347.535	723.38
347.763	721.38
347.99	724.38
348.218	719.38
348.445	708.38
348.673	729.38
348.9	714.38
349.128	715.38
349.355	710.38
349.583	701.38
349.81	706.38
350.037	684.38
350.265	684.38
350.492	690.38
350.72	679.38
350.947	703.38
351.174	697.38
351.402	696.38
351.629	675.38
351.856	681.38
352.083	693.38
352.311	702.38
352.538	712.38
352.765	679.38
352.992	687.38
353.22	696.38
353.447	663.38
353.674	709.38
353.901	685.38
354.128	696.38
354.355	683.38
354.583	685.38
354.81	696.38
355.037	704.38
355.264	688.38
355.491	684.38
355.718	680.38
355.945	684.38
356.172	698.38
356.399	719.38
356.626	700.38
356.853	703.38
357.08	723.38
357.307	695.38
357.534	708.38
357.761	695.38
357.988	699.38
358.215	675.38
358.441	695.38
358.668	692.38
358.895	667.38
359.122	687.38
359.349	691.38
359.576	686.38
359.802	719.38
360.029	715.38
360.256	701.38
360.483	690.38
360.709	695.38
360.936	719.38
361.163	698.38
361.39	674.38
361.616	684.38
361.843	687.38
362.07	716.38
362.296	711.38
362.523	695.38
362.749	698.38
362.976	678.38
363.203	685.38
363.429	666.38
363.656	705.38
363.882	693.38
364.109	694.38
364.335	676.38
364.562	658.38
364.788	675.38
365.015	690.38
365.241	709.38
365.468	707.38
365.694	690.38
365.92	669.38
366.147	699.38
366.373	700.38
366.599	695.38
366.826	702.38
367.052	688.38
367.278	707.38
367.505	694.38
367.731	698.38
367.957	692.38
368.184	711.38
368.41	694.38
368.636	712.38
368.862	741.38
369.089	697.38
369.315	723.38
369.541	710.38
369.767	706.38
369.993	701.38
370.219	691.38
370.445	718.38
370.672	723.38
370.898	734.38
371.124	748.38
371.35	757.38
371.576	772.38
371.802	745.38
372.028	735.38
372.254	733.38
372.48	754.38
372.706	781.38
372.932	788.38
373.158	806.38
373.384	742.38
373.61	779.38
373.835	745.38
374.061	754.38
374.287	762.38
374.513	789.38
374.739	802.38
374.965	805.38
375.191	834.38
375.416	832.38
375.642	804.38
375.868	807.38
376.094	781.38
376.319	780.38
376.545	781.38
376.771	757.38
376.997	756.38
377.222	749.38
377.448	745.38
377.674	755.38
377.899	754.38
378.125	715.38
378.35	723.38
378.576	750.38
378.802	730.38
379.027	759.38
379.253	775.38
379.478	745.38
379.704	758.38
379.929	769.38
380.155	730.38
380.38	763.38
380.606	734.38
380.831	717.38
381.057	769.38
381.282	743.38
381.507	742.38
381.733	748.38
381.958	757.38
382.184	778.38
382.409	786.38
382.634	753.38
382.86	787.38
383.085	789.38
383.31	812.38
383.535	819.38
383.761	856.38
383.986	869.38
384.211	843.38
384.436	885.38
384.662	869.38
384.887	890.38
385.112	891.38
385.337	934.38
385.562	931.38
385.787	915.38
386.013	909.38
386.238	919.38
386.463	927.38
386.688	907.38
386.913	915.38
387.138	919.38
387.363	916.38
387.588	913.38
387.813	898.38
388.038	907.38
388.263	889.38
388.488	894.38
388.713	882.38
388.938	901.38
389.163	878.38
389.387	886.38
389.612	887.38
389.837	904.38
390.062	900.38
390.287	895.38
390.512	888.38
390.736	892.38
390.961	892.38
391.186	921.38
391.411	961.38
391.636	956.38
391.86	1009.38
392.085	1045.38
392.31	996.38
392.534	999.38
392.759	1000.38
392.984	982.38
393.208	987.38
393.433	975.38
393.658	979.38
393.882	975.38
394.107	955.38
394.331	985.38
394.556	954.38
394.78	974.38
395.005	986.38
395.229	981.38
395.454	1002.38
395.678	1033.38
395.903	1053.38
396.127	1028.38
396.352	963.38
396.576	958.38
396.801	959.38
397.025	971.38
397.249	986.38
397.474	1025.38
397.698	1017.38
397.922	1004.38
398.147	1045.38
398.371	1026.38
398.595	1089.38
398.82	1147.38
399.044	1214.38
399.268	1366.38
399.492	1579.38
399.717	1786.38
399.941	1749.38
400.165	1590.38
400.389	1404.38
400.613	1293.38
400.837	1209.38
401.062	1202.38
401.286	1153.38
401.51	1149.38
401.734	1161.38
401.958	1166.38
402.182	1177.38
402.406	1192.38
402.63	1202.38
402.854	1266.38
403.078	1273.38
403.302	1257.38
403.526	1305.38
403.75	1349.38
403.974	1368.38
404.198	1351.38
404.422	1324.38
404.645	1342.38
404.869	1322.38
405.093	1279.38
405.317	1266.38
405.541	1293.38
405.765	1284.38
405.988	1254.38
406.212	1281.38
406.436	1290.38
406.66	1321.38
406.883	1293.38
407.107	1391.38
407.331	1442.38
407.555	1519.38
407.778	1482.38
408.002	1478.38
408.226	1424.38
408.449	1375.38
408.673	1331.38
408.896	1316.38
409.12	1281.38
409.344	1284.38
409.567	1281.38
409.791	1284.38
410.014	1310.38
410.238	1290.38
410.461	1262.38
410.685	1235.38
410.908	1186.38
411.132	1210.38
411.355	1157.38
411.578	1173.38
411.802	1196.38
412.025	1226.38
412.249	1243.38
412.472	1207.38
412.695	1145.38
412.919	1157.38
413.142	1133.38
413.365	1142.38
413.589	1161.38
413.812	1124.38
414.035	1129.38
414.258	1153.38
414.482	1118.38
414.705	1145.38
414.928	1147.38
415.151	1143.38
415.374	1139.38
415.597	1106.38
415.821	1110.38
416.044	1132.38
416.267	1119.38
416.49	1122.38
416.713	1117.38
416.936	1144.38
417.159	1134.38
417.382	1089.38
417.605	1128.38
417.828	1141.38
418.051	1132.38
418.274	1130.38
418.497	1127.38
418.72	1162.38
418.943	1155.38
419.166	1263.38
419.389	1296.38
419.611	1309.38
419.834	1238.38
420.057	1185.38
420.28	1167.38
420.503	1151.38
420.726	1124.38
420.948	1115.38
421.171	1097.38
421.394	1103.38
421.617	1070.38
421.839	1134.38
422.062	1119.38
422.285	1077.38
422.507	1151.38
422.73	1158.38
422.953	1182.38
423.175	1207.38
423.398	1170.38
423.621	1208.38
423.843	1187.38
424.066	1201.38
424.288	1197.38
424.511	1201.38
424.733	1197.38
424.956	1143.38
425.178	1149.38
425.401	1160.38
425.623	1152.38
425.846	1087.38
426.068	1102.38
426.291	1063.38
426.513	1095.38
426.735	1051.38
426.958	1052.38
427.18	1035.38
427.402	1053.38
427.625	1038.38
427.847	1001.38
428.069	1043.38
428.292	1026.38
428.514	1018.38
428.736	970.38
428.958	1005.38
429.181	969.38
429.403	940.38
429.625	988.38
429.847	964.38
430.069	1003.38
430.292	970.38
430.514	976.38
430.736	974.38
430.958	958.38
431.18	972.38
431.402	988.38
431.624	978.38
431.846	1002.38
432.068	1019.38
432.29	1013.38
432.512	988.38
432.734	999.38
432.956	1005.38
433.178	977.38
433.4	979.38
433.622	996.38
433.844	1031.38
434.066	1023.38
434.287	1019.38
434.509	1081.38
434.731	1119.38
434.953	1088.38
435.175	1137.38
435.397	1096.38
435.618	1073.38
435.84	1058.38
436.062	995.38
436.284	992.38
436.505	1041.38
436.727	1037.38
436.949	997.38
437.17	1009.38
437.392	986.38
437.614	966.38
437.835	938.38
438.057	950.38
438.278	966.38
438.5	924.38
438.721	940.38
438.943	966.38
439.165	950.38
439.386	957.38
439.608	970.38
439.829	980.38
440.05	1002.38
440.272	979.38
440.493	1000.38
440.715	1025.38
440.936	1015.38
441.158	1060.38
441.379	1074.38
441.6	1134.38
441.822	1153.38
442.043	1138.38
442.264	1143.38
442.486	1123.38
442.707	1111.38
442.928	1093.38
443.149	1081.38
443.371	1091.38
443.592	1130.38
443.813	1143.38
444.034	1126.38
444.255	1165.38
444.476	1217.38
444.698	1339.38
444.919	1325.38
445.14	1431.38
445.361	1261.38
445.582	1152.38
445.803	1097.38
446.024	1060.38
446.245	1062.38
446.466	1045.38
446.687	990.38
446.908	983.38
447.129	966.38
447.35	968.38
447.571	932.38
447.792	928.38
448.013	943.38
448.234	938.38
448.455	904.38
448.675	894.38
448.896	905.38
449.117	906.38
449.338	881.38
449.559	885.38
449.779	892.38
450	906.38
450.221	912.38
450.442	924.38
450.662	907.38
450.883	918.38
451.104	949.38
451.324	932.38
451.545	921.38
451.766	931.38
451.986	910.38
452.207	907.38
452.428	910.38
452.648	917.38
452.869	890.38
453.089	874.38
453.31	899.38
453.53	895.38
453.751	898.38
453.971	891.38
454.192	877.38
454.412	865.38
454.633	847.38
454.853	885.38
455.073	871.38
455.294	856.38
455.514	857.38
455.734	836.38
455.955	825.38
456.175	837.38
456.395	834.38
456.616	831.38
456.836	852.38
457.056	834.38
457.276	826.38
457.497	863.38
457.717	852.38
457.937	858.38
458.157	882.38
458.377	886.38
458.598	889.38
458.818	909.38
459.038	947.38
459.258	973.38
459.478	983.38
459.698	1018.38
459.918	1030.38
460.138	1108.38
460.358	1179.38
460.578	1193.38
460.798	1175.38
461.018	1220.38
461.238	1201.38
461.458	1187.38
461.678	1160.38
461.898	1217.38
462.118	1227.38
462.338	1268.38
462.558	1288.38
462.777	1349.38
462.997	1497.38
463.217	1601.38
463.437	1578.38
463.657	1470.38
463.876	1418.38
464.096	1373.38
464.316	1391.38
464.536	1410.38
464.755	1340.38
464.975	1323.38
465.195	1246.38
465.414	1155.38
465.634	1085.38
465.854	1055.38
466.073	1004.38
466.293	984.38
466.512	983.38
466.732	932.38
466.951	937.38
467.171	946.38
467.391	931.38
467.61	950.38
467.829	928.38
468.049	949.38
468.268	911.38
468.488	923.38
468.707	916.38
468.927	931.38
469.146	904.38
469.365	947.38
469.585	936.38
469.804	976.38
470.023	978.38
470.243	1007.38
470.462	1012.38
470.681	987.38
470.901	1019.38
471.12	964.38
471.339	981.38
471.558	948.38
471.777	923.38
471.997	940.38
472.216	936.38
472.435	917.38
472.654	901.38
472.873	881.38
473.092	866.38
473.311	876.38
473.53	905.38
473.749	891.38
473.968	885.38
474.187	894.38
474.406	897.38
474.625	905.38
474.844	886.38
475.063	886.38
475.282	894.38
475.501	900.38
475.72	892.38
475.939	898.38
476.158	902.38
476.377	928.38
476.596	948.38
476.814	953.38
477.033	953.38
477.252	955.38
477.471	999.38
477.69	975.38
477.908	998.38
478.127	1056.38
478.346	1059.38
478.564	1115.38
478.783	1105.38
479.002	1122.38
479.22	1156.38
479.439	1115.38
479.658	1105.38
479.876	1130.38
480.095	1133.38
480.313	1141.38
480.532	1206.38
480.751	1230.38
480.969	1179.38
481.188	1119.38
481.406	1076.38
481.624	1057.38
481.843	1007.38
482.061	1022.38
482.28	1045.38
482.498	1029.38
482.717	1037.38
482.935	1045.38
483.153	1027.38
483.372	1000.38
483.59	996.38
483.808	1002.38
484.027	1013.38
484.245	1038.38
484.463	1025.38
484.681	1027.38
484.9	1042.38
485.118	1046.38
485.336	1059.38
485.554	1052.38
485.772	1058.38
485.99	1069.38
486.209	1057.38
486.427	1079.38
486.645	1042.38
486.863	1084.38
487.081	1058.38
487.299	1066.38
487.517	1077.38
487.735	1059.38
487.953	1077.38
488.171	1049.38
488.389	1060.38
488.607	1053.38
488.825	1042.38
489.043	1068.38
489.261	1041.38
489.479	1044.38
489.696	1034.38
489.914	1018.38
490.132	1102.38
490.35	1069.38
490.568	1060.38
490.786	1098.38
491.003	1073.38
491.221	1104.38
491.439	1079.38
491.657	1058.38
491.874	1070.38
492.092	1058.38
492.31	1082.38
492.527	1120.38
492.745	1084.38
492.963	1146.38
493.18	1095.38
493.398	1113.38
493.615	1103.38
493.833	1107.38
494.05	1130.38
494.268	1154.38
494.485	1167.38
494.703	1145.38
494.92	1173.38
495.138	1141.38
495.355	1133.38
495.573	1149.38
495.79	1135.38
496.008	1160.38
496.225	1152.38
496.442	1189.38
496.66	1179.38
496.877	1203.38
497.094	1237.38
497.312	1254.38
497.529	1275.38
497.746	1311.38
497.963	1375.38
498.181	1362.38
498.398	1446.38
498.615	1551.38
498.832	1693.38
499.049	1797.38
499.267	1971.38
499.484	2180.38
499.701	2383.38
499.918	2678.38
500.135	3022.38
500.352	3439.38
500.569	3647.38
500.786	3561.38
501.003	3365.38
501.22	2980.38
501.437	2685.38
501.654	2301.38
501.871	2075.38
502.088	1919.38
502.305	1747.38
502.522	1662.38
502.739	1613.38
502.956	1523.38
503.172	1461.38
503.389	1400.38
503.606	1350.38
503.823	1334.38
504.04	1349.38
504.256	1332.38
504.473	1386.38
504.69	1357.38
504.907	1329.38
505.123	1260.38
505.34	1223.38
505.557	1142.38
505.773	1117.38
505.99	1105.38
506.207	1095.38
506.423	1042.38
506.64	1035.38
506.856	1030.38
507.073	1001.38
507.289	987.38
507.506	1005.38
507.722	985.38
507.939	979.38
508.155	980.38
508.372	995.38
508.588	950.38
508.805	969.38
509.021	961.38
509.238	953.38
509.454	967.38
509.67	947.38
509.887	947.38
510.103	948.38
510.319	902.38
510.536	925.38
510.752	908.38
510.968	924.38
511.184	953.38
511.401	940.38
511.617	915.38
511.833	921.38
512.049	913.38
512.265	898.38
512.481	893.38
512.698	918.38
512.914	922.38
513.13	915.38
513.346	918.38
513.562	918.38
513.778	934.38
513.994	931.38
514.21	945.38
514.426	924.38
514.642	933.38
514.858	935.38
515.074	961.38
515.29	948.38
515.506	964.38
515.721	999.38
515.937	1006.38
516.153	1012.38
516.369	1029.38
516.585	1053.38
516.801	1124.38
517.016	1138.38
517.232	1184.38
517.448	1239.38
517.664	1295.38
517.879	1319.38
518.095	1309.38
518.311	1260.38
518.527	1213.38
518.742	1174.38
518.958	1120.38
519.173	1105.38
519.389	1034.38
519.605	996.38
519.82	995.38
520.036	972.38
520.251	959.38
520.467	946.38
520.682	928.38
520.898	903.38
521.113	909.38
521.329	934.38
521.544	899.38
521.76	888.38
521.975	889.38
522.19	877.38
522.406	874.38
522.621	861.38
522.836	871.38
523.052	861.38
523.267	859.38
523.482	845.38
523.698	846.38
523.913	832.38
524.128	850.38
524.343	838.38
524.559	840.38
524.774	831.38
524.989	862.38
525.204	811.38
525.419	856.38
525.634	814.38
525.849	846.38
526.064	812.38
526.28	843.38
526.495	814.38
526.71	809.38
526.925	839.38
527.14	818.38
527.355	801.38
527.57	828.38
527.785	839.38
527.999	839.38
528.214	806.38
528.429	839.38
528.644	821.38
528.859	834.38
529.074	835.38
529.289	827.38
529.503	810.38
529.718	833.38
529.933	817.38
530.148	800.38
530.363	817.38
530.577	808.38
530.792	796.38
531.007	806.38
531.221	830.38
531.436	803.38
531.651	811.38
531.865	839.38
532.08	818.38
532.295	811.38
532.509	795.38
532.724	798.38
532.938	823.38
533.153	829.38
533.367	829.38
533.582	815.38
533.796	835.38
534.011	827.38
534.225	831.38
534.44	804.38
534.654	819.38
534.868	812.38
535.083	802.38
535.297	792.38
535.511	789.38
535.726	770.38
535.94	770.38
536.154	759.38
536.369	754.38
536.583	784.38
536.797	772.38
537.011	792.38
537.225	759.38
537.44	758.38
537.654	787.38
537.868	741.38
538.082	707.38
538.296	759.38
538.51	750.38
538.724	751.38
538.938	732.38
539.153	715.38
539.367	740.38
539.581	717.38
539.795	725.38
540.009	741.38
540.222	748.38
540.436	741.38
540.65	740.38
540.864	762.38
541.078	740.38
541.292	746.38
541.506	759.38
541.72	736.38
541.934	723.38
542.147	741.38
542.361	732.38
542.575	751.38
542.789	717.38
543.002	702.38
543.216	720.38
543.43	715.38
543.644	742.38
543.857	698.38
544.071	722.38
544.285	750.38
544.498	737.38
544.712	746.38
544.925	725.38
545.139	761.38
545.352	774.38
545.566	767.38
545.779	743.38
545.993	775.38
546.206	777.38
546.42	763.38
546.633	787.38
546.847	780.38
547.06	746.38
547.274	778.38
547.487	753.38
547.7	760.38
547.914	782.38
548.127	762.38
548.34	768.38
548.554	765.38
548.767	747.38
548.98	769.38
549.193	760.38
549.407	779.38
549.62	782.38
549.833	794.38
550.046	770.38
550.259	746.38
550.473	744.38
550.686	733.38
550.899	750.38
551.112	755.38
551.325	751.38
551.538	732.38
551.751	781.38
551.964	738.38
552.177	767.38
552.39	740.38
552.603	781.38
552.816	821.38
553.029	832.38
553.242	842.38
553.455	822.38
553.667	854.38
553.88	835.38
554.093	785.38
554.306	775.38
554.519	742.38
554.732	772.38
554.944	723.38
555.157	724.38
555.37	719.38
555.583	712.38
555.795	699.38
556.008	653.38
556.221	653.38
556.433	672.38
556.646	654.38
556.859	665.38
557.071	661.38
557.284	652.38
557.496	643.38
557.709	637.38
557.921	657.38
558.134	653.38
558.346	639.38
558.559	648.38
558.771	641.38
558.984	623.38
559.196	620.38
559.409	632.38
559.621	635.38
559.833	612.38
560.046	607.38
560.258	621.38
560.47	614.38
560.683	613.38
560.895	610.38
561.107	589.38
561.32	614.38
561.532	599.38
561.744	622.38
561.956	634.38
562.168	614.38
562.381	633.38
562.593	599.38
562.805	622.38
563.017	613.38
563.229	629.38
563.441	631.38
563.653	639.38
563.865	627.38
564.077	637.38
564.289	643.38
564.501	690.38
564.713	654.38
564.925	659.38
565.137	681.38
565.349	702.38
565.561	734.38
565.773	748.38
565.985	785.38
566.197	825.38
566.408	904.38
566.62	965.38
566.832	1027.38
567.044	1055.38
567.255	1038.38
567.467	1101.38
567.679	1113.38
567.891	1215.38
568.102	1215.38
568.314	1165.38
568.526	1060.38
568.737	946.38
568.949	882.38
569.161	830.38
569.372	762.38
569.584	708.38
569.795	689.38
570.007	681.38
570.218	650.38
570.43	615.38
570.641	653.38
570.853	643.38
571.064	667.38
571.276	662.38
571.487	629.38
571.698	600.38
571.91	591.38
572.121	580.38
572.333	558.38
572.544	548.38
572.755	537.38
572.966	549.38
573.178	536.38
573.389	525.38
573.6	532.38
573.811	508.38
574.023	515.38
574.234	515.38
574.445	502.38
574.656	513.38
574.867	511.38
575.078	517.38
575.289	519.38
575.501	508.38
575.712	498.38
575.923	515.38
576.134	490.38
576.345	480.38
576.556	478.38
576.767	499.38
576.978	479.38
577.188	486.38
577.399	471.38
577.61	458.38
577.821	468.38
578.032	454.38
578.243	452.38
578.454	454.38
578.665	444.38
578.875	461.38
579.086	453.38
579.297	470.38
579.508	439.38
579.718	462.38
579.929	448.38
580.14	446.38
580.35	469.38
580.561	439.38
580.772	439.38
580.982	451.38
581.193	431.38
581.403	434.38
581.614	465.38
581.825	444.38
582.035	423.38
582.246	420.38
582.456	426.38
582.667	417.38
582.877	437.38
583.087	407.38
583.298	431.38
583.508	428.38
583.719	436.38
583.929	427.38
584.139	421.38
584.35	431.38
584.56	414.38
584.77	427.38
584.981	426.38
585.191	415.38
585.401	407.38
585.611	406.38
585.821	403.38
586.032	425.38
586.242	417.38
586.452	426.38
586.662	436.38
586.872	425.38
587.082	411.38
587.292	395.38
587.502	415.38
587.713	409.38
587.923	410.38
588.133	392.38
588.343	405.38
588.553	408.38
588.762	422.38
588.972	403.38
589.182	446.38
589.392	422.38
589.602	409.38
589.812	423.38
590.022	442.38
590.232	417.38
590.441	412.38
590.651	415.38
590.861	399.38
591.071	422.38
591.281	418.38
591.49	443.38
591.7	444.38
591.91	462.38
592.119	443.38
592.329	452.38
592.539	466.38
592.748	500.38
592.958	504.38
593.167	525.38
593.377	526.38
593.587	516.38
593.796	534.38
594.006	543.38
594.215	542.38
594.424	542.38
594.634	535.38
594.843	491.38
595.053	481.38
595.262	441.38
595.472	455.38
595.681	449.38
595.89	449.38
596.1	411.38
596.309	432.38
596.518	407.38
596.727	407.38
596.937	364.38
597.146	393.38
597.355	382.38
597.564	380.38
597.774	353.38
597.983	368.38
598.192	377.38
598.401	359.38
598.61	360.38
598.819	357.38
599.028	342.38
599.237	362.38
599.446	333.38
599.655	342.38
599.864	365.38
600.073	348.38
600.282	339.38
600.491	349.38
600.7	335.38
600.909	350.38
601.118	341.38
601.327	343.38
601.536	339.38
601.745	328.38
601.953	346.38
602.162	348.38
602.371	335.38
602.58	323.38
602.789	354.38
602.997	320.38
603.206	333.38
603.415	321.38
603.623	307.38
603.832	332.38
604.041	329.38
604.249	323.38
604.458	330.38
604.666	320.38
604.875	326.38
605.084	341.38
605.292	320.38
605.501	326.38
605.709	321.38
605.918	309.38
606.126	321.38
606.334	309.38
606.543	311.38
606.751	301.38
606.96	311.38
607.168	319.38
607.376	294.38
607.585	313.38
607.793	322.38
608.001	315.38
608.21	316.38
608.418	303.38
608.626	295.38
608.834	306.38
609.043	291.38
609.251	316.38
609.459	315.38
609.667	308.38
609.875	320.38
610.083	301.38
610.291	330.38
610.499	297.38
610.707	284.38
610.916	300.38
611.124	317.38
611.332	307.38
611.54	293.38
611.748	313.38
611.955	299.38
612.163	301.38
612.371	302.38
612.579	314.38
612.787	290.38
612.995	305.38
613.203	294.38
613.411	295.38
613.618	297.38
613.826	301.38
614.034	294.38
614.242	281.38
614.449	298.38
614.657	289.38
614.865	305.38
615.072	299.38
615.28	319.38
615.488	311.38
615.695	281.38
615.903	297.38
616.111	304.38
616.318	286.38
616.526	282.38
616.733	305.38
616.941	304.38
617.148	270.38
617.356	280.38
617.563	287.38
617.771	313.38
617.978	295.38
618.185	298.38
618.393	289.38
618.6	297.38
618.807	321.38
619.015	311.38
619.222	296.38
619.429	285.38
619.637	298.38
619.844	272.38
620.051	282.38
620.258	275.38
620.466	278.38
620.673	269.38
620.88	275.38
621.087	279.38
621.294	282.38
621.501	269.38
621.708	276.38
621.915	279.38
622.122	286.38
622.329	275.38
622.536	266.38
622.743	267.38
622.95	259.38
623.157	276.38
623.364	275.38
623.571	285.38
623.778	261.38
623.985	268.38
624.192	265.38
624.399	285.38
624.606	269.38
624.812	257.38
625.019	249.38
625.226	254.38
625.433	258.38
625.639	263.38
625.846	260.38
626.053	254.38
626.259	264.38
626.466	259.38
626.673	272.38
626.879	249.38
627.086	235.38
627.293	246.38
627.499	261.38
627.706	249.38
627.912	259.38
628.119	248.38
628.325	264.38
628.532	224.38
628.738	258.38
628.945	257.38
629.151	254.38
629.357	240.38
629.564	242.38
629.77	261.38
629.976	243.38
630.183	245.38
630.389	221.38
630.595	228.38
630.802	235.38
631.008	231.38
631.214	243.38
631.42	225.38
631.627	230.38
631.833	233.38
632.039	229.38
632.245	230.38
632.451	244.38
632.657	229.38
632.863	225.38
633.069	228.38
633.275	227.38
633.481	228.38
633.688	225.38
633.893	212.38
634.099	215.38
634.305	195.38
634.511	225.38
634.717	215.38
634.923	210.38
635.129	214.38
635.335	227.38
635.541	211.38
635.747	223.38
635.952	197.38
636.158	217.38
636.364	205.38
636.57	210.38
636.775	215.38
636.981	217.38
637.187	218.38
637.392	189.38
637.598	207.38
637.804	215.38
638.009	203.38
638.215	216.38
638.421	209.38
638.626	206.38
638.832	213.38
639.037	205.38
639.243	202.38
639.448	215.38
639.654	204.38
639.859	185.38
640.065	199.38
640.27	193.38
640.475	183.38
640.681	203.38
640.886	180.38
641.091	215.38
641.297	189.38
641.502	182.38
641.707	204.38
641.913	207.38
642.118	194.38
642.323	190.38
642.528	216.38
642.733	207.38
642.939	197.38
643.144	187.38
643.349	189.38
643.554	185.38
643.759	199.38
643.964	192.38
644.169	193.38
644.374	194.38
644.579	199.38
644.784	206.38
644.989	198.38
645.194	193.38
645.399	190.38
645.604	189.38
645.809	185.38
646.014	198.38
646.219	185.38
646.423	178.38
646.628	184.38
646.833	183.38
647.038	185.38
647.243	181.38
647.447	189.38
647.652	201.38
647.857	218.38
648.062	174.38
648.266	199.38
648.471	195.38
648.676	179.38
648.88	190.38
649.085	194.38
649.289	196.38
649.494	187.38
649.698	185.38
649.903	185.38
650.107	195.38
650.312	191.38
650.516	174.38
650.721	191.38
650.925	186.38
651.13	168.38
651.334	163.38
651.539	174.38
651.743	185.38
651.947	166.38
652.152	168.38
652.356	163.38
652.56	163.38
652.764	154.38
652.969	170.38
653.173	147.38
653.377	163.38
653.581	151.38
653.785	168.38
653.99	137.38
654.194	149.38
654.398	155.38
654.602	155.38
654.806	156.38
655.01	136.38
655.214	137.38
655.418	145.38
655.622	143.38
655.826	129.38
656.03	132.38
656.234	138.38
656.438	137.38
656.642	124.38
656.846	125.38
657.049	121.38
657.253	130.38
657.457	139.38
657.661	127.38
657.865	117.38
658.068	106.38
658.272	113.38
658.476	114.38
658.68	101.38
658.883	113.38
659.087	97.38
659.291	109.38
659.494	115.38
659.698	117.38
659.901	89.38
660.105	97.38
660.309	98.38
660.512	103.38
660.716	83.38
660.919	100.38
661.123	107.38
661.326	106.38
661.53	103.38
661.733	87.38
661.936	100.38
662.14	91.38
662.343	94.38
662.546	99.38
662.75	90.38
662.953	87.38
663.156	87.38
663.36	83.38
663.563	74.38
663.766	91.38
663.969	84.38
664.173	87.38
664.376	88.38
664.579	84.38
664.782	82.38
664.985	91.38
665.188	86.38
665.391	96.38
665.594	82.38
665.797	66.38
666	84.38
666.203	85.38
666.406	89.38
666.609	86.38
666.812	83.38
667.015	72.38
667.218	80.38
667.421	86.38
667.624	75.38
667.827	92.38
668.03	85.38
668.232	93.38
668.435	99.38
668.638	99.38
668.841	82.38
669.043	97.38
669.246	82.38
669.449	79.38
669.651	73.38
669.854	82.38
670.057	85.38
670.259	86.38
670.462	84.38
670.665	93.38
670.867	80.38
671.07	85.38
671.272	84.38
671.475	89.38
671.677	83.38
671.88	86.38
672.082	90.38
672.284	70.38
672.487	80.38
672.689	85.38
672.892	87.38
