Data from NiCl2@0.0625M.TitratingCurve.Agarose3%dH2O.NegLispCup.LampEnergy10.LIBS07252019_HRD10591_18-34-43-576.txt Node
Date: Thu Jul 25 18:34:43 EDT 2019
User: cochatt
Spectrometer: HR+D1059
Trigger mode: 1
Integration Time (sec): 1.000000E-1
Scans to average: 1
Electric dark correction enabled: true
Nonlinearity correction enabled: false
Boxcar width: 0
XAxis mode: Wavelengths
Number of Pixels in Spectrum: 2048
>>>>>Begin Spectral Data<<<<<
223.165	-24.44
223.4	-24.44
223.635	-24.44
223.869	-1.44
224.104	-13.44
224.338	-13.44
224.573	-26.44
224.808	0.56
225.042	-13.44
225.277	-9.44
225.511	-1.44
225.746	-3.44
225.98	-1.44
226.215	10.56
226.449	21.56
226.683	12.56
226.918	30.56
227.152	32.56
227.387	42.56
227.621	40.56
227.856	34.56
228.09	49.56
228.324	43.56
228.559	52.56
228.793	76.56
229.027	124.56
229.262	145.56
229.496	155.56
229.73	152.56
229.964	148.56
230.199	159.56
230.433	156.56
230.667	171.56
230.901	171.56
231.136	164.56
231.37	187.56
231.604	191.56
231.838	194.56
232.072	197.56
232.306	192.56
232.541	196.56
232.775	186.56
233.009	192.56
233.243	187.56
233.477	201.56
233.711	203.56
233.945	191.56
234.179	192.56
234.413	216.56
234.647	206.56
234.881	196.56
235.115	202.56
235.349	204.56
235.583	211.56
235.817	190.56
236.051	216.56
236.285	222.56
236.519	224.56
236.753	199.56
236.987	211.56
237.221	224.56
237.455	224.56
237.689	215.56
237.922	237.56
238.156	224.56
238.39	226.56
238.624	215.56
238.858	223.56
239.091	242.56
239.325	251.56
239.559	236.56
239.793	253.56
240.027	255.56
240.26	260.56
240.494	251.56
240.728	243.56
240.961	242.56
241.195	272.56
241.429	263.56
241.662	279.56
241.896	280.56
242.13	286.56
242.363	282.56
242.597	287.56
242.83	280.56
243.064	285.56
243.298	313.56
243.531	310.56
243.765	289.56
243.998	305.56
244.232	283.56
244.465	312.56
244.699	288.56
244.932	316.56
245.166	306.56
245.399	325.56
245.633	302.56
245.866	332.56
246.099	323.56
246.333	329.56
246.566	312.56
246.8	343.56
247.033	344.56
247.266	360.56
247.5	346.56
247.733	347.56
247.966	346.56
248.2	348.56
248.433	354.56
248.666	349.56
248.899	354.56
249.133	365.56
249.366	369.56
249.599	385.56
249.832	367.56
250.066	370.56
250.299	382.56
250.532	366.56
250.765	369.56
250.998	385.56
251.231	402.56
251.465	373.56
251.698	397.56
251.931	378.56
252.164	378.56
252.397	391.56
252.63	406.56
252.863	423.56
253.096	399.56
253.329	418.56
253.562	437.56
253.795	416.56
254.028	420.56
254.261	411.56
254.494	423.56
254.727	414.56
254.96	428.56
255.193	431.56
255.426	454.56
255.659	441.56
255.892	434.56
256.124	427.56
256.357	432.56
256.59	457.56
256.823	460.56
257.056	475.56
257.289	451.56
257.521	452.56
257.754	468.56
257.987	453.56
258.22	458.56
258.452	473.56
258.685	480.56
258.918	478.56
259.151	465.56
259.383	481.56
259.616	473.56
259.849	463.56
260.081	488.56
260.314	487.56
260.547	488.56
260.779	493.56
261.012	496.56
261.244	471.56
261.477	491.56
261.71	497.56
261.942	514.56
262.175	534.56
262.407	511.56
262.64	501.56
262.872	538.56
263.105	488.56
263.337	497.56
263.57	522.56
263.802	535.56
264.035	530.56
264.267	524.56
264.499	536.56
264.732	550.56
264.964	539.56
265.197	548.56
265.429	564.56
265.661	552.56
265.894	530.56
266.126	554.56
266.358	554.56
266.591	580.56
266.823	561.56
267.055	558.56
267.287	579.56
267.52	569.56
267.752	553.56
267.984	582.56
268.216	566.56
268.448	595.56
268.681	571.56
268.913	585.56
269.145	560.56
269.377	587.56
269.609	596.56
269.841	594.56
270.073	583.56
270.306	598.56
270.538	607.56
270.77	577.56
271.002	612.56
271.234	608.56
271.466	626.56
271.698	604.56
271.93	624.56
272.162	624.56
272.394	613.56
272.626	632.56
272.858	619.56
273.09	644.56
273.322	636.56
273.553	630.56
273.785	648.56
274.017	641.56
274.249	634.56
274.481	627.56
274.713	656.56
274.945	658.56
275.176	679.56
275.408	663.56
275.64	656.56
275.872	663.56
276.104	666.56
276.335	662.56
276.567	662.56
276.799	659.56
277.031	699.56
277.262	706.56
277.494	680.56
277.726	680.56
277.957	684.56
278.189	698.56
278.421	690.56
278.652	720.56
278.884	707.56
279.115	707.56
279.347	709.56
279.579	711.56
279.81	698.56
280.042	702.56
280.273	728.56
280.505	718.56
280.736	758.56
280.968	717.56
281.199	726.56
281.431	702.56
281.662	750.56
281.894	739.56
282.125	750.56
282.356	766.56
282.588	769.56
282.819	766.56
283.051	762.56
283.282	771.56
283.513	759.56
283.745	748.56
283.976	764.56
284.207	768.56
284.439	761.56
284.67	752.56
284.901	796.56
285.132	793.56
285.364	799.56
285.595	766.56
285.826	767.56
286.057	778.56
286.288	776.56
286.52	794.56
286.751	795.56
286.982	796.56
287.213	807.56
287.444	814.56
287.675	824.56
287.906	803.56
288.138	844.56
288.369	807.56
288.6	833.56
288.831	837.56
289.062	817.56
289.293	810.56
289.524	809.56
289.755	825.56
289.986	835.56
290.217	828.56
290.448	822.56
290.679	851.56
290.91	817.56
291.141	820.56
291.371	836.56
291.602	823.56
291.833	844.56
292.064	854.56
292.295	840.56
292.526	856.56
292.757	836.56
292.987	852.56
293.218	843.56
293.449	856.56
293.68	838.56
293.91	846.56
294.141	844.56
294.372	828.56
294.603	851.56
294.833	838.56
295.064	848.56
295.295	866.56
295.525	827.56
295.756	881.56
295.987	852.56
296.217	859.56
296.448	867.56
296.679	884.56
296.909	876.56
297.14	869.56
297.37	905.56
297.601	882.56
297.831	889.56
298.062	909.56
298.292	890.56
298.523	911.56
298.753	924.56
298.984	896.56
299.214	928.56
299.445	913.56
299.675	919.56
299.905	902.56
300.136	899.56
300.366	908.56
300.597	909.56
300.827	912.56
301.057	947.56
301.288	990.56
301.518	967.56
301.748	945.56
301.979	1002.56
302.209	957.56
302.439	976.56
302.669	983.56
302.9	937.56
303.13	939.56
303.36	966.56
303.59	964.56
303.82	945.56
304.051	952.56
304.281	975.56
304.511	959.56
304.741	955.56
304.971	951.56
305.201	958.56
305.431	928.56
305.661	967.56
305.891	955.56
306.121	943.56
306.352	948.56
306.582	946.56
306.812	935.56
307.042	948.56
307.272	945.56
307.502	940.56
307.731	957.56
307.961	944.56
308.191	950.56
308.421	918.56
308.651	929.56
308.881	947.56
309.111	947.56
309.341	912.56
309.571	946.56
309.8	956.56
310.03	938.56
310.26	936.56
310.49	959.56
310.72	975.56
310.949	979.56
311.179	958.56
311.409	954.56
311.639	958.56
311.868	961.56
312.098	996.56
312.328	971.56
312.557	994.56
312.787	973.56
313.017	1010.56
313.246	1045.56
313.476	969.56
313.706	1027.56
313.935	1026.56
314.165	991.56
314.394	1033.56
314.624	1007.56
314.853	1012.56
315.083	1029.56
315.312	1018.56
315.542	1002.56
315.771	1003.56
316.001	1037.56
316.23	1042.56
316.46	997.56
316.689	995.56
316.919	987.56
317.148	1015.56
317.377	1008.56
317.607	1010.56
317.836	1024.56
318.065	1020.56
318.295	1026.56
318.524	1033.56
318.753	1010.56
318.983	993.56
319.212	999.56
319.441	1003.56
319.67	1009.56
319.9	1003.56
320.129	1040.56
320.358	1011.56
320.587	1017.56
320.816	1003.56
321.046	1027.56
321.275	1012.56
321.504	1045.56
321.733	1010.56
321.962	1040.56
322.191	1033.56
322.42	1022.56
322.649	1030.56
322.878	1025.56
323.108	1031.56
323.337	1034.56
323.566	1008.56
323.795	1064.56
324.024	1019.56
324.253	1089.56
324.482	1046.56
324.71	1075.56
324.939	1049.56
325.168	1084.56
325.397	1060.56
325.626	1085.56
325.855	1095.56
326.084	1136.56
326.313	1120.56
326.542	1088.56
326.77	1116.56
326.999	1117.56
327.228	1076.56
327.457	1108.56
327.686	1117.56
327.914	1129.56
328.143	1101.56
328.372	1126.56
328.6	1139.56
328.829	1108.56
329.058	1102.56
329.287	1092.56
329.515	1095.56
329.744	1138.56
329.972	1107.56
330.201	1113.56
330.43	1127.56
330.658	1140.56
330.887	1126.56
331.115	1150.56
331.344	1174.56
331.572	1178.56
331.801	1210.56
332.03	1161.56
332.258	1213.56
332.486	1243.56
332.715	1274.56
332.943	1284.56
333.172	1338.56
333.4	1364.56
333.629	1409.56
333.857	1441.56
334.085	1412.56
334.314	1407.56
334.542	1384.56
334.771	1406.56
334.999	1348.56
335.227	1402.56
335.455	1362.56
335.684	1351.56
335.912	1347.56
336.14	1331.56
336.369	1329.56
336.597	1339.56
336.825	1355.56
337.053	1319.56
337.281	1293.56
337.51	1285.56
337.738	1254.56
337.966	1242.56
338.194	1221.56
338.422	1221.56
338.65	1226.56
338.878	1199.56
339.106	1242.56
339.334	1204.56
339.562	1218.56
339.79	1204.56
340.018	1186.56
340.246	1180.56
340.474	1172.56
340.702	1153.56
340.93	1182.56
341.158	1174.56
341.386	1166.56
341.614	1180.56
341.842	1140.56
342.07	1162.56
342.298	1174.56
342.526	1168.56
342.754	1165.56
342.981	1179.56
343.209	1196.56
343.437	1267.56
343.665	1301.56
343.893	1364.56
344.12	1382.56
344.348	1351.56
344.576	1288.56
344.804	1258.56
345.031	1211.56
345.259	1218.56
345.487	1174.56
345.714	1147.56
345.942	1125.56
346.17	1162.56
346.397	1095.56
346.625	1118.56
346.853	1119.56
347.08	1122.56
347.308	1125.56
347.535	1147.56
347.763	1116.56
347.99	1123.56
348.218	1099.56
348.445	1103.56
348.673	1066.56
348.9	1111.56
349.128	1093.56
349.355	1087.56
349.583	1087.56
349.81	1099.56
350.037	1097.56
350.265	1073.56
350.492	1091.56
350.72	1068.56
350.947	1069.56
351.174	1107.56
351.402	1083.56
351.629	1084.56
351.856	1120.56
352.083	1070.56
352.311	1085.56
352.538	1075.56
352.765	1079.56
352.992	1044.56
353.22	1046.56
353.447	1086.56
353.674	1067.56
353.901	1069.56
354.128	1067.56
354.355	1074.56
354.583	1085.56
354.81	1068.56
355.037	1074.56
355.264	1057.56
355.491	1093.56
355.718	1054.56
355.945	1081.56
356.172	1078.56
356.399	1105.56
356.626	1084.56
356.853	1091.56
357.08	1084.56
357.307	1079.56
357.534	1110.56
357.761	1089.56
357.988	1084.56
358.215	1076.56
358.441	1086.56
358.668	1049.56
358.895	1074.56
359.122	1068.56
359.349	1086.56
359.576	1075.56
359.802	1085.56
360.029	1091.56
360.256	1090.56
360.483	1066.56
360.709	1076.56
360.936	1081.56
361.163	1068.56
361.39	1085.56
361.616	1100.56
361.843	1087.56
362.07	1052.56
362.296	1099.56
362.523	1086.56
362.749	1086.56
362.976	1081.56
363.203	1056.56
363.429	1075.56
363.656	1103.56
363.882	1074.56
364.109	1083.56
364.335	1075.56
364.562	1112.56
364.788	1074.56
365.015	1080.56
365.241	1090.56
365.468	1071.56
365.694	1106.56
365.92	1076.56
366.147	1055.56
366.373	1080.56
366.599	1105.56
366.826	1096.56
367.052	1087.56
367.278	1083.56
367.505	1087.56
367.731	1099.56
367.957	1097.56
368.184	1092.56
368.41	1117.56
368.636	1114.56
368.862	1112.56
369.089	1103.56
369.315	1144.56
369.541	1112.56
369.767	1140.56
369.993	1113.56
370.219	1115.56
370.445	1140.56
370.672	1128.56
370.898	1125.56
371.124	1161.56
371.35	1198.56
371.576	1173.56
371.802	1182.56
372.028	1163.56
372.254	1193.56
372.48	1177.56
372.706	1212.56
372.932	1198.56
373.158	1216.56
373.384	1230.56
373.61	1153.56
373.835	1169.56
374.061	1160.56
374.287	1208.56
374.513	1198.56
374.739	1263.56
374.965	1241.56
375.191	1311.56
375.416	1273.56
375.642	1251.56
375.868	1248.56
376.094	1232.56
376.319	1175.56
376.545	1202.56
376.771	1168.56
376.997	1180.56
377.222	1158.56
377.448	1170.56
377.674	1150.56
377.899	1174.56
378.125	1159.56
378.35	1192.56
378.576	1166.56
378.802	1146.56
379.027	1142.56
379.253	1177.56
379.478	1178.56
379.704	1158.56
379.929	1137.56
380.155	1111.56
380.38	1156.56
380.606	1152.56
380.831	1172.56
381.057	1156.56
381.282	1138.56
381.507	1133.56
381.733	1194.56
381.958	1176.56
382.184	1210.56
382.409	1200.56
382.634	1209.56
382.86	1200.56
383.085	1198.56
383.31	1210.56
383.535	1247.56
383.761	1269.56
383.986	1303.56
384.211	1304.56
384.436	1345.56
384.662	1351.56
384.887	1354.56
385.112	1340.56
385.337	1355.56
385.562	1360.56
385.787	1380.56
386.013	1382.56
386.238	1395.56
386.463	1416.56
386.688	1421.56
386.913	1402.56
387.138	1364.56
387.363	1364.56
387.588	1383.56
387.813	1404.56
388.038	1412.56
388.263	1407.56
388.488	1421.56
388.713	1352.56
388.938	1406.56
389.163	1356.56
389.387	1364.56
389.612	1366.56
389.837	1384.56
390.062	1356.56
390.287	1378.56
390.512	1386.56
390.736	1370.56
390.961	1415.56
391.186	1422.56
391.411	1478.56
391.636	1496.56
391.86	1514.56
392.085	1547.56
392.31	1528.56
392.534	1548.56
392.759	1491.56
392.984	1474.56
393.208	1478.56
393.433	1489.56
393.658	1457.56
393.882	1432.56
394.107	1437.56
394.331	1459.56
394.556	1463.56
394.78	1469.56
395.005	1553.56
395.229	1499.56
395.454	1514.56
395.678	1492.56
395.903	1544.56
396.127	1523.56
396.352	1472.56
396.576	1518.56
396.801	1476.56
397.025	1532.56
397.249	1541.56
397.474	1550.56
397.698	1559.56
397.922	1592.56
398.147	1567.56
398.371	1599.56
398.595	1631.56
398.82	1707.56
399.044	1779.56
399.268	1947.56
399.492	2162.56
399.717	2320.56
399.941	2376.56
400.165	2226.56
400.389	2122.56
400.613	1914.56
400.837	1826.56
401.062	1808.56
401.286	1744.56
401.51	1752.56
401.734	1762.56
401.958	1756.56
402.182	1733.56
402.406	1718.56
402.63	1764.56
402.854	1798.56
403.078	1821.56
403.302	1784.56
403.526	1836.56
403.75	1879.56
403.974	1859.56
404.198	1896.56
404.422	1863.56
404.645	1880.56
404.869	1871.56
405.093	1854.56
405.317	1884.56
405.541	1858.56
405.765	1880.56
405.988	1834.56
406.212	1866.56
406.436	1846.56
406.66	1941.56
406.883	1910.56
407.107	2016.56
407.331	2104.56
407.555	2193.56
407.778	2165.56
408.002	2158.56
408.226	2074.56
408.449	2061.56
408.673	2000.56
408.896	1925.56
409.12	1893.56
409.344	1936.56
409.567	1883.56
409.791	1902.56
410.014	1916.56
410.238	1910.56
410.461	1877.56
410.685	1914.56
410.908	1814.56
411.132	1830.56
411.355	1796.56
411.578	1787.56
411.802	1824.56
412.025	1815.56
412.249	1832.56
412.472	1792.56
412.695	1760.56
412.919	1747.56
413.142	1737.56
413.365	1720.56
413.589	1769.56
413.812	1707.56
414.035	1692.56
414.258	1745.56
414.482	1749.56
414.705	1744.56
414.928	1719.56
415.151	1720.56
415.374	1721.56
415.597	1686.56
415.821	1675.56
416.044	1619.56
416.267	1676.56
416.49	1646.56
416.713	1646.56
416.936	1664.56
417.159	1660.56
417.382	1627.56
417.605	1629.56
417.828	1664.56
418.051	1662.56
418.274	1699.56
418.497	1687.56
418.72	1697.56
418.943	1676.56
419.166	1805.56
419.389	1911.56
419.611	1902.56
419.834	1819.56
420.057	1723.56
420.28	1696.56
420.503	1622.56
420.726	1636.56
420.948	1662.56
421.171	1665.56
421.394	1675.56
421.617	1606.56
421.839	1644.56
422.062	1681.56
422.285	1648.56
422.507	1716.56
422.73	1660.56
422.953	1690.56
423.175	1700.56
423.398	1718.56
423.621	1686.56
423.843	1712.56
424.066	1683.56
424.288	1704.56
424.511	1690.56
424.733	1682.56
424.956	1660.56
425.178	1614.56
425.401	1657.56
425.623	1641.56
425.846	1638.56
426.068	1611.56
426.291	1595.56
426.513	1639.56
426.735	1596.56
426.958	1575.56
427.18	1569.56
427.402	1566.56
427.625	1590.56
427.847	1519.56
428.069	1542.56
428.292	1545.56
428.514	1509.56
428.736	1481.56
428.958	1532.56
429.181	1481.56
429.403	1498.56
429.625	1486.56
429.847	1491.56
430.069	1492.56
430.292	1500.56
430.514	1473.56
430.736	1519.56
430.958	1510.56
431.18	1498.56
431.402	1506.56
431.624	1507.56
431.846	1539.56
432.068	1564.56
432.29	1564.56
432.512	1498.56
432.734	1556.56
432.956	1547.56
433.178	1568.56
433.4	1525.56
433.622	1531.56
433.844	1592.56
434.066	1563.56
434.287	1566.56
434.509	1622.56
434.731	1654.56
434.953	1682.56
435.175	1707.56
435.397	1677.56
435.618	1572.56
435.84	1555.56
436.062	1556.56
436.284	1528.56
436.505	1550.56
436.727	1525.56
436.949	1539.56
437.17	1538.56
437.392	1512.56
437.614	1445.56
437.835	1425.56
438.057	1446.56
438.278	1411.56
438.5	1468.56
438.721	1455.56
438.943	1455.56
439.165	1456.56
439.386	1426.56
439.608	1503.56
439.829	1462.56
440.05	1492.56
440.272	1499.56
440.493	1518.56
440.715	1514.56
440.936	1522.56
441.158	1578.56
441.379	1559.56
441.6	1642.56
441.822	1654.56
442.043	1683.56
442.264	1608.56
442.486	1589.56
442.707	1600.56
442.928	1602.56
443.149	1609.56
443.371	1625.56
443.592	1646.56
443.813	1652.56
444.034	1656.56
444.255	1692.56
444.476	1747.56
444.698	1837.56
444.919	1866.56
445.14	1942.56
445.361	1794.56
445.582	1694.56
445.803	1651.56
446.024	1552.56
446.245	1564.56
446.466	1548.56
446.687	1474.56
446.908	1467.56
447.129	1450.56
447.35	1475.56
447.571	1440.56
447.792	1392.56
448.013	1419.56
448.234	1401.56
448.455	1381.56
448.675	1375.56
448.896	1375.56
449.117	1322.56
449.338	1352.56
449.559	1332.56
449.779	1323.56
450	1355.56
450.221	1347.56
450.442	1328.56
450.662	1373.56
450.883	1346.56
451.104	1338.56
451.324	1339.56
451.545	1341.56
451.766	1378.56
451.986	1336.56
452.207	1336.56
452.428	1339.56
452.648	1315.56
452.869	1311.56
453.089	1263.56
453.31	1354.56
453.53	1311.56
453.751	1260.56
453.971	1317.56
454.192	1296.56
454.412	1276.56
454.633	1294.56
454.853	1280.56
455.073	1259.56
455.294	1288.56
455.514	1263.56
455.734	1269.56
455.955	1266.56
456.175	1231.56
456.395	1248.56
456.616	1276.56
456.836	1266.56
457.056	1286.56
457.276	1262.56
457.497	1255.56
457.717	1243.56
457.937	1292.56
458.157	1300.56
458.377	1310.56
458.598	1346.56
458.818	1348.56
459.038	1418.56
459.258	1447.56
459.478	1481.56
459.698	1487.56
459.918	1517.56
460.138	1570.56
460.358	1666.56
460.578	1697.56
460.798	1743.56
461.018	1729.56
461.238	1699.56
461.458	1672.56
461.678	1666.56
461.898	1671.56
462.118	1738.56
462.338	1804.56
462.558	1841.56
462.777	1907.56
462.997	2060.56
463.217	2131.56
463.437	2145.56
463.657	1984.56
463.876	1952.56
464.096	1944.56
464.316	1924.56
464.536	1940.56
464.755	1916.56
464.975	1858.56
465.195	1765.56
465.414	1663.56
465.634	1607.56
465.854	1530.56
466.073	1530.56
466.293	1489.56
466.512	1484.56
466.732	1449.56
466.951	1417.56
467.171	1407.56
467.391	1446.56
467.61	1403.56
467.829	1378.56
468.049	1408.56
468.268	1378.56
468.488	1367.56
468.707	1342.56
468.927	1370.56
469.146	1372.56
469.365	1401.56
469.585	1402.56
469.804	1403.56
470.023	1467.56
470.243	1430.56
470.462	1468.56
470.681	1456.56
470.901	1455.56
471.12	1423.56
471.339	1410.56
471.558	1383.56
471.777	1426.56
471.997	1396.56
472.216	1385.56
472.435	1405.56
472.654	1371.56
472.873	1354.56
473.092	1384.56
473.311	1346.56
473.53	1378.56
473.749	1344.56
473.968	1348.56
474.187	1371.56
474.406	1349.56
474.625	1396.56
474.844	1345.56
475.063	1355.56
475.282	1368.56
475.501	1370.56
475.72	1420.56
475.939	1412.56
476.158	1417.56
476.377	1432.56
476.596	1440.56
476.814	1454.56
477.033	1473.56
477.252	1519.56
477.471	1504.56
477.69	1520.56
477.908	1563.56
478.127	1577.56
478.346	1607.56
478.564	1653.56
478.783	1625.56
479.002	1702.56
479.22	1684.56
479.439	1703.56
479.658	1696.56
479.876	1718.56
480.095	1751.56
480.313	1786.56
480.532	1803.56
480.751	1808.56
480.969	1738.56
481.188	1691.56
481.406	1720.56
481.624	1664.56
481.843	1655.56
482.061	1656.56
482.28	1669.56
482.498	1684.56
482.717	1656.56
482.935	1632.56
483.153	1644.56
483.372	1710.56
483.59	1674.56
483.808	1700.56
484.027	1690.56
484.245	1716.56
484.463	1732.56
484.681	1794.56
484.9	1766.56
485.118	1789.56
485.336	1779.56
485.554	1797.56
485.772	1850.56
485.99	1826.56
486.209	1808.56
486.427	1818.56
486.645	1824.56
486.863	1840.56
487.081	1801.56
487.299	1808.56
487.517	1790.56
487.735	1791.56
487.953	1807.56
488.171	1775.56
488.389	1774.56
488.607	1743.56
488.825	1714.56
489.043	1732.56
489.261	1684.56
489.479	1720.56
489.696	1728.56
489.914	1753.56
490.132	1712.56
490.35	1730.56
490.568	1730.56
490.786	1695.56
491.003	1710.56
491.221	1732.56
491.439	1706.56
491.657	1704.56
491.874	1695.56
492.092	1696.56
492.31	1671.56
492.527	1683.56
492.745	1682.56
492.963	1736.56
493.18	1714.56
493.398	1710.56
493.615	1720.56
493.833	1733.56
494.05	1758.56
494.268	1740.56
494.485	1740.56
494.703	1753.56
494.92	1707.56
495.138	1716.56
495.355	1736.56
495.573	1771.56
495.79	1764.56
496.008	1766.56
496.225	1796.56
496.442	1816.56
496.66	1819.56
496.877	1818.56
497.094	1830.56
497.312	1867.56
497.529	1922.56
497.746	1932.56
497.963	2032.56
498.181	2086.56
498.398	2158.56
498.615	2298.56
498.832	2391.56
499.049	2584.56
499.267	2739.56
499.484	2964.56
499.701	3262.56
499.918	3474.56
500.135	3844.56
500.352	4212.56
500.569	4412.56
500.786	4296.56
501.003	4145.56
501.22	3808.56
501.437	3503.56
501.654	3122.56
501.871	2923.56
502.088	2726.56
502.305	2539.56
502.522	2427.56
502.739	2363.56
502.956	2243.56
503.172	2115.56
503.389	2039.56
503.606	2039.56
503.823	1960.56
504.04	1965.56
504.256	1979.56
504.473	1933.56
504.69	1984.56
504.907	1948.56
505.123	1830.56
505.34	1742.56
505.557	1668.56
505.773	1627.56
505.99	1627.56
506.207	1579.56
506.423	1567.56
506.64	1548.56
506.856	1551.56
507.073	1520.56
507.289	1518.56
507.506	1518.56
507.722	1536.56
507.939	1463.56
508.155	1458.56
508.372	1439.56
508.588	1404.56
508.805	1415.56
509.021	1393.56
509.238	1401.56
509.454	1401.56
509.67	1374.56
509.887	1392.56
510.103	1368.56
510.319	1357.56
510.536	1383.56
510.752	1351.56
510.968	1369.56
511.184	1339.56
511.401	1369.56
511.617	1347.56
511.833	1365.56
512.049	1353.56
512.265	1387.56
512.481	1378.56
512.698	1327.56
512.914	1310.56
513.13	1362.56
513.346	1356.56
513.562	1363.56
513.778	1374.56
513.994	1351.56
514.21	1345.56
514.426	1381.56
514.642	1391.56
514.858	1366.56
515.074	1392.56
515.29	1410.56
515.506	1420.56
515.721	1448.56
515.937	1480.56
516.153	1455.56
516.369	1509.56
516.585	1530.56
516.801	1543.56
517.016	1610.56
517.232	1669.56
517.448	1698.56
517.664	1776.56
517.879	1779.56
518.095	1777.56
518.311	1756.56
518.527	1726.56
518.742	1620.56
518.958	1614.56
519.173	1535.56
519.389	1504.56
519.605	1445.56
519.82	1434.56
520.036	1422.56
520.251	1381.56
520.467	1364.56
520.682	1353.56
520.898	1354.56
521.113	1322.56
521.329	1305.56
521.544	1299.56
521.76	1299.56
521.975	1282.56
522.19	1303.56
522.406	1285.56
522.621	1296.56
522.836	1249.56
523.052	1264.56
523.267	1264.56
523.482	1241.56
523.698	1249.56
523.913	1234.56
524.128	1247.56
524.343	1238.56
524.559	1227.56
524.774	1257.56
524.989	1220.56
525.204	1229.56
525.419	1199.56
525.634	1195.56
525.849	1210.56
526.064	1234.56
526.28	1189.56
526.495	1170.56
526.71	1190.56
526.925	1200.56
527.14	1198.56
527.355	1176.56
527.57	1192.56
527.785	1185.56
527.999	1174.56
528.214	1197.56
528.429	1173.56
528.644	1178.56
528.859	1194.56
529.074	1187.56
529.289	1160.56
529.503	1180.56
529.718	1195.56
529.933	1204.56
530.148	1209.56
530.363	1169.56
530.577	1178.56
530.792	1156.56
531.007	1166.56
531.221	1184.56
531.436	1172.56
531.651	1175.56
531.865	1174.56
532.08	1168.56
532.295	1187.56
532.509	1139.56
532.724	1183.56
532.938	1199.56
533.153	1181.56
533.367	1164.56
533.582	1148.56
533.796	1183.56
534.011	1176.56
534.225	1182.56
534.44	1144.56
534.654	1150.56
534.868	1178.56
535.083	1158.56
535.297	1137.56
535.511	1123.56
535.726	1116.56
535.94	1113.56
536.154	1144.56
536.369	1138.56
536.583	1128.56
536.797	1078.56
537.011	1077.56
537.225	1112.56
537.44	1097.56
537.654	1098.56
537.868	1069.56
538.082	1060.56
538.296	1047.56
538.51	1058.56
538.724	1058.56
538.938	1071.56
539.153	1039.56
539.367	1036.56
539.581	1078.56
539.795	1040.56
540.009	1048.56
540.222	1066.56
540.436	1050.56
540.65	1038.56
540.864	1086.56
541.078	1075.56
541.292	1049.56
541.506	1032.56
541.72	1061.56
541.934	1087.56
542.147	1044.56
542.361	1072.56
542.575	1014.56
542.789	1033.56
543.002	1066.56
543.216	1055.56
543.43	1017.56
543.644	1026.56
543.857	1022.56
544.071	1022.56
544.285	1038.56
544.498	1050.56
544.712	1036.56
544.925	1028.56
545.139	1070.56
545.352	1046.56
545.566	1051.56
545.779	1053.56
545.993	1060.56
546.206	1059.56
546.42	1057.56
546.633	1070.56
546.847	1060.56
547.06	1026.56
547.274	1088.56
547.487	1043.56
547.7	1034.56
547.914	1053.56
548.127	1060.56
548.34	1048.56
548.554	1035.56
548.767	1060.56
548.98	1056.56
549.193	1067.56
549.407	1072.56
549.62	1082.56
549.833	1076.56
550.046	1066.56
550.259	1054.56
550.473	1047.56
550.686	1070.56
550.899	1034.56
551.112	1033.56
551.325	1053.56
551.538	1036.56
551.751	1033.56
551.964	1040.56
552.177	1058.56
552.39	1076.56
552.603	1111.56
552.816	1095.56
553.029	1065.56
553.242	1131.56
553.455	1127.56
553.667	1134.56
553.88	1100.56
554.093	1108.56
554.306	1070.56
554.519	1046.56
554.732	1057.56
554.944	1033.56
555.157	1033.56
555.37	1002.56
555.583	963.56
555.795	964.56
556.008	972.56
556.221	930.56
556.433	928.56
556.646	897.56
556.859	927.56
557.071	914.56
557.284	902.56
557.496	932.56
557.709	912.56
557.921	892.56
558.134	884.56
558.346	905.56
558.559	906.56
558.771	916.56
558.984	881.56
559.196	875.56
559.409	865.56
559.621	873.56
559.833	870.56
560.046	872.56
560.258	852.56
560.47	881.56
560.683	870.56
560.895	869.56
561.107	888.56
561.32	860.56
561.532	841.56
561.744	890.56
561.956	875.56
562.168	871.56
562.381	888.56
562.593	868.56
562.805	879.56
563.017	864.56
563.229	881.56
563.441	890.56
563.653	899.56
563.865	899.56
564.077	893.56
564.289	910.56
564.501	897.56
564.713	963.56
564.925	964.56
565.137	951.56
565.349	971.56
565.561	996.56
565.773	1060.56
565.985	1081.56
566.197	1121.56
566.408	1201.56
566.62	1247.56
566.832	1310.56
567.044	1359.56
567.255	1365.56
567.467	1362.56
567.679	1428.56
567.891	1480.56
568.102	1504.56
568.314	1450.56
568.526	1342.56
568.737	1273.56
568.949	1163.56
569.161	1088.56
569.372	1003.56
569.584	987.56
569.795	959.56
570.007	922.56
570.218	908.56
570.43	891.56
570.641	888.56
570.853	908.56
571.064	892.56
571.276	873.56
571.487	863.56
571.698	831.56
571.91	806.56
572.121	821.56
572.333	793.56
572.544	778.56
572.755	767.56
572.966	778.56
573.178	728.56
573.389	729.56
573.6	726.56
573.811	742.56
574.023	718.56
574.234	751.56
574.445	715.56
574.656	716.56
574.867	703.56
575.078	695.56
575.289	688.56
575.501	694.56
575.712	704.56
575.923	701.56
576.134	666.56
576.345	664.56
576.556	672.56
576.767	660.56
576.978	653.56
577.188	667.56
577.399	656.56
577.61	662.56
577.821	658.56
578.032	628.56
578.243	630.56
578.454	639.56
578.665	620.56
578.875	630.56
579.086	628.56
579.297	615.56
579.508	622.56
579.718	636.56
579.929	656.56
580.14	609.56
580.35	605.56
580.561	618.56
580.772	593.56
580.982	603.56
581.193	581.56
581.403	601.56
581.614	604.56
581.825	604.56
582.035	595.56
582.246	595.56
582.456	625.56
582.667	605.56
582.877	604.56
583.087	586.56
583.298	606.56
583.508	592.56
583.719	605.56
583.929	587.56
584.139	598.56
584.35	583.56
584.56	576.56
584.77	574.56
584.981	584.56
585.191	591.56
585.401	592.56
585.611	567.56
585.821	569.56
586.032	575.56
586.242	569.56
586.452	580.56
586.662	564.56
586.872	572.56
587.082	561.56
587.292	568.56
587.502	563.56
587.713	565.56
587.923	560.56
588.133	560.56
588.343	573.56
588.553	577.56
588.762	568.56
588.972	572.56
589.182	593.56
589.392	595.56
589.602	556.56
589.812	566.56
590.022	556.56
590.232	561.56
590.441	570.56
590.651	568.56
590.861	562.56
591.071	580.56
591.281	572.56
591.49	611.56
591.7	609.56
591.91	582.56
592.119	620.56
592.329	611.56
592.539	637.56
592.748	634.56
592.958	671.56
593.167	674.56
593.377	688.56
593.587	681.56
593.796	688.56
594.006	693.56
594.215	717.56
594.424	682.56
594.634	657.56
594.843	659.56
595.053	644.56
595.262	624.56
595.472	595.56
595.681	604.56
595.89	578.56
596.1	559.56
596.309	547.56
596.518	563.56
596.727	515.56
596.937	521.56
597.146	528.56
597.355	542.56
597.564	523.56
597.774	510.56
597.983	508.56
598.192	518.56
598.401	501.56
598.61	487.56
598.819	496.56
599.028	484.56
599.237	491.56
599.446	469.56
599.655	475.56
599.864	493.56
600.073	468.56
600.282	466.56
600.491	464.56
600.7	481.56
600.909	468.56
601.118	468.56
601.327	470.56
601.536	460.56
601.745	465.56
601.953	462.56
602.162	464.56
602.371	454.56
602.58	467.56
602.789	458.56
602.997	453.56
603.206	462.56
603.415	460.56
603.623	451.56
603.832	448.56
604.041	444.56
604.249	431.56
604.458	422.56
604.666	434.56
604.875	434.56
605.084	418.56
605.292	413.56
605.501	426.56
605.709	426.56
605.918	433.56
606.126	418.56
606.334	434.56
606.543	428.56
606.751	436.56
606.96	407.56
607.168	416.56
607.376	418.56
607.585	414.56
607.793	406.56
608.001	408.56
608.21	420.56
608.418	417.56
608.626	430.56
608.834	418.56
609.043	410.56
609.251	422.56
609.459	394.56
609.667	409.56
609.875	425.56
610.083	405.56
610.291	428.56
610.499	426.56
610.707	392.56
610.916	400.56
611.124	405.56
611.332	396.56
611.54	419.56
611.748	401.56
611.955	400.56
612.163	418.56
612.371	426.56
612.579	394.56
612.787	405.56
612.995	408.56
613.203	404.56
613.411	414.56
613.618	380.56
613.826	395.56
614.034	397.56
614.242	406.56
614.449	387.56
614.657	383.56
614.865	376.56
615.072	396.56
615.28	386.56
615.488	385.56
615.695	396.56
615.903	402.56
616.111	411.56
616.318	419.56
616.526	408.56
616.733	384.56
616.941	374.56
617.148	401.56
617.356	392.56
617.563	379.56
617.771	387.56
617.978	387.56
618.185	403.56
618.393	394.56
618.6	367.56
618.807	390.56
619.015	392.56
619.222	397.56
619.429	361.56
619.637	380.56
619.844	370.56
620.051	368.56
620.258	379.56
620.466	376.56
620.673	367.56
620.88	349.56
621.087	367.56
621.294	372.56
621.501	362.56
621.708	364.56
621.915	372.56
622.122	368.56
622.329	361.56
622.536	362.56
622.743	336.56
622.95	345.56
623.157	366.56
623.364	359.56
623.571	376.56
623.778	354.56
623.985	341.56
624.192	347.56
624.399	334.56
624.606	339.56
624.812	331.56
625.019	351.56
625.226	344.56
625.433	337.56
625.639	338.56
625.846	322.56
626.053	333.56
626.259	344.56
626.466	336.56
626.673	357.56
626.879	343.56
627.086	319.56
627.293	335.56
627.499	311.56
627.706	332.56
627.912	336.56
628.119	338.56
628.325	321.56
628.532	320.56
628.738	321.56
628.945	331.56
629.151	330.56
629.357	318.56
629.564	319.56
629.77	318.56
629.976	308.56
630.183	320.56
630.389	304.56
630.595	319.56
630.802	320.56
631.008	299.56
631.214	311.56
631.42	304.56
631.627	311.56
631.833	312.56
632.039	304.56
632.245	299.56
632.451	292.56
632.657	310.56
632.863	290.56
633.069	322.56
633.275	310.56
633.481	297.56
633.688	298.56
633.893	299.56
634.099	321.56
634.305	290.56
634.511	294.56
634.717	280.56
634.923	288.56
635.129	288.56
635.335	299.56
635.541	308.56
635.747	274.56
635.952	287.56
636.158	288.56
636.364	287.56
636.57	278.56
636.775	287.56
636.981	286.56
637.187	294.56
637.392	273.56
637.598	296.56
637.804	270.56
638.009	289.56
638.215	277.56
638.421	282.56
638.626	283.56
638.832	282.56
639.037	265.56
639.243	266.56
639.448	281.56
639.654	278.56
639.859	289.56
640.065	264.56
640.27	282.56
640.475	258.56
640.681	263.56
640.886	278.56
641.091	277.56
641.297	273.56
641.502	276.56
641.707	271.56
641.913	274.56
642.118	278.56
642.323	260.56
642.528	260.56
642.733	272.56
642.939	269.56
643.144	252.56
643.349	281.56
643.554	253.56
643.759	264.56
643.964	258.56
644.169	266.56
644.374	265.56
644.579	276.56
644.784	256.56
644.989	262.56
645.194	251.56
645.399	251.56
645.604	262.56
645.809	259.56
646.014	282.56
646.219	282.56
646.423	271.56
646.628	278.56
646.833	275.56
647.038	277.56
647.243	294.56
647.447	265.56
647.652	267.56
647.857	275.56
648.062	284.56
648.266	290.56
648.471	302.56
648.676	299.56
648.88	288.56
649.085	273.56
649.289	274.56
649.494	289.56
649.698	284.56
649.903	284.56
650.107	254.56
650.312	281.56
650.516	273.56
650.721	261.56
650.925	266.56
651.13	255.56
651.334	268.56
651.539	264.56
651.743	254.56
651.947	263.56
652.152	255.56
652.356	275.56
652.56	246.56
652.764	257.56
652.969	256.56
653.173	245.56
653.377	248.56
653.581	267.56
653.785	244.56
653.99	256.56
654.194	258.56
654.398	272.56
654.602	266.56
654.806	276.56
655.01	286.56
655.214	280.56
655.418	271.56
655.622	288.56
655.826	307.56
656.03	332.56
656.234	350.56
656.438	364.56
656.642	391.56
656.846	356.56
657.049	313.56
657.253	299.56
657.457	254.56
657.661	242.56
657.865	214.56
658.068	201.56
658.272	177.56
658.476	182.56
658.68	178.56
658.883	150.56
659.087	144.56
659.291	159.56
659.494	145.56
659.698	149.56
659.901	140.56
660.105	110.56
660.309	127.56
660.512	112.56
660.716	111.56
660.919	105.56
661.123	120.56
661.326	93.56
661.53	108.56
661.733	100.56
661.936	93.56
662.14	96.56
662.343	101.56
662.546	84.56
662.75	93.56
662.953	91.56
663.156	91.56
663.36	75.56
663.563	96.56
663.766	93.56
663.969	91.56
664.173	82.56
664.376	73.56
664.579	84.56
664.782	83.56
664.985	81.56
665.188	84.56
665.391	90.56
665.594	84.56
665.797	83.56
666	70.56
666.203	78.56
666.406	79.56
666.609	82.56
666.812	70.56
667.015	82.56
667.218	82.56
667.421	84.56
667.624	83.56
667.827	71.56
668.03	75.56
668.232	83.56
668.435	87.56
668.638	81.56
668.841	84.56
669.043	73.56
669.246	87.56
669.449	76.56
669.651	85.56
669.854	85.56
670.057	83.56
670.259	76.56
670.462	86.56
670.665	71.56
670.867	77.56
671.07	83.56
671.272	82.56
671.475	99.56
671.677	71.56
671.88	74.56
672.082	81.56
672.284	82.56
672.487	76.56
672.689	71.56
672.892	84.56
