Data from NiCl2@0.125M.TitratingCurve.Agarose3%dH2O.NegLispCup.LampEnergy10.LIBS07252019_HRD10591_18-27-44-574.txt Node
Date: Thu Jul 25 18:27:44 EDT 2019
User: cochatt
Spectrometer: HR+D1059
Trigger mode: 1
Integration Time (sec): 1.000000E-1
Scans to average: 1
Electric dark correction enabled: true
Nonlinearity correction enabled: false
Boxcar width: 0
XAxis mode: Wavelengths
Number of Pixels in Spectrum: 2048
>>>>>Begin Spectral Data<<<<<
223.165	-9.94
223.4	-9.94
223.635	-9.94
223.869	-22.94
224.104	-21.94
224.338	-15.94
224.573	-9.94
224.808	-14.94
225.042	-2.94
225.277	-12.94
225.511	-3.94
225.746	-1.94
225.98	9.06
226.215	7.06
226.449	21.06
226.683	27.06
226.918	25.06
227.152	28.06
227.387	12.06
227.621	45.06
227.856	43.06
228.09	55.06
228.324	54.06
228.559	58.06
228.793	71.06
229.027	118.06
229.262	124.06
229.496	112.06
229.73	126.06
229.964	132.06
230.199	132.06
230.433	125.06
230.667	134.06
230.901	139.06
231.136	131.06
231.37	158.06
231.604	161.06
231.838	156.06
232.072	157.06
232.306	150.06
232.541	166.06
232.775	161.06
233.009	160.06
233.243	152.06
233.477	163.06
233.711	157.06
233.945	172.06
234.179	171.06
234.413	163.06
234.647	165.06
234.881	158.06
235.115	169.06
235.349	158.06
235.583	163.06
235.817	164.06
236.051	154.06
236.285	171.06
236.519	180.06
236.753	171.06
236.987	172.06
237.221	179.06
237.455	172.06
237.689	208.06
237.922	183.06
238.156	187.06
238.39	193.06
238.624	166.06
238.858	191.06
239.091	187.06
239.325	181.06
239.559	201.06
239.793	187.06
240.027	205.06
240.26	177.06
240.494	193.06
240.728	210.06
240.961	197.06
241.195	229.06
241.429	216.06
241.662	210.06
241.896	221.06
242.13	218.06
242.363	227.06
242.597	217.06
242.83	218.06
243.064	226.06
243.298	227.06
243.531	225.06
243.765	242.06
243.998	232.06
244.232	239.06
244.465	252.06
244.699	246.06
244.932	251.06
245.166	241.06
245.399	251.06
245.633	252.06
245.866	256.06
246.099	244.06
246.333	237.06
246.566	228.06
246.8	253.06
247.033	256.06
247.266	250.06
247.5	256.06
247.733	263.06
247.966	266.06
248.2	277.06
248.433	271.06
248.666	267.06
248.899	279.06
249.133	276.06
249.366	285.06
249.599	275.06
249.832	291.06
250.066	301.06
250.299	287.06
250.532	273.06
250.765	295.06
250.998	307.06
251.231	301.06
251.465	297.06
251.698	298.06
251.931	297.06
252.164	301.06
252.397	305.06
252.63	312.06
252.863	320.06
253.096	311.06
253.329	322.06
253.562	324.06
253.795	326.06
254.028	321.06
254.261	326.06
254.494	318.06
254.727	324.06
254.96	328.06
255.193	312.06
255.426	330.06
255.659	334.06
255.892	326.06
256.124	341.06
256.357	338.06
256.59	340.06
256.823	323.06
257.056	354.06
257.289	342.06
257.521	325.06
257.754	348.06
257.987	344.06
258.22	354.06
258.452	337.06
258.685	339.06
258.918	351.06
259.151	353.06
259.383	359.06
259.616	377.06
259.849	367.06
260.081	378.06
260.314	358.06
260.547	364.06
260.779	369.06
261.012	378.06
261.244	372.06
261.477	399.06
261.71	374.06
261.942	395.06
262.175	382.06
262.407	379.06
262.64	365.06
262.872	361.06
263.105	409.06
263.337	372.06
263.57	382.06
263.802	380.06
264.035	397.06
264.267	380.06
264.499	381.06
264.732	395.06
264.964	402.06
265.197	416.06
265.429	395.06
265.661	414.06
265.894	398.06
266.126	418.06
266.358	412.06
266.591	411.06
266.823	423.06
267.055	408.06
267.287	403.06
267.52	409.06
267.752	425.06
267.984	429.06
268.216	427.06
268.448	419.06
268.681	444.06
268.913	437.06
269.145	432.06
269.377	430.06
269.609	419.06
269.841	425.06
270.073	438.06
270.306	426.06
270.538	429.06
270.77	449.06
271.002	452.06
271.234	444.06
271.466	451.06
271.698	426.06
271.93	461.06
272.162	447.06
272.394	467.06
272.626	453.06
272.858	427.06
273.09	467.06
273.322	457.06
273.553	454.06
273.785	460.06
274.017	454.06
274.249	478.06
274.481	475.06
274.713	472.06
274.945	479.06
275.176	492.06
275.408	490.06
275.64	482.06
275.872	492.06
276.104	502.06
276.335	490.06
276.567	468.06
276.799	505.06
277.031	487.06
277.262	489.06
277.494	495.06
277.726	512.06
277.957	493.06
278.189	498.06
278.421	510.06
278.652	500.06
278.884	516.06
279.115	510.06
279.347	499.06
279.579	510.06
279.81	537.06
280.042	521.06
280.273	537.06
280.505	543.06
280.736	533.06
280.968	537.06
281.199	521.06
281.431	532.06
281.662	542.06
281.894	539.06
282.125	549.06
282.356	572.06
282.588	547.06
282.819	564.06
283.051	562.06
283.282	557.06
283.513	552.06
283.745	565.06
283.976	550.06
284.207	545.06
284.439	581.06
284.67	557.06
284.901	556.06
285.132	564.06
285.364	580.06
285.595	563.06
285.826	569.06
286.057	577.06
286.288	570.06
286.52	589.06
286.751	576.06
286.982	560.06
287.213	565.06
287.444	588.06
287.675	592.06
287.906	604.06
288.138	602.06
288.369	622.06
288.6	586.06
288.831	615.06
289.062	613.06
289.293	607.06
289.524	584.06
289.755	605.06
289.986	602.06
290.217	614.06
290.448	612.06
290.679	618.06
290.91	629.06
291.141	603.06
291.371	622.06
291.602	606.06
291.833	590.06
292.064	594.06
292.295	617.06
292.526	626.06
292.757	612.06
292.987	615.06
293.218	634.06
293.449	620.06
293.68	627.06
293.91	612.06
294.141	626.06
294.372	604.06
294.603	614.06
294.833	616.06
295.064	632.06
295.295	607.06
295.525	630.06
295.756	616.06
295.987	628.06
296.217	660.06
296.448	638.06
296.679	620.06
296.909	640.06
297.14	658.06
297.37	636.06
297.601	652.06
297.831	680.06
298.062	668.06
298.292	657.06
298.523	676.06
298.753	697.06
298.984	683.06
299.214	658.06
299.445	670.06
299.675	673.06
299.905	667.06
300.136	676.06
300.366	692.06
300.597	688.06
300.827	693.06
301.057	691.06
301.288	714.06
301.518	678.06
301.748	722.06
301.979	740.06
302.209	739.06
302.439	717.06
302.669	692.06
302.9	695.06
303.13	699.06
303.36	700.06
303.59	671.06
303.82	693.06
304.051	700.06
304.281	688.06
304.511	689.06
304.741	698.06
304.971	697.06
305.201	694.06
305.431	704.06
305.661	697.06
305.891	681.06
306.121	681.06
306.352	665.06
306.582	654.06
306.812	683.06
307.042	715.06
307.272	679.06
307.502	658.06
307.731	680.06
307.961	691.06
308.191	670.06
308.421	678.06
308.651	693.06
308.881	671.06
309.111	681.06
309.341	686.06
309.571	662.06
309.8	674.06
310.03	663.06
310.26	663.06
310.49	673.06
310.72	683.06
310.949	685.06
311.179	691.06
311.409	724.06
311.639	692.06
311.868	669.06
312.098	681.06
312.328	720.06
312.557	729.06
312.787	706.06
313.017	741.06
313.246	715.06
313.476	716.06
313.706	730.06
313.935	711.06
314.165	744.06
314.394	747.06
314.624	741.06
314.853	722.06
315.083	736.06
315.312	736.06
315.542	727.06
315.771	725.06
316.001	712.06
316.23	724.06
316.46	710.06
316.689	720.06
316.919	690.06
317.148	721.06
317.377	696.06
317.607	713.06
317.836	710.06
318.065	694.06
318.295	710.06
318.524	708.06
318.753	724.06
318.983	726.06
319.212	703.06
319.441	723.06
319.67	699.06
319.9	733.06
320.129	747.06
320.358	729.06
320.587	737.06
320.816	729.06
321.046	721.06
321.275	723.06
321.504	720.06
321.733	688.06
321.962	715.06
322.191	719.06
322.42	717.06
322.649	726.06
322.878	741.06
323.108	725.06
323.337	747.06
323.566	727.06
323.795	741.06
324.024	729.06
324.253	722.06
324.482	737.06
324.71	730.06
324.939	744.06
325.168	748.06
325.397	742.06
325.626	743.06
325.855	744.06
326.084	774.06
326.313	794.06
326.542	776.06
326.77	779.06
326.999	763.06
327.228	777.06
327.457	778.06
327.686	798.06
327.914	780.06
328.143	792.06
328.372	774.06
328.6	792.06
328.829	797.06
329.058	782.06
329.287	782.06
329.515	794.06
329.744	782.06
329.972	789.06
330.201	799.06
330.43	772.06
330.658	826.06
330.887	810.06
331.115	837.06
331.344	839.06
331.572	850.06
331.801	854.06
332.03	856.06
332.258	876.06
332.486	903.06
332.715	944.06
332.943	941.06
333.172	1022.06
333.4	1021.06
333.629	1068.06
333.857	1066.06
334.085	1041.06
334.314	1062.06
334.542	1019.06
334.771	989.06
334.999	1000.06
335.227	985.06
335.455	953.06
335.684	978.06
335.912	964.06
336.14	952.06
336.369	941.06
336.597	954.06
336.825	961.06
337.053	932.06
337.281	924.06
337.51	909.06
337.738	906.06
337.966	878.06
338.194	855.06
338.422	851.06
338.65	845.06
338.878	857.06
339.106	838.06
339.334	864.06
339.562	831.06
339.79	818.06
340.018	829.06
340.246	805.06
340.474	837.06
340.702	805.06
340.93	821.06
341.158	835.06
341.386	822.06
341.614	797.06
341.842	801.06
342.07	789.06
342.298	801.06
342.526	824.06
342.754	829.06
342.981	813.06
343.209	811.06
343.437	891.06
343.665	897.06
343.893	981.06
344.12	1027.06
344.348	954.06
344.576	947.06
344.804	900.06
345.031	867.06
345.259	860.06
345.487	813.06
345.714	812.06
345.942	794.06
346.17	834.06
346.397	780.06
346.625	795.06
346.853	801.06
347.08	817.06
347.308	804.06
347.535	814.06
347.763	804.06
347.99	818.06
348.218	797.06
348.445	821.06
348.673	790.06
348.9	804.06
349.128	782.06
349.355	797.06
349.583	792.06
349.81	775.06
350.037	762.06
350.265	778.06
350.492	769.06
350.72	758.06
350.947	738.06
351.174	760.06
351.402	776.06
351.629	773.06
351.856	768.06
352.083	795.06
352.311	758.06
352.538	754.06
352.765	737.06
352.992	726.06
353.22	739.06
353.447	762.06
353.674	744.06
353.901	764.06
354.128	768.06
354.355	761.06
354.583	746.06
354.81	767.06
355.037	788.06
355.264	774.06
355.491	745.06
355.718	770.06
355.945	774.06
356.172	768.06
356.399	753.06
356.626	741.06
356.853	773.06
357.08	757.06
357.307	781.06
357.534	791.06
357.761	757.06
357.988	757.06
358.215	760.06
358.441	762.06
358.668	742.06
358.895	756.06
359.122	760.06
359.349	776.06
359.576	760.06
359.802	783.06
360.029	770.06
360.256	754.06
360.483	771.06
360.709	731.06
360.936	745.06
361.163	787.06
361.39	762.06
361.616	736.06
361.843	768.06
362.07	770.06
362.296	781.06
362.523	735.06
362.749	766.06
362.976	768.06
363.203	779.06
363.429	750.06
363.656	747.06
363.882	753.06
364.109	762.06
364.335	768.06
364.562	772.06
364.788	769.06
365.015	757.06
365.241	738.06
365.468	728.06
365.694	752.06
365.92	752.06
366.147	773.06
366.373	736.06
366.599	739.06
366.826	756.06
367.052	760.06
367.278	747.06
367.505	762.06
367.731	762.06
367.957	781.06
368.184	750.06
368.41	781.06
368.636	782.06
368.862	752.06
369.089	793.06
369.315	807.06
369.541	765.06
369.767	777.06
369.993	800.06
370.219	796.06
370.445	787.06
370.672	788.06
370.898	830.06
371.124	812.06
371.35	821.06
371.576	833.06
371.802	825.06
372.028	821.06
372.254	803.06
372.48	837.06
372.706	832.06
372.932	875.06
373.158	881.06
373.384	846.06
373.61	821.06
373.835	820.06
374.061	791.06
374.287	839.06
374.513	852.06
374.739	869.06
374.965	917.06
375.191	931.06
375.416	904.06
375.642	896.06
375.868	872.06
376.094	873.06
376.319	849.06
376.545	854.06
376.771	838.06
376.997	846.06
377.222	839.06
377.448	826.06
377.674	842.06
377.899	816.06
378.125	820.06
378.35	807.06
378.576	816.06
378.802	816.06
379.027	829.06
379.253	804.06
379.478	800.06
379.704	803.06
379.929	807.06
380.155	827.06
380.38	809.06
380.606	828.06
380.831	832.06
381.057	852.06
381.282	826.06
381.507	828.06
381.733	821.06
381.958	824.06
382.184	835.06
382.409	858.06
382.634	869.06
382.86	832.06
383.085	884.06
383.31	877.06
383.535	896.06
383.761	924.06
383.986	906.06
384.211	936.06
384.436	973.06
384.662	992.06
384.887	1002.06
385.112	1023.06
385.337	1012.06
385.562	981.06
385.787	1017.06
386.013	1015.06
386.238	1027.06
386.463	1022.06
386.688	1005.06
386.913	999.06
387.138	953.06
387.363	984.06
387.588	982.06
387.813	984.06
388.038	993.06
388.263	982.06
388.488	980.06
388.713	1005.06
388.938	989.06
389.163	968.06
389.387	969.06
389.612	970.06
389.837	958.06
390.062	980.06
390.287	990.06
390.512	971.06
390.736	985.06
390.961	1013.06
391.186	1029.06
391.411	1042.06
391.636	1077.06
391.86	1110.06
392.085	1154.06
392.31	1120.06
392.534	1102.06
392.759	1066.06
392.984	1053.06
393.208	1048.06
393.433	1068.06
393.658	1045.06
393.882	1062.06
394.107	1060.06
394.331	1057.06
394.556	1076.06
394.78	1062.06
395.005	1085.06
395.229	1050.06
395.454	1120.06
395.678	1137.06
395.903	1131.06
396.127	1118.06
396.352	1105.06
396.576	1062.06
396.801	1025.06
397.025	1085.06
397.249	1091.06
397.474	1090.06
397.698	1131.06
397.922	1110.06
398.147	1104.06
398.371	1157.06
398.595	1170.06
398.82	1223.06
399.044	1286.06
399.268	1446.06
399.492	1684.06
399.717	1909.06
399.941	1972.06
400.165	1712.06
400.389	1535.06
400.613	1394.06
400.837	1328.06
401.062	1314.06
401.286	1284.06
401.51	1251.06
401.734	1243.06
401.958	1291.06
402.182	1262.06
402.406	1321.06
402.63	1304.06
402.854	1342.06
403.078	1369.06
403.302	1394.06
403.526	1442.06
403.75	1384.06
403.974	1456.06
404.198	1475.06
404.422	1446.06
404.645	1452.06
404.869	1428.06
405.093	1472.06
405.317	1422.06
405.541	1387.06
405.765	1392.06
405.988	1402.06
406.212	1354.06
406.436	1402.06
406.66	1448.06
406.883	1436.06
407.107	1525.06
407.331	1584.06
407.555	1669.06
407.778	1657.06
408.002	1628.06
408.226	1520.06
408.449	1493.06
408.673	1474.06
408.896	1452.06
409.12	1385.06
409.344	1453.06
409.567	1445.06
409.791	1461.06
410.014	1430.06
410.238	1436.06
410.461	1416.06
410.685	1395.06
410.908	1341.06
411.132	1320.06
411.355	1320.06
411.578	1297.06
411.802	1309.06
412.025	1317.06
412.249	1309.06
412.472	1340.06
412.695	1293.06
412.919	1245.06
413.142	1246.06
413.365	1262.06
413.589	1245.06
413.812	1258.06
414.035	1219.06
414.258	1235.06
414.482	1224.06
414.705	1291.06
414.928	1253.06
415.151	1262.06
415.374	1253.06
415.597	1255.06
415.821	1197.06
416.044	1226.06
416.267	1213.06
416.49	1237.06
416.713	1244.06
416.936	1236.06
417.159	1239.06
417.382	1250.06
417.605	1226.06
417.828	1244.06
418.051	1217.06
418.274	1282.06
418.497	1270.06
418.72	1281.06
418.943	1278.06
419.166	1403.06
419.389	1467.06
419.611	1420.06
419.834	1375.06
420.057	1294.06
420.28	1266.06
420.503	1221.06
420.726	1230.06
420.948	1230.06
421.171	1217.06
421.394	1241.06
421.617	1233.06
421.839	1254.06
422.062	1244.06
422.285	1222.06
422.507	1284.06
422.73	1268.06
422.953	1289.06
423.175	1322.06
423.398	1334.06
423.621	1315.06
423.843	1320.06
424.066	1359.06
424.288	1332.06
424.511	1312.06
424.733	1298.06
424.956	1285.06
425.178	1271.06
425.401	1283.06
425.623	1262.06
425.846	1233.06
426.068	1215.06
426.291	1173.06
426.513	1166.06
426.735	1153.06
426.958	1160.06
427.18	1168.06
427.402	1140.06
427.625	1153.06
427.847	1142.06
428.069	1122.06
428.292	1116.06
428.514	1088.06
428.736	1102.06
428.958	1106.06
429.181	1082.06
429.403	1088.06
429.625	1072.06
429.847	1081.06
430.069	1107.06
430.292	1114.06
430.514	1087.06
430.736	1091.06
430.958	1098.06
431.18	1101.06
431.402	1105.06
431.624	1097.06
431.846	1140.06
432.068	1101.06
432.29	1143.06
432.512	1082.06
432.734	1104.06
432.956	1126.06
433.178	1134.06
433.4	1115.06
433.622	1114.06
433.844	1160.06
434.066	1146.06
434.287	1152.06
434.509	1176.06
434.731	1197.06
434.953	1257.06
435.175	1238.06
435.397	1253.06
435.618	1160.06
435.84	1179.06
436.062	1139.06
436.284	1100.06
436.505	1130.06
436.727	1142.06
436.949	1107.06
437.17	1097.06
437.392	1109.06
437.614	1068.06
437.835	1050.06
438.057	1061.06
438.278	1042.06
438.5	1080.06
438.721	1065.06
438.943	1091.06
439.165	1092.06
439.386	1113.06
439.608	1119.06
439.829	1132.06
440.05	1104.06
440.272	1153.06
440.493	1100.06
440.715	1147.06
440.936	1172.06
441.158	1180.06
441.379	1246.06
441.6	1312.06
441.822	1296.06
442.043	1272.06
442.264	1247.06
442.486	1187.06
442.707	1220.06
442.928	1215.06
443.149	1231.06
443.371	1241.06
443.592	1218.06
443.813	1287.06
444.034	1271.06
444.255	1332.06
444.476	1337.06
444.698	1441.06
444.919	1498.06
445.14	1588.06
445.361	1417.06
445.582	1329.06
445.803	1194.06
446.024	1201.06
446.245	1174.06
446.466	1165.06
446.687	1129.06
446.908	1146.06
447.129	1120.06
447.35	1068.06
447.571	1083.06
447.792	1048.06
448.013	1050.06
448.234	1058.06
448.455	1027.06
448.675	1030.06
448.896	1040.06
449.117	1004.06
449.338	1015.06
449.559	1028.06
449.779	1012.06
450	1006.06
450.221	1044.06
450.442	1030.06
450.662	1008.06
450.883	1036.06
451.104	1094.06
451.324	1076.06
451.545	1049.06
451.766	1051.06
451.986	1018.06
452.207	1052.06
452.428	1038.06
452.648	1018.06
452.869	1012.06
453.089	993.06
453.31	1018.06
453.53	982.06
453.751	988.06
453.971	987.06
454.192	980.06
454.412	963.06
454.633	988.06
454.853	1016.06
455.073	970.06
455.294	963.06
455.514	962.06
455.734	973.06
455.955	929.06
456.175	944.06
456.395	961.06
456.616	955.06
456.836	955.06
457.056	928.06
457.276	908.06
457.497	954.06
457.717	947.06
457.937	949.06
458.157	959.06
458.377	990.06
458.598	1001.06
458.818	1037.06
459.038	1056.06
459.258	1082.06
459.478	1099.06
459.698	1158.06
459.918	1188.06
460.138	1207.06
460.358	1286.06
460.578	1308.06
460.798	1350.06
461.018	1323.06
461.238	1331.06
461.458	1330.06
461.678	1318.06
461.898	1318.06
462.118	1341.06
462.338	1400.06
462.558	1444.06
462.777	1506.06
462.997	1635.06
463.217	1746.06
463.437	1780.06
463.657	1661.06
463.876	1564.06
464.096	1543.06
464.316	1548.06
464.536	1557.06
464.755	1474.06
464.975	1424.06
465.195	1354.06
465.414	1288.06
465.634	1221.06
465.854	1137.06
466.073	1133.06
466.293	1114.06
466.512	1092.06
466.732	1093.06
466.951	1101.06
467.171	1063.06
467.391	1090.06
467.61	1051.06
467.829	1050.06
468.049	1050.06
468.268	1058.06
468.488	1045.06
468.707	1041.06
468.927	1066.06
469.146	1014.06
469.365	1022.06
469.585	1064.06
469.804	1061.06
470.023	1076.06
470.243	1069.06
470.462	1144.06
470.681	1122.06
470.901	1141.06
471.12	1115.06
471.339	1090.06
471.558	1028.06
471.777	1042.06
471.997	1037.06
472.216	1039.06
472.435	1032.06
472.654	1006.06
472.873	1003.06
473.092	992.06
473.311	990.06
473.53	993.06
473.749	984.06
473.968	1010.06
474.187	999.06
474.406	988.06
474.625	982.06
474.844	1006.06
475.063	991.06
475.282	964.06
475.501	1018.06
475.72	1037.06
475.939	1009.06
476.158	1029.06
476.377	1018.06
476.596	1024.06
476.814	1060.06
477.033	1035.06
477.252	1068.06
477.471	1076.06
477.69	1126.06
477.908	1117.06
478.127	1162.06
478.346	1195.06
478.564	1222.06
478.783	1202.06
479.002	1265.06
479.22	1264.06
479.439	1258.06
479.658	1234.06
479.876	1267.06
480.095	1240.06
480.313	1314.06
480.532	1339.06
480.751	1338.06
480.969	1284.06
481.188	1254.06
481.406	1170.06
481.624	1168.06
481.843	1136.06
482.061	1152.06
482.28	1124.06
482.498	1168.06
482.717	1120.06
482.935	1126.06
483.153	1142.06
483.372	1117.06
483.59	1146.06
483.808	1114.06
484.027	1117.06
484.245	1172.06
484.463	1141.06
484.681	1180.06
484.9	1142.06
485.118	1209.06
485.336	1170.06
485.554	1185.06
485.772	1213.06
485.99	1202.06
486.209	1211.06
486.427	1206.06
486.645	1245.06
486.863	1234.06
487.081	1190.06
487.299	1210.06
487.517	1190.06
487.735	1192.06
487.953	1216.06
488.171	1197.06
488.389	1200.06
488.607	1172.06
488.825	1156.06
489.043	1149.06
489.261	1176.06
489.479	1186.06
489.696	1177.06
489.914	1214.06
490.132	1202.06
490.35	1222.06
490.568	1177.06
490.786	1200.06
491.003	1196.06
491.221	1212.06
491.439	1213.06
491.657	1207.06
491.874	1258.06
492.092	1220.06
492.31	1246.06
492.527	1208.06
492.745	1259.06
492.963	1251.06
493.18	1255.06
493.398	1229.06
493.615	1253.06
493.833	1230.06
494.05	1253.06
494.268	1247.06
494.485	1273.06
494.703	1237.06
494.92	1220.06
495.138	1268.06
495.355	1268.06
495.573	1298.06
495.79	1276.06
496.008	1303.06
496.225	1285.06
496.442	1308.06
496.66	1301.06
496.877	1336.06
497.094	1318.06
497.312	1370.06
497.529	1398.06
497.746	1424.06
497.963	1459.06
498.181	1535.06
498.398	1567.06
498.615	1672.06
498.832	1797.06
499.049	1910.06
499.267	2136.06
499.484	2335.06
499.701	2529.06
499.918	2827.06
500.135	3212.06
500.352	3667.06
500.569	3867.06
500.786	3844.06
501.003	3572.06
501.22	3216.06
501.437	2814.06
501.654	2505.06
501.871	2271.06
502.088	2109.06
502.305	1935.06
502.522	1796.06
502.739	1776.06
502.956	1673.06
503.172	1576.06
503.389	1528.06
503.606	1424.06
503.823	1445.06
504.04	1447.06
504.256	1444.06
504.473	1472.06
504.69	1548.06
504.907	1478.06
505.123	1373.06
505.34	1352.06
505.557	1286.06
505.773	1235.06
505.99	1213.06
506.207	1193.06
506.423	1155.06
506.64	1140.06
506.856	1158.06
507.073	1131.06
507.289	1126.06
507.506	1103.06
507.722	1116.06
507.939	1084.06
508.155	1096.06
508.372	1066.06
508.588	1037.06
508.805	1065.06
509.021	1051.06
509.238	1105.06
509.454	1048.06
509.67	1028.06
509.887	1041.06
510.103	1008.06
510.319	1026.06
510.536	1000.06
510.752	995.06
510.968	1033.06
511.184	992.06
511.401	1021.06
511.617	1009.06
511.833	1000.06
512.049	990.06
512.265	1032.06
512.481	978.06
512.698	1008.06
512.914	1005.06
513.13	1002.06
513.346	994.06
513.562	1009.06
513.778	988.06
513.994	1005.06
514.21	1035.06
514.426	1012.06
514.642	1040.06
514.858	1056.06
515.074	1047.06
515.29	1036.06
515.506	1081.06
515.721	1075.06
515.937	1100.06
516.153	1135.06
516.369	1136.06
516.585	1176.06
516.801	1209.06
517.016	1267.06
517.232	1313.06
517.448	1349.06
517.664	1427.06
517.879	1406.06
518.095	1440.06
518.311	1412.06
518.527	1360.06
518.742	1295.06
518.958	1230.06
519.173	1204.06
519.389	1156.06
519.605	1154.06
519.82	1084.06
520.036	1074.06
520.251	1062.06
520.467	1037.06
520.682	1026.06
520.898	1032.06
521.113	1006.06
521.329	993.06
521.544	994.06
521.76	987.06
521.975	979.06
522.19	954.06
522.406	973.06
522.621	981.06
522.836	963.06
523.052	955.06
523.267	940.06
523.482	924.06
523.698	922.06
523.913	897.06
524.128	931.06
524.343	958.06
524.559	926.06
524.774	931.06
524.989	953.06
525.204	920.06
525.419	906.06
525.634	903.06
525.849	906.06
526.064	895.06
526.28	917.06
526.495	888.06
526.71	920.06
526.925	880.06
527.14	930.06
527.355	934.06
527.57	948.06
527.785	921.06
527.999	925.06
528.214	919.06
528.429	911.06
528.644	916.06
528.859	903.06
529.074	900.06
529.289	906.06
529.503	903.06
529.718	920.06
529.933	916.06
530.148	881.06
530.363	922.06
530.577	910.06
530.792	886.06
531.007	900.06
531.221	940.06
531.436	892.06
531.651	909.06
531.865	898.06
532.08	888.06
532.295	931.06
532.509	889.06
532.724	891.06
532.938	899.06
533.153	895.06
533.367	910.06
533.582	908.06
533.796	923.06
534.011	935.06
534.225	916.06
534.44	881.06
534.654	902.06
534.868	880.06
535.083	914.06
535.297	896.06
535.511	865.06
535.726	874.06
535.94	875.06
536.154	827.06
536.369	884.06
536.583	868.06
536.797	824.06
537.011	807.06
537.225	828.06
537.44	811.06
537.654	826.06
537.868	847.06
538.082	828.06
538.296	839.06
538.51	832.06
538.724	843.06
538.938	826.06
539.153	820.06
539.367	812.06
539.581	811.06
539.795	821.06
540.009	794.06
540.222	796.06
540.436	822.06
540.65	792.06
540.864	830.06
541.078	835.06
541.292	842.06
541.506	812.06
541.72	822.06
541.934	800.06
542.147	826.06
542.361	794.06
542.575	780.06
542.789	809.06
543.002	775.06
543.216	783.06
543.43	824.06
543.644	776.06
543.857	800.06
544.071	782.06
544.285	804.06
544.498	820.06
544.712	796.06
544.925	795.06
545.139	825.06
545.352	854.06
545.566	869.06
545.779	840.06
545.993	824.06
546.206	842.06
546.42	814.06
546.633	860.06
546.847	832.06
547.06	802.06
547.274	835.06
547.487	826.06
547.7	837.06
547.914	840.06
548.127	826.06
548.34	812.06
548.554	830.06
548.767	840.06
548.98	820.06
549.193	859.06
549.407	848.06
549.62	865.06
549.833	867.06
550.046	881.06
550.259	816.06
550.473	826.06
550.686	822.06
550.899	828.06
551.112	801.06
551.325	798.06
551.538	823.06
551.751	816.06
551.964	833.06
552.177	846.06
552.39	843.06
552.603	870.06
552.816	903.06
553.029	898.06
553.242	908.06
553.455	930.06
553.667	950.06
553.88	930.06
554.093	887.06
554.306	858.06
554.519	841.06
554.732	825.06
554.944	820.06
555.157	798.06
555.37	802.06
555.583	761.06
555.795	782.06
556.008	778.06
556.221	729.06
556.433	738.06
556.646	700.06
556.859	735.06
557.071	747.06
557.284	707.06
557.496	735.06
557.709	718.06
557.921	725.06
558.134	716.06
558.346	721.06
558.559	692.06
558.771	698.06
558.984	680.06
559.196	704.06
559.409	714.06
559.621	705.06
559.833	681.06
560.046	686.06
560.258	699.06
560.47	691.06
560.683	668.06
560.895	661.06
561.107	696.06
561.32	679.06
561.532	700.06
561.744	690.06
561.956	667.06
562.168	704.06
562.381	690.06
562.593	678.06
562.805	677.06
563.017	697.06
563.229	696.06
563.441	714.06
563.653	701.06
563.865	702.06
564.077	717.06
564.289	709.06
564.501	722.06
564.713	724.06
564.925	745.06
565.137	769.06
565.349	771.06
565.561	811.06
565.773	796.06
565.985	874.06
566.197	917.06
566.408	942.06
566.62	1061.06
566.832	1122.06
567.044	1156.06
567.255	1100.06
567.467	1143.06
567.679	1240.06
567.891	1334.06
568.102	1361.06
568.314	1273.06
568.526	1156.06
568.737	1044.06
568.949	977.06
569.161	884.06
569.372	803.06
569.584	800.06
569.795	747.06
570.007	743.06
570.218	707.06
570.43	704.06
570.641	710.06
570.853	701.06
571.064	715.06
571.276	728.06
571.487	694.06
571.698	645.06
571.91	660.06
572.121	630.06
572.333	627.06
572.544	604.06
572.755	616.06
572.966	589.06
573.178	576.06
573.389	580.06
573.6	583.06
573.811	567.06
574.023	571.06
574.234	557.06
574.445	578.06
574.656	584.06
574.867	580.06
575.078	576.06
575.289	570.06
575.501	547.06
575.712	533.06
575.923	534.06
576.134	541.06
576.345	562.06
576.556	552.06
576.767	532.06
576.978	520.06
577.188	520.06
577.399	520.06
577.61	501.06
577.821	536.06
578.032	501.06
578.243	490.06
578.454	514.06
578.665	501.06
578.875	506.06
579.086	488.06
579.297	514.06
579.508	508.06
579.718	504.06
579.929	504.06
580.14	481.06
580.35	485.06
580.561	483.06
580.772	488.06
580.982	487.06
581.193	474.06
581.403	485.06
581.614	477.06
581.825	483.06
582.035	479.06
582.246	502.06
582.456	475.06
582.667	478.06
582.877	470.06
583.087	476.06
583.298	468.06
583.508	457.06
583.719	466.06
583.929	468.06
584.139	469.06
584.35	450.06
584.56	479.06
584.77	484.06
584.981	464.06
585.191	453.06
585.401	442.06
585.611	459.06
585.821	449.06
586.032	470.06
586.242	453.06
586.452	459.06
586.662	470.06
586.872	469.06
587.082	448.06
587.292	432.06
587.502	446.06
587.713	457.06
587.923	441.06
588.133	455.06
588.343	453.06
588.553	451.06
588.762	460.06
588.972	454.06
589.182	466.06
589.392	457.06
589.602	473.06
589.812	466.06
590.022	449.06
590.232	469.06
590.441	467.06
590.651	454.06
590.861	462.06
591.071	465.06
591.281	467.06
591.49	471.06
591.7	476.06
591.91	477.06
592.119	510.06
592.329	484.06
592.539	513.06
592.748	508.06
592.958	579.06
593.167	587.06
593.377	584.06
593.587	603.06
593.796	581.06
594.006	576.06
594.215	587.06
594.424	596.06
594.634	577.06
594.843	544.06
595.053	538.06
595.262	516.06
595.472	514.06
595.681	485.06
595.89	461.06
596.1	441.06
596.309	457.06
596.518	436.06
596.727	424.06
596.937	455.06
597.146	410.06
597.355	424.06
597.564	422.06
597.774	411.06
597.983	412.06
598.192	409.06
598.401	403.06
598.61	412.06
598.819	398.06
599.028	380.06
599.237	390.06
599.446	385.06
599.655	379.06
599.864	383.06
600.073	378.06
600.282	380.06
600.491	357.06
600.7	386.06
600.909	372.06
601.118	380.06
601.327	370.06
601.536	385.06
601.745	386.06
601.953	373.06
602.162	371.06
602.371	390.06
602.58	358.06
602.789	369.06
602.997	378.06
603.206	375.06
603.415	376.06
603.623	381.06
603.832	392.06
604.041	364.06
604.249	361.06
604.458	350.06
604.666	353.06
604.875	349.06
605.084	341.06
605.292	365.06
605.501	371.06
605.709	346.06
605.918	340.06
606.126	349.06
606.334	325.06
606.543	368.06
606.751	356.06
606.96	340.06
607.168	338.06
607.376	354.06
607.585	354.06
607.793	329.06
608.001	353.06
608.21	342.06
608.418	352.06
608.626	342.06
608.834	351.06
609.043	347.06
609.251	348.06
609.459	344.06
609.667	342.06
609.875	353.06
610.083	330.06
610.291	329.06
610.499	339.06
610.707	331.06
610.916	327.06
611.124	334.06
611.332	329.06
611.54	334.06
611.748	355.06
611.955	316.06
612.163	327.06
612.371	326.06
612.579	331.06
612.787	325.06
612.995	349.06
613.203	334.06
613.411	333.06
613.618	305.06
613.826	334.06
614.034	326.06
614.242	330.06
614.449	317.06
614.657	325.06
614.865	334.06
615.072	317.06
615.28	311.06
615.488	334.06
615.695	328.06
615.903	330.06
616.111	318.06
616.318	332.06
616.526	323.06
616.733	331.06
616.941	328.06
617.148	326.06
617.356	324.06
617.563	318.06
617.771	311.06
617.978	353.06
618.185	295.06
618.393	319.06
618.6	321.06
618.807	318.06
619.015	332.06
619.222	329.06
619.429	321.06
619.637	334.06
619.844	321.06
620.051	299.06
620.258	309.06
620.466	297.06
620.673	313.06
620.88	294.06
621.087	306.06
621.294	284.06
621.501	317.06
621.708	310.06
621.915	324.06
622.122	312.06
622.329	310.06
622.536	302.06
622.743	286.06
622.95	298.06
623.157	296.06
623.364	295.06
623.571	294.06
623.778	312.06
623.985	307.06
624.192	311.06
624.399	290.06
624.606	288.06
624.812	285.06
625.019	298.06
625.226	275.06
625.433	293.06
625.639	296.06
625.846	279.06
626.053	289.06
626.259	270.06
626.466	288.06
626.673	278.06
626.879	269.06
627.086	269.06
627.293	279.06
627.499	268.06
627.706	272.06
627.912	280.06
628.119	270.06
628.325	266.06
628.532	284.06
628.738	264.06
628.945	265.06
629.151	249.06
629.357	264.06
629.564	266.06
629.77	255.06
629.976	255.06
630.183	250.06
630.389	262.06
630.595	248.06
630.802	262.06
631.008	260.06
631.214	239.06
631.42	263.06
631.627	257.06
631.833	251.06
632.039	234.06
632.245	252.06
632.451	242.06
632.657	249.06
632.863	249.06
633.069	237.06
633.275	243.06
633.481	263.06
633.688	251.06
633.893	229.06
634.099	246.06
634.305	212.06
634.511	254.06
634.717	250.06
634.923	237.06
635.129	242.06
635.335	236.06
635.541	261.06
635.747	238.06
635.952	260.06
636.158	205.06
636.364	214.06
636.57	232.06
636.775	236.06
636.981	233.06
637.187	243.06
637.392	210.06
637.598	208.06
637.804	246.06
638.009	245.06
638.215	226.06
638.421	232.06
638.626	222.06
638.832	226.06
639.037	230.06
639.243	216.06
639.448	231.06
639.654	246.06
639.859	214.06
640.065	213.06
640.27	231.06
640.475	220.06
640.681	221.06
640.886	211.06
641.091	215.06
641.297	214.06
641.502	215.06
641.707	228.06
641.913	213.06
642.118	223.06
642.323	202.06
642.528	216.06
642.733	197.06
642.939	226.06
643.144	213.06
643.349	203.06
643.554	221.06
643.759	206.06
643.964	201.06
644.169	203.06
644.374	211.06
644.579	208.06
644.784	203.06
644.989	215.06
645.194	203.06
645.399	199.06
645.604	204.06
645.809	202.06
646.014	211.06
646.219	215.06
646.423	217.06
646.628	214.06
646.833	224.06
647.038	224.06
647.243	233.06
647.447	226.06
647.652	225.06
647.857	220.06
648.062	212.06
648.266	214.06
648.471	221.06
648.676	221.06
648.88	210.06
649.085	226.06
649.289	227.06
649.494	214.06
649.698	197.06
649.903	198.06
650.107	210.06
650.312	191.06
650.516	194.06
650.721	196.06
650.925	196.06
651.13	210.06
651.334	184.06
651.539	201.06
651.743	184.06
651.947	169.06
652.152	174.06
652.356	184.06
652.56	177.06
652.764	181.06
652.969	169.06
653.173	166.06
653.377	178.06
653.581	189.06
653.785	155.06
653.99	163.06
654.194	161.06
654.398	155.06
654.602	168.06
654.806	160.06
655.01	147.06
655.214	152.06
655.418	165.06
655.622	169.06
655.826	151.06
656.03	172.06
656.234	159.06
656.438	161.06
656.642	168.06
656.846	154.06
657.049	139.06
657.253	140.06
657.457	133.06
657.661	124.06
657.865	124.06
658.068	134.06
658.272	121.06
658.476	121.06
658.68	113.06
658.883	118.06
659.087	118.06
659.291	104.06
659.494	95.06
659.698	103.06
659.901	99.06
660.105	117.06
660.309	109.06
660.512	91.06
660.716	99.06
660.919	105.06
661.123	78.06
661.326	100.06
661.53	90.06
661.733	107.06
661.936	97.06
662.14	89.06
662.343	82.06
662.546	86.06
662.75	83.06
662.953	101.06
663.156	72.06
663.36	76.06
663.563	86.06
663.766	88.06
663.969	84.06
664.173	94.06
664.376	83.06
664.579	84.06
664.782	66.06
664.985	71.06
665.188	83.06
665.391	100.06
665.594	79.06
665.797	82.06
666	90.06
666.203	78.06
666.406	82.06
666.609	70.06
666.812	73.06
667.015	86.06
667.218	90.06
667.421	92.06
667.624	87.06
667.827	91.06
668.03	86.06
668.232	82.06
668.435	60.06
668.638	86.06
668.841	82.06
669.043	69.06
669.246	77.06
669.449	90.06
669.651	91.06
669.854	88.06
670.057	85.06
670.259	71.06
670.462	79.06
670.665	70.06
670.867	77.06
671.07	70.06
671.272	69.06
671.475	75.06
671.677	86.06
671.88	80.06
672.082	80.06
672.284	81.06
672.487	93.06
672.689	78.06
672.892	69.06
