Data from NiCl2@0.5M.TitratingCurve.Agarose3%dH2O.NegLispCup.LampEnergy10.LIBS07252019_HRD10591_18-19-12-571.txt Node
Date: Thu Jul 25 18:19:12 EDT 2019
User: cochatt
Spectrometer: HR+D1059
Trigger mode: 1
Integration Time (sec): 1.000000E-1
Scans to average: 1
Electric dark correction enabled: true
Nonlinearity correction enabled: false
Boxcar width: 0
XAxis mode: Wavelengths
Number of Pixels in Spectrum: 2048
>>>>>Begin Spectral Data<<<<<
223.165	-8.31
223.4	-8.31
223.635	-8.31
223.869	-19.31
224.104	-29.31
224.338	-18.31
224.573	-19.31
224.808	-14.31
225.042	-13.31
225.277	5.69
225.511	-1.31
225.746	6.69
225.98	4.69
226.215	14.69
226.449	6.69
226.683	31.69
226.918	22.69
227.152	30.69
227.387	43.69
227.621	44.69
227.856	34.69
228.09	59.69
228.324	55.69
228.559	72.69
228.793	74.69
229.027	115.69
229.262	128.69
229.496	153.69
229.73	152.69
229.964	168.69
230.199	172.69
230.433	188.69
230.667	184.69
230.901	185.69
231.136	164.69
231.37	170.69
231.604	179.69
231.838	184.69
232.072	190.69
232.306	205.69
232.541	195.69
232.775	182.69
233.009	174.69
233.243	177.69
233.477	176.69
233.711	178.69
233.945	190.69
234.179	178.69
234.413	205.69
234.647	182.69
234.881	180.69
235.115	193.69
235.349	175.69
235.583	178.69
235.817	195.69
236.051	176.69
236.285	177.69
236.519	194.69
236.753	196.69
236.987	200.69
237.221	187.69
237.455	206.69
237.689	189.69
237.922	195.69
238.156	215.69
238.39	219.69
238.624	188.69
238.858	225.69
239.091	213.69
239.325	223.69
239.559	234.69
239.793	232.69
240.027	250.69
240.26	244.69
240.494	229.69
240.728	208.69
240.961	221.69
241.195	225.69
241.429	230.69
241.662	232.69
241.896	225.69
242.13	262.69
242.363	240.69
242.597	241.69
242.83	256.69
243.064	232.69
243.298	241.69
243.531	238.69
243.765	233.69
243.998	269.69
244.232	282.69
244.465	264.69
244.699	244.69
244.932	249.69
245.166	256.69
245.399	270.69
245.633	278.69
245.866	281.69
246.099	282.69
246.333	283.69
246.566	269.69
246.8	264.69
247.033	270.69
247.266	275.69
247.5	293.69
247.733	278.69
247.966	299.69
248.2	290.69
248.433	303.69
248.666	282.69
248.899	280.69
249.133	290.69
249.366	305.69
249.599	308.69
249.832	308.69
250.066	297.69
250.299	319.69
250.532	302.69
250.765	326.69
250.998	316.69
251.231	339.69
251.465	342.69
251.698	340.69
251.931	337.69
252.164	354.69
252.397	347.69
252.63	340.69
252.863	339.69
253.096	335.69
253.329	350.69
253.562	344.69
253.795	349.69
254.028	341.69
254.261	327.69
254.494	364.69
254.727	344.69
254.96	358.69
255.193	374.69
255.426	368.69
255.659	373.69
255.892	377.69
256.124	391.69
256.357	364.69
256.59	360.69
256.823	379.69
257.056	374.69
257.289	386.69
257.521	403.69
257.754	383.69
257.987	377.69
258.22	375.69
258.452	397.69
258.685	388.69
258.918	381.69
259.151	374.69
259.383	411.69
259.616	411.69
259.849	409.69
260.081	398.69
260.314	393.69
260.547	411.69
260.779	410.69
261.012	409.69
261.244	425.69
261.477	422.69
261.71	411.69
261.942	400.69
262.175	406.69
262.407	433.69
262.64	435.69
262.872	407.69
263.105	424.69
263.337	423.69
263.57	434.69
263.802	460.69
264.035	457.69
264.267	442.69
264.499	434.69
264.732	423.69
264.964	452.69
265.197	464.69
265.429	456.69
265.661	449.69
265.894	446.69
266.126	433.69
266.358	443.69
266.591	449.69
266.823	446.69
267.055	461.69
267.287	472.69
267.52	440.69
267.752	473.69
267.984	480.69
268.216	475.69
268.448	485.69
268.681	481.69
268.913	469.69
269.145	465.69
269.377	485.69
269.609	457.69
269.841	491.69
270.073	486.69
270.306	499.69
270.538	480.69
270.77	488.69
271.002	484.69
271.234	471.69
271.466	506.69
271.698	493.69
271.93	508.69
272.162	514.69
272.394	502.69
272.626	519.69
272.858	512.69
273.09	560.69
273.322	526.69
273.553	538.69
273.785	546.69
274.017	500.69
274.249	534.69
274.481	549.69
274.713	510.69
274.945	538.69
275.176	551.69
275.408	540.69
275.64	561.69
275.872	560.69
276.104	563.69
276.335	541.69
276.567	542.69
276.799	578.69
277.031	556.69
277.262	575.69
277.494	553.69
277.726	588.69
277.957	569.69
278.189	557.69
278.421	586.69
278.652	592.69
278.884	558.69
279.115	578.69
279.347	577.69
279.579	582.69
279.81	587.69
280.042	576.69
280.273	606.69
280.505	592.69
280.736	602.69
280.968	594.69
281.199	603.69
281.431	609.69
281.662	618.69
281.894	610.69
282.125	601.69
282.356	608.69
282.588	610.69
282.819	599.69
283.051	636.69
283.282	607.69
283.513	648.69
283.745	631.69
283.976	616.69
284.207	650.69
284.439	625.69
284.67	618.69
284.901	630.69
285.132	646.69
285.364	652.69
285.595	639.69
285.826	642.69
286.057	646.69
286.288	635.69
286.52	630.69
286.751	647.69
286.982	642.69
287.213	636.69
287.444	671.69
287.675	656.69
287.906	663.69
288.138	650.69
288.369	675.69
288.6	688.69
288.831	658.69
289.062	674.69
289.293	676.69
289.524	660.69
289.755	681.69
289.986	670.69
290.217	675.69
290.448	693.69
290.679	669.69
290.91	700.69
291.141	683.69
291.371	698.69
291.602	668.69
291.833	686.69
292.064	676.69
292.295	680.69
292.526	686.69
292.757	688.69
292.987	675.69
293.218	651.69
293.449	704.69
293.68	668.69
293.91	688.69
294.141	698.69
294.372	682.69
294.603	722.69
294.833	685.69
295.064	694.69
295.295	690.69
295.525	695.69
295.756	720.69
295.987	700.69
296.217	702.69
296.448	721.69
296.679	703.69
296.909	720.69
297.14	681.69
297.37	740.69
297.601	752.69
297.831	739.69
298.062	729.69
298.292	739.69
298.523	787.69
298.753	763.69
298.984	746.69
299.214	778.69
299.445	735.69
299.675	772.69
299.905	790.69
300.136	760.69
300.366	802.69
300.597	839.69
300.827	806.69
301.057	779.69
301.288	802.69
301.518	790.69
301.748	766.69
301.979	784.69
302.209	810.69
302.439	802.69
302.669	770.69
302.9	813.69
303.13	778.69
303.36	794.69
303.59	820.69
303.82	787.69
304.051	820.69
304.281	805.69
304.511	782.69
304.741	794.69
304.971	802.69
305.201	824.69
305.431	848.69
305.661	830.69
305.891	822.69
306.121	803.69
306.352	803.69
306.582	821.69
306.812	773.69
307.042	799.69
307.272	817.69
307.502	793.69
307.731	801.69
307.961	812.69
308.191	800.69
308.421	810.69
308.651	790.69
308.881	785.69
309.111	773.69
309.341	780.69
309.571	791.69
309.8	822.69
310.03	829.69
310.26	845.69
310.49	862.69
310.72	839.69
310.949	825.69
311.179	825.69
311.409	823.69
311.639	816.69
311.868	825.69
312.098	842.69
312.328	848.69
312.557	817.69
312.787	827.69
313.017	828.69
313.246	861.69
313.476	858.69
313.706	868.69
313.935	869.69
314.165	865.69
314.394	856.69
314.624	863.69
314.853	876.69
315.083	838.69
315.312	862.69
315.542	867.69
315.771	856.69
316.001	882.69
316.23	845.69
316.46	840.69
316.689	839.69
316.919	874.69
317.148	857.69
317.377	877.69
317.607	871.69
317.836	845.69
318.065	867.69
318.295	874.69
318.524	867.69
318.753	832.69
318.983	865.69
319.212	846.69
319.441	875.69
319.67	880.69
319.9	864.69
320.129	896.69
320.358	871.69
320.587	884.69
320.816	874.69
321.046	857.69
321.275	862.69
321.504	847.69
321.733	868.69
321.962	885.69
322.191	890.69
322.42	913.69
322.649	889.69
322.878	887.69
323.108	890.69
323.337	904.69
323.566	881.69
323.795	889.69
324.024	901.69
324.253	898.69
324.482	896.69
324.71	923.69
324.939	914.69
325.168	937.69
325.397	891.69
325.626	901.69
325.855	908.69
326.084	931.69
326.313	914.69
326.542	922.69
326.77	953.69
326.999	925.69
327.228	926.69
327.457	938.69
327.686	957.69
327.914	937.69
328.143	950.69
328.372	944.69
328.6	952.69
328.829	920.69
329.058	933.69
329.287	957.69
329.515	922.69
329.744	956.69
329.972	964.69
330.201	957.69
330.43	945.69
330.658	988.69
330.887	952.69
331.115	981.69
331.344	975.69
331.572	966.69
331.801	1009.69
332.03	1028.69
332.258	1029.69
332.486	1053.69
332.715	1064.69
332.943	1012.69
333.172	1059.69
333.4	1073.69
333.629	1089.69
333.857	1114.69
334.085	1104.69
334.314	1115.69
334.542	1085.69
334.771	1102.69
334.999	1106.69
335.227	1101.69
335.455	1090.69
335.684	1108.69
335.912	1129.69
336.14	1118.69
336.369	1131.69
336.597	1131.69
336.825	1113.69
337.053	1130.69
337.281	1118.69
337.51	1076.69
337.738	1106.69
337.966	1069.69
338.194	1101.69
338.422	1076.69
338.65	1053.69
338.878	1029.69
339.106	1018.69
339.334	1076.69
339.562	1054.69
339.79	1016.69
340.018	989.69
340.246	1001.69
340.474	995.69
340.702	1019.69
340.93	1005.69
341.158	1002.69
341.386	1038.69
341.614	1037.69
341.842	1046.69
342.07	992.69
342.298	999.69
342.526	1011.69
342.754	996.69
342.981	994.69
343.209	1028.69
343.437	1051.69
343.665	1064.69
343.893	1090.69
344.12	1104.69
344.348	1105.69
344.576	1120.69
344.804	1059.69
345.031	1072.69
345.259	1028.69
345.487	1033.69
345.714	1040.69
345.942	1048.69
346.17	1085.69
346.397	1065.69
346.625	989.69
346.853	969.69
347.08	986.69
347.308	972.69
347.535	950.69
347.763	969.69
347.99	956.69
348.218	942.69
348.445	940.69
348.673	959.69
348.9	950.69
349.128	955.69
349.355	989.69
349.583	1005.69
349.81	962.69
350.037	945.69
350.265	917.69
350.492	925.69
350.72	937.69
350.947	938.69
351.174	958.69
351.402	997.69
351.629	981.69
351.856	995.69
352.083	951.69
352.311	984.69
352.538	993.69
352.765	1024.69
352.992	938.69
353.22	899.69
353.447	882.69
353.674	926.69
353.901	898.69
354.128	878.69
354.355	899.69
354.583	908.69
354.81	902.69
355.037	908.69
355.264	923.69
355.491	907.69
355.718	901.69
355.945	895.69
356.172	904.69
356.399	922.69
356.626	924.69
356.853	953.69
357.08	954.69
357.307	926.69
357.534	904.69
357.761	892.69
357.988	918.69
358.215	874.69
358.441	879.69
358.668	915.69
358.895	913.69
359.122	894.69
359.349	892.69
359.576	905.69
359.802	886.69
360.029	904.69
360.256	912.69
360.483	889.69
360.709	894.69
360.936	914.69
361.163	914.69
361.39	936.69
361.616	920.69
361.843	946.69
362.07	970.69
362.296	993.69
362.523	877.69
362.749	918.69
362.976	898.69
363.203	896.69
363.429	886.69
363.656	896.69
363.882	901.69
364.109	876.69
364.335	883.69
364.562	888.69
364.788	896.69
365.015	878.69
365.241	888.69
365.468	889.69
365.694	880.69
365.92	882.69
366.147	897.69
366.373	891.69
366.599	902.69
366.826	888.69
367.052	897.69
367.278	890.69
367.505	868.69
367.731	882.69
367.957	904.69
368.184	879.69
368.41	899.69
368.636	876.69
368.862	902.69
369.089	894.69
369.315	919.69
369.541	906.69
369.767	911.69
369.993	892.69
370.219	940.69
370.445	909.69
370.672	928.69
370.898	908.69
371.124	921.69
371.35	925.69
371.576	915.69
371.802	930.69
372.028	954.69
372.254	917.69
372.48	930.69
372.706	932.69
372.932	951.69
373.158	957.69
373.384	944.69
373.61	902.69
373.835	925.69
374.061	936.69
374.287	931.69
374.513	940.69
374.739	947.69
374.965	964.69
375.191	984.69
375.416	972.69
375.642	939.69
375.868	940.69
376.094	940.69
376.319	938.69
376.545	944.69
376.771	946.69
376.997	920.69
377.222	899.69
377.448	910.69
377.674	942.69
377.899	913.69
378.125	898.69
378.35	922.69
378.576	918.69
378.802	897.69
379.027	905.69
379.253	888.69
379.478	899.69
379.704	904.69
379.929	897.69
380.155	900.69
380.38	924.69
380.606	910.69
380.831	884.69
381.057	932.69
381.282	902.69
381.507	902.69
381.733	914.69
381.958	908.69
382.184	916.69
382.409	893.69
382.634	902.69
382.86	948.69
383.085	964.69
383.31	956.69
383.535	968.69
383.761	953.69
383.986	965.69
384.211	955.69
384.436	978.69
384.662	963.69
384.887	995.69
385.112	1004.69
385.337	1009.69
385.562	984.69
385.787	1032.69
386.013	1044.69
386.238	1076.69
386.463	996.69
386.688	997.69
386.913	1014.69
387.138	1024.69
387.363	1007.69
387.588	1030.69
387.813	1014.69
388.038	1016.69
388.263	1025.69
388.488	1031.69
388.713	1026.69
388.938	1037.69
389.163	1067.69
389.387	1032.69
389.612	1011.69
389.837	1026.69
390.062	1016.69
390.287	1039.69
390.512	1009.69
390.736	1015.69
390.961	1029.69
391.186	1064.69
391.411	1082.69
391.636	1096.69
391.86	1120.69
392.085	1100.69
392.31	1098.69
392.534	1069.69
392.759	1098.69
392.984	1129.69
393.208	1082.69
393.433	1108.69
393.658	1066.69
393.882	1047.69
394.107	1089.69
394.331	1095.69
394.556	1084.69
394.78	1094.69
395.005	1097.69
395.229	1117.69
395.454	1107.69
395.678	1128.69
395.903	1158.69
396.127	1138.69
396.352	1120.69
396.576	1094.69
396.801	1115.69
397.025	1115.69
397.249	1148.69
397.474	1149.69
397.698	1133.69
397.922	1147.69
398.147	1136.69
398.371	1198.69
398.595	1212.69
398.82	1245.69
399.044	1257.69
399.268	1339.69
399.492	1419.69
399.717	1479.69
399.941	1497.69
400.165	1448.69
400.389	1419.69
400.613	1350.69
400.837	1337.69
401.062	1298.69
401.286	1268.69
401.51	1243.69
401.734	1240.69
401.958	1273.69
402.182	1265.69
402.406	1259.69
402.63	1219.69
402.854	1247.69
403.078	1278.69
403.302	1258.69
403.526	1261.69
403.75	1295.69
403.974	1304.69
404.198	1286.69
404.422	1307.69
404.645	1288.69
404.869	1274.69
405.093	1334.69
405.317	1319.69
405.541	1305.69
405.765	1344.69
405.988	1296.69
406.212	1302.69
406.436	1324.69
406.66	1352.69
406.883	1357.69
407.107	1416.69
407.331	1397.69
407.555	1483.69
407.778	1489.69
408.002	1469.69
408.226	1462.69
408.449	1466.69
408.673	1411.69
408.896	1402.69
409.12	1400.69
409.344	1389.69
409.567	1384.69
409.791	1380.69
410.014	1352.69
410.238	1373.69
410.461	1351.69
410.685	1349.69
410.908	1330.69
411.132	1291.69
411.355	1303.69
411.578	1286.69
411.802	1300.69
412.025	1280.69
412.249	1305.69
412.472	1310.69
412.695	1308.69
412.919	1276.69
413.142	1326.69
413.365	1331.69
413.589	1320.69
413.812	1289.69
414.035	1264.69
414.258	1275.69
414.482	1298.69
414.705	1281.69
414.928	1282.69
415.151	1265.69
415.374	1252.69
415.597	1244.69
415.821	1252.69
416.044	1257.69
416.267	1252.69
416.49	1244.69
416.713	1265.69
416.936	1251.69
417.159	1209.69
417.382	1215.69
417.605	1233.69
417.828	1241.69
418.051	1250.69
418.274	1225.69
418.497	1203.69
418.72	1225.69
418.943	1258.69
419.166	1330.69
419.389	1396.69
419.611	1362.69
419.834	1340.69
420.057	1323.69
420.28	1269.69
420.503	1243.69
420.726	1212.69
420.948	1233.69
421.171	1241.69
421.394	1232.69
421.617	1236.69
421.839	1237.69
422.062	1249.69
422.285	1235.69
422.507	1266.69
422.73	1232.69
422.953	1263.69
423.175	1237.69
423.398	1266.69
423.621	1248.69
423.843	1306.69
424.066	1284.69
424.288	1280.69
424.511	1259.69
424.733	1262.69
424.956	1241.69
425.178	1255.69
425.401	1257.69
425.623	1237.69
425.846	1227.69
426.068	1236.69
426.291	1222.69
426.513	1214.69
426.735	1240.69
426.958	1237.69
427.18	1223.69
427.402	1204.69
427.625	1221.69
427.847	1236.69
428.069	1215.69
428.292	1227.69
428.514	1198.69
428.736	1195.69
428.958	1206.69
429.181	1183.69
429.403	1197.69
429.625	1179.69
429.847	1193.69
430.069	1206.69
430.292	1182.69
430.514	1197.69
430.736	1178.69
430.958	1202.69
431.18	1199.69
431.402	1214.69
431.624	1200.69
431.846	1196.69
432.068	1217.69
432.29	1191.69
432.512	1221.69
432.734	1223.69
432.956	1225.69
433.178	1252.69
433.4	1228.69
433.622	1265.69
433.844	1286.69
434.066	1254.69
434.287	1235.69
434.509	1230.69
434.731	1285.69
434.953	1279.69
435.175	1306.69
435.397	1312.69
435.618	1272.69
435.84	1292.69
436.062	1243.69
436.284	1232.69
436.505	1239.69
436.727	1215.69
436.949	1210.69
437.17	1247.69
437.392	1205.69
437.614	1195.69
437.835	1208.69
438.057	1212.69
438.278	1174.69
438.5	1180.69
438.721	1196.69
438.943	1188.69
439.165	1220.69
439.386	1190.69
439.608	1201.69
439.829	1218.69
440.05	1231.69
440.272	1240.69
440.493	1239.69
440.715	1261.69
440.936	1260.69
441.158	1260.69
441.379	1274.69
441.6	1282.69
441.822	1264.69
442.043	1319.69
442.264	1292.69
442.486	1300.69
442.707	1298.69
442.928	1331.69
443.149	1321.69
443.371	1318.69
443.592	1382.69
443.813	1329.69
444.034	1334.69
444.255	1355.69
444.476	1328.69
444.698	1423.69
444.919	1453.69
445.14	1494.69
445.361	1428.69
445.582	1372.69
445.803	1307.69
446.024	1314.69
446.245	1271.69
446.466	1299.69
446.687	1226.69
446.908	1260.69
447.129	1244.69
447.35	1182.69
447.571	1222.69
447.792	1195.69
448.013	1185.69
448.234	1150.69
448.455	1157.69
448.675	1179.69
448.896	1194.69
449.117	1189.69
449.338	1169.69
449.559	1162.69
449.779	1134.69
450	1149.69
450.221	1145.69
450.442	1170.69
450.662	1121.69
450.883	1152.69
451.104	1187.69
451.324	1188.69
451.545	1159.69
451.766	1158.69
451.986	1153.69
452.207	1145.69
452.428	1155.69
452.648	1148.69
452.869	1108.69
453.089	1138.69
453.31	1176.69
453.53	1130.69
453.751	1126.69
453.971	1111.69
454.192	1123.69
454.412	1123.69
454.633	1112.69
454.853	1117.69
455.073	1115.69
455.294	1136.69
455.514	1121.69
455.734	1146.69
455.955	1140.69
456.175	1130.69
456.395	1110.69
456.616	1101.69
456.836	1093.69
457.056	1098.69
457.276	1100.69
457.497	1120.69
457.717	1141.69
457.937	1125.69
458.157	1136.69
458.377	1142.69
458.598	1147.69
458.818	1157.69
459.038	1181.69
459.258	1195.69
459.478	1296.69
459.698	1348.69
459.918	1332.69
460.138	1345.69
460.358	1380.69
460.578	1380.69
460.798	1393.69
461.018	1406.69
461.238	1411.69
461.458	1392.69
461.678	1372.69
461.898	1426.69
462.118	1394.69
462.338	1463.69
462.558	1499.69
462.777	1529.69
462.997	1615.69
463.217	1638.69
463.437	1632.69
463.657	1640.69
463.876	1556.69
464.096	1558.69
464.316	1574.69
464.536	1528.69
464.755	1460.69
464.975	1441.69
465.195	1423.69
465.414	1384.69
465.634	1347.69
465.854	1321.69
466.073	1325.69
466.293	1308.69
466.512	1260.69
466.732	1237.69
466.951	1255.69
467.171	1284.69
467.391	1272.69
467.61	1257.69
467.829	1202.69
468.049	1212.69
468.268	1200.69
468.488	1221.69
468.707	1215.69
468.927	1206.69
469.146	1168.69
469.365	1219.69
469.585	1241.69
469.804	1192.69
470.023	1225.69
470.243	1218.69
470.462	1222.69
470.681	1250.69
470.901	1274.69
471.12	1252.69
471.339	1214.69
471.558	1240.69
471.777	1245.69
471.997	1192.69
472.216	1186.69
472.435	1200.69
472.654	1168.69
472.873	1181.69
473.092	1209.69
473.311	1198.69
473.53	1232.69
473.749	1238.69
473.968	1204.69
474.187	1212.69
474.406	1203.69
474.625	1214.69
474.844	1193.69
475.063	1260.69
475.282	1251.69
475.501	1256.69
475.72	1234.69
475.939	1232.69
476.158	1249.69
476.377	1292.69
476.596	1266.69
476.814	1297.69
477.033	1260.69
477.252	1280.69
477.471	1306.69
477.69	1304.69
477.908	1365.69
478.127	1350.69
478.346	1353.69
478.564	1400.69
478.783	1410.69
479.002	1443.69
479.22	1483.69
479.439	1456.69
479.658	1447.69
479.876	1450.69
480.095	1429.69
480.313	1483.69
480.532	1477.69
480.751	1477.69
480.969	1430.69
481.188	1462.69
481.406	1396.69
481.624	1376.69
481.843	1408.69
482.061	1446.69
482.28	1364.69
482.498	1406.69
482.717	1390.69
482.935	1405.69
483.153	1415.69
483.372	1442.69
483.59	1455.69
483.808	1456.69
484.027	1455.69
484.245	1402.69
484.463	1424.69
484.681	1434.69
484.9	1456.69
485.118	1427.69
485.336	1449.69
485.554	1460.69
485.772	1456.69
485.99	1445.69
486.209	1477.69
486.427	1423.69
486.645	1468.69
486.863	1467.69
487.081	1486.69
487.299	1453.69
487.517	1467.69
487.735	1471.69
487.953	1460.69
488.171	1463.69
488.389	1442.69
488.607	1482.69
488.825	1441.69
489.043	1446.69
489.261	1440.69
489.479	1441.69
489.696	1458.69
489.914	1451.69
490.132	1464.69
490.35	1479.69
490.568	1509.69
490.786	1472.69
491.003	1469.69
491.221	1508.69
491.439	1540.69
491.657	1542.69
491.874	1527.69
492.092	1520.69
492.31	1523.69
492.527	1522.69
492.745	1538.69
492.963	1532.69
493.18	1546.69
493.398	1565.69
493.615	1536.69
493.833	1573.69
494.05	1538.69
494.268	1592.69
494.485	1558.69
494.703	1586.69
494.92	1562.69
495.138	1593.69
495.355	1602.69
495.573	1617.69
495.79	1622.69
496.008	1586.69
496.225	1652.69
496.442	1616.69
496.66	1609.69
496.877	1683.69
497.094	1684.69
497.312	1680.69
497.529	1742.69
497.746	1727.69
497.963	1801.69
498.181	1846.69
498.398	1914.69
498.615	1943.69
498.832	2021.69
499.049	2148.69
499.267	2203.69
499.484	2315.69
499.701	2488.69
499.918	2608.69
500.135	2759.69
500.352	2896.69
500.569	2963.69
500.786	2944.69
501.003	2862.69
501.22	2781.69
501.437	2626.69
501.654	2450.69
501.871	2314.69
502.088	2229.69
502.305	2180.69
502.522	2090.69
502.739	2010.69
502.956	1948.69
503.172	1848.69
503.389	1814.69
503.606	1782.69
503.823	1746.69
504.04	1748.69
504.256	1732.69
504.473	1708.69
504.69	1694.69
504.907	1705.69
505.123	1639.69
505.34	1584.69
505.557	1560.69
505.773	1560.69
505.99	1498.69
506.207	1478.69
506.423	1467.69
506.64	1418.69
506.856	1443.69
507.073	1415.69
507.289	1438.69
507.506	1357.69
507.722	1406.69
507.939	1386.69
508.155	1381.69
508.372	1390.69
508.588	1356.69
508.805	1328.69
509.021	1339.69
509.238	1342.69
509.454	1336.69
509.67	1346.69
509.887	1316.69
510.103	1301.69
510.319	1260.69
510.536	1293.69
510.752	1306.69
510.968	1261.69
511.184	1264.69
511.401	1294.69
511.617	1249.69
511.833	1267.69
512.049	1283.69
512.265	1270.69
512.481	1250.69
512.698	1255.69
512.914	1267.69
513.13	1279.69
513.346	1250.69
513.562	1272.69
513.778	1243.69
513.994	1258.69
514.21	1248.69
514.426	1264.69
514.642	1280.69
514.858	1298.69
515.074	1265.69
515.29	1319.69
515.506	1292.69
515.721	1321.69
515.937	1325.69
516.153	1333.69
516.369	1301.69
516.585	1354.69
516.801	1386.69
517.016	1405.69
517.232	1438.69
517.448	1447.69
517.664	1463.69
517.879	1488.69
518.095	1468.69
518.311	1460.69
518.527	1422.69
518.742	1398.69
518.958	1396.69
519.173	1350.69
519.389	1325.69
519.605	1343.69
519.82	1302.69
520.036	1249.69
520.251	1257.69
520.467	1250.69
520.682	1239.69
520.898	1238.69
521.113	1239.69
521.329	1216.69
521.544	1208.69
521.76	1210.69
521.975	1201.69
522.19	1181.69
522.406	1201.69
522.621	1172.69
522.836	1175.69
523.052	1148.69
523.267	1169.69
523.482	1150.69
523.698	1134.69
523.913	1124.69
524.128	1161.69
524.343	1164.69
524.559	1132.69
524.774	1136.69
524.989	1144.69
525.204	1164.69
525.419	1139.69
525.634	1138.69
525.849	1130.69
526.064	1133.69
526.28	1114.69
526.495	1109.69
526.71	1116.69
526.925	1111.69
527.14	1106.69
527.355	1126.69
527.57	1090.69
527.785	1121.69
527.999	1101.69
528.214	1096.69
528.429	1092.69
528.644	1114.69
528.859	1136.69
529.074	1102.69
529.289	1121.69
529.503	1138.69
529.718	1110.69
529.933	1138.69
530.148	1095.69
530.363	1108.69
530.577	1067.69
530.792	1063.69
531.007	1093.69
531.221	1127.69
531.436	1132.69
531.651	1104.69
531.865	1065.69
532.08	1092.69
532.295	1091.69
532.509	1072.69
532.724	1080.69
532.938	1078.69
533.153	1078.69
533.367	1056.69
533.582	1090.69
533.796	1075.69
534.011	1088.69
534.225	1057.69
534.44	1048.69
534.654	1046.69
534.868	1054.69
535.083	1051.69
535.297	1038.69
535.511	1040.69
535.726	1028.69
535.94	1045.69
536.154	1058.69
536.369	1056.69
536.583	1026.69
536.797	1025.69
537.011	1020.69
537.225	996.69
537.44	1013.69
537.654	1008.69
537.868	1025.69
538.082	1001.69
538.296	1006.69
538.51	1013.69
538.724	1018.69
538.938	1015.69
539.153	1003.69
539.367	995.69
539.581	985.69
539.795	998.69
540.009	969.69
540.222	970.69
540.436	982.69
540.65	984.69
540.864	950.69
541.078	991.69
541.292	998.69
541.506	987.69
541.72	978.69
541.934	1038.69
542.147	994.69
542.361	962.69
542.575	984.69
542.789	983.69
543.002	943.69
543.216	997.69
543.43	973.69
543.644	956.69
543.857	961.69
544.071	983.69
544.285	970.69
544.498	966.69
544.712	989.69
544.925	965.69
545.139	995.69
545.352	973.69
545.566	979.69
545.779	984.69
545.993	978.69
546.206	992.69
546.42	978.69
546.633	967.69
546.847	1006.69
547.06	1005.69
547.274	991.69
547.487	978.69
547.7	988.69
547.914	995.69
548.127	1001.69
548.34	980.69
548.554	972.69
548.767	983.69
548.98	984.69
549.193	1001.69
549.407	994.69
549.62	987.69
549.833	958.69
550.046	988.69
550.259	957.69
550.473	964.69
550.686	976.69
550.899	951.69
551.112	971.69
551.325	952.69
551.538	966.69
551.751	937.69
551.964	960.69
552.177	948.69
552.39	955.69
552.603	1010.69
552.816	989.69
553.029	1014.69
553.242	1020.69
553.455	994.69
553.667	1001.69
553.88	986.69
554.093	973.69
554.306	979.69
554.519	962.69
554.732	954.69
554.944	968.69
555.157	896.69
555.37	901.69
555.583	885.69
555.795	914.69
556.008	873.69
556.221	869.69
556.433	872.69
556.646	875.69
556.859	859.69
557.071	867.69
557.284	871.69
557.496	859.69
557.709	883.69
557.921	849.69
558.134	845.69
558.346	860.69
558.559	846.69
558.771	829.69
558.984	850.69
559.196	813.69
559.409	813.69
559.621	821.69
559.833	848.69
560.046	829.69
560.258	808.69
560.47	839.69
560.683	811.69
560.895	825.69
561.107	829.69
561.32	812.69
561.532	797.69
561.744	830.69
561.956	826.69
562.168	814.69
562.381	831.69
562.593	826.69
562.805	802.69
563.017	818.69
563.229	847.69
563.441	831.69
563.653	793.69
563.865	848.69
564.077	837.69
564.289	838.69
564.501	854.69
564.713	880.69
564.925	906.69
565.137	910.69
565.349	910.69
565.561	924.69
565.773	911.69
565.985	929.69
566.197	979.69
566.408	997.69
566.62	1025.69
566.832	1055.69
567.044	1066.69
567.255	1068.69
567.467	1073.69
567.679	1090.69
567.891	1103.69
568.102	1096.69
568.314	1069.69
568.526	1038.69
568.737	981.69
568.949	946.69
569.161	914.69
569.372	893.69
569.584	846.69
569.795	861.69
570.007	857.69
570.218	812.69
570.43	801.69
570.641	782.69
570.853	781.69
571.064	800.69
571.276	774.69
571.487	754.69
571.698	744.69
571.91	743.69
572.121	733.69
572.333	706.69
572.544	704.69
572.755	675.69
572.966	705.69
573.178	706.69
573.389	680.69
573.6	649.69
573.811	668.69
574.023	661.69
574.234	631.69
574.445	637.69
574.656	650.69
574.867	666.69
575.078	673.69
575.289	637.69
575.501	633.69
575.712	641.69
575.923	654.69
576.134	649.69
576.345	648.69
576.556	637.69
576.767	628.69
576.978	632.69
577.188	619.69
577.399	626.69
577.61	626.69
577.821	614.69
578.032	612.69
578.243	585.69
578.454	578.69
578.665	606.69
578.875	605.69
579.086	590.69
579.297	582.69
579.508	591.69
579.718	586.69
579.929	571.69
580.14	580.69
580.35	578.69
580.561	580.69
580.772	587.69
580.982	594.69
581.193	584.69
581.403	588.69
581.614	560.69
581.825	581.69
582.035	549.69
582.246	553.69
582.456	577.69
582.667	588.69
582.877	555.69
583.087	556.69
583.298	544.69
583.508	552.69
583.719	540.69
583.929	552.69
584.139	565.69
584.35	540.69
584.56	549.69
584.77	552.69
584.981	525.69
585.191	545.69
585.401	540.69
585.611	530.69
585.821	514.69
586.032	526.69
586.242	545.69
586.452	537.69
586.662	517.69
586.872	512.69
587.082	534.69
587.292	518.69
587.502	541.69
587.713	522.69
587.923	536.69
588.133	525.69
588.343	528.69
588.553	520.69
588.762	533.69
588.972	549.69
589.182	638.69
589.392	606.69
589.602	562.69
589.812	589.69
590.022	572.69
590.232	551.69
590.441	518.69
590.651	515.69
590.861	522.69
591.071	505.69
591.281	528.69
591.49	523.69
591.7	542.69
591.91	546.69
592.119	565.69
592.329	549.69
592.539	553.69
592.748	570.69
592.958	541.69
593.167	543.69
593.377	536.69
593.587	565.69
593.796	540.69
594.006	560.69
594.215	577.69
594.424	553.69
594.634	556.69
594.843	551.69
595.053	550.69
595.262	525.69
595.472	528.69
595.681	523.69
595.89	507.69
596.1	500.69
596.309	504.69
596.518	485.69
596.727	481.69
596.937	484.69
597.146	469.69
597.355	486.69
597.564	471.69
597.774	473.69
597.983	460.69
598.192	458.69
598.401	459.69
598.61	456.69
598.819	454.69
599.028	445.69
599.237	447.69
599.446	469.69
599.655	438.69
599.864	427.69
600.073	426.69
600.282	442.69
600.491	424.69
600.7	426.69
600.909	429.69
601.118	421.69
601.327	430.69
601.536	424.69
601.745	406.69
601.953	426.69
602.162	414.69
602.371	391.69
602.58	392.69
602.789	407.69
602.997	421.69
603.206	416.69
603.415	417.69
603.623	412.69
603.832	411.69
604.041	416.69
604.249	408.69
604.458	380.69
604.666	381.69
604.875	389.69
605.084	387.69
605.292	375.69
605.501	395.69
605.709	403.69
605.918	396.69
606.126	402.69
606.334	426.69
606.543	396.69
606.751	397.69
606.96	391.69
607.168	387.69
607.376	386.69
607.585	386.69
607.793	382.69
608.001	390.69
608.21	374.69
608.418	377.69
608.626	370.69
608.834	363.69
609.043	394.69
609.251	393.69
609.459	370.69
609.667	370.69
609.875	379.69
610.083	382.69
610.291	392.69
610.499	404.69
610.707	378.69
610.916	386.69
611.124	380.69
611.332	389.69
611.54	373.69
611.748	378.69
611.955	368.69
612.163	369.69
612.371	377.69
612.579	369.69
612.787	375.69
612.995	362.69
613.203	372.69
613.411	372.69
613.618	369.69
613.826	341.69
614.034	368.69
614.242	363.69
614.449	354.69
614.657	344.69
614.865	343.69
615.072	362.69
615.28	348.69
615.488	365.69
615.695	360.69
615.903	363.69
616.111	370.69
616.318	360.69
616.526	349.69
616.733	346.69
616.941	353.69
617.148	364.69
617.356	347.69
617.563	340.69
617.771	360.69
617.978	342.69
618.185	341.69
618.393	347.69
618.6	359.69
618.807	338.69
619.015	349.69
619.222	343.69
619.429	341.69
619.637	348.69
619.844	353.69
620.051	336.69
620.258	340.69
620.466	329.69
620.673	342.69
620.88	320.69
621.087	341.69
621.294	328.69
621.501	331.69
621.708	327.69
621.915	350.69
622.122	324.69
622.329	337.69
622.536	316.69
622.743	335.69
622.95	333.69
623.157	307.69
623.364	324.69
623.571	308.69
623.778	339.69
623.985	313.69
624.192	331.69
624.399	316.69
624.606	316.69
624.812	304.69
625.019	327.69
625.226	314.69
625.433	317.69
625.639	302.69
625.846	310.69
626.053	288.69
626.259	315.69
626.466	318.69
626.673	307.69
626.879	285.69
627.086	280.69
627.293	300.69
627.499	303.69
627.706	309.69
627.912	315.69
628.119	304.69
628.325	302.69
628.532	312.69
628.738	300.69
628.945	288.69
629.151	289.69
629.357	291.69
629.564	283.69
629.77	277.69
629.976	292.69
630.183	298.69
630.389	269.69
630.595	285.69
630.802	285.69
631.008	269.69
631.214	282.69
631.42	283.69
631.627	277.69
631.833	273.69
632.039	280.69
632.245	263.69
632.451	272.69
632.657	276.69
632.863	257.69
633.069	266.69
633.275	285.69
633.481	279.69
633.688	273.69
633.893	281.69
634.099	265.69
634.305	262.69
634.511	264.69
634.717	257.69
634.923	268.69
635.129	255.69
635.335	278.69
635.541	262.69
635.747	263.69
635.952	278.69
636.158	246.69
636.364	264.69
636.57	250.69
636.775	240.69
636.981	261.69
637.187	274.69
637.392	265.69
637.598	257.69
637.804	260.69
638.009	262.69
638.215	269.69
638.421	271.69
638.626	244.69
638.832	249.69
639.037	243.69
639.243	229.69
639.448	260.69
639.654	259.69
639.859	242.69
640.065	233.69
640.27	264.69
640.475	244.69
640.681	238.69
640.886	254.69
641.091	237.69
641.297	245.69
641.502	241.69
641.707	240.69
641.913	254.69
642.118	248.69
642.323	249.69
642.528	257.69
642.733	257.69
642.939	249.69
643.144	265.69
643.349	248.69
643.554	243.69
643.759	249.69
643.964	210.69
644.169	222.69
644.374	240.69
644.579	245.69
644.784	236.69
644.989	229.69
645.194	227.69
645.399	241.69
645.604	214.69
645.809	226.69
646.014	228.69
646.219	232.69
646.423	230.69
646.628	208.69
646.833	232.69
647.038	243.69
647.243	245.69
647.447	244.69
647.652	249.69
647.857	252.69
648.062	227.69
648.266	244.69
648.471	220.69
648.676	241.69
648.88	231.69
649.085	244.69
649.289	240.69
649.494	231.69
649.698	220.69
649.903	216.69
650.107	217.69
650.312	226.69
650.516	225.69
650.721	224.69
650.925	234.69
651.13	225.69
651.334	224.69
651.539	219.69
651.743	217.69
651.947	231.69
652.152	213.69
652.356	196.69
652.56	202.69
652.764	199.69
652.969	204.69
653.173	191.69
653.377	185.69
653.581	187.69
653.785	194.69
653.99	191.69
654.194	173.69
654.398	176.69
654.602	176.69
654.806	176.69
655.01	171.69
655.214	164.69
655.418	172.69
655.622	160.69
655.826	169.69
656.03	155.69
656.234	162.69
656.438	170.69
656.642	169.69
656.846	167.69
657.049	156.69
657.253	155.69
657.457	128.69
657.661	138.69
657.865	130.69
658.068	134.69
658.272	133.69
658.476	128.69
658.68	124.69
658.883	107.69
659.087	118.69
659.291	122.69
659.494	116.69
659.698	116.69
659.901	121.69
660.105	105.69
660.309	99.69
660.512	98.69
660.716	107.69
660.919	108.69
661.123	98.69
661.326	84.69
661.53	102.69
661.733	104.69
661.936	97.69
662.14	82.69
662.343	87.69
662.546	77.69
662.75	95.69
662.953	100.69
663.156	83.69
663.36	81.69
663.563	76.69
663.766	78.69
663.969	85.69
664.173	85.69
664.376	84.69
664.579	71.69
664.782	93.69
664.985	92.69
665.188	73.69
665.391	72.69
665.594	95.69
665.797	88.69
666	90.69
666.203	78.69
666.406	87.69
666.609	81.69
666.812	84.69
667.015	91.69
667.218	85.69
667.421	82.69
667.624	79.69
667.827	78.69
668.03	73.69
668.232	83.69
668.435	77.69
668.638	74.69
668.841	82.69
669.043	76.69
669.246	80.69
669.449	93.69
669.651	84.69
669.854	74.69
670.057	86.69
670.259	93.69
670.462	68.69
670.665	77.69
670.867	93.69
671.07	83.69
671.272	85.69
671.475	83.69
671.677	67.69
671.88	71.69
672.082	78.69
672.284	69.69
672.487	77.69
672.689	87.69
672.892	79.69
