Data from NiCl2@0.25M.TitratingCurve.Agarose3%dH2O.NegLispCup.LampEnergy10.LIBS07252019_HRD10591_18-24-39-573.txt Node
Date: Thu Jul 25 18:24:39 EDT 2019
User: cochatt
Spectrometer: HR+D1059
Trigger mode: 1
Integration Time (sec): 1.000000E-1
Scans to average: 1
Electric dark correction enabled: true
Nonlinearity correction enabled: false
Boxcar width: 0
XAxis mode: Wavelengths
Number of Pixels in Spectrum: 2048
>>>>>Begin Spectral Data<<<<<
223.165	-10.94
223.4	-10.94
223.635	-10.94
223.869	-11.94
224.104	-12.94
224.338	-8.94
224.573	-14.94
224.808	-12.94
225.042	-12.94
225.277	-1.94
225.511	-4.94
225.746	0.06
225.98	-5.94
226.215	7.06
226.449	29.06
226.683	30.06
226.918	7.06
227.152	25.06
227.387	38.06
227.621	41.06
227.856	33.06
228.09	41.06
228.324	62.06
228.559	59.06
228.793	77.06
229.027	129.06
229.262	131.06
229.496	143.06
229.73	134.06
229.964	167.06
230.199	169.06
230.433	158.06
230.667	157.06
230.901	156.06
231.136	167.06
231.37	155.06
231.604	165.06
231.838	174.06
232.072	175.06
232.306	187.06
232.541	184.06
232.775	173.06
233.009	183.06
233.243	186.06
233.477	182.06
233.711	193.06
233.945	175.06
234.179	186.06
234.413	178.06
234.647	167.06
234.881	172.06
235.115	185.06
235.349	202.06
235.583	197.06
235.817	194.06
236.051	205.06
236.285	193.06
236.519	195.06
236.753	195.06
236.987	204.06
237.221	200.06
237.455	198.06
237.689	190.06
237.922	202.06
238.156	226.06
238.39	220.06
238.624	217.06
238.858	218.06
239.091	208.06
239.325	225.06
239.559	216.06
239.793	226.06
240.027	220.06
240.26	222.06
240.494	222.06
240.728	214.06
240.961	235.06
241.195	227.06
241.429	243.06
241.662	246.06
241.896	241.06
242.13	245.06
242.363	253.06
242.597	265.06
242.83	275.06
243.064	262.06
243.298	259.06
243.531	277.06
243.765	286.06
243.998	276.06
244.232	276.06
244.465	289.06
244.699	280.06
244.932	289.06
245.166	298.06
245.399	278.06
245.633	281.06
245.866	271.06
246.099	290.06
246.333	295.06
246.566	307.06
246.8	293.06
247.033	273.06
247.266	291.06
247.5	290.06
247.733	299.06
247.966	297.06
248.2	308.06
248.433	326.06
248.666	315.06
248.899	334.06
249.133	332.06
249.366	341.06
249.599	314.06
249.832	324.06
250.066	327.06
250.299	322.06
250.532	351.06
250.765	346.06
250.998	346.06
251.231	344.06
251.465	354.06
251.698	350.06
251.931	338.06
252.164	367.06
252.397	381.06
252.63	380.06
252.863	384.06
253.096	358.06
253.329	344.06
253.562	362.06
253.795	378.06
254.028	389.06
254.261	377.06
254.494	387.06
254.727	384.06
254.96	374.06
255.193	378.06
255.426	391.06
255.659	380.06
255.892	380.06
256.124	394.06
256.357	388.06
256.59	375.06
256.823	409.06
257.056	411.06
257.289	391.06
257.521	395.06
257.754	411.06
257.987	414.06
258.22	420.06
258.452	397.06
258.685	418.06
258.918	427.06
259.151	427.06
259.383	424.06
259.616	416.06
259.849	447.06
260.081	449.06
260.314	434.06
260.547	420.06
260.779	457.06
261.012	434.06
261.244	443.06
261.477	445.06
261.71	433.06
261.942	440.06
262.175	424.06
262.407	456.06
262.64	457.06
262.872	455.06
263.105	470.06
263.337	455.06
263.57	450.06
263.802	454.06
264.035	449.06
264.267	449.06
264.499	463.06
264.732	463.06
264.964	498.06
265.197	463.06
265.429	465.06
265.661	452.06
265.894	447.06
266.126	469.06
266.358	483.06
266.591	475.06
266.823	503.06
267.055	500.06
267.287	509.06
267.52	499.06
267.752	487.06
267.984	491.06
268.216	500.06
268.448	509.06
268.681	487.06
268.913	501.06
269.145	492.06
269.377	500.06
269.609	515.06
269.841	532.06
270.073	517.06
270.306	523.06
270.538	506.06
270.77	526.06
271.002	535.06
271.234	531.06
271.466	538.06
271.698	549.06
271.93	547.06
272.162	538.06
272.394	550.06
272.626	540.06
272.858	545.06
273.09	534.06
273.322	551.06
273.553	555.06
273.785	542.06
274.017	555.06
274.249	565.06
274.481	563.06
274.713	561.06
274.945	546.06
275.176	553.06
275.408	598.06
275.64	587.06
275.872	568.06
276.104	595.06
276.335	589.06
276.567	579.06
276.799	574.06
277.031	582.06
277.262	584.06
277.494	586.06
277.726	597.06
277.957	608.06
278.189	591.06
278.421	575.06
278.652	587.06
278.884	626.06
279.115	623.06
279.347	610.06
279.579	614.06
279.81	617.06
280.042	622.06
280.273	596.06
280.505	620.06
280.736	628.06
280.968	610.06
281.199	623.06
281.431	620.06
281.662	633.06
281.894	663.06
282.125	645.06
282.356	653.06
282.588	673.06
282.819	623.06
283.051	667.06
283.282	672.06
283.513	685.06
283.745	668.06
283.976	663.06
284.207	673.06
284.439	641.06
284.67	717.06
284.901	671.06
285.132	678.06
285.364	678.06
285.595	681.06
285.826	677.06
286.057	684.06
286.288	681.06
286.52	685.06
286.751	704.06
286.982	705.06
287.213	678.06
287.444	700.06
287.675	713.06
287.906	699.06
288.138	699.06
288.369	705.06
288.6	708.06
288.831	714.06
289.062	714.06
289.293	698.06
289.524	725.06
289.755	717.06
289.986	702.06
290.217	718.06
290.448	719.06
290.679	731.06
290.91	718.06
291.141	729.06
291.371	747.06
291.602	718.06
291.833	722.06
292.064	729.06
292.295	728.06
292.526	718.06
292.757	747.06
292.987	734.06
293.218	729.06
293.449	760.06
293.68	742.06
293.91	726.06
294.141	736.06
294.372	728.06
294.603	731.06
294.833	757.06
295.064	779.06
295.295	748.06
295.525	763.06
295.756	722.06
295.987	742.06
296.217	761.06
296.448	738.06
296.679	742.06
296.909	757.06
297.14	762.06
297.37	758.06
297.601	791.06
297.831	798.06
298.062	789.06
298.292	786.06
298.523	835.06
298.753	805.06
298.984	814.06
299.214	786.06
299.445	774.06
299.675	803.06
299.905	821.06
300.136	825.06
300.366	814.06
300.597	804.06
300.827	825.06
301.057	837.06
301.288	837.06
301.518	839.06
301.748	837.06
301.979	860.06
302.209	844.06
302.439	857.06
302.669	834.06
302.9	820.06
303.13	808.06
303.36	822.06
303.59	820.06
303.82	846.06
304.051	852.06
304.281	833.06
304.511	827.06
304.741	845.06
304.971	832.06
305.201	837.06
305.431	807.06
305.661	843.06
305.891	804.06
306.121	830.06
306.352	826.06
306.582	796.06
306.812	836.06
307.042	827.06
307.272	822.06
307.502	798.06
307.731	834.06
307.961	823.06
308.191	837.06
308.421	787.06
308.651	828.06
308.881	822.06
309.111	829.06
309.341	804.06
309.571	834.06
309.8	797.06
310.03	841.06
310.26	823.06
310.49	824.06
310.72	814.06
310.949	809.06
311.179	800.06
311.409	829.06
311.639	827.06
311.868	846.06
312.098	836.06
312.328	847.06
312.557	836.06
312.787	851.06
313.017	883.06
313.246	878.06
313.476	869.06
313.706	886.06
313.935	899.06
314.165	883.06
314.394	892.06
314.624	905.06
314.853	895.06
315.083	860.06
315.312	878.06
315.542	883.06
315.771	872.06
316.001	882.06
316.23	842.06
316.46	856.06
316.689	877.06
316.919	894.06
317.148	852.06
317.377	876.06
317.607	891.06
317.836	877.06
318.065	858.06
318.295	882.06
318.524	843.06
318.753	850.06
318.983	844.06
319.212	845.06
319.441	879.06
319.67	854.06
319.9	860.06
320.129	852.06
320.358	847.06
320.587	855.06
320.816	882.06
321.046	876.06
321.275	867.06
321.504	863.06
321.733	882.06
321.962	865.06
322.191	872.06
322.42	889.06
322.649	885.06
322.878	870.06
323.108	885.06
323.337	895.06
323.566	898.06
323.795	894.06
324.024	892.06
324.253	891.06
324.482	903.06
324.71	885.06
324.939	886.06
325.168	925.06
325.397	894.06
325.626	905.06
325.855	926.06
326.084	915.06
326.313	924.06
326.542	938.06
326.77	927.06
326.999	929.06
327.228	923.06
327.457	934.06
327.686	933.06
327.914	924.06
328.143	949.06
328.372	925.06
328.6	921.06
328.829	953.06
329.058	943.06
329.287	954.06
329.515	947.06
329.744	951.06
329.972	957.06
330.201	1001.06
330.43	998.06
330.658	999.06
330.887	1006.06
331.115	991.06
331.344	997.06
331.572	1010.06
331.801	1002.06
332.03	1041.06
332.258	1047.06
332.486	1082.06
332.715	1128.06
332.943	1166.06
333.172	1213.06
333.4	1243.06
333.629	1268.06
333.857	1283.06
334.085	1314.06
334.314	1298.06
334.542	1271.06
334.771	1239.06
334.999	1213.06
335.227	1221.06
335.455	1257.06
335.684	1196.06
335.912	1186.06
336.14	1182.06
336.369	1170.06
336.597	1143.06
336.825	1146.06
337.053	1169.06
337.281	1111.06
337.51	1082.06
337.738	1106.06
337.966	1093.06
338.194	1078.06
338.422	1049.06
338.65	1048.06
338.878	1043.06
339.106	1039.06
339.334	1047.06
339.562	1048.06
339.79	1007.06
340.018	988.06
340.246	985.06
340.474	991.06
340.702	991.06
340.93	997.06
341.158	994.06
341.386	998.06
341.614	1033.06
341.842	980.06
342.07	972.06
342.298	984.06
342.526	1005.06
342.754	970.06
342.981	988.06
343.209	1037.06
343.437	1049.06
343.665	1107.06
343.893	1163.06
344.12	1224.06
344.348	1161.06
344.576	1141.06
344.804	1114.06
345.031	1075.06
345.259	1047.06
345.487	999.06
345.714	990.06
345.942	962.06
346.17	951.06
346.397	983.06
346.625	943.06
346.853	937.06
347.08	956.06
347.308	953.06
347.535	952.06
347.763	953.06
347.99	941.06
348.218	965.06
348.445	962.06
348.673	920.06
348.9	957.06
349.128	951.06
349.355	922.06
349.583	957.06
349.81	955.06
350.037	908.06
350.265	913.06
350.492	934.06
350.72	926.06
350.947	908.06
351.174	939.06
351.402	937.06
351.629	941.06
351.856	915.06
352.083	914.06
352.311	924.06
352.538	929.06
352.765	920.06
352.992	878.06
353.22	893.06
353.447	909.06
353.674	879.06
353.901	902.06
354.128	891.06
354.355	895.06
354.583	897.06
354.81	893.06
355.037	906.06
355.264	914.06
355.491	901.06
355.718	888.06
355.945	908.06
356.172	905.06
356.399	920.06
356.626	897.06
356.853	933.06
357.08	947.06
357.307	932.06
357.534	905.06
357.761	905.06
357.988	908.06
358.215	909.06
358.441	871.06
358.668	875.06
358.895	893.06
359.122	905.06
359.349	911.06
359.576	910.06
359.802	909.06
360.029	928.06
360.256	913.06
360.483	919.06
360.709	932.06
360.936	935.06
361.163	938.06
361.39	913.06
361.616	930.06
361.843	916.06
362.07	926.06
362.296	923.06
362.523	919.06
362.749	910.06
362.976	928.06
363.203	885.06
363.429	914.06
363.656	916.06
363.882	900.06
364.109	891.06
364.335	925.06
364.562	885.06
364.788	919.06
365.015	895.06
365.241	896.06
365.468	894.06
365.694	921.06
365.92	921.06
366.147	892.06
366.373	910.06
366.599	893.06
366.826	918.06
367.052	897.06
367.278	924.06
367.505	925.06
367.731	910.06
367.957	907.06
368.184	900.06
368.41	930.06
368.636	899.06
368.862	928.06
369.089	967.06
369.315	938.06
369.541	915.06
369.767	937.06
369.993	949.06
370.219	966.06
370.445	950.06
370.672	976.06
370.898	969.06
371.124	949.06
371.35	1002.06
371.576	1003.06
371.802	1000.06
372.028	967.06
372.254	978.06
372.48	981.06
372.706	1022.06
372.932	1023.06
373.158	1037.06
373.384	1026.06
373.61	1006.06
373.835	988.06
374.061	989.06
374.287	1025.06
374.513	1006.06
374.739	1061.06
374.965	1085.06
375.191	1108.06
375.416	1076.06
375.642	1081.06
375.868	1051.06
376.094	1035.06
376.319	1032.06
376.545	1002.06
376.771	995.06
376.997	981.06
377.222	989.06
377.448	1004.06
377.674	970.06
377.899	1001.06
378.125	979.06
378.35	981.06
378.576	983.06
378.802	989.06
379.027	985.06
379.253	998.06
379.478	982.06
379.704	954.06
379.929	974.06
380.155	992.06
380.38	986.06
380.606	973.06
380.831	993.06
381.057	1015.06
381.282	986.06
381.507	1011.06
381.733	979.06
381.958	1013.06
382.184	1019.06
382.409	1015.06
382.634	1047.06
382.86	1039.06
383.085	1044.06
383.31	1096.06
383.535	1068.06
383.761	1097.06
383.986	1112.06
384.211	1134.06
384.436	1157.06
384.662	1173.06
384.887	1191.06
385.112	1185.06
385.337	1201.06
385.562	1196.06
385.787	1218.06
386.013	1242.06
386.238	1231.06
386.463	1247.06
386.688	1228.06
386.913	1221.06
387.138	1230.06
387.363	1181.06
387.588	1171.06
387.813	1170.06
388.038	1182.06
388.263	1224.06
388.488	1202.06
388.713	1230.06
388.938	1173.06
389.163	1209.06
389.387	1171.06
389.612	1176.06
389.837	1182.06
390.062	1182.06
390.287	1183.06
390.512	1204.06
390.736	1155.06
390.961	1217.06
391.186	1241.06
391.411	1273.06
391.636	1306.06
391.86	1350.06
392.085	1381.06
392.31	1392.06
392.534	1349.06
392.759	1310.06
392.984	1315.06
393.208	1297.06
393.433	1283.06
393.658	1272.06
393.882	1288.06
394.107	1309.06
394.331	1289.06
394.556	1293.06
394.78	1306.06
395.005	1341.06
395.229	1291.06
395.454	1357.06
395.678	1379.06
395.903	1385.06
396.127	1333.06
396.352	1348.06
396.576	1291.06
396.801	1306.06
397.025	1295.06
397.249	1337.06
397.474	1377.06
397.698	1380.06
397.922	1388.06
398.147	1419.06
398.371	1425.06
398.595	1441.06
398.82	1532.06
399.044	1665.06
399.268	1809.06
399.492	2011.06
399.717	2249.06
399.941	2328.06
400.165	2128.06
400.389	1951.06
400.613	1809.06
400.837	1688.06
401.062	1667.06
401.286	1640.06
401.51	1613.06
401.734	1560.06
401.958	1601.06
402.182	1607.06
402.406	1597.06
402.63	1612.06
402.854	1649.06
403.078	1650.06
403.302	1680.06
403.526	1735.06
403.75	1713.06
403.974	1763.06
404.198	1725.06
404.422	1739.06
404.645	1740.06
404.869	1727.06
405.093	1723.06
405.317	1731.06
405.541	1664.06
405.765	1686.06
405.988	1659.06
406.212	1700.06
406.436	1729.06
406.66	1758.06
406.883	1759.06
407.107	1903.06
407.331	1940.06
407.555	1987.06
407.778	2022.06
408.002	1938.06
408.226	1942.06
408.449	1914.06
408.673	1837.06
408.896	1782.06
409.12	1714.06
409.344	1756.06
409.567	1747.06
409.791	1704.06
410.014	1753.06
410.238	1689.06
410.461	1709.06
410.685	1696.06
410.908	1630.06
411.132	1614.06
411.355	1624.06
411.578	1619.06
411.802	1603.06
412.025	1615.06
412.249	1636.06
412.472	1634.06
412.695	1589.06
412.919	1548.06
413.142	1549.06
413.365	1525.06
413.589	1578.06
413.812	1562.06
414.035	1505.06
414.258	1524.06
414.482	1573.06
414.705	1601.06
414.928	1562.06
415.151	1542.06
415.374	1538.06
415.597	1521.06
415.821	1485.06
416.044	1491.06
416.267	1492.06
416.49	1454.06
416.713	1479.06
416.936	1483.06
417.159	1458.06
417.382	1508.06
417.605	1447.06
417.828	1482.06
418.051	1545.06
418.274	1547.06
418.497	1526.06
418.72	1563.06
418.943	1565.06
419.166	1652.06
419.389	1791.06
419.611	1725.06
419.834	1615.06
420.057	1635.06
420.28	1560.06
420.503	1507.06
420.726	1477.06
420.948	1496.06
421.171	1485.06
421.394	1495.06
421.617	1475.06
421.839	1540.06
422.062	1562.06
422.285	1496.06
422.507	1554.06
422.73	1525.06
422.953	1570.06
423.175	1524.06
423.398	1539.06
423.621	1549.06
423.843	1551.06
424.066	1564.06
424.288	1566.06
424.511	1541.06
424.733	1544.06
424.956	1535.06
425.178	1550.06
425.401	1495.06
425.623	1481.06
425.846	1453.06
426.068	1475.06
426.291	1432.06
426.513	1419.06
426.735	1401.06
426.958	1414.06
427.18	1361.06
427.402	1386.06
427.625	1390.06
427.847	1355.06
428.069	1335.06
428.292	1352.06
428.514	1345.06
428.736	1320.06
428.958	1316.06
429.181	1322.06
429.403	1304.06
429.625	1306.06
429.847	1291.06
430.069	1310.06
430.292	1285.06
430.514	1285.06
430.736	1312.06
430.958	1321.06
431.18	1301.06
431.402	1345.06
431.624	1296.06
431.846	1343.06
432.068	1335.06
432.29	1339.06
432.512	1339.06
432.734	1325.06
432.956	1331.06
433.178	1333.06
433.4	1321.06
433.622	1359.06
433.844	1385.06
434.066	1353.06
434.287	1378.06
434.509	1406.06
434.731	1462.06
434.953	1540.06
435.175	1493.06
435.397	1510.06
435.618	1415.06
435.84	1378.06
436.062	1337.06
436.284	1332.06
436.505	1330.06
436.727	1322.06
436.949	1373.06
437.17	1292.06
437.392	1320.06
437.614	1270.06
437.835	1262.06
438.057	1267.06
438.278	1274.06
438.5	1276.06
438.721	1287.06
438.943	1306.06
439.165	1262.06
439.386	1289.06
439.608	1329.06
439.829	1318.06
440.05	1343.06
440.272	1343.06
440.493	1335.06
440.715	1339.06
440.936	1379.06
441.158	1350.06
441.379	1448.06
441.6	1507.06
441.822	1529.06
442.043	1457.06
442.264	1462.06
442.486	1429.06
442.707	1480.06
442.928	1440.06
443.149	1430.06
443.371	1484.06
443.592	1442.06
443.813	1533.06
444.034	1502.06
444.255	1586.06
444.476	1648.06
444.698	1713.06
444.919	1777.06
445.14	1857.06
445.361	1714.06
445.582	1561.06
445.803	1491.06
446.024	1450.06
446.245	1410.06
446.466	1357.06
446.687	1368.06
446.908	1377.06
447.129	1324.06
447.35	1302.06
447.571	1260.06
447.792	1251.06
448.013	1232.06
448.234	1247.06
448.455	1217.06
448.675	1230.06
448.896	1229.06
449.117	1215.06
449.338	1203.06
449.559	1167.06
449.779	1199.06
450	1180.06
450.221	1185.06
450.442	1187.06
450.662	1156.06
450.883	1205.06
451.104	1255.06
451.324	1222.06
451.545	1215.06
451.766	1221.06
451.986	1217.06
452.207	1182.06
452.428	1181.06
452.648	1203.06
452.869	1151.06
453.089	1157.06
453.31	1170.06
453.53	1156.06
453.751	1140.06
453.971	1181.06
454.192	1165.06
454.412	1159.06
454.633	1116.06
454.853	1144.06
455.073	1148.06
455.294	1130.06
455.514	1132.06
455.734	1113.06
455.955	1110.06
456.175	1111.06
456.395	1141.06
456.616	1151.06
456.836	1142.06
457.056	1142.06
457.276	1139.06
457.497	1133.06
457.717	1090.06
457.937	1149.06
458.157	1122.06
458.377	1141.06
458.598	1198.06
458.818	1228.06
459.038	1279.06
459.258	1304.06
459.478	1355.06
459.698	1390.06
459.918	1446.06
460.138	1489.06
460.358	1551.06
460.578	1567.06
460.798	1602.06
461.018	1614.06
461.238	1561.06
461.458	1592.06
461.678	1578.06
461.898	1626.06
462.118	1623.06
462.338	1666.06
462.558	1727.06
462.777	1868.06
462.997	1965.06
463.217	2084.06
463.437	2099.06
463.657	1953.06
463.876	1908.06
464.096	1915.06
464.316	1837.06
464.536	1843.06
464.755	1807.06
464.975	1772.06
465.195	1646.06
465.414	1544.06
465.634	1461.06
465.854	1385.06
466.073	1373.06
466.293	1362.06
466.512	1314.06
466.732	1293.06
466.951	1301.06
467.171	1260.06
467.391	1263.06
467.61	1260.06
467.829	1240.06
468.049	1260.06
468.268	1222.06
468.488	1201.06
468.707	1202.06
468.927	1207.06
469.146	1229.06
469.365	1231.06
469.585	1230.06
469.804	1291.06
470.023	1295.06
470.243	1314.06
470.462	1332.06
470.681	1333.06
470.901	1341.06
471.12	1279.06
471.339	1269.06
471.558	1277.06
471.777	1274.06
471.997	1219.06
472.216	1244.06
472.435	1222.06
472.654	1162.06
472.873	1167.06
473.092	1200.06
473.311	1177.06
473.53	1189.06
473.749	1144.06
473.968	1175.06
474.187	1155.06
474.406	1179.06
474.625	1205.06
474.844	1222.06
475.063	1186.06
475.282	1193.06
475.501	1203.06
475.72	1235.06
475.939	1231.06
476.158	1219.06
476.377	1269.06
476.596	1285.06
476.814	1282.06
477.033	1236.06
477.252	1284.06
477.471	1301.06
477.69	1358.06
477.908	1377.06
478.127	1390.06
478.346	1417.06
478.564	1435.06
478.783	1453.06
479.002	1488.06
479.22	1521.06
479.439	1500.06
479.658	1518.06
479.876	1527.06
480.095	1527.06
480.313	1586.06
480.532	1603.06
480.751	1605.06
480.969	1609.06
481.188	1513.06
481.406	1440.06
481.624	1424.06
481.843	1447.06
482.061	1406.06
482.28	1390.06
482.498	1375.06
482.717	1353.06
482.935	1311.06
483.153	1378.06
483.372	1329.06
483.59	1361.06
483.808	1376.06
484.027	1363.06
484.245	1356.06
484.463	1368.06
484.681	1409.06
484.9	1429.06
485.118	1381.06
485.336	1424.06
485.554	1435.06
485.772	1418.06
485.99	1407.06
486.209	1429.06
486.427	1460.06
486.645	1437.06
486.863	1461.06
487.081	1433.06
487.299	1427.06
487.517	1444.06
487.735	1421.06
487.953	1393.06
488.171	1422.06
488.389	1372.06
488.607	1373.06
488.825	1412.06
489.043	1391.06
489.261	1415.06
489.479	1436.06
489.696	1420.06
489.914	1386.06
490.132	1427.06
490.35	1453.06
490.568	1434.06
490.786	1418.06
491.003	1449.06
491.221	1471.06
491.439	1445.06
491.657	1439.06
491.874	1474.06
492.092	1459.06
492.31	1461.06
492.527	1474.06
492.745	1458.06
492.963	1501.06
493.18	1486.06
493.398	1505.06
493.615	1508.06
493.833	1495.06
494.05	1473.06
494.268	1533.06
494.485	1504.06
494.703	1524.06
494.92	1552.06
495.138	1578.06
495.355	1555.06
495.573	1562.06
495.79	1604.06
496.008	1603.06
496.225	1613.06
496.442	1596.06
496.66	1645.06
496.877	1715.06
497.094	1673.06
497.312	1721.06
497.529	1755.06
497.746	1788.06
497.963	1866.06
498.181	1955.06
498.398	2024.06
498.615	2172.06
498.832	2297.06
499.049	2497.06
499.267	2734.06
499.484	2986.06
499.701	3269.06
499.918	3669.06
500.135	4035.06
500.352	4396.06
500.569	4653.06
500.786	4533.06
501.003	4363.06
501.22	4006.06
501.437	3607.06
501.654	3221.06
501.871	2891.06
502.088	2659.06
502.305	2497.06
502.522	2364.06
502.739	2225.06
502.956	2115.06
503.172	1991.06
503.389	1918.06
503.606	1884.06
503.823	1817.06
504.04	1813.06
504.256	1837.06
504.473	1832.06
504.69	1847.06
504.907	1820.06
505.123	1720.06
505.34	1611.06
505.557	1582.06
505.773	1533.06
505.99	1465.06
506.207	1445.06
506.423	1444.06
506.64	1402.06
506.856	1361.06
507.073	1411.06
507.289	1379.06
507.506	1377.06
507.722	1391.06
507.939	1350.06
508.155	1326.06
508.372	1304.06
508.588	1299.06
508.805	1301.06
509.021	1315.06
509.238	1295.06
509.454	1277.06
509.67	1250.06
509.887	1255.06
510.103	1250.06
510.319	1256.06
510.536	1234.06
510.752	1236.06
510.968	1260.06
511.184	1243.06
511.401	1203.06
511.617	1193.06
511.833	1248.06
512.049	1217.06
512.265	1224.06
512.481	1238.06
512.698	1205.06
512.914	1238.06
513.13	1213.06
513.346	1229.06
513.562	1261.06
513.778	1236.06
513.994	1238.06
514.21	1266.06
514.426	1252.06
514.642	1263.06
514.858	1285.06
515.074	1285.06
515.29	1270.06
515.506	1301.06
515.721	1301.06
515.937	1340.06
516.153	1361.06
516.369	1387.06
516.585	1449.06
516.801	1459.06
517.016	1533.06
517.232	1643.06
517.448	1689.06
517.664	1719.06
517.879	1725.06
518.095	1748.06
518.311	1721.06
518.527	1631.06
518.742	1605.06
518.958	1521.06
519.173	1451.06
519.389	1429.06
519.605	1411.06
519.82	1376.06
520.036	1307.06
520.251	1260.06
520.467	1268.06
520.682	1287.06
520.898	1248.06
521.113	1213.06
521.329	1210.06
521.544	1188.06
521.76	1205.06
521.975	1191.06
522.19	1159.06
522.406	1162.06
522.621	1183.06
522.836	1169.06
523.052	1181.06
523.267	1150.06
523.482	1136.06
523.698	1149.06
523.913	1132.06
524.128	1113.06
524.343	1111.06
524.559	1113.06
524.774	1133.06
524.989	1144.06
525.204	1128.06
525.419	1153.06
525.634	1099.06
525.849	1119.06
526.064	1132.06
526.28	1111.06
526.495	1115.06
526.71	1102.06
526.925	1088.06
527.14	1094.06
527.355	1108.06
527.57	1138.06
527.785	1121.06
527.999	1069.06
528.214	1082.06
528.429	1087.06
528.644	1115.06
528.859	1094.06
529.074	1094.06
529.289	1088.06
529.503	1102.06
529.718	1069.06
529.933	1099.06
530.148	1137.06
530.363	1107.06
530.577	1089.06
530.792	1086.06
531.007	1087.06
531.221	1113.06
531.436	1098.06
531.651	1082.06
531.865	1102.06
532.08	1094.06
532.295	1094.06
532.509	1062.06
532.724	1075.06
532.938	1100.06
533.153	1073.06
533.367	1103.06
533.582	1084.06
533.796	1075.06
534.011	1086.06
534.225	1110.06
534.44	1059.06
534.654	1063.06
534.868	1069.06
535.083	1066.06
535.297	1073.06
535.511	1043.06
535.726	1083.06
535.94	1036.06
536.154	1021.06
536.369	1051.06
536.583	1044.06
536.797	1011.06
537.011	983.06
537.225	1003.06
537.44	1012.06
537.654	1028.06
537.868	988.06
538.082	990.06
538.296	976.06
538.51	962.06
538.724	963.06
538.938	991.06
539.153	997.06
539.367	995.06
539.581	980.06
539.795	963.06
540.009	962.06
540.222	978.06
540.436	979.06
540.65	949.06
540.864	990.06
541.078	971.06
541.292	980.06
541.506	974.06
541.72	959.06
541.934	963.06
542.147	989.06
542.361	988.06
542.575	1001.06
542.789	971.06
543.002	959.06
543.216	976.06
543.43	928.06
543.644	983.06
543.857	959.06
544.071	958.06
544.285	991.06
544.498	987.06
544.712	998.06
544.925	990.06
545.139	981.06
545.352	1004.06
545.566	1004.06
545.779	989.06
545.993	982.06
546.206	1014.06
546.42	1015.06
546.633	999.06
546.847	997.06
547.06	996.06
547.274	1009.06
547.487	975.06
547.7	974.06
547.914	1029.06
548.127	1027.06
548.34	1026.06
548.554	1005.06
548.767	1004.06
548.98	980.06
549.193	1023.06
549.407	1023.06
549.62	1017.06
549.833	1026.06
550.046	1039.06
550.259	1016.06
550.473	993.06
550.686	1002.06
550.899	1012.06
551.112	991.06
551.325	994.06
551.538	1009.06
551.751	993.06
551.964	971.06
552.177	1023.06
552.39	1009.06
552.603	1032.06
552.816	1064.06
553.029	1088.06
553.242	1103.06
553.455	1097.06
553.667	1098.06
553.88	1086.06
554.093	1073.06
554.306	1060.06
554.519	1000.06
554.732	1027.06
554.944	1002.06
555.157	986.06
555.37	969.06
555.583	942.06
555.795	891.06
556.008	915.06
556.221	886.06
556.433	891.06
556.646	907.06
556.859	877.06
557.071	875.06
557.284	873.06
557.496	849.06
557.709	838.06
557.921	837.06
558.134	831.06
558.346	842.06
558.559	845.06
558.771	828.06
558.984	837.06
559.196	823.06
559.409	835.06
559.621	817.06
559.833	828.06
560.046	810.06
560.258	830.06
560.47	818.06
560.683	810.06
560.895	826.06
561.107	831.06
561.32	788.06
561.532	787.06
561.744	823.06
561.956	811.06
562.168	812.06
562.381	834.06
562.593	829.06
562.805	838.06
563.017	856.06
563.229	827.06
563.441	836.06
563.653	849.06
563.865	841.06
564.077	863.06
564.289	855.06
564.501	879.06
564.713	887.06
564.925	930.06
565.137	937.06
565.349	937.06
565.561	1007.06
565.773	1011.06
565.985	1089.06
566.197	1107.06
566.408	1163.06
566.62	1300.06
566.832	1329.06
567.044	1401.06
567.255	1410.06
567.467	1449.06
567.679	1505.06
567.891	1538.06
568.102	1531.06
568.314	1491.06
568.526	1398.06
568.737	1282.06
568.949	1155.06
569.161	1079.06
569.372	1028.06
569.584	985.06
569.795	926.06
570.007	922.06
570.218	874.06
570.43	877.06
570.641	866.06
570.853	889.06
571.064	876.06
571.276	877.06
571.487	850.06
571.698	797.06
571.91	791.06
572.121	777.06
572.333	757.06
572.544	718.06
572.755	726.06
572.966	711.06
573.178	726.06
573.389	682.06
573.6	677.06
573.811	689.06
574.023	680.06
574.234	698.06
574.445	677.06
574.656	670.06
574.867	674.06
575.078	665.06
575.289	657.06
575.501	651.06
575.712	666.06
575.923	662.06
576.134	635.06
576.345	640.06
576.556	620.06
576.767	628.06
576.978	625.06
577.188	633.06
577.399	619.06
577.61	617.06
577.821	625.06
578.032	615.06
578.243	590.06
578.454	584.06
578.665	615.06
578.875	605.06
579.086	584.06
579.297	584.06
579.508	583.06
579.718	602.06
579.929	579.06
580.14	558.06
580.35	557.06
580.561	580.06
580.772	575.06
580.982	568.06
581.193	560.06
581.403	563.06
581.614	566.06
581.825	555.06
582.035	547.06
582.246	558.06
582.456	567.06
582.667	568.06
582.877	565.06
583.087	555.06
583.298	541.06
583.508	546.06
583.719	531.06
583.929	577.06
584.139	548.06
584.35	542.06
584.56	534.06
584.77	539.06
584.981	546.06
585.191	561.06
585.401	533.06
585.611	531.06
585.821	543.06
586.032	526.06
586.242	543.06
586.452	538.06
586.662	545.06
586.872	546.06
587.082	540.06
587.292	528.06
587.502	541.06
587.713	556.06
587.923	524.06
588.133	548.06
588.343	548.06
588.553	537.06
588.762	535.06
588.972	532.06
589.182	594.06
589.392	579.06
589.602	548.06
589.812	550.06
590.022	556.06
590.232	570.06
590.441	547.06
590.651	559.06
590.861	552.06
591.071	549.06
591.281	541.06
591.49	562.06
591.7	561.06
591.91	595.06
592.119	591.06
592.329	602.06
592.539	634.06
592.748	637.06
592.958	672.06
593.167	653.06
593.377	654.06
593.587	677.06
593.796	699.06
594.006	693.06
594.215	710.06
594.424	665.06
594.634	671.06
594.843	646.06
595.053	618.06
595.262	620.06
595.472	600.06
595.681	561.06
595.89	578.06
596.1	539.06
596.309	535.06
596.518	521.06
596.727	515.06
596.937	525.06
597.146	512.06
597.355	490.06
597.564	490.06
597.774	483.06
597.983	475.06
598.192	485.06
598.401	485.06
598.61	479.06
598.819	476.06
599.028	468.06
599.237	472.06
599.446	450.06
599.655	463.06
599.864	434.06
600.073	439.06
600.282	440.06
600.491	438.06
600.7	457.06
600.909	452.06
601.118	419.06
601.327	445.06
601.536	415.06
601.745	427.06
601.953	424.06
602.162	443.06
602.371	414.06
602.58	422.06
602.789	426.06
602.997	417.06
603.206	429.06
603.415	413.06
603.623	384.06
603.832	422.06
604.041	412.06
604.249	414.06
604.458	423.06
604.666	428.06
604.875	403.06
605.084	404.06
605.292	409.06
605.501	420.06
605.709	414.06
605.918	388.06
606.126	411.06
606.334	393.06
606.543	381.06
606.751	398.06
606.96	386.06
607.168	382.06
607.376	387.06
607.585	391.06
607.793	413.06
608.001	388.06
608.21	383.06
608.418	390.06
608.626	376.06
608.834	388.06
609.043	395.06
609.251	399.06
609.459	382.06
609.667	391.06
609.875	395.06
610.083	365.06
610.291	390.06
610.499	382.06
610.707	394.06
610.916	385.06
611.124	376.06
611.332	392.06
611.54	382.06
611.748	374.06
611.955	359.06
612.163	390.06
612.371	381.06
612.579	379.06
612.787	386.06
612.995	377.06
613.203	370.06
613.411	388.06
613.618	370.06
613.826	383.06
614.034	370.06
614.242	373.06
614.449	371.06
614.657	389.06
614.865	375.06
615.072	381.06
615.28	379.06
615.488	377.06
615.695	367.06
615.903	380.06
616.111	377.06
616.318	380.06
616.526	369.06
616.733	362.06
616.941	353.06
617.148	368.06
617.356	355.06
617.563	353.06
617.771	360.06
617.978	365.06
618.185	358.06
618.393	355.06
618.6	359.06
618.807	360.06
619.015	366.06
619.222	351.06
619.429	345.06
619.637	358.06
619.844	342.06
620.051	355.06
620.258	360.06
620.466	358.06
620.673	345.06
620.88	328.06
621.087	355.06
621.294	361.06
621.501	356.06
621.708	371.06
621.915	331.06
622.122	349.06
622.329	346.06
622.536	333.06
622.743	330.06
622.95	357.06
623.157	348.06
623.364	317.06
623.571	325.06
623.778	324.06
623.985	342.06
624.192	350.06
624.399	327.06
624.606	331.06
624.812	318.06
625.019	330.06
625.226	316.06
625.433	332.06
625.639	302.06
625.846	322.06
626.053	307.06
626.259	321.06
626.466	312.06
626.673	331.06
626.879	276.06
627.086	315.06
627.293	306.06
627.499	304.06
627.706	311.06
627.912	311.06
628.119	311.06
628.325	309.06
628.532	309.06
628.738	306.06
628.945	305.06
629.151	300.06
629.357	283.06
629.564	290.06
629.77	284.06
629.976	289.06
630.183	294.06
630.389	289.06
630.595	278.06
630.802	281.06
631.008	286.06
631.214	282.06
631.42	284.06
631.627	287.06
631.833	281.06
632.039	290.06
632.245	290.06
632.451	286.06
632.657	287.06
632.863	277.06
633.069	294.06
633.275	270.06
633.481	275.06
633.688	273.06
633.893	260.06
634.099	273.06
634.305	265.06
634.511	270.06
634.717	274.06
634.923	258.06
635.129	265.06
635.335	271.06
635.541	276.06
635.747	265.06
635.952	252.06
636.158	265.06
636.364	281.06
636.57	262.06
636.775	275.06
636.981	270.06
637.187	261.06
637.392	246.06
637.598	254.06
637.804	274.06
638.009	254.06
638.215	269.06
638.421	241.06
638.626	253.06
638.832	261.06
639.037	254.06
639.243	245.06
639.448	252.06
639.654	271.06
639.859	229.06
640.065	265.06
640.27	249.06
640.475	235.06
640.681	244.06
640.886	260.06
641.091	244.06
641.297	236.06
641.502	223.06
641.707	253.06
641.913	220.06
642.118	237.06
642.323	227.06
642.528	249.06
642.733	259.06
642.939	225.06
643.144	259.06
643.349	250.06
643.554	249.06
643.759	232.06
643.964	232.06
644.169	248.06
644.374	242.06
644.579	219.06
644.784	235.06
644.989	226.06
645.194	218.06
645.399	229.06
645.604	218.06
645.809	222.06
646.014	225.06
646.219	217.06
646.423	236.06
646.628	234.06
646.833	248.06
647.038	212.06
647.243	241.06
647.447	237.06
647.652	234.06
647.857	223.06
648.062	237.06
648.266	242.06
648.471	250.06
648.676	242.06
648.88	236.06
649.085	227.06
649.289	241.06
649.494	204.06
649.698	236.06
649.903	218.06
650.107	206.06
650.312	218.06
650.516	214.06
650.721	212.06
650.925	206.06
651.13	203.06
651.334	210.06
651.539	201.06
651.743	197.06
651.947	196.06
652.152	186.06
652.356	176.06
652.56	177.06
652.764	196.06
652.969	173.06
653.173	172.06
653.377	181.06
653.581	168.06
653.785	190.06
653.99	197.06
654.194	157.06
654.398	163.06
654.602	177.06
654.806	171.06
655.01	151.06
655.214	151.06
655.418	155.06
655.622	164.06
655.826	151.06
656.03	170.06
656.234	181.06
656.438	163.06
656.642	159.06
656.846	159.06
657.049	140.06
657.253	141.06
657.457	140.06
657.661	146.06
657.865	129.06
658.068	134.06
658.272	125.06
658.476	145.06
658.68	131.06
658.883	134.06
659.087	127.06
659.291	105.06
659.494	114.06
659.698	103.06
659.901	126.06
660.105	102.06
660.309	100.06
660.512	97.06
660.716	110.06
660.919	100.06
661.123	96.06
661.326	98.06
661.53	89.06
661.733	103.06
661.936	99.06
662.14	94.06
662.343	93.06
662.546	93.06
662.75	95.06
662.953	83.06
663.156	79.06
663.36	93.06
663.563	84.06
663.766	80.06
663.969	82.06
664.173	95.06
664.376	70.06
664.579	84.06
664.782	96.06
664.985	79.06
665.188	84.06
665.391	87.06
665.594	83.06
665.797	87.06
666	72.06
666.203	76.06
666.406	88.06
666.609	77.06
666.812	94.06
667.015	84.06
667.218	75.06
667.421	77.06
667.624	87.06
667.827	79.06
668.03	84.06
668.232	86.06
668.435	90.06
668.638	89.06
668.841	93.06
669.043	89.06
669.246	78.06
669.449	69.06
669.651	86.06
669.854	76.06
670.057	84.06
670.259	73.06
670.462	76.06
670.665	79.06
670.867	82.06
671.07	77.06
671.272	91.06
671.475	73.06
671.677	86.06
671.88	85.06
672.082	83.06
672.284	84.06
672.487	74.06
672.689	93.06
672.892	74.06
