Data from NiCl2@0.25M.TitratingCurve.Agarose3%dH2O.NegLispCup.LampEnergy10.LIBS07252019_HRD10591_18-24-20-574.txt Node
Date: Thu Jul 25 18:24:20 EDT 2019
User: cochatt
Spectrometer: HR+D1059
Trigger mode: 1
Integration Time (sec): 1.000000E-1
Scans to average: 1
Electric dark correction enabled: true
Nonlinearity correction enabled: false
Boxcar width: 0
XAxis mode: Wavelengths
Number of Pixels in Spectrum: 2048
>>>>>Begin Spectral Data<<<<<
223.165	-27.44
223.4	-27.44
223.635	-27.44
223.869	-13.44
224.104	-14.44
224.338	-12.44
224.573	-17.44
224.808	-19.44
225.042	2.56
225.277	-12.44
225.511	-0.44
225.746	16.56
225.98	-9.44
226.215	11.56
226.449	25.56
226.683	22.56
226.918	17.56
227.152	30.56
227.387	41.56
227.621	28.56
227.856	36.56
228.09	35.56
228.324	44.56
228.559	62.56
228.793	72.56
229.027	127.56
229.262	141.56
229.496	134.56
229.73	150.56
229.964	154.56
230.199	158.56
230.433	145.56
230.667	171.56
230.901	176.56
231.136	157.56
231.37	167.56
231.604	163.56
231.838	179.56
232.072	174.56
232.306	162.56
232.541	180.56
232.775	179.56
233.009	162.56
233.243	180.56
233.477	189.56
233.711	174.56
233.945	178.56
234.179	190.56
234.413	192.56
234.647	195.56
234.881	191.56
235.115	179.56
235.349	195.56
235.583	188.56
235.817	182.56
236.051	186.56
236.285	191.56
236.519	193.56
236.753	196.56
236.987	191.56
237.221	203.56
237.455	182.56
237.689	203.56
237.922	204.56
238.156	223.56
238.39	199.56
238.624	223.56
238.858	207.56
239.091	194.56
239.325	215.56
239.559	225.56
239.793	233.56
240.027	225.56
240.26	227.56
240.494	231.56
240.728	218.56
240.961	212.56
241.195	231.56
241.429	238.56
241.662	240.56
241.896	256.56
242.13	267.56
242.363	277.56
242.597	254.56
242.83	229.56
243.064	244.56
243.298	262.56
243.531	259.56
243.765	271.56
243.998	266.56
244.232	264.56
244.465	277.56
244.699	269.56
244.932	288.56
245.166	296.56
245.399	268.56
245.633	287.56
245.866	289.56
246.099	292.56
246.333	270.56
246.566	302.56
246.8	301.56
247.033	316.56
247.266	282.56
247.5	297.56
247.733	298.56
247.966	304.56
248.2	304.56
248.433	315.56
248.666	318.56
248.899	323.56
249.133	311.56
249.366	325.56
249.599	327.56
249.832	320.56
250.066	336.56
250.299	313.56
250.532	331.56
250.765	335.56
250.998	338.56
251.231	352.56
251.465	350.56
251.698	344.56
251.931	352.56
252.164	356.56
252.397	361.56
252.63	363.56
252.863	357.56
253.096	336.56
253.329	352.56
253.562	356.56
253.795	373.56
254.028	370.56
254.261	358.56
254.494	363.56
254.727	357.56
254.96	373.56
255.193	359.56
255.426	358.56
255.659	372.56
255.892	389.56
256.124	386.56
256.357	391.56
256.59	375.56
256.823	386.56
257.056	392.56
257.289	382.56
257.521	398.56
257.754	394.56
257.987	395.56
258.22	415.56
258.452	400.56
258.685	414.56
258.918	416.56
259.151	398.56
259.383	417.56
259.616	402.56
259.849	414.56
260.081	407.56
260.314	427.56
260.547	440.56
260.779	426.56
261.012	429.56
261.244	426.56
261.477	447.56
261.71	430.56
261.942	440.56
262.175	413.56
262.407	457.56
262.64	427.56
262.872	431.56
263.105	438.56
263.337	433.56
263.57	459.56
263.802	455.56
264.035	463.56
264.267	466.56
264.499	464.56
264.732	443.56
264.964	465.56
265.197	455.56
265.429	471.56
265.661	474.56
265.894	482.56
266.126	482.56
266.358	495.56
266.591	493.56
266.823	479.56
267.055	473.56
267.287	497.56
267.52	490.56
267.752	477.56
267.984	484.56
268.216	482.56
268.448	488.56
268.681	519.56
268.913	485.56
269.145	522.56
269.377	511.56
269.609	496.56
269.841	497.56
270.073	511.56
270.306	513.56
270.538	531.56
270.77	522.56
271.002	491.56
271.234	514.56
271.466	514.56
271.698	523.56
271.93	529.56
272.162	517.56
272.394	516.56
272.626	518.56
272.858	511.56
273.09	539.56
273.322	518.56
273.553	564.56
273.785	553.56
274.017	540.56
274.249	558.56
274.481	556.56
274.713	560.56
274.945	572.56
275.176	584.56
275.408	581.56
275.64	568.56
275.872	548.56
276.104	582.56
276.335	578.56
276.567	559.56
276.799	597.56
277.031	591.56
277.262	581.56
277.494	598.56
277.726	588.56
277.957	608.56
278.189	597.56
278.421	589.56
278.652	581.56
278.884	596.56
279.115	585.56
279.347	562.56
279.579	602.56
279.81	604.56
280.042	602.56
280.273	640.56
280.505	634.56
280.736	632.56
280.968	616.56
281.199	646.56
281.431	616.56
281.662	624.56
281.894	637.56
282.125	626.56
282.356	649.56
282.588	638.56
282.819	646.56
283.051	657.56
283.282	664.56
283.513	639.56
283.745	658.56
283.976	648.56
284.207	656.56
284.439	665.56
284.67	694.56
284.901	667.56
285.132	699.56
285.364	667.56
285.595	665.56
285.826	701.56
286.057	684.56
286.288	658.56
286.52	706.56
286.751	682.56
286.982	690.56
287.213	670.56
287.444	705.56
287.675	702.56
287.906	697.56
288.138	711.56
288.369	699.56
288.6	715.56
288.831	685.56
289.062	703.56
289.293	712.56
289.524	715.56
289.755	723.56
289.986	714.56
290.217	706.56
290.448	696.56
290.679	729.56
290.91	740.56
291.141	706.56
291.371	735.56
291.602	719.56
291.833	704.56
292.064	686.56
292.295	699.56
292.526	724.56
292.757	721.56
292.987	725.56
293.218	719.56
293.449	716.56
293.68	731.56
293.91	714.56
294.141	719.56
294.372	699.56
294.603	737.56
294.833	745.56
295.064	732.56
295.295	740.56
295.525	736.56
295.756	743.56
295.987	722.56
296.217	748.56
296.448	716.56
296.679	742.56
296.909	748.56
297.14	748.56
297.37	753.56
297.601	788.56
297.831	769.56
298.062	778.56
298.292	775.56
298.523	811.56
298.753	810.56
298.984	781.56
299.214	777.56
299.445	805.56
299.675	795.56
299.905	787.56
300.136	775.56
300.366	796.56
300.597	798.56
300.827	816.56
301.057	798.56
301.288	834.56
301.518	838.56
301.748	836.56
301.979	855.56
302.209	859.56
302.439	832.56
302.669	822.56
302.9	823.56
303.13	819.56
303.36	837.56
303.59	837.56
303.82	819.56
304.051	850.56
304.281	822.56
304.511	831.56
304.741	838.56
304.971	853.56
305.201	800.56
305.431	833.56
305.661	824.56
305.891	806.56
306.121	838.56
306.352	808.56
306.582	784.56
306.812	802.56
307.042	814.56
307.272	807.56
307.502	811.56
307.731	791.56
307.961	812.56
308.191	816.56
308.421	802.56
308.651	822.56
308.881	805.56
309.111	783.56
309.341	795.56
309.571	832.56
309.8	814.56
310.03	809.56
310.26	810.56
310.49	843.56
310.72	821.56
310.949	802.56
311.179	820.56
311.409	832.56
311.639	835.56
311.868	822.56
312.098	832.56
312.328	856.56
312.557	831.56
312.787	838.56
313.017	844.56
313.246	851.56
313.476	873.56
313.706	866.56
313.935	895.56
314.165	875.56
314.394	876.56
314.624	867.56
314.853	851.56
315.083	860.56
315.312	863.56
315.542	858.56
315.771	866.56
316.001	862.56
316.23	836.56
316.46	846.56
316.689	848.56
316.919	837.56
317.148	851.56
317.377	834.56
317.607	857.56
317.836	821.56
318.065	851.56
318.295	854.56
318.524	843.56
318.753	855.56
318.983	850.56
319.212	837.56
319.441	849.56
319.67	856.56
319.9	854.56
320.129	826.56
320.358	858.56
320.587	863.56
320.816	884.56
321.046	848.56
321.275	856.56
321.504	871.56
321.733	878.56
321.962	850.56
322.191	864.56
322.42	846.56
322.649	861.56
322.878	871.56
323.108	843.56
323.337	864.56
323.566	868.56
323.795	864.56
324.024	878.56
324.253	878.56
324.482	875.56
324.71	885.56
324.939	910.56
325.168	907.56
325.397	888.56
325.626	933.56
325.855	906.56
326.084	920.56
326.313	939.56
326.542	901.56
326.77	942.56
326.999	932.56
327.228	926.56
327.457	943.56
327.686	913.56
327.914	922.56
328.143	950.56
328.372	925.56
328.6	948.56
328.829	926.56
329.058	936.56
329.287	916.56
329.515	929.56
329.744	955.56
329.972	962.56
330.201	968.56
330.43	960.56
330.658	990.56
330.887	963.56
331.115	1008.56
331.344	985.56
331.572	988.56
331.801	1032.56
332.03	1030.56
332.258	1062.56
332.486	1041.56
332.715	1091.56
332.943	1142.56
333.172	1124.56
333.4	1203.56
333.629	1217.56
333.857	1239.56
334.085	1256.56
334.314	1228.56
334.542	1239.56
334.771	1228.56
334.999	1196.56
335.227	1192.56
335.455	1182.56
335.684	1208.56
335.912	1204.56
336.14	1169.56
336.369	1166.56
336.597	1191.56
336.825	1166.56
337.053	1152.56
337.281	1108.56
337.51	1091.56
337.738	1096.56
337.966	1063.56
338.194	1053.56
338.422	1043.56
338.65	1011.56
338.878	1046.56
339.106	1028.56
339.334	1002.56
339.562	1034.56
339.79	982.56
340.018	992.56
340.246	967.56
340.474	980.56
340.702	983.56
340.93	993.56
341.158	998.56
341.386	1008.56
341.614	1034.56
341.842	969.56
342.07	988.56
342.298	979.56
342.526	992.56
342.754	980.56
342.981	975.56
343.209	1009.56
343.437	1044.56
343.665	1102.56
343.893	1147.56
344.12	1216.56
344.348	1177.56
344.576	1120.56
344.804	1103.56
345.031	1072.56
345.259	1026.56
345.487	979.56
345.714	1012.56
345.942	987.56
346.17	965.56
346.397	993.56
346.625	972.56
346.853	943.56
347.08	956.56
347.308	953.56
347.535	948.56
347.763	933.56
347.99	920.56
348.218	951.56
348.445	931.56
348.673	953.56
348.9	930.56
349.128	959.56
349.355	924.56
349.583	952.56
349.81	920.56
350.037	930.56
350.265	916.56
350.492	928.56
350.72	884.56
350.947	912.56
351.174	924.56
351.402	912.56
351.629	909.56
351.856	906.56
352.083	892.56
352.311	900.56
352.538	908.56
352.765	905.56
352.992	891.56
353.22	901.56
353.447	877.56
353.674	846.56
353.901	882.56
354.128	898.56
354.355	887.56
354.583	884.56
354.81	903.56
355.037	880.56
355.264	906.56
355.491	922.56
355.718	894.56
355.945	898.56
356.172	904.56
356.399	920.56
356.626	911.56
356.853	921.56
357.08	886.56
357.307	905.56
357.534	902.56
357.761	920.56
357.988	916.56
358.215	900.56
358.441	899.56
358.668	891.56
358.895	898.56
359.122	914.56
359.349	911.56
359.576	902.56
359.802	904.56
360.029	918.56
360.256	886.56
360.483	892.56
360.709	928.56
360.936	935.56
361.163	871.56
361.39	891.56
361.616	905.56
361.843	913.56
362.07	921.56
362.296	922.56
362.523	912.56
362.749	909.56
362.976	908.56
363.203	907.56
363.429	893.56
363.656	898.56
363.882	907.56
364.109	927.56
364.335	868.56
364.562	900.56
364.788	910.56
365.015	903.56
365.241	887.56
365.468	901.56
365.694	894.56
365.92	919.56
366.147	882.56
366.373	864.56
366.599	889.56
366.826	892.56
367.052	899.56
367.278	879.56
367.505	894.56
367.731	888.56
367.957	900.56
368.184	909.56
368.41	937.56
368.636	934.56
368.862	915.56
369.089	934.56
369.315	937.56
369.541	911.56
369.767	931.56
369.993	927.56
370.219	932.56
370.445	965.56
370.672	949.56
370.898	958.56
371.124	986.56
371.35	980.56
371.576	988.56
371.802	1002.56
372.028	983.56
372.254	961.56
372.48	993.56
372.706	1019.56
372.932	1030.56
373.158	1040.56
373.384	1006.56
373.61	1000.56
373.835	996.56
374.061	989.56
374.287	1018.56
374.513	1026.56
374.739	1035.56
374.965	1090.56
375.191	1107.56
375.416	1090.56
375.642	1056.56
375.868	1068.56
376.094	1007.56
376.319	998.56
376.545	987.56
376.771	1007.56
376.997	978.56
377.222	974.56
377.448	979.56
377.674	993.56
377.899	1001.56
378.125	967.56
378.35	958.56
378.576	938.56
378.802	979.56
379.027	971.56
379.253	967.56
379.478	937.56
379.704	975.56
379.929	961.56
380.155	988.56
380.38	950.56
380.606	993.56
380.831	980.56
381.057	1020.56
381.282	979.56
381.507	988.56
381.733	984.56
381.958	991.56
382.184	1020.56
382.409	995.56
382.634	999.56
382.86	1011.56
383.085	1054.56
383.31	1039.56
383.535	1050.56
383.761	1042.56
383.986	1092.56
384.211	1111.56
384.436	1121.56
384.662	1122.56
384.887	1171.56
385.112	1169.56
385.337	1180.56
385.562	1176.56
385.787	1179.56
386.013	1209.56
386.238	1200.56
386.463	1184.56
386.688	1215.56
386.913	1226.56
387.138	1191.56
387.363	1211.56
387.588	1175.56
387.813	1194.56
388.038	1183.56
388.263	1180.56
388.488	1204.56
388.713	1198.56
388.938	1206.56
389.163	1169.56
389.387	1193.56
389.612	1176.56
389.837	1163.56
390.062	1144.56
390.287	1170.56
390.512	1190.56
390.736	1212.56
390.961	1214.56
391.186	1247.56
391.411	1277.56
391.636	1324.56
391.86	1332.56
392.085	1362.56
392.31	1333.56
392.534	1307.56
392.759	1306.56
392.984	1264.56
393.208	1268.56
393.433	1283.56
393.658	1278.56
393.882	1280.56
394.107	1273.56
394.331	1287.56
394.556	1268.56
394.78	1270.56
395.005	1295.56
395.229	1292.56
395.454	1331.56
395.678	1319.56
395.903	1362.56
396.127	1343.56
396.352	1296.56
396.576	1264.56
396.801	1298.56
397.025	1328.56
397.249	1361.56
397.474	1360.56
397.698	1366.56
397.922	1380.56
398.147	1374.56
398.371	1406.56
398.595	1476.56
398.82	1532.56
399.044	1631.56
399.268	1738.56
399.492	1946.56
399.717	2144.56
399.941	2204.56
400.165	2091.56
400.389	1883.56
400.613	1794.56
400.837	1620.56
401.062	1598.56
401.286	1583.56
401.51	1553.56
401.734	1540.56
401.958	1549.56
402.182	1552.56
402.406	1562.56
402.63	1583.56
402.854	1594.56
403.078	1624.56
403.302	1662.56
403.526	1670.56
403.75	1694.56
403.974	1736.56
404.198	1707.56
404.422	1727.56
404.645	1689.56
404.869	1675.56
405.093	1693.56
405.317	1703.56
405.541	1691.56
405.765	1659.56
405.988	1658.56
406.212	1719.56
406.436	1671.56
406.66	1735.56
406.883	1708.56
407.107	1887.56
407.331	1930.56
407.555	1984.56
407.778	1946.56
408.002	1907.56
408.226	1882.56
408.449	1851.56
408.673	1779.56
408.896	1739.56
409.12	1700.56
409.344	1722.56
409.567	1720.56
409.791	1713.56
410.014	1710.56
410.238	1648.56
410.461	1673.56
410.685	1619.56
410.908	1600.56
411.132	1603.56
411.355	1592.56
411.578	1598.56
411.802	1576.56
412.025	1552.56
412.249	1617.56
412.472	1627.56
412.695	1574.56
412.919	1548.56
413.142	1551.56
413.365	1519.56
413.589	1539.56
413.812	1509.56
414.035	1497.56
414.258	1487.56
414.482	1511.56
414.705	1574.56
414.928	1552.56
415.151	1515.56
415.374	1492.56
415.597	1502.56
415.821	1455.56
416.044	1480.56
416.267	1491.56
416.49	1475.56
416.713	1474.56
416.936	1471.56
417.159	1462.56
417.382	1464.56
417.605	1444.56
417.828	1474.56
418.051	1452.56
418.274	1497.56
418.497	1468.56
418.72	1543.56
418.943	1524.56
419.166	1633.56
419.389	1750.56
419.611	1683.56
419.834	1616.56
420.057	1575.56
420.28	1512.56
420.503	1498.56
420.726	1472.56
420.948	1474.56
421.171	1479.56
421.394	1434.56
421.617	1456.56
421.839	1482.56
422.062	1488.56
422.285	1438.56
422.507	1492.56
422.73	1513.56
422.953	1501.56
423.175	1540.56
423.398	1550.56
423.621	1512.56
423.843	1540.56
424.066	1531.56
424.288	1532.56
424.511	1515.56
424.733	1528.56
424.956	1478.56
425.178	1518.56
425.401	1488.56
425.623	1493.56
425.846	1429.56
426.068	1433.56
426.291	1415.56
426.513	1398.56
426.735	1426.56
426.958	1401.56
427.18	1386.56
427.402	1362.56
427.625	1384.56
427.847	1370.56
428.069	1331.56
428.292	1346.56
428.514	1311.56
428.736	1313.56
428.958	1327.56
429.181	1292.56
429.403	1272.56
429.625	1317.56
429.847	1308.56
430.069	1247.56
430.292	1286.56
430.514	1287.56
430.736	1291.56
430.958	1332.56
431.18	1296.56
431.402	1330.56
431.624	1313.56
431.846	1315.56
432.068	1354.56
432.29	1354.56
432.512	1318.56
432.734	1310.56
432.956	1291.56
433.178	1334.56
433.4	1327.56
433.622	1339.56
433.844	1350.56
434.066	1371.56
434.287	1371.56
434.509	1400.56
434.731	1426.56
434.953	1432.56
435.175	1428.56
435.397	1463.56
435.618	1384.56
435.84	1343.56
436.062	1381.56
436.284	1328.56
436.505	1310.56
436.727	1314.56
436.949	1308.56
437.17	1330.56
437.392	1283.56
437.614	1260.56
437.835	1248.56
438.057	1263.56
438.278	1244.56
438.5	1244.56
438.721	1273.56
438.943	1296.56
439.165	1245.56
439.386	1286.56
439.608	1311.56
439.829	1315.56
440.05	1307.56
440.272	1339.56
440.493	1300.56
440.715	1344.56
440.936	1380.56
441.158	1400.56
441.379	1416.56
441.6	1483.56
441.822	1473.56
442.043	1490.56
442.264	1422.56
442.486	1406.56
442.707	1459.56
442.928	1451.56
443.149	1419.56
443.371	1425.56
443.592	1447.56
443.813	1483.56
444.034	1492.56
444.255	1538.56
444.476	1602.56
444.698	1651.56
444.919	1739.56
445.14	1754.56
445.361	1666.56
445.582	1530.56
445.803	1447.56
446.024	1393.56
446.245	1377.56
446.466	1333.56
446.687	1323.56
446.908	1326.56
447.129	1298.56
447.35	1291.56
447.571	1308.56
447.792	1256.56
448.013	1200.56
448.234	1246.56
448.455	1241.56
448.675	1178.56
448.896	1217.56
449.117	1174.56
449.338	1180.56
449.559	1184.56
449.779	1159.56
450	1178.56
450.221	1180.56
450.442	1217.56
450.662	1225.56
450.883	1205.56
451.104	1226.56
451.324	1226.56
451.545	1234.56
451.766	1221.56
451.986	1196.56
452.207	1179.56
452.428	1178.56
452.648	1196.56
452.869	1140.56
453.089	1152.56
453.31	1170.56
453.53	1145.56
453.751	1156.56
453.971	1154.56
454.192	1158.56
454.412	1135.56
454.633	1113.56
454.853	1112.56
455.073	1092.56
455.294	1114.56
455.514	1115.56
455.734	1118.56
455.955	1108.56
456.175	1110.56
456.395	1093.56
456.616	1114.56
456.836	1134.56
457.056	1117.56
457.276	1091.56
457.497	1104.56
457.717	1115.56
457.937	1153.56
458.157	1165.56
458.377	1172.56
458.598	1188.56
458.818	1249.56
459.038	1244.56
459.258	1298.56
459.478	1335.56
459.698	1365.56
459.918	1387.56
460.138	1443.56
460.358	1520.56
460.578	1553.56
460.798	1548.56
461.018	1571.56
461.238	1579.56
461.458	1567.56
461.678	1565.56
461.898	1588.56
462.118	1603.56
462.338	1625.56
462.558	1699.56
462.777	1804.56
462.997	1898.56
463.217	1954.56
463.437	1976.56
463.657	1922.56
463.876	1874.56
464.096	1858.56
464.316	1842.56
464.536	1803.56
464.755	1762.56
464.975	1672.56
465.195	1586.56
465.414	1562.56
465.634	1478.56
465.854	1379.56
466.073	1360.56
466.293	1293.56
466.512	1306.56
466.732	1296.56
466.951	1262.56
467.171	1252.56
467.391	1272.56
467.61	1250.56
467.829	1190.56
468.049	1244.56
468.268	1190.56
468.488	1190.56
468.707	1184.56
468.927	1218.56
469.146	1204.56
469.365	1245.56
469.585	1219.56
469.804	1264.56
470.023	1282.56
470.243	1262.56
470.462	1265.56
470.681	1286.56
470.901	1286.56
471.12	1284.56
471.339	1256.56
471.558	1230.56
471.777	1240.56
471.997	1226.56
472.216	1208.56
472.435	1215.56
472.654	1190.56
472.873	1163.56
473.092	1166.56
473.311	1180.56
473.53	1173.56
473.749	1200.56
473.968	1188.56
474.187	1170.56
474.406	1182.56
474.625	1195.56
474.844	1195.56
475.063	1176.56
475.282	1206.56
475.501	1174.56
475.72	1232.56
475.939	1220.56
476.158	1252.56
476.377	1259.56
476.596	1254.56
476.814	1238.56
477.033	1272.56
477.252	1270.56
477.471	1304.56
477.69	1342.56
477.908	1347.56
478.127	1365.56
478.346	1423.56
478.564	1434.56
478.783	1464.56
479.002	1471.56
479.22	1501.56
479.439	1490.56
479.658	1484.56
479.876	1493.56
480.095	1522.56
480.313	1544.56
480.532	1538.56
480.751	1561.56
480.969	1519.56
481.188	1476.56
481.406	1460.56
481.624	1420.56
481.843	1408.56
482.061	1369.56
482.28	1364.56
482.498	1322.56
482.717	1356.56
482.935	1355.56
483.153	1342.56
483.372	1338.56
483.59	1336.56
483.808	1321.56
484.027	1355.56
484.245	1385.56
484.463	1365.56
484.681	1418.56
484.9	1378.56
485.118	1406.56
485.336	1377.56
485.554	1436.56
485.772	1408.56
485.99	1422.56
486.209	1402.56
486.427	1439.56
486.645	1402.56
486.863	1408.56
487.081	1418.56
487.299	1423.56
487.517	1398.56
487.735	1402.56
487.953	1404.56
488.171	1409.56
488.389	1402.56
488.607	1388.56
488.825	1392.56
489.043	1390.56
489.261	1360.56
489.479	1415.56
489.696	1420.56
489.914	1395.56
490.132	1426.56
490.35	1455.56
490.568	1417.56
490.786	1415.56
491.003	1457.56
491.221	1433.56
491.439	1415.56
491.657	1425.56
491.874	1408.56
492.092	1450.56
492.31	1430.56
492.527	1474.56
492.745	1472.56
492.963	1467.56
493.18	1494.56
493.398	1461.56
493.615	1487.56
493.833	1480.56
494.05	1524.56
494.268	1521.56
494.485	1522.56
494.703	1497.56
494.92	1492.56
495.138	1525.56
495.355	1502.56
495.573	1514.56
495.79	1525.56
496.008	1568.56
496.225	1594.56
496.442	1587.56
496.66	1595.56
496.877	1635.56
497.094	1673.56
497.312	1687.56
497.529	1746.56
497.746	1772.56
497.963	1844.56
498.181	1959.56
498.398	2042.56
498.615	2142.56
498.832	2236.56
499.049	2433.56
499.267	2619.56
499.484	2862.56
499.701	3173.56
499.918	3463.56
500.135	3792.56
500.352	4153.56
500.569	4219.56
500.786	4250.56
501.003	4138.56
501.22	3745.56
501.437	3446.56
501.654	3155.56
501.871	2874.56
502.088	2614.56
502.305	2438.56
502.522	2310.56
502.739	2203.56
502.956	2086.56
503.172	1973.56
503.389	1916.56
503.606	1864.56
503.823	1842.56
504.04	1794.56
504.256	1841.56
504.473	1822.56
504.69	1818.56
504.907	1788.56
505.123	1698.56
505.34	1634.56
505.557	1560.56
505.773	1504.56
505.99	1477.56
506.207	1450.56
506.423	1447.56
506.64	1382.56
506.856	1384.56
507.073	1377.56
507.289	1376.56
507.506	1350.56
507.722	1344.56
507.939	1327.56
508.155	1330.56
508.372	1296.56
508.588	1307.56
508.805	1274.56
509.021	1320.56
509.238	1292.56
509.454	1258.56
509.67	1243.56
509.887	1251.56
510.103	1280.56
510.319	1246.56
510.536	1227.56
510.752	1224.56
510.968	1230.56
511.184	1196.56
511.401	1208.56
511.617	1209.56
511.833	1247.56
512.049	1208.56
512.265	1205.56
512.481	1211.56
512.698	1222.56
512.914	1174.56
513.13	1223.56
513.346	1205.56
513.562	1202.56
513.778	1246.56
513.994	1243.56
514.21	1246.56
514.426	1234.56
514.642	1230.56
514.858	1246.56
515.074	1267.56
515.29	1259.56
515.506	1294.56
515.721	1306.56
515.937	1350.56
516.153	1357.56
516.369	1400.56
516.585	1427.56
516.801	1447.56
517.016	1510.56
517.232	1584.56
517.448	1634.56
517.664	1674.56
517.879	1719.56
518.095	1693.56
518.311	1650.56
518.527	1595.56
518.742	1579.56
518.958	1507.56
519.173	1416.56
519.389	1400.56
519.605	1335.56
519.82	1336.56
520.036	1306.56
520.251	1271.56
520.467	1242.56
520.682	1233.56
520.898	1262.56
521.113	1210.56
521.329	1193.56
521.544	1196.56
521.76	1201.56
521.975	1156.56
522.19	1163.56
522.406	1173.56
522.621	1150.56
522.836	1136.56
523.052	1141.56
523.267	1128.56
523.482	1116.56
523.698	1130.56
523.913	1146.56
524.128	1115.56
524.343	1140.56
524.559	1089.56
524.774	1104.56
524.989	1106.56
525.204	1090.56
525.419	1110.56
525.634	1092.56
525.849	1158.56
526.064	1076.56
526.28	1094.56
526.495	1065.56
526.71	1091.56
526.925	1096.56
527.14	1099.56
527.355	1098.56
527.57	1066.56
527.785	1072.56
527.999	1083.56
528.214	1091.56
528.429	1094.56
528.644	1076.56
528.859	1094.56
529.074	1089.56
529.289	1095.56
529.503	1065.56
529.718	1086.56
529.933	1076.56
530.148	1035.56
530.363	1103.56
530.577	1062.56
530.792	1113.56
531.007	1084.56
531.221	1073.56
531.436	1086.56
531.651	1055.56
531.865	1066.56
532.08	1082.56
532.295	1082.56
532.509	1075.56
532.724	1075.56
532.938	1080.56
533.153	1081.56
533.367	1091.56
533.582	1083.56
533.796	1080.56
534.011	1057.56
534.225	1077.56
534.44	1076.56
534.654	1068.56
534.868	1067.56
535.083	1043.56
535.297	1063.56
535.511	1054.56
535.726	1024.56
535.94	1036.56
536.154	1026.56
536.369	1013.56
536.583	1010.56
536.797	1007.56
537.011	1017.56
537.225	1008.56
537.44	1032.56
537.654	990.56
537.868	960.56
538.082	967.56
538.296	963.56
538.51	1012.56
538.724	973.56
538.938	985.56
539.153	962.56
539.367	1014.56
539.581	978.56
539.795	956.56
540.009	968.56
540.222	948.56
540.436	980.56
540.65	948.56
540.864	967.56
541.078	952.56
541.292	943.56
541.506	996.56
541.72	950.56
541.934	952.56
542.147	959.56
542.361	960.56
542.575	954.56
542.789	955.56
543.002	934.56
543.216	942.56
543.43	921.56
543.644	947.56
543.857	929.56
544.071	962.56
544.285	966.56
544.498	958.56
544.712	964.56
544.925	946.56
545.139	976.56
545.352	987.56
545.566	975.56
545.779	980.56
545.993	1017.56
546.206	988.56
546.42	968.56
546.633	954.56
546.847	992.56
547.06	1005.56
547.274	962.56
547.487	1018.56
547.7	967.56
547.914	968.56
548.127	1001.56
548.34	985.56
548.554	984.56
548.767	1001.56
548.98	1001.56
549.193	967.56
549.407	975.56
549.62	1003.56
549.833	1037.56
550.046	1014.56
550.259	1001.56
550.473	992.56
550.686	992.56
550.899	995.56
551.112	984.56
551.325	974.56
551.538	967.56
551.751	1003.56
551.964	991.56
552.177	1002.56
552.39	1017.56
552.603	1065.56
552.816	1050.56
553.029	1087.56
553.242	1078.56
553.455	1107.56
553.667	1112.56
553.88	1065.56
554.093	1048.56
554.306	1007.56
554.519	996.56
554.732	977.56
554.944	971.56
555.157	933.56
555.37	928.56
555.583	931.56
555.795	919.56
556.008	882.56
556.221	863.56
556.433	864.56
556.646	873.56
556.859	868.56
557.071	854.56
557.284	860.56
557.496	847.56
557.709	864.56
557.921	822.56
558.134	819.56
558.346	837.56
558.559	828.56
558.771	814.56
558.984	839.56
559.196	827.56
559.409	834.56
559.621	832.56
559.833	827.56
560.046	842.56
560.258	814.56
560.47	798.56
560.683	832.56
560.895	824.56
561.107	808.56
561.32	791.56
561.532	796.56
561.744	833.56
561.956	797.56
562.168	796.56
562.381	785.56
562.593	799.56
562.805	817.56
563.017	818.56
563.229	809.56
563.441	806.56
563.653	816.56
563.865	866.56
564.077	854.56
564.289	840.56
564.501	858.56
564.713	870.56
564.925	871.56
565.137	916.56
565.349	958.56
565.561	970.56
565.773	1008.56
565.985	1041.56
566.197	1100.56
566.408	1144.56
566.62	1223.56
566.832	1335.56
567.044	1323.56
567.255	1350.56
567.467	1390.56
567.679	1438.56
567.891	1480.56
568.102	1467.56
568.314	1435.56
568.526	1359.56
568.737	1239.56
568.949	1156.56
569.161	1034.56
569.372	1020.56
569.584	954.56
569.795	930.56
570.007	882.56
570.218	889.56
570.43	851.56
570.641	871.56
570.853	816.56
571.064	867.56
571.276	847.56
571.487	819.56
571.698	806.56
571.91	769.56
572.121	771.56
572.333	748.56
572.544	733.56
572.755	742.56
572.966	707.56
573.178	698.56
573.389	689.56
573.6	661.56
573.811	683.56
574.023	652.56
574.234	663.56
574.445	651.56
574.656	678.56
574.867	674.56
575.078	642.56
575.289	667.56
575.501	639.56
575.712	637.56
575.923	650.56
576.134	636.56
576.345	643.56
576.556	655.56
576.767	622.56
576.978	605.56
577.188	612.56
577.399	624.56
577.61	610.56
577.821	598.56
578.032	602.56
578.243	596.56
578.454	603.56
578.665	595.56
578.875	605.56
579.086	584.56
579.297	587.56
579.508	587.56
579.718	582.56
579.929	588.56
580.14	584.56
580.35	572.56
580.561	549.56
580.772	558.56
580.982	554.56
581.193	587.56
581.403	550.56
581.614	564.56
581.825	560.56
582.035	555.56
582.246	563.56
582.456	547.56
582.667	562.56
582.877	566.56
583.087	532.56
583.298	564.56
583.508	554.56
583.719	568.56
583.929	553.56
584.139	546.56
584.35	544.56
584.56	529.56
584.77	535.56
584.981	534.56
585.191	558.56
585.401	512.56
585.611	522.56
585.821	550.56
586.032	542.56
586.242	536.56
586.452	522.56
586.662	530.56
586.872	517.56
587.082	521.56
587.292	535.56
587.502	528.56
587.713	533.56
587.923	530.56
588.133	502.56
588.343	521.56
588.553	521.56
588.762	516.56
588.972	531.56
589.182	562.56
589.392	539.56
589.602	550.56
589.812	561.56
590.022	547.56
590.232	524.56
590.441	562.56
590.651	541.56
590.861	518.56
591.071	540.56
591.281	562.56
591.49	542.56
591.7	556.56
591.91	549.56
592.119	593.56
592.329	573.56
592.539	593.56
592.748	626.56
592.958	624.56
593.167	648.56
593.377	647.56
593.587	680.56
593.796	674.56
594.006	670.56
594.215	659.56
594.424	649.56
594.634	625.56
594.843	647.56
595.053	612.56
595.262	593.56
595.472	582.56
595.681	562.56
595.89	526.56
596.1	528.56
596.309	526.56
596.518	539.56
596.727	507.56
596.937	497.56
597.146	496.56
597.355	469.56
597.564	473.56
597.774	493.56
597.983	468.56
598.192	478.56
598.401	452.56
598.61	464.56
598.819	448.56
599.028	471.56
599.237	437.56
599.446	466.56
599.655	416.56
599.864	454.56
600.073	449.56
600.282	440.56
600.491	427.56
600.7	439.56
600.909	418.56
601.118	436.56
601.327	435.56
601.536	413.56
601.745	412.56
601.953	440.56
602.162	432.56
602.371	419.56
602.58	410.56
602.789	408.56
602.997	404.56
603.206	418.56
603.415	408.56
603.623	416.56
603.832	408.56
604.041	403.56
604.249	408.56
604.458	419.56
604.666	405.56
604.875	421.56
605.084	395.56
605.292	397.56
605.501	411.56
605.709	409.56
605.918	408.56
606.126	389.56
606.334	398.56
606.543	414.56
606.751	409.56
606.96	421.56
607.168	382.56
607.376	378.56
607.585	384.56
607.793	378.56
608.001	387.56
608.21	410.56
608.418	401.56
608.626	402.56
608.834	358.56
609.043	372.56
609.251	408.56
609.459	375.56
609.667	375.56
609.875	395.56
610.083	397.56
610.291	382.56
610.499	385.56
610.707	387.56
610.916	384.56
611.124	378.56
611.332	396.56
611.54	354.56
611.748	376.56
611.955	384.56
612.163	364.56
612.371	378.56
612.579	372.56
612.787	367.56
612.995	374.56
613.203	381.56
613.411	362.56
613.618	360.56
613.826	375.56
614.034	347.56
614.242	368.56
614.449	362.56
614.657	361.56
614.865	371.56
615.072	361.56
615.28	370.56
615.488	368.56
615.695	355.56
615.903	339.56
616.111	357.56
616.318	353.56
616.526	351.56
616.733	378.56
616.941	351.56
617.148	382.56
617.356	372.56
617.563	369.56
617.771	363.56
617.978	337.56
618.185	350.56
618.393	357.56
618.6	342.56
618.807	369.56
619.015	357.56
619.222	358.56
619.429	358.56
619.637	354.56
619.844	343.56
620.051	343.56
620.258	342.56
620.466	332.56
620.673	319.56
620.88	327.56
621.087	346.56
621.294	339.56
621.501	342.56
621.708	343.56
621.915	332.56
622.122	330.56
622.329	355.56
622.536	339.56
622.743	319.56
622.95	322.56
623.157	317.56
623.364	331.56
623.571	336.56
623.778	303.56
623.985	333.56
624.192	332.56
624.399	329.56
624.606	327.56
624.812	322.56
625.019	319.56
625.226	321.56
625.433	321.56
625.639	320.56
625.846	303.56
626.053	288.56
626.259	317.56
626.466	314.56
626.673	320.56
626.879	310.56
627.086	306.56
627.293	306.56
627.499	303.56
627.706	293.56
627.912	308.56
628.119	294.56
628.325	282.56
628.532	312.56
628.738	302.56
628.945	286.56
629.151	295.56
629.357	275.56
629.564	294.56
629.77	292.56
629.976	290.56
630.183	293.56
630.389	291.56
630.595	286.56
630.802	292.56
631.008	239.56
631.214	290.56
631.42	272.56
631.627	292.56
631.833	274.56
632.039	277.56
632.245	278.56
632.451	264.56
632.657	264.56
632.863	263.56
633.069	271.56
633.275	266.56
633.481	282.56
633.688	279.56
633.893	256.56
634.099	267.56
634.305	266.56
634.511	274.56
634.717	274.56
634.923	259.56
635.129	261.56
635.335	258.56
635.541	254.56
635.747	272.56
635.952	240.56
636.158	256.56
636.364	274.56
636.57	248.56
636.775	255.56
636.981	257.56
637.187	247.56
637.392	257.56
637.598	253.56
637.804	263.56
638.009	267.56
638.215	260.56
638.421	260.56
638.626	246.56
638.832	231.56
639.037	243.56
639.243	251.56
639.448	263.56
639.654	266.56
639.859	258.56
640.065	234.56
640.27	246.56
640.475	242.56
640.681	239.56
640.886	244.56
641.091	240.56
641.297	251.56
641.502	248.56
641.707	243.56
641.913	261.56
642.118	240.56
642.323	246.56
642.528	246.56
642.733	238.56
642.939	223.56
643.144	227.56
643.349	241.56
643.554	234.56
643.759	223.56
643.964	218.56
644.169	218.56
644.374	228.56
644.579	220.56
644.784	219.56
644.989	238.56
645.194	231.56
645.399	228.56
645.604	236.56
645.809	223.56
646.014	223.56
646.219	223.56
646.423	221.56
646.628	214.56
646.833	225.56
647.038	230.56
647.243	223.56
647.447	240.56
647.652	231.56
647.857	232.56
648.062	246.56
648.266	232.56
648.471	238.56
648.676	235.56
648.88	235.56
649.085	222.56
649.289	216.56
649.494	225.56
649.698	212.56
649.903	220.56
650.107	230.56
650.312	216.56
650.516	217.56
650.721	220.56
650.925	184.56
651.13	199.56
651.334	214.56
651.539	205.56
651.743	175.56
651.947	187.56
652.152	198.56
652.356	188.56
652.56	182.56
652.764	179.56
652.969	166.56
653.173	179.56
653.377	178.56
653.581	186.56
653.785	181.56
653.99	181.56
654.194	166.56
654.398	174.56
654.602	160.56
654.806	171.56
655.01	176.56
655.214	166.56
655.418	158.56
655.622	155.56
655.826	161.56
656.03	159.56
656.234	184.56
656.438	174.56
656.642	148.56
656.846	146.56
657.049	137.56
657.253	156.56
657.457	137.56
657.661	147.56
657.865	136.56
658.068	134.56
658.272	112.56
658.476	123.56
658.68	118.56
658.883	120.56
659.087	122.56
659.291	105.56
659.494	110.56
659.698	107.56
659.901	93.56
660.105	122.56
660.309	105.56
660.512	105.56
660.716	93.56
660.919	114.56
661.123	103.56
661.326	96.56
661.53	83.56
661.733	89.56
661.936	85.56
662.14	75.56
662.343	89.56
662.546	92.56
662.75	71.56
662.953	98.56
663.156	72.56
663.36	81.56
663.563	83.56
663.766	70.56
663.969	100.56
664.173	74.56
664.376	78.56
664.579	78.56
664.782	93.56
664.985	76.56
665.188	84.56
665.391	76.56
665.594	74.56
665.797	93.56
666	69.56
666.203	81.56
666.406	95.56
666.609	88.56
666.812	82.56
667.015	78.56
667.218	83.56
667.421	89.56
667.624	83.56
667.827	81.56
668.03	86.56
668.232	77.56
668.435	88.56
668.638	82.56
668.841	84.56
669.043	82.56
669.246	86.56
669.449	83.56
669.651	76.56
669.854	79.56
670.057	96.56
670.259	85.56
670.462	90.56
670.665	98.56
670.867	74.56
671.07	70.56
671.272	75.56
671.475	82.56
671.677	70.56
671.88	79.56
672.082	82.56
672.284	80.56
672.487	77.56
672.689	72.56
672.892	72.56
