Data from NiCl2@0.25M.TitratingCurve.Agarose3%dH2O.NegLispCup.LampEnergy10.LIBS07252019_HRD10591_18-25-10-573.txt Node
Date: Thu Jul 25 18:25:10 EDT 2019
User: cochatt
Spectrometer: HR+D1059
Trigger mode: 1
Integration Time (sec): 1.000000E-1
Scans to average: 1
Electric dark correction enabled: true
Nonlinearity correction enabled: false
Boxcar width: 0
XAxis mode: Wavelengths
Number of Pixels in Spectrum: 2048
>>>>>Begin Spectral Data<<<<<
223.165	-17.62
223.4	-17.62
223.635	-17.62
223.869	-14.62
224.104	-29.62
224.338	-17.62
224.573	-11.62
224.808	-0.62
225.042	-2.62
225.277	-4.62
225.511	-5.62
225.746	6.38
225.98	6.38
226.215	6.38
226.449	17.38
226.683	30.38
226.918	22.38
227.152	15.38
227.387	41.38
227.621	50.38
227.856	38.38
228.09	39.38
228.324	58.38
228.559	66.38
228.793	88.38
229.027	109.38
229.262	109.38
229.496	125.38
229.73	106.38
229.964	137.38
230.199	129.38
230.433	127.38
230.667	135.38
230.901	134.38
231.136	146.38
231.37	140.38
231.604	128.38
231.838	139.38
232.072	135.38
232.306	154.38
232.541	153.38
232.775	149.38
233.009	153.38
233.243	161.38
233.477	155.38
233.711	145.38
233.945	158.38
234.179	157.38
234.413	143.38
234.647	161.38
234.881	138.38
235.115	168.38
235.349	176.38
235.583	149.38
235.817	144.38
236.051	156.38
236.285	167.38
236.519	154.38
236.753	163.38
236.987	152.38
237.221	155.38
237.455	157.38
237.689	157.38
237.922	152.38
238.156	151.38
238.39	151.38
238.624	170.38
238.858	163.38
239.091	165.38
239.325	159.38
239.559	185.38
239.793	177.38
240.027	190.38
240.26	185.38
240.494	178.38
240.728	171.38
240.961	185.38
241.195	186.38
241.429	174.38
241.662	195.38
241.896	201.38
242.13	188.38
242.363	196.38
242.597	206.38
242.83	191.38
243.064	185.38
243.298	207.38
243.531	206.38
243.765	205.38
243.998	201.38
244.232	226.38
244.465	205.38
244.699	218.38
244.932	219.38
245.166	218.38
245.399	221.38
245.633	222.38
245.866	225.38
246.099	237.38
246.333	231.38
246.566	220.38
246.8	216.38
247.033	215.38
247.266	214.38
247.5	225.38
247.733	230.38
247.966	235.38
248.2	218.38
248.433	224.38
248.666	233.38
248.899	245.38
249.133	244.38
249.366	240.38
249.599	228.38
249.832	248.38
250.066	239.38
250.299	243.38
250.532	267.38
250.765	243.38
250.998	251.38
251.231	272.38
251.465	279.38
251.698	278.38
251.931	273.38
252.164	273.38
252.397	275.38
252.63	285.38
252.863	276.38
253.096	283.38
253.329	267.38
253.562	274.38
253.795	279.38
254.028	278.38
254.261	285.38
254.494	279.38
254.727	279.38
254.96	278.38
255.193	284.38
255.426	289.38
255.659	278.38
255.892	288.38
256.124	293.38
256.357	293.38
256.59	299.38
256.823	280.38
257.056	305.38
257.289	322.38
257.521	313.38
257.754	302.38
257.987	292.38
258.22	307.38
258.452	317.38
258.685	312.38
258.918	295.38
259.151	314.38
259.383	327.38
259.616	306.38
259.849	330.38
260.081	318.38
260.314	306.38
260.547	312.38
260.779	323.38
261.012	309.38
261.244	325.38
261.477	328.38
261.71	326.38
261.942	334.38
262.175	345.38
262.407	333.38
262.64	317.38
262.872	346.38
263.105	340.38
263.337	324.38
263.57	315.38
263.802	350.38
264.035	337.38
264.267	352.38
264.499	339.38
264.732	343.38
264.964	351.38
265.197	349.38
265.429	340.38
265.661	347.38
265.894	348.38
266.126	346.38
266.358	359.38
266.591	339.38
266.823	337.38
267.055	371.38
267.287	361.38
267.52	368.38
267.752	363.38
267.984	377.38
268.216	345.38
268.448	359.38
268.681	377.38
268.913	375.38
269.145	350.38
269.377	371.38
269.609	387.38
269.841	375.38
270.073	365.38
270.306	375.38
270.538	369.38
270.77	372.38
271.002	383.38
271.234	386.38
271.466	411.38
271.698	377.38
271.93	401.38
272.162	405.38
272.394	389.38
272.626	396.38
272.858	389.38
273.09	396.38
273.322	399.38
273.553	409.38
273.785	393.38
274.017	394.38
274.249	421.38
274.481	383.38
274.713	411.38
274.945	439.38
275.176	421.38
275.408	392.38
275.64	415.38
275.872	413.38
276.104	438.38
276.335	419.38
276.567	411.38
276.799	408.38
277.031	442.38
277.262	436.38
277.494	412.38
277.726	420.38
277.957	423.38
278.189	427.38
278.421	432.38
278.652	426.38
278.884	416.38
279.115	442.38
279.347	450.38
279.579	436.38
279.81	429.38
280.042	423.38
280.273	445.38
280.505	448.38
280.736	443.38
280.968	443.38
281.199	463.38
281.431	461.38
281.662	461.38
281.894	471.38
282.125	473.38
282.356	479.38
282.588	476.38
282.819	461.38
283.051	488.38
283.282	472.38
283.513	488.38
283.745	470.38
283.976	475.38
284.207	478.38
284.439	489.38
284.67	496.38
284.901	468.38
285.132	481.38
285.364	492.38
285.595	489.38
285.826	475.38
286.057	511.38
286.288	491.38
286.52	485.38
286.751	501.38
286.982	504.38
287.213	485.38
287.444	514.38
287.675	496.38
287.906	511.38
288.138	504.38
288.369	497.38
288.6	506.38
288.831	511.38
289.062	519.38
289.293	508.38
289.524	521.38
289.755	520.38
289.986	523.38
290.217	522.38
290.448	517.38
290.679	530.38
290.91	524.38
291.141	515.38
291.371	517.38
291.602	541.38
291.833	528.38
292.064	534.38
292.295	526.38
292.526	534.38
292.757	529.38
292.987	518.38
293.218	526.38
293.449	524.38
293.68	557.38
293.91	549.38
294.141	517.38
294.372	538.38
294.603	517.38
294.833	529.38
295.064	523.38
295.295	541.38
295.525	518.38
295.756	523.38
295.987	520.38
296.217	539.38
296.448	560.38
296.679	547.38
296.909	528.38
297.14	552.38
297.37	541.38
297.601	562.38
297.831	527.38
298.062	575.38
298.292	554.38
298.523	592.38
298.753	577.38
298.984	595.38
299.214	559.38
299.445	564.38
299.675	547.38
299.905	562.38
300.136	591.38
300.366	581.38
300.597	589.38
300.827	603.38
301.057	592.38
301.288	607.38
301.518	603.38
301.748	594.38
301.979	628.38
302.209	598.38
302.439	621.38
302.669	600.38
302.9	591.38
303.13	590.38
303.36	583.38
303.59	577.38
303.82	593.38
304.051	600.38
304.281	603.38
304.511	607.38
304.741	605.38
304.971	612.38
305.201	614.38
305.431	598.38
305.661	597.38
305.891	589.38
306.121	594.38
306.352	602.38
306.582	571.38
306.812	584.38
307.042	589.38
307.272	570.38
307.502	588.38
307.731	600.38
307.961	570.38
308.191	559.38
308.421	594.38
308.651	574.38
308.881	590.38
309.111	575.38
309.341	569.38
309.571	567.38
309.8	568.38
310.03	584.38
310.26	555.38
310.49	589.38
310.72	597.38
310.949	579.38
311.179	609.38
311.409	580.38
311.639	589.38
311.868	589.38
312.098	614.38
312.328	608.38
312.557	607.38
312.787	609.38
313.017	624.38
313.246	624.38
313.476	608.38
313.706	645.38
313.935	621.38
314.165	648.38
314.394	628.38
314.624	627.38
314.853	617.38
315.083	633.38
315.312	625.38
315.542	643.38
315.771	620.38
316.001	641.38
316.23	642.38
316.46	625.38
316.689	624.38
316.919	614.38
317.148	623.38
317.377	637.38
317.607	624.38
317.836	597.38
318.065	615.38
318.295	627.38
318.524	609.38
318.753	615.38
318.983	624.38
319.212	606.38
319.441	615.38
319.67	622.38
319.9	635.38
320.129	634.38
320.358	614.38
320.587	617.38
320.816	610.38
321.046	635.38
321.275	622.38
321.504	639.38
321.733	645.38
321.962	658.38
322.191	620.38
322.42	622.38
322.649	634.38
322.878	643.38
323.108	629.38
323.337	629.38
323.566	628.38
323.795	616.38
324.024	635.38
324.253	645.38
324.482	636.38
324.71	631.38
324.939	634.38
325.168	632.38
325.397	672.38
325.626	677.38
325.855	685.38
326.084	679.38
326.313	672.38
326.542	675.38
326.77	657.38
326.999	663.38
327.228	677.38
327.457	684.38
327.686	674.38
327.914	674.38
328.143	680.38
328.372	686.38
328.6	679.38
328.829	688.38
329.058	694.38
329.287	703.38
329.515	673.38
329.744	686.38
329.972	683.38
330.201	695.38
330.43	696.38
330.658	705.38
330.887	692.38
331.115	720.38
331.344	694.38
331.572	717.38
331.801	744.38
332.03	755.38
332.258	768.38
332.486	779.38
332.715	802.38
332.943	837.38
333.172	866.38
333.4	896.38
333.629	908.38
333.857	908.38
334.085	916.38
334.314	891.38
334.542	885.38
334.771	857.38
334.999	846.38
335.227	848.38
335.455	868.38
335.684	826.38
335.912	828.38
336.14	834.38
336.369	824.38
336.597	799.38
336.825	809.38
337.053	812.38
337.281	821.38
337.51	819.38
337.738	787.38
337.966	786.38
338.194	761.38
338.422	748.38
338.65	742.38
338.878	766.38
339.106	730.38
339.334	743.38
339.562	730.38
339.79	737.38
340.018	726.38
340.246	733.38
340.474	697.38
340.702	721.38
340.93	708.38
341.158	697.38
341.386	730.38
341.614	716.38
341.842	709.38
342.07	705.38
342.298	723.38
342.526	703.38
342.754	723.38
342.981	731.38
343.209	728.38
343.437	775.38
343.665	805.38
343.893	852.38
344.12	875.38
344.348	831.38
344.576	789.38
344.804	744.38
345.031	725.38
345.259	755.38
345.487	718.38
345.714	717.38
345.942	683.38
346.17	689.38
346.397	699.38
346.625	702.38
346.853	673.38
347.08	668.38
347.308	678.38
347.535	695.38
347.763	709.38
347.99	705.38
348.218	705.38
348.445	683.38
348.673	688.38
348.9	697.38
349.128	688.38
349.355	675.38
349.583	682.38
349.81	687.38
350.037	645.38
350.265	688.38
350.492	648.38
350.72	675.38
350.947	651.38
351.174	661.38
351.402	661.38
351.629	664.38
351.856	663.38
352.083	677.38
352.311	649.38
352.538	657.38
352.765	664.38
352.992	658.38
353.22	648.38
353.447	653.38
353.674	665.38
353.901	656.38
354.128	662.38
354.355	649.38
354.583	659.38
354.81	675.38
355.037	685.38
355.264	676.38
355.491	657.38
355.718	689.38
355.945	655.38
356.172	686.38
356.399	694.38
356.626	665.38
356.853	670.38
357.08	669.38
357.307	681.38
357.534	666.38
357.761	656.38
357.988	668.38
358.215	671.38
358.441	673.38
358.668	665.38
358.895	675.38
359.122	675.38
359.349	675.38
359.576	684.38
359.802	661.38
360.029	678.38
360.256	657.38
360.483	681.38
360.709	630.38
360.936	695.38
361.163	671.38
361.39	657.38
361.616	675.38
361.843	668.38
362.07	669.38
362.296	664.38
362.523	667.38
362.749	665.38
362.976	661.38
363.203	662.38
363.429	660.38
363.656	651.38
363.882	668.38
364.109	653.38
364.335	654.38
364.562	641.38
364.788	668.38
365.015	681.38
365.241	651.38
365.468	660.38
365.694	665.38
365.92	654.38
366.147	653.38
366.373	682.38
366.599	667.38
366.826	650.38
367.052	665.38
367.278	653.38
367.505	674.38
367.731	667.38
367.957	658.38
368.184	657.38
368.41	679.38
368.636	671.38
368.862	701.38
369.089	677.38
369.315	681.38
369.541	685.38
369.767	678.38
369.993	704.38
370.219	703.38
370.445	687.38
370.672	708.38
370.898	718.38
371.124	693.38
371.35	723.38
371.576	745.38
371.802	742.38
372.028	716.38
372.254	718.38
372.48	719.38
372.706	743.38
372.932	757.38
373.158	749.38
373.384	761.38
373.61	722.38
373.835	719.38
374.061	731.38
374.287	717.38
374.513	733.38
374.739	763.38
374.965	765.38
375.191	813.38
375.416	813.38
375.642	773.38
375.868	785.38
376.094	751.38
376.319	723.38
376.545	744.38
376.771	743.38
376.997	736.38
377.222	745.38
377.448	721.38
377.674	715.38
377.899	711.38
378.125	724.38
378.35	705.38
378.576	729.38
378.802	734.38
379.027	717.38
379.253	713.38
379.478	714.38
379.704	727.38
379.929	720.38
380.155	685.38
380.38	707.38
380.606	735.38
380.831	730.38
381.057	710.38
381.282	715.38
381.507	720.38
381.733	744.38
381.958	735.38
382.184	718.38
382.409	719.38
382.634	749.38
382.86	759.38
383.085	793.38
383.31	790.38
383.535	788.38
383.761	780.38
383.986	812.38
384.211	833.38
384.436	835.38
384.662	835.38
384.887	840.38
385.112	871.38
385.337	875.38
385.562	867.38
385.787	870.38
386.013	881.38
386.238	877.38
386.463	891.38
386.688	871.38
386.913	855.38
387.138	871.38
387.363	864.38
387.588	849.38
387.813	877.38
388.038	869.38
388.263	849.38
388.488	848.38
388.713	858.38
388.938	873.38
389.163	833.38
389.387	830.38
389.612	860.38
389.837	831.38
390.062	856.38
390.287	884.38
390.512	848.38
390.736	875.38
390.961	910.38
391.186	880.38
391.411	908.38
391.636	921.38
391.86	999.38
392.085	965.38
392.31	998.38
392.534	958.38
392.759	935.38
392.984	923.38
393.208	900.38
393.433	922.38
393.658	919.38
393.882	939.38
394.107	906.38
394.331	958.38
394.556	934.38
394.78	944.38
395.005	947.38
395.229	938.38
395.454	962.38
395.678	966.38
395.903	951.38
396.127	959.38
396.352	949.38
396.576	912.38
396.801	931.38
397.025	947.38
397.249	932.38
397.474	967.38
397.698	953.38
397.922	998.38
398.147	973.38
398.371	987.38
398.595	1031.38
398.82	1055.38
399.044	1130.38
399.268	1258.38
399.492	1464.38
399.717	1639.38
399.941	1606.38
400.165	1459.38
400.389	1270.38
400.613	1207.38
400.837	1156.38
401.062	1131.38
401.286	1130.38
401.51	1118.38
401.734	1086.38
401.958	1132.38
402.182	1135.38
402.406	1128.38
402.63	1122.38
402.854	1144.38
403.078	1189.38
403.302	1186.38
403.526	1183.38
403.75	1237.38
403.974	1259.38
404.198	1294.38
404.422	1270.38
404.645	1232.38
404.869	1254.38
405.093	1209.38
405.317	1220.38
405.541	1219.38
405.765	1163.38
405.988	1191.38
406.212	1189.38
406.436	1189.38
406.66	1250.38
406.883	1258.38
407.107	1290.38
407.331	1367.38
407.555	1418.38
407.778	1411.38
408.002	1378.38
408.226	1349.38
408.449	1320.38
408.673	1253.38
408.896	1239.38
409.12	1222.38
409.344	1268.38
409.567	1214.38
409.791	1265.38
410.014	1223.38
410.238	1227.38
410.461	1199.38
410.685	1188.38
410.908	1192.38
411.132	1190.38
411.355	1139.38
411.578	1120.38
411.802	1155.38
412.025	1127.38
412.249	1199.38
412.472	1155.38
412.695	1148.38
412.919	1116.38
413.142	1087.38
413.365	1113.38
413.589	1103.38
413.812	1072.38
414.035	1077.38
414.258	1085.38
414.482	1072.38
414.705	1106.38
414.928	1099.38
415.151	1110.38
415.374	1073.38
415.597	1059.38
415.821	1086.38
416.044	1031.38
416.267	1064.38
416.49	1052.38
416.713	1077.38
416.936	1089.38
417.159	1073.38
417.382	1053.38
417.605	1068.38
417.828	1060.38
418.051	1082.38
418.274	1134.38
418.497	1080.38
418.72	1102.38
418.943	1094.38
419.166	1158.38
419.389	1215.38
419.611	1216.38
419.834	1136.38
420.057	1148.38
420.28	1095.38
420.503	1040.38
420.726	1054.38
420.948	1062.38
421.171	1065.38
421.394	1071.38
421.617	1047.38
421.839	1055.38
422.062	1076.38
422.285	1055.38
422.507	1092.38
422.73	1122.38
422.953	1096.38
423.175	1105.38
423.398	1117.38
423.621	1127.38
423.843	1135.38
424.066	1129.38
424.288	1116.38
424.511	1130.38
424.733	1139.38
424.956	1102.38
425.178	1077.38
425.401	1058.38
425.623	1059.38
425.846	1004.38
426.068	1048.38
426.291	1027.38
426.513	1051.38
426.735	1013.38
426.958	985.38
427.18	973.38
427.402	981.38
427.625	965.38
427.847	944.38
428.069	945.38
428.292	979.38
428.514	945.38
428.736	955.38
428.958	972.38
429.181	942.38
429.403	917.38
429.625	919.38
429.847	937.38
430.069	926.38
430.292	947.38
430.514	910.38
430.736	927.38
430.958	927.38
431.18	923.38
431.402	955.38
431.624	942.38
431.846	946.38
432.068	971.38
432.29	949.38
432.512	926.38
432.734	976.38
432.956	959.38
433.178	965.38
433.4	959.38
433.622	953.38
433.844	973.38
434.066	977.38
434.287	989.38
434.509	1035.38
434.731	1043.38
434.953	1072.38
435.175	1111.38
435.397	1051.38
435.618	1038.38
435.84	1007.38
436.062	983.38
436.284	958.38
436.505	934.38
436.727	941.38
436.949	951.38
437.17	940.38
437.392	943.38
437.614	927.38
437.835	904.38
438.057	920.38
438.278	894.38
438.5	907.38
438.721	909.38
438.943	928.38
439.165	923.38
439.386	911.38
439.608	944.38
439.829	939.38
440.05	968.38
440.272	943.38
440.493	961.38
440.715	944.38
440.936	1006.38
441.158	986.38
441.379	989.38
441.6	1040.38
441.822	1072.38
442.043	1065.38
442.264	1048.38
442.486	1021.38
442.707	1053.38
442.928	1046.38
443.149	1047.38
443.371	1047.38
443.592	1055.38
443.813	1059.38
444.034	1088.38
444.255	1117.38
444.476	1149.38
444.698	1225.38
444.919	1276.38
445.14	1317.38
445.361	1184.38
445.582	1095.38
445.803	1055.38
446.024	1009.38
446.245	979.38
446.466	974.38
446.687	936.38
446.908	955.38
447.129	922.38
447.35	915.38
447.571	925.38
447.792	897.38
448.013	927.38
448.234	885.38
448.455	889.38
448.675	869.38
448.896	891.38
449.117	849.38
449.338	851.38
449.559	845.38
449.779	833.38
450	842.38
450.221	877.38
450.442	888.38
450.662	878.38
450.883	899.38
451.104	880.38
451.324	896.38
451.545	889.38
451.766	924.38
451.986	899.38
452.207	855.38
452.428	867.38
452.648	851.38
452.869	871.38
453.089	829.38
453.31	867.38
453.53	828.38
453.751	859.38
453.971	836.38
454.192	832.38
454.412	813.38
454.633	819.38
454.853	824.38
455.073	810.38
455.294	831.38
455.514	815.38
455.734	858.38
455.955	811.38
456.175	781.38
456.395	806.38
456.616	782.38
456.836	819.38
457.056	809.38
457.276	789.38
457.497	819.38
457.717	809.38
457.937	787.38
458.157	874.38
458.377	839.38
458.598	846.38
458.818	869.38
459.038	892.38
459.258	935.38
459.478	957.38
459.698	981.38
459.918	1035.38
460.138	1030.38
460.358	1086.38
460.578	1082.38
460.798	1102.38
461.018	1122.38
461.238	1131.38
461.458	1077.38
461.678	1110.38
461.898	1155.38
462.118	1148.38
462.338	1200.38
462.558	1228.38
462.777	1254.38
462.997	1342.38
463.217	1507.38
463.437	1451.38
463.657	1370.38
463.876	1319.38
464.096	1285.38
464.316	1318.38
464.536	1321.38
464.755	1251.38
464.975	1187.38
465.195	1158.38
465.414	1094.38
465.634	1011.38
465.854	980.38
466.073	963.38
466.293	965.38
466.512	913.38
466.732	947.38
466.951	895.38
467.171	919.38
467.391	935.38
467.61	926.38
467.829	894.38
468.049	880.38
468.268	883.38
468.488	859.38
468.707	875.38
468.927	872.38
469.146	853.38
469.365	889.38
469.585	927.38
469.804	918.38
470.023	919.38
470.243	917.38
470.462	941.38
470.681	966.38
470.901	952.38
471.12	932.38
471.339	921.38
471.558	913.38
471.777	893.38
471.997	867.38
472.216	887.38
472.435	868.38
472.654	871.38
472.873	832.38
473.092	841.38
473.311	854.38
473.53	851.38
473.749	859.38
473.968	855.38
474.187	867.38
474.406	825.38
474.625	865.38
474.844	843.38
475.063	852.38
475.282	854.38
475.501	864.38
475.72	867.38
475.939	868.38
476.158	874.38
476.377	890.38
476.596	901.38
476.814	892.38
477.033	910.38
477.252	928.38
477.471	938.38
477.69	985.38
477.908	965.38
478.127	1031.38
478.346	1035.38
478.564	1016.38
478.783	1037.38
479.002	1086.38
479.22	1045.38
479.439	1059.38
479.658	1061.38
479.876	1062.38
480.095	1098.38
480.313	1137.38
480.532	1166.38
480.751	1115.38
480.969	1099.38
481.188	1068.38
481.406	1050.38
481.624	1029.38
481.843	988.38
482.061	1007.38
482.28	991.38
482.498	956.38
482.717	971.38
482.935	981.38
483.153	998.38
483.372	976.38
483.59	981.38
483.808	985.38
484.027	997.38
484.245	995.38
484.463	1008.38
484.681	998.38
484.9	1023.38
485.118	998.38
485.336	1025.38
485.554	1027.38
485.772	1052.38
485.99	1026.38
486.209	1059.38
486.427	1041.38
486.645	1050.38
486.863	1078.38
487.081	1037.38
487.299	1042.38
487.517	1054.38
487.735	1039.38
487.953	1029.38
488.171	1022.38
488.389	1007.38
488.607	1021.38
488.825	1006.38
489.043	1008.38
489.261	1000.38
489.479	1021.38
489.696	1031.38
489.914	1030.38
490.132	1034.38
490.35	1040.38
490.568	1022.38
490.786	1062.38
491.003	1040.38
491.221	1039.38
491.439	1043.38
491.657	1037.38
491.874	1065.38
492.092	1090.38
492.31	1080.38
492.527	1079.38
492.745	1073.38
492.963	1072.38
493.18	1080.38
493.398	1063.38
493.615	1077.38
493.833	1105.38
494.05	1070.38
494.268	1091.38
494.485	1135.38
494.703	1097.38
494.92	1105.38
495.138	1084.38
495.355	1139.38
495.573	1123.38
495.79	1092.38
496.008	1131.38
496.225	1147.38
496.442	1149.38
496.66	1142.38
496.877	1132.38
497.094	1161.38
497.312	1209.38
497.529	1226.38
497.746	1261.38
497.963	1289.38
498.181	1352.38
498.398	1411.38
498.615	1471.38
498.832	1574.38
499.049	1687.38
499.267	1857.38
499.484	1950.38
499.701	2175.38
499.918	2408.38
500.135	2768.38
500.352	3110.38
500.569	3310.38
500.786	3226.38
501.003	2967.38
501.22	2679.38
501.437	2371.38
501.654	2107.38
501.871	1896.38
502.088	1786.38
502.305	1677.38
502.522	1585.38
502.739	1517.38
502.956	1438.38
503.172	1409.38
503.389	1351.38
503.606	1271.38
503.823	1245.38
504.04	1233.38
504.256	1244.38
504.473	1292.38
504.69	1344.38
504.907	1271.38
505.123	1173.38
505.34	1153.38
505.557	1111.38
505.773	1064.38
505.99	1056.38
506.207	1051.38
506.423	1001.38
506.64	1019.38
506.856	992.38
507.073	1011.38
507.289	994.38
507.506	955.38
507.722	977.38
507.939	967.38
508.155	934.38
508.372	933.38
508.588	932.38
508.805	920.38
509.021	955.38
509.238	923.38
509.454	919.38
509.67	910.38
509.887	876.38
510.103	891.38
510.319	917.38
510.536	901.38
510.752	892.38
510.968	892.38
511.184	881.38
511.401	878.38
511.617	895.38
511.833	867.38
512.049	869.38
512.265	871.38
512.481	880.38
512.698	889.38
512.914	883.38
513.13	873.38
513.346	884.38
513.562	880.38
513.778	885.38
513.994	891.38
514.21	886.38
514.426	894.38
514.642	921.38
514.858	907.38
515.074	914.38
515.29	925.38
515.506	933.38
515.721	918.38
515.937	955.38
516.153	967.38
516.369	969.38
516.585	1029.38
516.801	1066.38
517.016	1051.38
517.232	1143.38
517.448	1200.38
517.664	1236.38
517.879	1216.38
518.095	1259.38
518.311	1185.38
518.527	1163.38
518.742	1105.38
518.958	1078.38
519.173	1054.38
519.389	992.38
519.605	960.38
519.82	948.38
520.036	940.38
520.251	927.38
520.467	927.38
520.682	904.38
520.898	878.38
521.113	862.38
521.329	864.38
521.544	863.38
521.76	870.38
521.975	841.38
522.19	847.38
522.406	813.38
522.621	797.38
522.836	822.38
523.052	846.38
523.267	810.38
523.482	849.38
523.698	833.38
523.913	827.38
524.128	809.38
524.343	839.38
524.559	814.38
524.774	798.38
524.989	829.38
525.204	825.38
525.419	798.38
525.634	805.38
525.849	821.38
526.064	827.38
526.28	825.38
526.495	789.38
526.71	792.38
526.925	779.38
527.14	814.38
527.355	787.38
527.57	769.38
527.785	785.38
527.999	812.38
528.214	796.38
528.429	783.38
528.644	804.38
528.859	813.38
529.074	804.38
529.289	790.38
529.503	821.38
529.718	800.38
529.933	803.38
530.148	788.38
530.363	805.38
530.577	771.38
530.792	793.38
531.007	801.38
531.221	807.38
531.436	771.38
531.651	800.38
531.865	769.38
532.08	810.38
532.295	801.38
532.509	793.38
532.724	781.38
532.938	795.38
533.153	766.38
533.367	802.38
533.582	811.38
533.796	789.38
534.011	780.38
534.225	763.38
534.44	777.38
534.654	798.38
534.868	769.38
535.083	739.38
535.297	767.38
535.511	751.38
535.726	777.38
535.94	753.38
536.154	732.38
536.369	759.38
536.583	737.38
536.797	740.38
537.011	741.38
537.225	723.38
537.44	723.38
537.654	756.38
537.868	740.38
538.082	724.38
538.296	733.38
538.51	727.38
538.724	735.38
538.938	719.38
539.153	721.38
539.367	729.38
539.581	694.38
539.795	699.38
540.009	746.38
540.222	715.38
540.436	696.38
540.65	725.38
540.864	713.38
541.078	719.38
541.292	703.38
541.506	700.38
541.72	702.38
541.934	707.38
542.147	725.38
542.361	709.38
542.575	700.38
542.789	693.38
543.002	699.38
543.216	718.38
543.43	718.38
543.644	678.38
543.857	705.38
544.071	687.38
544.285	727.38
544.498	702.38
544.712	705.38
544.925	724.38
545.139	719.38
545.352	709.38
545.566	721.38
545.779	728.38
545.993	742.38
546.206	751.38
546.42	728.38
546.633	734.38
546.847	733.38
547.06	718.38
547.274	742.38
547.487	716.38
547.7	752.38
547.914	742.38
548.127	750.38
548.34	741.38
548.554	738.38
548.767	741.38
548.98	746.38
549.193	754.38
549.407	746.38
549.62	742.38
549.833	759.38
550.046	743.38
550.259	718.38
550.473	715.38
550.686	730.38
550.899	716.38
551.112	713.38
551.325	703.38
551.538	731.38
551.751	717.38
551.964	739.38
552.177	751.38
552.39	728.38
552.603	743.38
552.816	782.38
553.029	790.38
553.242	783.38
553.455	795.38
553.667	776.38
553.88	750.38
554.093	775.38
554.306	721.38
554.519	735.38
554.732	724.38
554.944	710.38
555.157	690.38
555.37	699.38
555.583	688.38
555.795	676.38
556.008	667.38
556.221	651.38
556.433	656.38
556.646	643.38
556.859	642.38
557.071	630.38
557.284	641.38
557.496	605.38
557.709	639.38
557.921	623.38
558.134	655.38
558.346	614.38
558.559	641.38
558.771	610.38
558.984	600.38
559.196	622.38
559.409	615.38
559.621	608.38
559.833	593.38
560.046	624.38
560.258	591.38
560.47	582.38
560.683	577.38
560.895	583.38
561.107	622.38
561.32	592.38
561.532	601.38
561.744	596.38
561.956	571.38
562.168	576.38
562.381	603.38
562.593	593.38
562.805	605.38
563.017	593.38
563.229	585.38
563.441	599.38
563.653	593.38
563.865	589.38
564.077	631.38
564.289	621.38
564.501	631.38
564.713	619.38
564.925	639.38
565.137	643.38
565.349	656.38
565.561	707.38
565.773	686.38
565.985	735.38
566.197	773.38
566.408	833.38
566.62	909.38
566.832	961.38
567.044	982.38
567.255	1003.38
567.467	988.38
567.679	1041.38
567.891	1121.38
568.102	1130.38
568.314	1102.38
568.526	958.38
568.737	892.38
568.949	821.38
569.161	745.38
569.372	718.38
569.584	695.38
569.795	661.38
570.007	654.38
570.218	629.38
570.43	629.38
570.641	616.38
570.853	613.38
571.064	622.38
571.276	631.38
571.487	586.38
571.698	573.38
571.91	550.38
572.121	549.38
572.333	522.38
572.544	550.38
572.755	504.38
572.966	519.38
573.178	507.38
573.389	511.38
573.6	507.38
573.811	493.38
574.023	505.38
574.234	491.38
574.445	485.38
574.656	494.38
574.867	511.38
575.078	472.38
575.289	478.38
575.501	494.38
575.712	487.38
575.923	453.38
576.134	470.38
576.345	461.38
576.556	465.38
576.767	462.38
576.978	455.38
577.188	475.38
577.399	455.38
577.61	451.38
577.821	436.38
578.032	462.38
578.243	457.38
578.454	460.38
578.665	427.38
578.875	432.38
579.086	452.38
579.297	425.38
579.508	420.38
579.718	416.38
579.929	451.38
580.14	414.38
580.35	422.38
580.561	431.38
580.772	419.38
580.982	431.38
581.193	437.38
581.403	430.38
581.614	425.38
581.825	398.38
582.035	403.38
582.246	411.38
582.456	411.38
582.667	408.38
582.877	410.38
583.087	411.38
583.298	407.38
583.508	427.38
583.719	409.38
583.929	399.38
584.139	401.38
584.35	391.38
584.56	414.38
584.77	392.38
584.981	392.38
585.191	400.38
585.401	406.38
585.611	397.38
585.821	409.38
586.032	396.38
586.242	415.38
586.452	405.38
586.662	405.38
586.872	385.38
587.082	395.38
587.292	393.38
587.502	381.38
587.713	367.38
587.923	399.38
588.133	396.38
588.343	380.38
588.553	384.38
588.762	397.38
588.972	394.38
589.182	405.38
589.392	399.38
589.602	384.38
589.812	402.38
590.022	399.38
590.232	399.38
590.441	408.38
590.651	412.38
590.861	397.38
591.071	385.38
591.281	425.38
591.49	409.38
591.7	417.38
591.91	424.38
592.119	424.38
592.329	428.38
592.539	452.38
592.748	457.38
592.958	491.38
593.167	476.38
593.377	509.38
593.587	495.38
593.796	499.38
594.006	527.38
594.215	517.38
594.424	491.38
594.634	499.38
594.843	459.38
595.053	449.38
595.262	431.38
595.472	442.38
595.681	422.38
595.89	400.38
596.1	403.38
596.309	395.38
596.518	395.38
596.727	391.38
596.937	384.38
597.146	383.38
597.355	365.38
597.564	352.38
597.774	368.38
597.983	347.38
598.192	345.38
598.401	366.38
598.61	340.38
598.819	341.38
599.028	329.38
599.237	340.38
599.446	335.38
599.655	352.38
599.864	349.38
600.073	349.38
600.282	339.38
600.491	348.38
600.7	332.38
600.909	343.38
601.118	350.38
601.327	336.38
601.536	339.38
601.745	355.38
601.953	306.38
602.162	328.38
602.371	324.38
602.58	327.38
602.789	336.38
602.997	336.38
603.206	318.38
603.415	319.38
603.623	308.38
603.832	327.38
604.041	312.38
604.249	317.38
604.458	302.38
604.666	313.38
604.875	297.38
605.084	315.38
605.292	321.38
605.501	331.38
605.709	295.38
605.918	298.38
606.126	311.38
606.334	300.38
606.543	299.38
606.751	323.38
606.96	309.38
607.168	307.38
607.376	298.38
607.585	296.38
607.793	303.38
608.001	288.38
608.21	305.38
608.418	310.38
608.626	320.38
608.834	304.38
609.043	304.38
609.251	292.38
609.459	303.38
609.667	299.38
609.875	311.38
610.083	296.38
610.291	293.38
610.499	294.38
610.707	305.38
610.916	297.38
611.124	280.38
611.332	293.38
611.54	290.38
611.748	286.38
611.955	295.38
612.163	301.38
612.371	294.38
612.579	292.38
612.787	279.38
612.995	297.38
613.203	282.38
613.411	299.38
613.618	293.38
613.826	300.38
614.034	308.38
614.242	295.38
614.449	286.38
614.657	281.38
614.865	312.38
615.072	279.38
615.28	284.38
615.488	288.38
615.695	281.38
615.903	283.38
616.111	299.38
616.318	293.38
616.526	290.38
616.733	275.38
616.941	280.38
617.148	287.38
617.356	292.38
617.563	296.38
617.771	281.38
617.978	280.38
618.185	281.38
618.393	280.38
618.6	276.38
618.807	285.38
619.015	296.38
619.222	281.38
619.429	291.38
619.637	295.38
619.844	276.38
620.051	279.38
620.258	266.38
620.466	252.38
620.673	259.38
620.88	251.38
621.087	257.38
621.294	249.38
621.501	275.38
621.708	268.38
621.915	274.38
622.122	272.38
622.329	255.38
622.536	275.38
622.743	264.38
622.95	263.38
623.157	257.38
623.364	267.38
623.571	262.38
623.778	249.38
623.985	238.38
624.192	257.38
624.399	263.38
624.606	270.38
624.812	255.38
625.019	264.38
625.226	251.38
625.433	248.38
625.639	244.38
625.846	253.38
626.053	245.38
626.259	238.38
626.466	232.38
626.673	238.38
626.879	217.38
627.086	233.38
627.293	245.38
627.499	231.38
627.706	235.38
627.912	247.38
628.119	241.38
628.325	231.38
628.532	246.38
628.738	240.38
628.945	225.38
629.151	237.38
629.357	239.38
629.564	247.38
629.77	219.38
629.976	227.38
630.183	238.38
630.389	240.38
630.595	236.38
630.802	222.38
631.008	219.38
631.214	215.38
631.42	223.38
631.627	230.38
631.833	199.38
632.039	224.38
632.245	219.38
632.451	217.38
632.657	216.38
632.863	219.38
633.069	214.38
633.275	224.38
633.481	219.38
633.688	228.38
633.893	208.38
634.099	225.38
634.305	228.38
634.511	220.38
634.717	205.38
634.923	218.38
635.129	223.38
635.335	221.38
635.541	209.38
635.747	210.38
635.952	203.38
636.158	231.38
636.364	206.38
636.57	219.38
636.775	224.38
636.981	203.38
637.187	194.38
637.392	200.38
637.598	195.38
637.804	219.38
638.009	191.38
638.215	195.38
638.421	213.38
638.626	199.38
638.832	187.38
639.037	203.38
639.243	190.38
639.448	191.38
639.654	207.38
639.859	199.38
640.065	194.38
640.27	200.38
640.475	204.38
640.681	189.38
640.886	191.38
641.091	199.38
641.297	210.38
641.502	193.38
641.707	195.38
641.913	197.38
642.118	184.38
642.323	196.38
642.528	186.38
642.733	187.38
642.939	190.38
643.144	210.38
643.349	209.38
643.554	199.38
643.759	191.38
643.964	181.38
644.169	199.38
644.374	183.38
644.579	180.38
644.784	207.38
644.989	199.38
645.194	203.38
645.399	192.38
645.604	197.38
645.809	191.38
646.014	169.38
646.219	188.38
646.423	187.38
646.628	202.38
646.833	194.38
647.038	197.38
647.243	205.38
647.447	200.38
647.652	185.38
647.857	184.38
648.062	211.38
648.266	207.38
648.471	200.38
648.676	214.38
648.88	196.38
649.085	203.38
649.289	191.38
649.494	202.38
649.698	180.38
649.903	186.38
650.107	198.38
650.312	181.38
650.516	177.38
650.721	167.38
650.925	180.38
651.13	181.38
651.334	176.38
651.539	179.38
651.743	167.38
651.947	176.38
652.152	162.38
652.356	174.38
652.56	164.38
652.764	159.38
652.969	157.38
653.173	161.38
653.377	161.38
653.581	153.38
653.785	154.38
653.99	145.38
654.194	150.38
654.398	147.38
654.602	171.38
654.806	144.38
655.01	151.38
655.214	138.38
655.418	146.38
655.622	145.38
655.826	153.38
656.03	153.38
656.234	149.38
656.438	147.38
656.642	152.38
656.846	139.38
657.049	135.38
657.253	139.38
657.457	128.38
657.661	135.38
657.865	131.38
658.068	132.38
658.272	131.38
658.476	121.38
658.68	108.38
658.883	119.38
659.087	101.38
659.291	104.38
659.494	104.38
659.698	104.38
659.901	94.38
660.105	118.38
660.309	113.38
660.512	94.38
660.716	103.38
660.919	106.38
661.123	81.38
661.326	102.38
661.53	96.38
661.733	98.38
661.936	95.38
662.14	89.38
662.343	82.38
662.546	64.38
662.75	77.38
662.953	106.38
663.156	86.38
663.36	87.38
663.563	77.38
663.766	87.38
663.969	89.38
664.173	78.38
664.376	68.38
664.579	89.38
664.782	80.38
664.985	88.38
665.188	101.38
665.391	89.38
665.594	88.38
665.797	93.38
666	89.38
666.203	92.38
666.406	80.38
666.609	79.38
666.812	78.38
667.015	101.38
667.218	73.38
667.421	82.38
667.624	76.38
667.827	94.38
668.03	86.38
668.232	97.38
668.435	89.38
668.638	76.38
668.841	94.38
669.043	79.38
669.246	79.38
669.449	88.38
669.651	78.38
669.854	87.38
670.057	86.38
670.259	93.38
670.462	92.38
670.665	95.38
670.867	97.38
671.07	79.38
671.272	99.38
671.475	91.38
671.677	83.38
671.88	71.38
672.082	75.38
672.284	76.38
672.487	86.38
672.689	81.38
672.892	85.38
