Data from NiCl2@0.5M.TitratingCurve.Agarose3%dH2O.NegLispCup.LampEnergy10.LIBS07252019_HRD10591_18-20-08-571.txt Node
Date: Thu Jul 25 18:20:08 EDT 2019
User: cochatt
Spectrometer: HR+D1059
Trigger mode: 1
Integration Time (sec): 1.000000E-1
Scans to average: 1
Electric dark correction enabled: true
Nonlinearity correction enabled: false
Boxcar width: 0
XAxis mode: Wavelengths
Number of Pixels in Spectrum: 2048
>>>>>Begin Spectral Data<<<<<
223.165	-2.62
223.4	-2.62
223.635	-2.62
223.869	-5.62
224.104	-32.62
224.338	-16.62
224.573	-17.62
224.808	-22.62
225.042	-3.62
225.277	-13.62
225.511	-12.62
225.746	8.38
225.98	9.38
226.215	10.38
226.449	23.38
226.683	26.38
226.918	32.38
227.152	17.38
227.387	38.38
227.621	37.38
227.856	33.38
228.09	54.38
228.324	48.38
228.559	58.38
228.793	79.38
229.027	111.38
229.262	137.38
229.496	137.38
229.73	147.38
229.964	142.38
230.199	163.38
230.433	170.38
230.667	173.38
230.901	179.38
231.136	150.38
231.37	160.38
231.604	168.38
231.838	194.38
232.072	175.38
232.306	184.38
232.541	169.38
232.775	169.38
233.009	182.38
233.243	192.38
233.477	177.38
233.711	177.38
233.945	184.38
234.179	166.38
234.413	173.38
234.647	166.38
234.881	177.38
235.115	170.38
235.349	181.38
235.583	173.38
235.817	172.38
236.051	187.38
236.285	188.38
236.519	175.38
236.753	173.38
236.987	163.38
237.221	180.38
237.455	202.38
237.689	184.38
237.922	193.38
238.156	203.38
238.39	204.38
238.624	196.38
238.858	210.38
239.091	207.38
239.325	183.38
239.559	213.38
239.793	221.38
240.027	212.38
240.26	196.38
240.494	213.38
240.728	203.38
240.961	216.38
241.195	213.38
241.429	220.38
241.662	220.38
241.896	225.38
242.13	253.38
242.363	237.38
242.597	224.38
242.83	237.38
243.064	242.38
243.298	221.38
243.531	239.38
243.765	228.38
243.998	240.38
244.232	255.38
244.465	255.38
244.699	258.38
244.932	243.38
245.166	244.38
245.399	258.38
245.633	265.38
245.866	268.38
246.099	247.38
246.333	246.38
246.566	265.38
246.8	249.38
247.033	256.38
247.266	259.38
247.5	264.38
247.733	269.38
247.966	266.38
248.2	289.38
248.433	285.38
248.666	271.38
248.899	285.38
249.133	298.38
249.366	299.38
249.599	285.38
249.832	294.38
250.066	296.38
250.299	290.38
250.532	299.38
250.765	294.38
250.998	327.38
251.231	310.38
251.465	329.38
251.698	308.38
251.931	338.38
252.164	315.38
252.397	303.38
252.63	311.38
252.863	342.38
253.096	339.38
253.329	340.38
253.562	333.38
253.795	329.38
254.028	337.38
254.261	329.38
254.494	330.38
254.727	330.38
254.96	352.38
255.193	332.38
255.426	328.38
255.659	343.38
255.892	328.38
256.124	355.38
256.357	351.38
256.59	334.38
256.823	353.38
257.056	359.38
257.289	355.38
257.521	357.38
257.754	363.38
257.987	359.38
258.22	355.38
258.452	375.38
258.685	359.38
258.918	371.38
259.151	383.38
259.383	378.38
259.616	370.38
259.849	379.38
260.081	384.38
260.314	378.38
260.547	385.38
260.779	378.38
261.012	383.38
261.244	394.38
261.477	393.38
261.71	388.38
261.942	397.38
262.175	382.38
262.407	400.38
262.64	398.38
262.872	384.38
263.105	397.38
263.337	384.38
263.57	422.38
263.802	425.38
264.035	432.38
264.267	417.38
264.499	409.38
264.732	410.38
264.964	424.38
265.197	408.38
265.429	431.38
265.661	417.38
265.894	423.38
266.126	431.38
266.358	418.38
266.591	427.38
266.823	448.38
267.055	428.38
267.287	433.38
267.52	461.38
267.752	443.38
267.984	433.38
268.216	453.38
268.448	442.38
268.681	450.38
268.913	467.38
269.145	467.38
269.377	434.38
269.609	433.38
269.841	463.38
270.073	452.38
270.306	468.38
270.538	464.38
270.77	458.38
271.002	463.38
271.234	470.38
271.466	479.38
271.698	457.38
271.93	482.38
272.162	498.38
272.394	495.38
272.626	496.38
272.858	467.38
273.09	472.38
273.322	509.38
273.553	485.38
273.785	511.38
274.017	516.38
274.249	540.38
274.481	523.38
274.713	499.38
274.945	497.38
275.176	485.38
275.408	507.38
275.64	535.38
275.872	495.38
276.104	501.38
276.335	511.38
276.567	503.38
276.799	522.38
277.031	524.38
277.262	546.38
277.494	544.38
277.726	530.38
277.957	553.38
278.189	539.38
278.421	548.38
278.652	536.38
278.884	566.38
279.115	519.38
279.347	554.38
279.579	544.38
279.81	535.38
280.042	553.38
280.273	559.38
280.505	569.38
280.736	576.38
280.968	557.38
281.199	563.38
281.431	571.38
281.662	577.38
281.894	568.38
282.125	592.38
282.356	594.38
282.588	568.38
282.819	577.38
283.051	596.38
283.282	570.38
283.513	574.38
283.745	589.38
283.976	593.38
284.207	586.38
284.439	587.38
284.67	598.38
284.901	612.38
285.132	607.38
285.364	618.38
285.595	619.38
285.826	589.38
286.057	598.38
286.288	604.38
286.52	609.38
286.751	623.38
286.982	623.38
287.213	631.38
287.444	641.38
287.675	641.38
287.906	638.38
288.138	640.38
288.369	629.38
288.6	663.38
288.831	633.38
289.062	620.38
289.293	637.38
289.524	639.38
289.755	636.38
289.986	631.38
290.217	644.38
290.448	636.38
290.679	657.38
290.91	641.38
291.141	613.38
291.371	673.38
291.602	642.38
291.833	647.38
292.064	673.38
292.295	631.38
292.526	643.38
292.757	642.38
292.987	646.38
293.218	608.38
293.449	653.38
293.68	639.38
293.91	649.38
294.141	662.38
294.372	631.38
294.603	663.38
294.833	673.38
295.064	667.38
295.295	680.38
295.525	692.38
295.756	685.38
295.987	671.38
296.217	670.38
296.448	670.38
296.679	691.38
296.909	674.38
297.14	677.38
297.37	693.38
297.601	703.38
297.831	708.38
298.062	695.38
298.292	730.38
298.523	709.38
298.753	709.38
298.984	746.38
299.214	726.38
299.445	712.38
299.675	712.38
299.905	712.38
300.136	736.38
300.366	743.38
300.597	779.38
300.827	756.38
301.057	738.38
301.288	756.38
301.518	716.38
301.748	759.38
301.979	761.38
302.209	718.38
302.439	744.38
302.669	720.38
302.9	742.38
303.13	731.38
303.36	753.38
303.59	762.38
303.82	789.38
304.051	756.38
304.281	773.38
304.511	767.38
304.741	768.38
304.971	742.38
305.201	777.38
305.431	781.38
305.661	755.38
305.891	779.38
306.121	761.38
306.352	747.38
306.582	737.38
306.812	737.38
307.042	756.38
307.272	742.38
307.502	724.38
307.731	747.38
307.961	749.38
308.191	767.38
308.421	731.38
308.651	738.38
308.881	728.38
309.111	762.38
309.341	708.38
309.571	765.38
309.8	757.38
310.03	771.38
310.26	772.38
310.49	811.38
310.72	762.38
310.949	748.38
311.179	748.38
311.409	766.38
311.639	773.38
311.868	764.38
312.098	754.38
312.328	781.38
312.557	795.38
312.787	781.38
313.017	786.38
313.246	798.38
313.476	789.38
313.706	797.38
313.935	795.38
314.165	821.38
314.394	777.38
314.624	791.38
314.853	803.38
315.083	818.38
315.312	797.38
315.542	805.38
315.771	782.38
316.001	800.38
316.23	767.38
316.46	803.38
316.689	795.38
316.919	785.38
317.148	794.38
317.377	808.38
317.607	810.38
317.836	821.38
318.065	827.38
318.295	790.38
318.524	791.38
318.753	798.38
318.983	793.38
319.212	800.38
319.441	821.38
319.67	798.38
319.9	783.38
320.129	805.38
320.358	800.38
320.587	781.38
320.816	822.38
321.046	804.38
321.275	819.38
321.504	806.38
321.733	817.38
321.962	797.38
322.191	797.38
322.42	816.38
322.649	828.38
322.878	812.38
323.108	796.38
323.337	860.38
323.566	848.38
323.795	809.38
324.024	821.38
324.253	824.38
324.482	813.38
324.71	838.38
324.939	846.38
325.168	857.38
325.397	841.38
325.626	848.38
325.855	858.38
326.084	872.38
326.313	861.38
326.542	881.38
326.77	903.38
326.999	866.38
327.228	855.38
327.457	881.38
327.686	853.38
327.914	874.38
328.143	865.38
328.372	873.38
328.6	870.38
328.829	897.38
329.058	886.38
329.287	890.38
329.515	854.38
329.744	880.38
329.972	868.38
330.201	861.38
330.43	893.38
330.658	891.38
330.887	904.38
331.115	897.38
331.344	939.38
331.572	909.38
331.801	926.38
332.03	924.38
332.258	933.38
332.486	923.38
332.715	981.38
332.943	1011.38
333.172	1004.38
333.4	1051.38
333.629	1051.38
333.857	1039.38
334.085	1082.38
334.314	1066.38
334.542	1088.38
334.771	1092.38
334.999	1087.38
335.227	1088.38
335.455	1087.38
335.684	1074.38
335.912	1095.38
336.14	1084.38
336.369	1108.38
336.597	1102.38
336.825	1074.38
337.053	1075.38
337.281	1067.38
337.51	1041.38
337.738	1043.38
337.966	1003.38
338.194	990.38
338.422	1023.38
338.65	979.38
338.878	973.38
339.106	978.38
339.334	948.38
339.562	979.38
339.79	956.38
340.018	922.38
340.246	926.38
340.474	923.38
340.702	917.38
340.93	922.38
341.158	920.38
341.386	961.38
341.614	1017.38
341.842	990.38
342.07	918.38
342.298	913.38
342.526	937.38
342.754	940.38
342.981	918.38
343.209	937.38
343.437	951.38
343.665	1034.38
343.893	1054.38
344.12	1084.38
344.348	1035.38
344.576	1045.38
344.804	1042.38
345.031	974.38
345.259	958.38
345.487	952.38
345.714	932.38
345.942	946.38
346.17	969.38
346.397	952.38
346.625	939.38
346.853	876.38
347.08	873.38
347.308	880.38
347.535	925.38
347.763	918.38
347.99	893.38
348.218	892.38
348.445	904.38
348.673	881.38
348.9	891.38
349.128	895.38
349.355	903.38
349.583	901.38
349.81	870.38
350.037	840.38
350.265	881.38
350.492	856.38
350.72	835.38
350.947	868.38
351.174	864.38
351.402	931.38
351.629	898.38
351.856	908.38
352.083	859.38
352.311	881.38
352.538	907.38
352.765	914.38
352.992	853.38
353.22	851.38
353.447	818.38
353.674	816.38
353.901	816.38
354.128	833.38
354.355	824.38
354.583	808.38
354.81	819.38
355.037	841.38
355.264	816.38
355.491	832.38
355.718	844.38
355.945	863.38
356.172	851.38
356.399	846.38
356.626	852.38
356.853	875.38
357.08	879.38
357.307	838.38
357.534	867.38
357.761	839.38
357.988	844.38
358.215	825.38
358.441	810.38
358.668	826.38
358.895	818.38
359.122	811.38
359.349	815.38
359.576	827.38
359.802	860.38
360.029	839.38
360.256	844.38
360.483	849.38
360.709	836.38
360.936	845.38
361.163	848.38
361.39	836.38
361.616	828.38
361.843	824.38
362.07	897.38
362.296	885.38
362.523	817.38
362.749	830.38
362.976	812.38
363.203	844.38
363.429	809.38
363.656	812.38
363.882	807.38
364.109	841.38
364.335	812.38
364.562	832.38
364.788	815.38
365.015	839.38
365.241	817.38
365.468	817.38
365.694	829.38
365.92	818.38
366.147	811.38
366.373	834.38
366.599	836.38
366.826	807.38
367.052	809.38
367.278	828.38
367.505	806.38
367.731	817.38
367.957	837.38
368.184	826.38
368.41	844.38
368.636	850.38
368.862	842.38
369.089	829.38
369.315	833.38
369.541	851.38
369.767	849.38
369.993	848.38
370.219	839.38
370.445	891.38
370.672	876.38
370.898	845.38
371.124	883.38
371.35	901.38
371.576	894.38
371.802	875.38
372.028	887.38
372.254	871.38
372.48	893.38
372.706	892.38
372.932	895.38
373.158	896.38
373.384	873.38
373.61	887.38
373.835	892.38
374.061	870.38
374.287	860.38
374.513	881.38
374.739	922.38
374.965	919.38
375.191	932.38
375.416	930.38
375.642	932.38
375.868	919.38
376.094	904.38
376.319	896.38
376.545	896.38
376.771	869.38
376.997	873.38
377.222	877.38
377.448	873.38
377.674	883.38
377.899	899.38
378.125	855.38
378.35	866.38
378.576	871.38
378.802	851.38
379.027	854.38
379.253	842.38
379.478	871.38
379.704	877.38
379.929	865.38
380.155	844.38
380.38	873.38
380.606	865.38
380.831	851.38
381.057	857.38
381.282	830.38
381.507	868.38
381.733	881.38
381.958	883.38
382.184	900.38
382.409	897.38
382.634	895.38
382.86	877.38
383.085	908.38
383.31	913.38
383.535	919.38
383.761	920.38
383.986	932.38
384.211	928.38
384.436	954.38
384.662	973.38
384.887	979.38
385.112	963.38
385.337	1005.38
385.562	1012.38
385.787	1015.38
386.013	1016.38
386.238	1024.38
386.463	997.38
386.688	1032.38
386.913	1017.38
387.138	996.38
387.363	1010.38
387.588	990.38
387.813	1031.38
388.038	1020.38
388.263	1022.38
388.488	1027.38
388.713	993.38
388.938	1000.38
389.163	999.38
389.387	1024.38
389.612	971.38
389.837	1013.38
390.062	1000.38
390.287	1005.38
390.512	1014.38
390.736	1012.38
390.961	1035.38
391.186	1046.38
391.411	1062.38
391.636	1080.38
391.86	1121.38
392.085	1131.38
392.31	1113.38
392.534	1083.38
392.759	1089.38
392.984	1085.38
393.208	1081.38
393.433	1100.38
393.658	1129.38
393.882	1071.38
394.107	1091.38
394.331	1084.38
394.556	1084.38
394.78	1076.38
395.005	1115.38
395.229	1073.38
395.454	1109.38
395.678	1164.38
395.903	1137.38
396.127	1124.38
396.352	1090.38
396.576	1056.38
396.801	1087.38
397.025	1118.38
397.249	1145.38
397.474	1180.38
397.698	1139.38
397.922	1144.38
398.147	1174.38
398.371	1210.38
398.595	1183.38
398.82	1274.38
399.044	1340.38
399.268	1371.38
399.492	1476.38
399.717	1597.38
399.941	1667.38
400.165	1541.38
400.389	1478.38
400.613	1417.38
400.837	1362.38
401.062	1349.38
401.286	1336.38
401.51	1251.38
401.734	1278.38
401.958	1233.38
402.182	1284.38
402.406	1291.38
402.63	1287.38
402.854	1308.38
403.078	1316.38
403.302	1291.38
403.526	1318.38
403.75	1347.38
403.974	1349.38
404.198	1349.38
404.422	1339.38
404.645	1325.38
404.869	1343.38
405.093	1327.38
405.317	1350.38
405.541	1347.38
405.765	1370.38
405.988	1325.38
406.212	1362.38
406.436	1378.38
406.66	1398.38
406.883	1414.38
407.107	1477.38
407.331	1453.38
407.555	1539.38
407.778	1514.38
408.002	1558.38
408.226	1511.38
408.449	1519.38
408.673	1420.38
408.896	1439.38
409.12	1449.38
409.344	1437.38
409.567	1410.38
409.791	1377.38
410.014	1382.38
410.238	1375.38
410.461	1408.38
410.685	1378.38
410.908	1351.38
411.132	1361.38
411.355	1283.38
411.578	1312.38
411.802	1299.38
412.025	1331.38
412.249	1328.38
412.472	1333.38
412.695	1315.38
412.919	1299.38
413.142	1279.38
413.365	1277.38
413.589	1272.38
413.812	1287.38
414.035	1248.38
414.258	1288.38
414.482	1311.38
414.705	1292.38
414.928	1281.38
415.151	1286.38
415.374	1315.38
415.597	1256.38
415.821	1255.38
416.044	1254.38
416.267	1239.38
416.49	1236.38
416.713	1236.38
416.936	1291.38
417.159	1233.38
417.382	1239.38
417.605	1216.38
417.828	1247.38
418.051	1232.38
418.274	1259.38
418.497	1232.38
418.72	1279.38
418.943	1237.38
419.166	1348.38
419.389	1410.38
419.611	1392.38
419.834	1371.38
420.057	1322.38
420.28	1292.38
420.503	1232.38
420.726	1202.38
420.948	1221.38
421.171	1234.38
421.394	1227.38
421.617	1220.38
421.839	1268.38
422.062	1264.38
422.285	1224.38
422.507	1257.38
422.73	1261.38
422.953	1248.38
423.175	1289.38
423.398	1260.38
423.621	1257.38
423.843	1267.38
424.066	1286.38
424.288	1263.38
424.511	1253.38
424.733	1263.38
424.956	1237.38
425.178	1267.38
425.401	1246.38
425.623	1271.38
425.846	1237.38
426.068	1237.38
426.291	1215.38
426.513	1237.38
426.735	1234.38
426.958	1203.38
427.18	1210.38
427.402	1211.38
427.625	1198.38
427.847	1185.38
428.069	1167.38
428.292	1226.38
428.514	1203.38
428.736	1163.38
428.958	1213.38
429.181	1161.38
429.403	1147.38
429.625	1162.38
429.847	1137.38
430.069	1173.38
430.292	1173.38
430.514	1144.38
430.736	1180.38
430.958	1149.38
431.18	1153.38
431.402	1153.38
431.624	1163.38
431.846	1172.38
432.068	1165.38
432.29	1203.38
432.512	1146.38
432.734	1188.38
432.956	1153.38
433.178	1192.38
433.4	1202.38
433.622	1238.38
433.844	1184.38
434.066	1175.38
434.287	1198.38
434.509	1229.38
434.731	1260.38
434.953	1282.38
435.175	1299.38
435.397	1299.38
435.618	1225.38
435.84	1197.38
436.062	1194.38
436.284	1203.38
436.505	1201.38
436.727	1196.38
436.949	1164.38
437.17	1183.38
437.392	1164.38
437.614	1151.38
437.835	1125.38
438.057	1137.38
438.278	1097.38
438.5	1115.38
438.721	1165.38
438.943	1163.38
439.165	1175.38
439.386	1157.38
439.608	1184.38
439.829	1173.38
440.05	1159.38
440.272	1178.38
440.493	1189.38
440.715	1198.38
440.936	1217.38
441.158	1225.38
441.379	1226.38
441.6	1307.38
441.822	1302.38
442.043	1300.38
442.264	1264.38
442.486	1267.38
442.707	1252.38
442.928	1271.38
443.149	1266.38
443.371	1279.38
443.592	1313.38
443.813	1291.38
444.034	1316.38
444.255	1320.38
444.476	1378.38
444.698	1411.38
444.919	1431.38
445.14	1516.38
445.361	1433.38
445.582	1357.38
445.803	1326.38
446.024	1269.38
446.245	1243.38
446.466	1247.38
446.687	1229.38
446.908	1183.38
447.129	1172.38
447.35	1169.38
447.571	1193.38
447.792	1148.38
448.013	1143.38
448.234	1097.38
448.455	1136.38
448.675	1110.38
448.896	1101.38
449.117	1088.38
449.338	1101.38
449.559	1081.38
449.779	1088.38
450	1079.38
450.221	1088.38
450.442	1103.38
450.662	1123.38
450.883	1131.38
451.104	1125.38
451.324	1113.38
451.545	1104.38
451.766	1110.38
451.986	1085.38
452.207	1059.38
452.428	1064.38
452.648	1076.38
452.869	1051.38
453.089	1057.38
453.31	1067.38
453.53	1042.38
453.751	1042.38
453.971	1059.38
454.192	1097.38
454.412	1056.38
454.633	1052.38
454.853	1037.38
455.073	1023.38
455.294	1052.38
455.514	1025.38
455.734	1073.38
455.955	1015.38
456.175	1074.38
456.395	1026.38
456.616	1003.38
456.836	1011.38
457.056	1041.38
457.276	1031.38
457.497	1048.38
457.717	1052.38
457.937	1047.38
458.157	1065.38
458.377	1079.38
458.598	1109.38
458.818	1088.38
459.038	1104.38
459.258	1162.38
459.478	1217.38
459.698	1255.38
459.918	1273.38
460.138	1285.38
460.358	1341.38
460.578	1346.38
460.798	1373.38
461.018	1392.38
461.238	1367.38
461.458	1365.38
461.678	1344.38
461.898	1410.38
462.118	1366.38
462.338	1425.38
462.558	1460.38
462.777	1509.38
462.997	1563.38
463.217	1647.38
463.437	1700.38
463.657	1622.38
463.876	1553.38
464.096	1602.38
464.316	1554.38
464.536	1545.38
464.755	1475.38
464.975	1448.38
465.195	1411.38
465.414	1342.38
465.634	1293.38
465.854	1234.38
466.073	1233.38
466.293	1205.38
466.512	1192.38
466.732	1182.38
466.951	1193.38
467.171	1174.38
467.391	1165.38
467.61	1156.38
467.829	1151.38
468.049	1143.38
468.268	1125.38
468.488	1107.38
468.707	1107.38
468.927	1096.38
469.146	1124.38
469.365	1118.38
469.585	1146.38
469.804	1146.38
470.023	1174.38
470.243	1177.38
470.462	1166.38
470.681	1186.38
470.901	1165.38
471.12	1172.38
471.339	1152.38
471.558	1164.38
471.777	1170.38
471.997	1133.38
472.216	1098.38
472.435	1122.38
472.654	1108.38
472.873	1133.38
473.092	1108.38
473.311	1110.38
473.53	1094.38
473.749	1104.38
473.968	1105.38
474.187	1113.38
474.406	1114.38
474.625	1107.38
474.844	1136.38
475.063	1119.38
475.282	1129.38
475.501	1139.38
475.72	1143.38
475.939	1157.38
476.158	1146.38
476.377	1142.38
476.596	1161.38
476.814	1180.38
477.033	1188.38
477.252	1184.38
477.471	1211.38
477.69	1219.38
477.908	1270.38
478.127	1301.38
478.346	1278.38
478.564	1331.38
478.783	1292.38
479.002	1380.38
479.22	1380.38
479.439	1379.38
479.658	1369.38
479.876	1409.38
480.095	1361.38
480.313	1392.38
480.532	1409.38
480.751	1436.38
480.969	1369.38
481.188	1324.38
481.406	1339.38
481.624	1335.38
481.843	1298.38
482.061	1305.38
482.28	1271.38
482.498	1312.38
482.717	1276.38
482.935	1296.38
483.153	1293.38
483.372	1337.38
483.59	1362.38
483.808	1295.38
484.027	1246.38
484.245	1306.38
484.463	1325.38
484.681	1329.38
484.9	1340.38
485.118	1319.38
485.336	1331.38
485.554	1339.38
485.772	1376.38
485.99	1342.38
486.209	1336.38
486.427	1357.38
486.645	1354.38
486.863	1365.38
487.081	1349.38
487.299	1338.38
487.517	1363.38
487.735	1344.38
487.953	1355.38
488.171	1348.38
488.389	1323.38
488.607	1327.38
488.825	1358.38
489.043	1353.38
489.261	1358.38
489.479	1347.38
489.696	1332.38
489.914	1349.38
490.132	1324.38
490.35	1333.38
490.568	1359.38
490.786	1369.38
491.003	1365.38
491.221	1367.38
491.439	1397.38
491.657	1400.38
491.874	1379.38
492.092	1390.38
492.31	1389.38
492.527	1393.38
492.745	1401.38
492.963	1382.38
493.18	1431.38
493.398	1395.38
493.615	1404.38
493.833	1415.38
494.05	1463.38
494.268	1435.38
494.485	1417.38
494.703	1415.38
494.92	1475.38
495.138	1437.38
495.355	1455.38
495.573	1465.38
495.79	1469.38
496.008	1479.38
496.225	1507.38
496.442	1530.38
496.66	1540.38
496.877	1540.38
497.094	1581.38
497.312	1586.38
497.529	1602.38
497.746	1632.38
497.963	1692.38
498.181	1722.38
498.398	1854.38
498.615	1880.38
498.832	1957.38
499.049	2099.38
499.267	2219.38
499.484	2397.38
499.701	2554.38
499.918	2755.38
500.135	2949.38
500.352	3223.38
500.569	3281.38
500.786	3215.38
501.003	3163.38
501.22	2893.38
501.437	2684.38
501.654	2546.38
501.871	2357.38
502.088	2230.38
502.305	2132.38
502.522	2061.38
502.739	1957.38
502.956	1866.38
503.172	1799.38
503.389	1715.38
503.606	1683.38
503.823	1649.38
504.04	1658.38
504.256	1600.38
504.473	1638.38
504.69	1569.38
504.907	1568.38
505.123	1495.38
505.34	1485.38
505.557	1425.38
505.773	1402.38
505.99	1361.38
506.207	1349.38
506.423	1338.38
506.64	1316.38
506.856	1275.38
507.073	1283.38
507.289	1236.38
507.506	1249.38
507.722	1269.38
507.939	1267.38
508.155	1260.38
508.372	1238.38
508.588	1221.38
508.805	1191.38
509.021	1207.38
509.238	1166.38
509.454	1177.38
509.67	1183.38
509.887	1194.38
510.103	1186.38
510.319	1146.38
510.536	1155.38
510.752	1101.38
510.968	1146.38
511.184	1109.38
511.401	1129.38
511.617	1136.38
511.833	1130.38
512.049	1144.38
512.265	1131.38
512.481	1138.38
512.698	1111.38
512.914	1110.38
513.13	1140.38
513.346	1153.38
513.562	1136.38
513.778	1119.38
513.994	1162.38
514.21	1125.38
514.426	1165.38
514.642	1155.38
514.858	1151.38
515.074	1155.38
515.29	1173.38
515.506	1188.38
515.721	1192.38
515.937	1202.38
516.153	1244.38
516.369	1251.38
516.585	1279.38
516.801	1309.38
517.016	1287.38
517.232	1352.38
517.448	1388.38
517.664	1438.38
517.879	1427.38
518.095	1395.38
518.311	1411.38
518.527	1375.38
518.742	1324.38
518.958	1316.38
519.173	1258.38
519.389	1256.38
519.605	1221.38
519.82	1207.38
520.036	1191.38
520.251	1152.38
520.467	1157.38
520.682	1124.38
520.898	1111.38
521.113	1075.38
521.329	1074.38
521.544	1119.38
521.76	1094.38
521.975	1048.38
522.19	1099.38
522.406	1071.38
522.621	1041.38
522.836	1074.38
523.052	1054.38
523.267	1050.38
523.482	1063.38
523.698	1027.38
523.913	1036.38
524.128	1043.38
524.343	1033.38
524.559	1044.38
524.774	1011.38
524.989	1025.38
525.204	1031.38
525.419	1014.38
525.634	1010.38
525.849	988.38
526.064	1023.38
526.28	971.38
526.495	994.38
526.71	997.38
526.925	984.38
527.14	1004.38
527.355	981.38
527.57	975.38
527.785	985.38
527.999	1004.38
528.214	979.38
528.429	986.38
528.644	1018.38
528.859	1010.38
529.074	972.38
529.289	988.38
529.503	1008.38
529.718	1019.38
529.933	1022.38
530.148	968.38
530.363	1003.38
530.577	982.38
530.792	994.38
531.007	979.38
531.221	968.38
531.436	983.38
531.651	994.38
531.865	983.38
532.08	989.38
532.295	982.38
532.509	983.38
532.724	987.38
532.938	956.38
533.153	977.38
533.367	968.38
533.582	956.38
533.796	970.38
534.011	938.38
534.225	956.38
534.44	934.38
534.654	963.38
534.868	962.38
535.083	938.38
535.297	967.38
535.511	951.38
535.726	936.38
535.94	947.38
536.154	955.38
536.369	900.38
536.583	919.38
536.797	941.38
537.011	936.38
537.225	908.38
537.44	883.38
537.654	909.38
537.868	906.38
538.082	897.38
538.296	904.38
538.51	903.38
538.724	917.38
538.938	922.38
539.153	905.38
539.367	895.38
539.581	918.38
539.795	886.38
540.009	891.38
540.222	892.38
540.436	891.38
540.65	910.38
540.864	904.38
541.078	904.38
541.292	902.38
541.506	885.38
541.72	879.38
541.934	898.38
542.147	927.38
542.361	898.38
542.575	898.38
542.789	884.38
543.002	886.38
543.216	889.38
543.43	884.38
543.644	866.38
543.857	871.38
544.071	890.38
544.285	905.38
544.498	857.38
544.712	893.38
544.925	897.38
545.139	907.38
545.352	895.38
545.566	864.38
545.779	891.38
545.993	891.38
546.206	898.38
546.42	899.38
546.633	896.38
546.847	898.38
547.06	862.38
547.274	901.38
547.487	889.38
547.7	884.38
547.914	939.38
548.127	913.38
548.34	904.38
548.554	907.38
548.767	916.38
548.98	919.38
549.193	872.38
549.407	896.38
549.62	879.38
549.833	914.38
550.046	913.38
550.259	913.38
550.473	887.38
550.686	887.38
550.899	893.38
551.112	881.38
551.325	872.38
551.538	875.38
551.751	879.38
551.964	872.38
552.177	917.38
552.39	921.38
552.603	917.38
552.816	916.38
553.029	950.38
553.242	964.38
553.455	953.38
553.667	960.38
553.88	943.38
554.093	902.38
554.306	896.38
554.519	875.38
554.732	882.38
554.944	835.38
555.157	866.38
555.37	829.38
555.583	833.38
555.795	845.38
556.008	813.38
556.221	779.38
556.433	808.38
556.646	769.38
556.859	805.38
557.071	772.38
557.284	778.38
557.496	786.38
557.709	767.38
557.921	762.38
558.134	757.38
558.346	733.38
558.559	772.38
558.771	742.38
558.984	755.38
559.196	749.38
559.409	769.38
559.621	761.38
559.833	768.38
560.046	728.38
560.258	747.38
560.47	746.38
560.683	749.38
560.895	746.38
561.107	726.38
561.32	742.38
561.532	735.38
561.744	731.38
561.956	736.38
562.168	748.38
562.381	742.38
562.593	761.38
562.805	753.38
563.017	734.38
563.229	724.38
563.441	763.38
563.653	758.38
563.865	765.38
564.077	768.38
564.289	780.38
564.501	798.38
564.713	796.38
564.925	815.38
565.137	817.38
565.349	848.38
565.561	857.38
565.773	873.38
565.985	914.38
566.197	947.38
566.408	979.38
566.62	1009.38
566.832	1059.38
567.044	1067.38
567.255	1082.38
567.467	1099.38
567.679	1110.38
567.891	1141.38
568.102	1127.38
568.314	1102.38
568.526	1044.38
568.737	983.38
568.949	952.38
569.161	903.38
569.372	876.38
569.584	806.38
569.795	812.38
570.007	791.38
570.218	767.38
570.43	753.38
570.641	753.38
570.853	732.38
571.064	739.38
571.276	747.38
571.487	682.38
571.698	689.38
571.91	689.38
572.121	673.38
572.333	689.38
572.544	657.38
572.755	647.38
572.966	647.38
573.178	622.38
573.389	611.38
573.6	629.38
573.811	613.38
574.023	618.38
574.234	588.38
574.445	592.38
574.656	593.38
574.867	601.38
575.078	597.38
575.289	593.38
575.501	568.38
575.712	570.38
575.923	580.38
576.134	564.38
576.345	573.38
576.556	567.38
576.767	584.38
576.978	559.38
577.188	571.38
577.399	559.38
577.61	555.38
577.821	555.38
578.032	544.38
578.243	534.38
578.454	536.38
578.665	534.38
578.875	525.38
579.086	526.38
579.297	511.38
579.508	545.38
579.718	519.38
579.929	543.38
580.14	514.38
580.35	510.38
580.561	517.38
580.772	512.38
580.982	518.38
581.193	529.38
581.403	524.38
581.614	514.38
581.825	516.38
582.035	514.38
582.246	520.38
582.456	504.38
582.667	516.38
582.877	503.38
583.087	515.38
583.298	477.38
583.508	510.38
583.719	517.38
583.929	493.38
584.139	500.38
584.35	523.38
584.56	463.38
584.77	492.38
584.981	481.38
585.191	478.38
585.401	471.38
585.611	485.38
585.821	491.38
586.032	487.38
586.242	472.38
586.452	490.38
586.662	478.38
586.872	496.38
587.082	484.38
587.292	472.38
587.502	466.38
587.713	490.38
587.923	481.38
588.133	487.38
588.343	484.38
588.553	487.38
588.762	500.38
588.972	508.38
589.182	552.38
589.392	552.38
589.602	506.38
589.812	561.38
590.022	512.38
590.232	512.38
590.441	488.38
590.651	493.38
590.861	440.38
591.071	444.38
591.281	482.38
591.49	495.38
591.7	506.38
591.91	506.38
592.119	509.38
592.329	504.38
592.539	522.38
592.748	544.38
592.958	543.38
593.167	549.38
593.377	517.38
593.587	555.38
593.796	532.38
594.006	545.38
594.215	551.38
594.424	547.38
594.634	545.38
594.843	532.38
595.053	515.38
595.262	521.38
595.472	485.38
595.681	478.38
595.89	488.38
596.1	470.38
596.309	479.38
596.518	455.38
596.727	466.38
596.937	451.38
597.146	437.38
597.355	447.38
597.564	426.38
597.774	424.38
597.983	404.38
598.192	403.38
598.401	415.38
598.61	434.38
598.819	399.38
599.028	401.38
599.237	415.38
599.446	387.38
599.655	403.38
599.864	407.38
600.073	386.38
600.282	391.38
600.491	386.38
600.7	398.38
600.909	383.38
601.118	381.38
601.327	396.38
601.536	389.38
601.745	389.38
601.953	394.38
602.162	379.38
602.371	366.38
602.58	392.38
602.789	369.38
602.997	354.38
603.206	364.38
603.415	381.38
603.623	391.38
603.832	379.38
604.041	367.38
604.249	373.38
604.458	381.38
604.666	358.38
604.875	372.38
605.084	359.38
605.292	385.38
605.501	361.38
605.709	368.38
605.918	356.38
606.126	364.38
606.334	372.38
606.543	367.38
606.751	354.38
606.96	343.38
607.168	357.38
607.376	367.38
607.585	345.38
607.793	331.38
608.001	353.38
608.21	348.38
608.418	341.38
608.626	347.38
608.834	329.38
609.043	332.38
609.251	332.38
609.459	337.38
609.667	340.38
609.875	353.38
610.083	342.38
610.291	339.38
610.499	348.38
610.707	336.38
610.916	347.38
611.124	342.38
611.332	334.38
611.54	334.38
611.748	347.38
611.955	337.38
612.163	331.38
612.371	333.38
612.579	354.38
612.787	355.38
612.995	320.38
613.203	338.38
613.411	326.38
613.618	328.38
613.826	330.38
614.034	331.38
614.242	340.38
614.449	325.38
614.657	340.38
614.865	320.38
615.072	315.38
615.28	333.38
615.488	323.38
615.695	327.38
615.903	324.38
616.111	319.38
616.318	347.38
616.526	320.38
616.733	331.38
616.941	313.38
617.148	331.38
617.356	338.38
617.563	317.38
617.771	300.38
617.978	325.38
618.185	318.38
618.393	304.38
618.6	311.38
618.807	324.38
619.015	319.38
619.222	307.38
619.429	304.38
619.637	329.38
619.844	320.38
620.051	327.38
620.258	298.38
620.466	304.38
620.673	299.38
620.88	324.38
621.087	291.38
621.294	295.38
621.501	288.38
621.708	299.38
621.915	307.38
622.122	323.38
622.329	307.38
622.536	293.38
622.743	301.38
622.95	291.38
623.157	295.38
623.364	293.38
623.571	299.38
623.778	292.38
623.985	287.38
624.192	289.38
624.399	296.38
624.606	294.38
624.812	291.38
625.019	292.38
625.226	297.38
625.433	294.38
625.639	283.38
625.846	284.38
626.053	278.38
626.259	291.38
626.466	291.38
626.673	283.38
626.879	260.38
627.086	281.38
627.293	263.38
627.499	270.38
627.706	270.38
627.912	260.38
628.119	275.38
628.325	268.38
628.532	274.38
628.738	256.38
628.945	278.38
629.151	263.38
629.357	256.38
629.564	259.38
629.77	245.38
629.976	263.38
630.183	257.38
630.389	271.38
630.595	269.38
630.802	262.38
631.008	247.38
631.214	255.38
631.42	268.38
631.627	247.38
631.833	247.38
632.039	255.38
632.245	249.38
632.451	259.38
632.657	257.38
632.863	262.38
633.069	234.38
633.275	240.38
633.481	237.38
633.688	229.38
633.893	246.38
634.099	227.38
634.305	242.38
634.511	224.38
634.717	232.38
634.923	226.38
635.129	240.38
635.335	250.38
635.541	263.38
635.747	213.38
635.952	236.38
636.158	242.38
636.364	242.38
636.57	233.38
636.775	241.38
636.981	239.38
637.187	232.38
637.392	246.38
637.598	240.38
637.804	247.38
638.009	232.38
638.215	219.38
638.421	223.38
638.626	240.38
638.832	230.38
639.037	228.38
639.243	215.38
639.448	243.38
639.654	221.38
639.859	224.38
640.065	217.38
640.27	221.38
640.475	231.38
640.681	215.38
640.886	217.38
641.091	235.38
641.297	212.38
641.502	219.38
641.707	204.38
641.913	203.38
642.118	205.38
642.323	215.38
642.528	230.38
642.733	215.38
642.939	221.38
643.144	208.38
643.349	204.38
643.554	222.38
643.759	208.38
643.964	211.38
644.169	215.38
644.374	191.38
644.579	217.38
644.784	227.38
644.989	240.38
645.194	216.38
645.399	218.38
645.604	201.38
645.809	219.38
646.014	204.38
646.219	216.38
646.423	205.38
646.628	208.38
646.833	209.38
647.038	223.38
647.243	211.38
647.447	215.38
647.652	196.38
647.857	201.38
648.062	210.38
648.266	202.38
648.471	207.38
648.676	215.38
648.88	208.38
649.085	215.38
649.289	205.38
649.494	217.38
649.698	221.38
649.903	212.38
650.107	217.38
650.312	217.38
650.516	206.38
650.721	186.38
650.925	187.38
651.13	193.38
651.334	201.38
651.539	187.38
651.743	191.38
651.947	175.38
652.152	183.38
652.356	197.38
652.56	179.38
652.764	191.38
652.969	177.38
653.173	179.38
653.377	189.38
653.581	186.38
653.785	171.38
653.99	176.38
654.194	175.38
654.398	167.38
654.602	180.38
654.806	171.38
655.01	169.38
655.214	168.38
655.418	186.38
655.622	172.38
655.826	166.38
656.03	175.38
656.234	159.38
656.438	166.38
656.642	165.38
656.846	162.38
657.049	163.38
657.253	165.38
657.457	145.38
657.661	133.38
657.865	135.38
658.068	127.38
658.272	125.38
658.476	137.38
658.68	126.38
658.883	112.38
659.087	115.38
659.291	128.38
659.494	108.38
659.698	105.38
659.901	96.38
660.105	96.38
660.309	108.38
660.512	99.38
660.716	100.38
660.919	86.38
661.123	93.38
661.326	85.38
661.53	97.38
661.733	87.38
661.936	95.38
662.14	81.38
662.343	90.38
662.546	85.38
662.75	91.38
662.953	80.38
663.156	71.38
663.36	79.38
663.563	88.38
663.766	78.38
663.969	83.38
664.173	83.38
664.376	82.38
664.579	89.38
664.782	91.38
664.985	76.38
665.188	74.38
665.391	77.38
665.594	84.38
665.797	82.38
666	77.38
666.203	69.38
666.406	87.38
666.609	74.38
666.812	87.38
667.015	83.38
667.218	68.38
667.421	87.38
667.624	84.38
667.827	88.38
668.03	74.38
668.232	98.38
668.435	75.38
668.638	69.38
668.841	80.38
669.043	63.38
669.246	76.38
669.449	77.38
669.651	86.38
669.854	65.38
670.057	81.38
670.259	68.38
670.462	88.38
670.665	71.38
670.867	80.38
671.07	75.38
671.272	87.38
671.475	84.38
671.677	90.38
671.88	93.38
672.082	87.38
672.284	84.38
672.487	81.38
672.689	87.38
672.892	69.38
