Data from NiCl2@0.125M.TitratingCurve.Agarose3%dH2O.NegLispCup.LampEnergy10.LIBS07252019_HRD10591_18-27-30-574.txt Node
Date: Thu Jul 25 18:27:30 EDT 2019
User: cochatt
Spectrometer: HR+D1059
Trigger mode: 1
Integration Time (sec): 1.000000E-1
Scans to average: 1
Electric dark correction enabled: true
Nonlinearity correction enabled: false
Boxcar width: 0
XAxis mode: Wavelengths
Number of Pixels in Spectrum: 2048
>>>>>Begin Spectral Data<<<<<
223.165	-23.25
223.4	-23.25
223.635	-23.25
223.869	-17.25
224.104	-23.25
224.338	-17.25
224.573	-22.25
224.808	-9.25
225.042	-2.25
225.277	-7.25
225.511	0.75
225.746	-6.25
225.98	2.75
226.215	17.75
226.449	12.75
226.683	22.75
226.918	32.75
227.152	38.75
227.387	20.75
227.621	30.75
227.856	38.75
228.09	40.75
228.324	56.75
228.559	41.75
228.793	67.75
229.027	82.75
229.262	107.75
229.496	108.75
229.73	110.75
229.964	114.75
230.199	120.75
230.433	132.75
230.667	125.75
230.901	126.75
231.136	124.75
231.37	129.75
231.604	142.75
231.838	126.75
232.072	148.75
232.306	162.75
232.541	149.75
232.775	132.75
233.009	142.75
233.243	148.75
233.477	158.75
233.711	145.75
233.945	136.75
234.179	136.75
234.413	138.75
234.647	142.75
234.881	163.75
235.115	167.75
235.349	160.75
235.583	142.75
235.817	133.75
236.051	143.75
236.285	148.75
236.519	153.75
236.753	155.75
236.987	158.75
237.221	161.75
237.455	153.75
237.689	158.75
237.922	144.75
238.156	149.75
238.39	152.75
238.624	153.75
238.858	161.75
239.091	169.75
239.325	170.75
239.559	183.75
239.793	168.75
240.027	188.75
240.26	179.75
240.494	168.75
240.728	187.75
240.961	174.75
241.195	184.75
241.429	193.75
241.662	183.75
241.896	185.75
242.13	183.75
242.363	167.75
242.597	179.75
242.83	185.75
243.064	181.75
243.298	196.75
243.531	209.75
243.765	215.75
243.998	208.75
244.232	193.75
244.465	192.75
244.699	215.75
244.932	215.75
245.166	209.75
245.399	208.75
245.633	222.75
245.866	207.75
246.099	218.75
246.333	224.75
246.566	200.75
246.8	214.75
247.033	214.75
247.266	236.75
247.5	227.75
247.733	242.75
247.966	215.75
248.2	231.75
248.433	234.75
248.666	235.75
248.899	237.75
249.133	233.75
249.366	244.75
249.599	239.75
249.832	246.75
250.066	234.75
250.299	239.75
250.532	244.75
250.765	257.75
250.998	261.75
251.231	264.75
251.465	246.75
251.698	251.75
251.931	262.75
252.164	274.75
252.397	264.75
252.63	270.75
252.863	257.75
253.096	264.75
253.329	274.75
253.562	270.75
253.795	264.75
254.028	284.75
254.261	281.75
254.494	277.75
254.727	280.75
254.96	264.75
255.193	284.75
255.426	260.75
255.659	282.75
255.892	304.75
256.124	291.75
256.357	296.75
256.59	259.75
256.823	289.75
257.056	278.75
257.289	304.75
257.521	298.75
257.754	296.75
257.987	297.75
258.22	303.75
258.452	287.75
258.685	297.75
258.918	317.75
259.151	308.75
259.383	308.75
259.616	312.75
259.849	307.75
260.081	317.75
260.314	309.75
260.547	309.75
260.779	302.75
261.012	319.75
261.244	333.75
261.477	321.75
261.71	322.75
261.942	328.75
262.175	308.75
262.407	325.75
262.64	318.75
262.872	309.75
263.105	323.75
263.337	337.75
263.57	344.75
263.802	330.75
264.035	340.75
264.267	368.75
264.499	329.75
264.732	344.75
264.964	343.75
265.197	354.75
265.429	375.75
265.661	350.75
265.894	348.75
266.126	347.75
266.358	366.75
266.591	338.75
266.823	362.75
267.055	325.75
267.287	372.75
267.52	355.75
267.752	338.75
267.984	373.75
268.216	353.75
268.448	376.75
268.681	366.75
268.913	366.75
269.145	361.75
269.377	333.75
269.609	368.75
269.841	362.75
270.073	357.75
270.306	360.75
270.538	356.75
270.77	370.75
271.002	361.75
271.234	380.75
271.466	376.75
271.698	361.75
271.93	382.75
272.162	392.75
272.394	384.75
272.626	413.75
272.858	416.75
273.09	380.75
273.322	386.75
273.553	379.75
273.785	384.75
274.017	375.75
274.249	399.75
274.481	398.75
274.713	408.75
274.945	394.75
275.176	397.75
275.408	380.75
275.64	406.75
275.872	399.75
276.104	412.75
276.335	412.75
276.567	401.75
276.799	404.75
277.031	417.75
277.262	402.75
277.494	394.75
277.726	416.75
277.957	430.75
278.189	430.75
278.421	412.75
278.652	428.75
278.884	438.75
279.115	426.75
279.347	419.75
279.579	438.75
279.81	465.75
280.042	437.75
280.273	441.75
280.505	438.75
280.736	439.75
280.968	444.75
281.199	461.75
281.431	441.75
281.662	440.75
281.894	470.75
282.125	464.75
282.356	462.75
282.588	476.75
282.819	468.75
283.051	447.75
283.282	457.75
283.513	455.75
283.745	457.75
283.976	457.75
284.207	470.75
284.439	486.75
284.67	475.75
284.901	472.75
285.132	473.75
285.364	486.75
285.595	474.75
285.826	456.75
286.057	466.75
286.288	476.75
286.52	497.75
286.751	478.75
286.982	485.75
287.213	484.75
287.444	490.75
287.675	505.75
287.906	495.75
288.138	481.75
288.369	521.75
288.6	497.75
288.831	494.75
289.062	490.75
289.293	514.75
289.524	497.75
289.755	504.75
289.986	518.75
290.217	513.75
290.448	502.75
290.679	493.75
290.91	504.75
291.141	527.75
291.371	513.75
291.602	510.75
291.833	510.75
292.064	515.75
292.295	503.75
292.526	511.75
292.757	506.75
292.987	515.75
293.218	494.75
293.449	515.75
293.68	512.75
293.91	524.75
294.141	511.75
294.372	522.75
294.603	530.75
294.833	500.75
295.064	526.75
295.295	543.75
295.525	527.75
295.756	521.75
295.987	512.75
296.217	533.75
296.448	556.75
296.679	538.75
296.909	559.75
297.14	542.75
297.37	531.75
297.601	534.75
297.831	556.75
298.062	559.75
298.292	574.75
298.523	563.75
298.753	598.75
298.984	598.75
299.214	573.75
299.445	576.75
299.675	560.75
299.905	568.75
300.136	564.75
300.366	578.75
300.597	568.75
300.827	580.75
301.057	585.75
301.288	586.75
301.518	590.75
301.748	620.75
301.979	595.75
302.209	609.75
302.439	580.75
302.669	583.75
302.9	592.75
303.13	574.75
303.36	566.75
303.59	578.75
303.82	576.75
304.051	569.75
304.281	580.75
304.511	578.75
304.741	587.75
304.971	593.75
305.201	590.75
305.431	596.75
305.661	569.75
305.891	578.75
306.121	575.75
306.352	586.75
306.582	595.75
306.812	554.75
307.042	577.75
307.272	553.75
307.502	563.75
307.731	576.75
307.961	594.75
308.191	572.75
308.421	564.75
308.651	556.75
308.881	567.75
309.111	564.75
309.341	572.75
309.571	578.75
309.8	583.75
310.03	585.75
310.26	589.75
310.49	586.75
310.72	603.75
310.949	584.75
311.179	574.75
311.409	593.75
311.639	586.75
311.868	587.75
312.098	594.75
312.328	601.75
312.557	603.75
312.787	607.75
313.017	577.75
313.246	616.75
313.476	624.75
313.706	608.75
313.935	618.75
314.165	625.75
314.394	627.75
314.624	622.75
314.853	584.75
315.083	627.75
315.312	615.75
315.542	611.75
315.771	604.75
316.001	590.75
316.23	625.75
316.46	602.75
316.689	608.75
316.919	596.75
317.148	606.75
317.377	615.75
317.607	605.75
317.836	574.75
318.065	589.75
318.295	592.75
318.524	607.75
318.753	615.75
318.983	600.75
319.212	589.75
319.441	601.75
319.67	593.75
319.9	615.75
320.129	605.75
320.358	591.75
320.587	616.75
320.816	609.75
321.046	612.75
321.275	590.75
321.504	606.75
321.733	638.75
321.962	617.75
322.191	614.75
322.42	624.75
322.649	612.75
322.878	596.75
323.108	595.75
323.337	631.75
323.566	624.75
323.795	623.75
324.024	623.75
324.253	621.75
324.482	628.75
324.71	601.75
324.939	594.75
325.168	646.75
325.397	628.75
325.626	643.75
325.855	651.75
326.084	659.75
326.313	678.75
326.542	673.75
326.77	686.75
326.999	657.75
327.228	645.75
327.457	667.75
327.686	662.75
327.914	665.75
328.143	662.75
328.372	665.75
328.6	678.75
328.829	669.75
329.058	660.75
329.287	673.75
329.515	666.75
329.744	662.75
329.972	693.75
330.201	664.75
330.43	682.75
330.658	704.75
330.887	694.75
331.115	656.75
331.344	672.75
331.572	695.75
331.801	705.75
332.03	734.75
332.258	733.75
332.486	752.75
332.715	790.75
332.943	802.75
333.172	800.75
333.4	857.75
333.629	892.75
333.857	900.75
334.085	876.75
334.314	888.75
334.542	849.75
334.771	851.75
334.999	824.75
335.227	847.75
335.455	812.75
335.684	821.75
335.912	809.75
336.14	799.75
336.369	804.75
336.597	795.75
336.825	806.75
337.053	785.75
337.281	768.75
337.51	763.75
337.738	749.75
337.966	757.75
338.194	753.75
338.422	720.75
338.65	714.75
338.878	717.75
339.106	688.75
339.334	721.75
339.562	698.75
339.79	704.75
340.018	695.75
340.246	693.75
340.474	681.75
340.702	701.75
340.93	696.75
341.158	697.75
341.386	705.75
341.614	720.75
341.842	713.75
342.07	698.75
342.298	681.75
342.526	687.75
342.754	669.75
342.981	714.75
343.209	700.75
343.437	736.75
343.665	745.75
343.893	814.75
344.12	849.75
344.348	820.75
344.576	782.75
344.804	777.75
345.031	733.75
345.259	730.75
345.487	721.75
345.714	698.75
345.942	677.75
346.17	670.75
346.397	704.75
346.625	685.75
346.853	665.75
347.08	654.75
347.308	692.75
347.535	706.75
347.763	670.75
347.99	692.75
348.218	693.75
348.445	689.75
348.673	677.75
348.9	652.75
349.128	661.75
349.355	644.75
349.583	679.75
349.81	638.75
350.037	668.75
350.265	650.75
350.492	647.75
350.72	651.75
350.947	643.75
351.174	646.75
351.402	631.75
351.629	644.75
351.856	651.75
352.083	666.75
352.311	640.75
352.538	658.75
352.765	630.75
352.992	649.75
353.22	642.75
353.447	641.75
353.674	645.75
353.901	633.75
354.128	641.75
354.355	648.75
354.583	659.75
354.81	648.75
355.037	643.75
355.264	642.75
355.491	660.75
355.718	668.75
355.945	654.75
356.172	639.75
356.399	660.75
356.626	656.75
356.853	657.75
357.08	655.75
357.307	652.75
357.534	654.75
357.761	654.75
357.988	637.75
358.215	652.75
358.441	630.75
358.668	627.75
358.895	662.75
359.122	650.75
359.349	651.75
359.576	643.75
359.802	657.75
360.029	650.75
360.256	662.75
360.483	660.75
360.709	647.75
360.936	630.75
361.163	651.75
361.39	658.75
361.616	626.75
361.843	647.75
362.07	653.75
362.296	654.75
362.523	645.75
362.749	647.75
362.976	638.75
363.203	653.75
363.429	615.75
363.656	638.75
363.882	642.75
364.109	644.75
364.335	630.75
364.562	630.75
364.788	630.75
365.015	650.75
365.241	647.75
365.468	632.75
365.694	655.75
365.92	657.75
366.147	629.75
366.373	645.75
366.599	647.75
366.826	645.75
367.052	638.75
367.278	646.75
367.505	665.75
367.731	663.75
367.957	641.75
368.184	649.75
368.41	676.75
368.636	661.75
368.862	656.75
369.089	670.75
369.315	667.75
369.541	661.75
369.767	680.75
369.993	679.75
370.219	663.75
370.445	681.75
370.672	702.75
370.898	694.75
371.124	677.75
371.35	695.75
371.576	688.75
371.802	713.75
372.028	709.75
372.254	694.75
372.48	724.75
372.706	721.75
372.932	737.75
373.158	723.75
373.384	705.75
373.61	690.75
373.835	711.75
374.061	705.75
374.287	725.75
374.513	723.75
374.739	751.75
374.965	790.75
375.191	796.75
375.416	766.75
375.642	772.75
375.868	750.75
376.094	732.75
376.319	718.75
376.545	732.75
376.771	706.75
376.997	705.75
377.222	727.75
377.448	706.75
377.674	715.75
377.899	684.75
378.125	698.75
378.35	687.75
378.576	697.75
378.802	679.75
379.027	686.75
379.253	699.75
379.478	666.75
379.704	679.75
379.929	700.75
380.155	708.75
380.38	692.75
380.606	688.75
380.831	700.75
381.057	706.75
381.282	691.75
381.507	714.75
381.733	679.75
381.958	726.75
382.184	718.75
382.409	736.75
382.634	709.75
382.86	742.75
383.085	744.75
383.31	764.75
383.535	776.75
383.761	745.75
383.986	768.75
384.211	779.75
384.436	785.75
384.662	805.75
384.887	822.75
385.112	821.75
385.337	860.75
385.562	831.75
385.787	838.75
386.013	880.75
386.238	849.75
386.463	844.75
386.688	866.75
386.913	845.75
387.138	829.75
387.363	838.75
387.588	836.75
387.813	842.75
388.038	814.75
388.263	848.75
388.488	838.75
388.713	819.75
388.938	818.75
389.163	798.75
389.387	835.75
389.612	836.75
389.837	815.75
390.062	838.75
390.287	812.75
390.512	821.75
390.736	853.75
390.961	845.75
391.186	869.75
391.411	920.75
391.636	916.75
391.86	902.75
392.085	952.75
392.31	943.75
392.534	944.75
392.759	916.75
392.984	906.75
393.208	907.75
393.433	872.75
393.658	922.75
393.882	899.75
394.107	903.75
394.331	928.75
394.556	905.75
394.78	900.75
395.005	926.75
395.229	908.75
395.454	935.75
395.678	965.75
395.903	965.75
396.127	958.75
396.352	889.75
396.576	892.75
396.801	932.75
397.025	881.75
397.249	919.75
397.474	968.75
397.698	952.75
397.922	930.75
398.147	943.75
398.371	944.75
398.595	991.75
398.82	1053.75
399.044	1129.75
399.268	1220.75
399.492	1372.75
399.717	1545.75
399.941	1562.75
400.165	1414.75
400.389	1278.75
400.613	1201.75
400.837	1142.75
401.062	1124.75
401.286	1076.75
401.51	1042.75
401.734	1092.75
401.958	1096.75
402.182	1086.75
402.406	1084.75
402.63	1098.75
402.854	1096.75
403.078	1126.75
403.302	1173.75
403.526	1180.75
403.75	1188.75
403.974	1218.75
404.198	1193.75
404.422	1216.75
404.645	1214.75
404.869	1198.75
405.093	1187.75
405.317	1176.75
405.541	1158.75
405.765	1166.75
405.988	1136.75
406.212	1138.75
406.436	1150.75
406.66	1200.75
406.883	1221.75
407.107	1287.75
407.331	1303.75
407.555	1366.75
407.778	1358.75
408.002	1358.75
408.226	1271.75
408.449	1274.75
408.673	1193.75
408.896	1210.75
409.12	1190.75
409.344	1192.75
409.567	1211.75
409.791	1185.75
410.014	1162.75
410.238	1133.75
410.461	1149.75
410.685	1168.75
410.908	1132.75
411.132	1124.75
411.355	1120.75
411.578	1096.75
411.802	1111.75
412.025	1081.75
412.249	1116.75
412.472	1132.75
412.695	1081.75
412.919	1035.75
413.142	1076.75
413.365	1063.75
413.589	1083.75
413.812	1065.75
414.035	1051.75
414.258	1043.75
414.482	1073.75
414.705	1084.75
414.928	1067.75
415.151	1061.75
415.374	1028.75
415.597	1033.75
415.821	1036.75
416.044	1045.75
416.267	1038.75
416.49	1028.75
416.713	1024.75
416.936	1040.75
417.159	1025.75
417.382	1045.75
417.605	1046.75
417.828	1037.75
418.051	1064.75
418.274	1037.75
418.497	1044.75
418.72	1106.75
418.943	1074.75
419.166	1146.75
419.389	1227.75
419.611	1175.75
419.834	1135.75
420.057	1116.75
420.28	1089.75
420.503	1034.75
420.726	1026.75
420.948	1027.75
421.171	1031.75
421.394	1062.75
421.617	1033.75
421.839	1045.75
422.062	1042.75
422.285	1061.75
422.507	1064.75
422.73	1069.75
422.953	1072.75
423.175	1090.75
423.398	1110.75
423.621	1065.75
423.843	1089.75
424.066	1126.75
424.288	1105.75
424.511	1058.75
424.733	1096.75
424.956	1058.75
425.178	1114.75
425.401	1132.75
425.623	1036.75
425.846	1034.75
426.068	1021.75
426.291	1031.75
426.513	999.75
426.735	971.75
426.958	994.75
427.18	977.75
427.402	968.75
427.625	963.75
427.847	966.75
428.069	960.75
428.292	970.75
428.514	930.75
428.736	940.75
428.958	946.75
429.181	921.75
429.403	939.75
429.625	916.75
429.847	917.75
430.069	910.75
430.292	930.75
430.514	909.75
430.736	952.75
430.958	906.75
431.18	902.75
431.402	911.75
431.624	937.75
431.846	921.75
432.068	952.75
432.29	949.75
432.512	933.75
432.734	954.75
432.956	946.75
433.178	928.75
433.4	943.75
433.622	996.75
433.844	978.75
434.066	937.75
434.287	977.75
434.509	986.75
434.731	982.75
434.953	1044.75
435.175	1012.75
435.397	1061.75
435.618	1004.75
435.84	990.75
436.062	961.75
436.284	954.75
436.505	930.75
436.727	943.75
436.949	955.75
437.17	948.75
437.392	926.75
437.614	914.75
437.835	906.75
438.057	910.75
438.278	892.75
438.5	868.75
438.721	894.75
438.943	933.75
439.165	917.75
439.386	932.75
439.608	924.75
439.829	964.75
440.05	950.75
440.272	959.75
440.493	956.75
440.715	960.75
440.936	961.75
441.158	976.75
441.379	1046.75
441.6	1073.75
441.822	1078.75
442.043	1061.75
442.264	1045.75
442.486	1018.75
442.707	1018.75
442.928	1032.75
443.149	1034.75
443.371	1043.75
443.592	1069.75
443.813	1066.75
444.034	1070.75
444.255	1126.75
444.476	1122.75
444.698	1199.75
444.919	1237.75
445.14	1351.75
445.361	1206.75
445.582	1094.75
445.803	1060.75
446.024	1046.75
446.245	1012.75
446.466	985.75
446.687	975.75
446.908	951.75
447.129	956.75
447.35	933.75
447.571	940.75
447.792	918.75
448.013	883.75
448.234	879.75
448.455	877.75
448.675	864.75
448.896	888.75
449.117	881.75
449.338	862.75
449.559	872.75
449.779	858.75
450	852.75
450.221	885.75
450.442	867.75
450.662	851.75
450.883	882.75
451.104	899.75
451.324	892.75
451.545	902.75
451.766	902.75
451.986	878.75
452.207	862.75
452.428	850.75
452.648	865.75
452.869	824.75
453.089	823.75
453.31	885.75
453.53	815.75
453.751	823.75
453.971	827.75
454.192	850.75
454.412	813.75
454.633	838.75
454.853	862.75
455.073	830.75
455.294	822.75
455.514	825.75
455.734	837.75
455.955	802.75
456.175	806.75
456.395	817.75
456.616	814.75
456.836	802.75
457.056	818.75
457.276	804.75
457.497	832.75
457.717	805.75
457.937	836.75
458.157	826.75
458.377	823.75
458.598	863.75
458.818	875.75
459.038	888.75
459.258	892.75
459.478	960.75
459.698	950.75
459.918	975.75
460.138	1053.75
460.358	1084.75
460.578	1103.75
460.798	1089.75
461.018	1110.75
461.238	1080.75
461.458	1113.75
461.678	1118.75
461.898	1118.75
462.118	1117.75
462.338	1173.75
462.558	1226.75
462.777	1231.75
462.997	1338.75
463.217	1452.75
463.437	1456.75
463.657	1360.75
463.876	1306.75
464.096	1305.75
464.316	1287.75
464.536	1257.75
464.755	1241.75
464.975	1220.75
465.195	1137.75
465.414	1101.75
465.634	1033.75
465.854	994.75
466.073	982.75
466.293	912.75
466.512	954.75
466.732	939.75
466.951	936.75
467.171	924.75
467.391	921.75
467.61	888.75
467.829	914.75
468.049	932.75
468.268	868.75
468.488	860.75
468.707	907.75
468.927	877.75
469.146	870.75
469.365	878.75
469.585	904.75
469.804	931.75
470.023	924.75
470.243	943.75
470.462	931.75
470.681	939.75
470.901	973.75
471.12	911.75
471.339	907.75
471.558	919.75
471.777	901.75
471.997	894.75
472.216	842.75
472.435	869.75
472.654	849.75
472.873	833.75
473.092	842.75
473.311	857.75
473.53	862.75
473.749	843.75
473.968	854.75
474.187	847.75
474.406	831.75
474.625	852.75
474.844	853.75
475.063	864.75
475.282	845.75
475.501	854.75
475.72	881.75
475.939	855.75
476.158	896.75
476.377	906.75
476.596	898.75
476.814	892.75
477.033	902.75
477.252	907.75
477.471	944.75
477.69	942.75
477.908	998.75
478.127	985.75
478.346	1018.75
478.564	1020.75
478.783	1046.75
479.002	1073.75
479.22	1055.75
479.439	1094.75
479.658	1050.75
479.876	1063.75
480.095	1055.75
480.313	1111.75
480.532	1140.75
480.751	1150.75
480.969	1081.75
481.188	1058.75
481.406	1019.75
481.624	1001.75
481.843	996.75
482.061	961.75
482.28	965.75
482.498	953.75
482.717	1002.75
482.935	957.75
483.153	972.75
483.372	983.75
483.59	971.75
483.808	980.75
484.027	953.75
484.245	977.75
484.463	1001.75
484.681	989.75
484.9	1005.75
485.118	998.75
485.336	997.75
485.554	1001.75
485.772	1004.75
485.99	1029.75
486.209	1022.75
486.427	1018.75
486.645	1009.75
486.863	1044.75
487.081	999.75
487.299	1012.75
487.517	993.75
487.735	995.75
487.953	1001.75
488.171	1015.75
488.389	1004.75
488.607	1010.75
488.825	978.75
489.043	970.75
489.261	984.75
489.479	1006.75
489.696	997.75
489.914	1048.75
490.132	1050.75
490.35	1027.75
490.568	1011.75
490.786	1015.75
491.003	1023.75
491.221	1042.75
491.439	1037.75
491.657	1047.75
491.874	1053.75
492.092	1046.75
492.31	1039.75
492.527	1047.75
492.745	1061.75
492.963	1052.75
493.18	1024.75
493.398	1039.75
493.615	1064.75
493.833	1076.75
494.05	1050.75
494.268	1078.75
494.485	1073.75
494.703	1088.75
494.92	1073.75
495.138	1077.75
495.355	1072.75
495.573	1104.75
495.79	1073.75
496.008	1098.75
496.225	1116.75
496.442	1132.75
496.66	1143.75
496.877	1129.75
497.094	1144.75
497.312	1160.75
497.529	1172.75
497.746	1247.75
497.963	1284.75
498.181	1313.75
498.398	1381.75
498.615	1417.75
498.832	1520.75
499.049	1633.75
499.267	1776.75
499.484	1951.75
499.701	2093.75
499.918	2325.75
500.135	2644.75
500.352	2948.75
500.569	3091.75
500.786	3045.75
501.003	2858.75
501.22	2569.75
501.437	2327.75
501.654	2032.75
501.871	1906.75
502.088	1717.75
502.305	1628.75
502.522	1545.75
502.739	1511.75
502.956	1393.75
503.172	1321.75
503.389	1292.75
503.606	1234.75
503.823	1252.75
504.04	1263.75
504.256	1240.75
504.473	1228.75
504.69	1271.75
504.907	1225.75
505.123	1164.75
505.34	1129.75
505.557	1107.75
505.773	1061.75
505.99	1032.75
506.207	969.75
506.423	992.75
506.64	978.75
506.856	981.75
507.073	948.75
507.289	949.75
507.506	958.75
507.722	964.75
507.939	919.75
508.155	947.75
508.372	910.75
508.588	898.75
508.805	907.75
509.021	884.75
509.238	889.75
509.454	906.75
509.67	845.75
509.887	873.75
510.103	900.75
510.319	884.75
510.536	876.75
510.752	874.75
510.968	896.75
511.184	864.75
511.401	876.75
511.617	869.75
511.833	849.75
512.049	862.75
512.265	840.75
512.481	855.75
512.698	854.75
512.914	851.75
513.13	867.75
513.346	866.75
513.562	853.75
513.778	849.75
513.994	871.75
514.21	866.75
514.426	878.75
514.642	869.75
514.858	897.75
515.074	894.75
515.29	920.75
515.506	880.75
515.721	897.75
515.937	911.75
516.153	929.75
516.369	966.75
516.585	966.75
516.801	1027.75
517.016	1046.75
517.232	1088.75
517.448	1140.75
517.664	1153.75
517.879	1180.75
518.095	1200.75
518.311	1140.75
518.527	1111.75
518.742	1076.75
518.958	1016.75
519.173	989.75
519.389	963.75
519.605	935.75
519.82	946.75
520.036	931.75
520.251	913.75
520.467	901.75
520.682	872.75
520.898	858.75
521.113	877.75
521.329	889.75
521.544	840.75
521.76	855.75
521.975	839.75
522.19	816.75
522.406	821.75
522.621	798.75
522.836	807.75
523.052	824.75
523.267	796.75
523.482	810.75
523.698	788.75
523.913	784.75
524.128	784.75
524.343	806.75
524.559	812.75
524.774	775.75
524.989	814.75
525.204	801.75
525.419	778.75
525.634	748.75
525.849	783.75
526.064	785.75
526.28	795.75
526.495	775.75
526.71	738.75
526.925	752.75
527.14	752.75
527.355	769.75
527.57	784.75
527.785	765.75
527.999	752.75
528.214	774.75
528.429	768.75
528.644	784.75
528.859	781.75
529.074	816.75
529.289	772.75
529.503	779.75
529.718	780.75
529.933	785.75
530.148	785.75
530.363	753.75
530.577	784.75
530.792	765.75
531.007	757.75
531.221	785.75
531.436	780.75
531.651	761.75
531.865	758.75
532.08	775.75
532.295	815.75
532.509	751.75
532.724	751.75
532.938	770.75
533.153	758.75
533.367	770.75
533.582	787.75
533.796	772.75
534.011	758.75
534.225	757.75
534.44	740.75
534.654	760.75
534.868	769.75
535.083	774.75
535.297	766.75
535.511	756.75
535.726	742.75
535.94	740.75
536.154	717.75
536.369	705.75
536.583	720.75
536.797	714.75
537.011	707.75
537.225	715.75
537.44	706.75
537.654	714.75
537.868	710.75
538.082	681.75
538.296	705.75
538.51	720.75
538.724	721.75
538.938	704.75
539.153	705.75
539.367	705.75
539.581	693.75
539.795	700.75
540.009	725.75
540.222	693.75
540.436	678.75
540.65	702.75
540.864	687.75
541.078	671.75
541.292	691.75
541.506	702.75
541.72	690.75
541.934	688.75
542.147	732.75
542.361	700.75
542.575	694.75
542.789	690.75
543.002	706.75
543.216	702.75
543.43	682.75
543.644	668.75
543.857	695.75
544.071	707.75
544.285	688.75
544.498	680.75
544.712	700.75
544.925	704.75
545.139	706.75
545.352	713.75
545.566	732.75
545.779	740.75
545.993	727.75
546.206	739.75
546.42	710.75
546.633	734.75
546.847	721.75
547.06	730.75
547.274	732.75
547.487	713.75
547.7	723.75
547.914	729.75
548.127	701.75
548.34	719.75
548.554	724.75
548.767	737.75
548.98	711.75
549.193	724.75
549.407	724.75
549.62	702.75
549.833	729.75
550.046	756.75
550.259	704.75
550.473	700.75
550.686	688.75
550.899	702.75
551.112	690.75
551.325	715.75
551.538	680.75
551.751	691.75
551.964	688.75
552.177	726.75
552.39	706.75
552.603	741.75
552.816	722.75
553.029	748.75
553.242	767.75
553.455	777.75
553.667	764.75
553.88	756.75
554.093	739.75
554.306	705.75
554.519	702.75
554.732	692.75
554.944	682.75
555.157	694.75
555.37	662.75
555.583	649.75
555.795	641.75
556.008	639.75
556.221	640.75
556.433	650.75
556.646	641.75
556.859	626.75
557.071	632.75
557.284	608.75
557.496	630.75
557.709	632.75
557.921	622.75
558.134	606.75
558.346	611.75
558.559	597.75
558.771	604.75
558.984	610.75
559.196	605.75
559.409	601.75
559.621	604.75
559.833	583.75
560.046	578.75
560.258	592.75
560.47	602.75
560.683	573.75
560.895	592.75
561.107	577.75
561.32	579.75
561.532	579.75
561.744	556.75
561.956	582.75
562.168	600.75
562.381	579.75
562.593	569.75
562.805	602.75
563.017	579.75
563.229	583.75
563.441	582.75
563.653	605.75
563.865	598.75
564.077	594.75
564.289	601.75
564.501	617.75
564.713	620.75
564.925	640.75
565.137	652.75
565.349	655.75
565.561	657.75
565.773	698.75
565.985	722.75
566.197	750.75
566.408	802.75
566.62	888.75
566.832	898.75
567.044	931.75
567.255	921.75
567.467	949.75
567.679	1034.75
567.891	1055.75
568.102	1104.75
568.314	1043.75
568.526	940.75
568.737	866.75
568.949	821.75
569.161	773.75
569.372	694.75
569.584	657.75
569.795	648.75
570.007	615.75
570.218	607.75
570.43	608.75
570.641	601.75
570.853	600.75
571.064	612.75
571.276	609.75
571.487	568.75
571.698	560.75
571.91	542.75
572.121	544.75
572.333	523.75
572.544	505.75
572.755	502.75
572.966	514.75
573.178	498.75
573.389	495.75
573.6	503.75
573.811	470.75
574.023	477.75
574.234	487.75
574.445	485.75
574.656	479.75
574.867	504.75
575.078	483.75
575.289	477.75
575.501	472.75
575.712	462.75
575.923	458.75
576.134	483.75
576.345	468.75
576.556	452.75
576.767	438.75
576.978	462.75
577.188	449.75
577.399	450.75
577.61	443.75
577.821	440.75
578.032	449.75
578.243	440.75
578.454	432.75
578.665	428.75
578.875	439.75
579.086	425.75
579.297	410.75
579.508	418.75
579.718	442.75
579.929	412.75
580.14	410.75
580.35	413.75
580.561	418.75
580.772	413.75
580.982	415.75
581.193	422.75
581.403	398.75
581.614	411.75
581.825	397.75
582.035	400.75
582.246	425.75
582.456	423.75
582.667	402.75
582.877	416.75
583.087	412.75
583.298	401.75
583.508	399.75
583.719	417.75
583.929	408.75
584.139	384.75
584.35	387.75
584.56	389.75
584.77	409.75
584.981	408.75
585.191	410.75
585.401	402.75
585.611	383.75
585.821	391.75
586.032	403.75
586.242	385.75
586.452	386.75
586.662	404.75
586.872	392.75
587.082	403.75
587.292	398.75
587.502	404.75
587.713	397.75
587.923	376.75
588.133	391.75
588.343	397.75
588.553	400.75
588.762	396.75
588.972	398.75
589.182	384.75
589.392	400.75
589.602	413.75
589.812	413.75
590.022	385.75
590.232	384.75
590.441	395.75
590.651	394.75
590.861	386.75
591.071	413.75
591.281	408.75
591.49	411.75
591.7	402.75
591.91	414.75
592.119	445.75
592.329	424.75
592.539	453.75
592.748	461.75
592.958	472.75
593.167	472.75
593.377	482.75
593.587	521.75
593.796	478.75
594.006	490.75
594.215	488.75
594.424	501.75
594.634	482.75
594.843	460.75
595.053	444.75
595.262	444.75
595.472	424.75
595.681	421.75
595.89	422.75
596.1	392.75
596.309	391.75
596.518	392.75
596.727	377.75
596.937	377.75
597.146	364.75
597.355	367.75
597.564	351.75
597.774	345.75
597.983	365.75
598.192	350.75
598.401	334.75
598.61	358.75
598.819	322.75
599.028	334.75
599.237	330.75
599.446	343.75
599.655	356.75
599.864	330.75
600.073	342.75
600.282	339.75
600.491	306.75
600.7	321.75
600.909	316.75
601.118	327.75
601.327	335.75
601.536	328.75
601.745	338.75
601.953	308.75
602.162	315.75
602.371	318.75
602.58	325.75
602.789	334.75
602.997	320.75
603.206	312.75
603.415	330.75
603.623	328.75
603.832	323.75
604.041	311.75
604.249	322.75
604.458	293.75
604.666	310.75
604.875	297.75
605.084	322.75
605.292	309.75
605.501	315.75
605.709	291.75
605.918	305.75
606.126	310.75
606.334	308.75
606.543	302.75
606.751	320.75
606.96	313.75
607.168	308.75
607.376	304.75
607.585	297.75
607.793	291.75
608.001	300.75
608.21	289.75
608.418	294.75
608.626	287.75
608.834	303.75
609.043	304.75
609.251	301.75
609.459	270.75
609.667	313.75
609.875	296.75
610.083	285.75
610.291	310.75
610.499	295.75
610.707	300.75
610.916	302.75
611.124	297.75
611.332	282.75
611.54	273.75
611.748	276.75
611.955	267.75
612.163	285.75
612.371	281.75
612.579	286.75
612.787	295.75
612.995	290.75
613.203	287.75
613.411	295.75
613.618	295.75
613.826	282.75
614.034	285.75
614.242	293.75
614.449	265.75
614.657	273.75
614.865	281.75
615.072	278.75
615.28	270.75
615.488	277.75
615.695	276.75
615.903	286.75
616.111	276.75
616.318	288.75
616.526	292.75
616.733	287.75
616.941	271.75
617.148	282.75
617.356	289.75
617.563	290.75
617.771	287.75
617.978	272.75
618.185	263.75
618.393	285.75
618.6	289.75
618.807	293.75
619.015	286.75
619.222	285.75
619.429	273.75
619.637	270.75
619.844	266.75
620.051	270.75
620.258	252.75
620.466	256.75
620.673	264.75
620.88	265.75
621.087	265.75
621.294	265.75
621.501	271.75
621.708	251.75
621.915	260.75
622.122	259.75
622.329	274.75
622.536	262.75
622.743	254.75
622.95	283.75
623.157	263.75
623.364	275.75
623.571	246.75
623.778	265.75
623.985	261.75
624.192	248.75
624.399	260.75
624.606	263.75
624.812	241.75
625.019	229.75
625.226	254.75
625.433	251.75
625.639	240.75
625.846	236.75
626.053	242.75
626.259	240.75
626.466	236.75
626.673	237.75
626.879	250.75
627.086	237.75
627.293	254.75
627.499	245.75
627.706	261.75
627.912	228.75
628.119	227.75
628.325	236.75
628.532	239.75
628.738	237.75
628.945	253.75
629.151	238.75
629.357	233.75
629.564	216.75
629.77	213.75
629.976	214.75
630.183	223.75
630.389	219.75
630.595	232.75
630.802	234.75
631.008	233.75
631.214	220.75
631.42	233.75
631.627	222.75
631.833	216.75
632.039	203.75
632.245	220.75
632.451	207.75
632.657	213.75
632.863	221.75
633.069	223.75
633.275	216.75
633.481	211.75
633.688	192.75
633.893	221.75
634.099	213.75
634.305	205.75
634.511	209.75
634.717	208.75
634.923	206.75
635.129	212.75
635.335	205.75
635.541	200.75
635.747	214.75
635.952	201.75
636.158	195.75
636.364	232.75
636.57	213.75
636.775	207.75
636.981	196.75
637.187	216.75
637.392	202.75
637.598	195.75
637.804	211.75
638.009	209.75
638.215	194.75
638.421	204.75
638.626	204.75
638.832	208.75
639.037	182.75
639.243	200.75
639.448	184.75
639.654	196.75
639.859	191.75
640.065	192.75
640.27	214.75
640.475	201.75
640.681	206.75
640.886	210.75
641.091	187.75
641.297	193.75
641.502	183.75
641.707	202.75
641.913	198.75
642.118	203.75
642.323	174.75
642.528	202.75
642.733	195.75
642.939	188.75
643.144	176.75
643.349	188.75
643.554	182.75
643.759	166.75
643.964	183.75
644.169	194.75
644.374	191.75
644.579	189.75
644.784	191.75
644.989	186.75
645.194	182.75
645.399	185.75
645.604	197.75
645.809	182.75
646.014	191.75
646.219	184.75
646.423	198.75
646.628	205.75
646.833	186.75
647.038	187.75
647.243	205.75
647.447	176.75
647.652	183.75
647.857	200.75
648.062	200.75
648.266	198.75
648.471	194.75
648.676	190.75
648.88	209.75
649.085	195.75
649.289	176.75
649.494	198.75
649.698	183.75
649.903	180.75
650.107	184.75
650.312	183.75
650.516	187.75
650.721	190.75
650.925	182.75
651.13	172.75
651.334	176.75
651.539	177.75
651.743	165.75
651.947	168.75
652.152	167.75
652.356	160.75
652.56	173.75
652.764	140.75
652.969	160.75
653.173	164.75
653.377	154.75
653.581	148.75
653.785	148.75
653.99	162.75
654.194	146.75
654.398	160.75
654.602	142.75
654.806	132.75
655.01	136.75
655.214	147.75
655.418	152.75
655.622	145.75
655.826	139.75
656.03	142.75
656.234	139.75
656.438	136.75
656.642	148.75
656.846	134.75
657.049	133.75
657.253	133.75
657.457	144.75
657.661	129.75
657.865	125.75
658.068	127.75
658.272	121.75
658.476	110.75
658.68	118.75
658.883	126.75
659.087	113.75
659.291	103.75
659.494	99.75
659.698	86.75
659.901	103.75
660.105	103.75
660.309	94.75
660.512	101.75
660.716	101.75
660.919	101.75
661.123	90.75
661.326	84.75
661.53	88.75
661.733	100.75
661.936	89.75
662.14	84.75
662.343	81.75
662.546	98.75
662.75	86.75
662.953	73.75
663.156	77.75
663.36	84.75
663.563	83.75
663.766	78.75
663.969	86.75
664.173	73.75
664.376	79.75
664.579	73.75
664.782	65.75
664.985	76.75
665.188	80.75
665.391	92.75
665.594	74.75
665.797	73.75
666	67.75
666.203	81.75
666.406	92.75
666.609	78.75
666.812	80.75
667.015	90.75
667.218	88.75
667.421	85.75
667.624	72.75
667.827	84.75
668.03	85.75
668.232	85.75
668.435	86.75
668.638	88.75
668.841	86.75
669.043	76.75
669.246	75.75
669.449	86.75
669.651	74.75
669.854	79.75
670.057	92.75
670.259	61.75
670.462	82.75
670.665	71.75
670.867	82.75
671.07	89.75
671.272	84.75
671.475	77.75
671.677	86.75
671.88	75.75
672.082	90.75
672.284	68.75
672.487	89.75
672.689	87.75
672.892	71.75
