Data from NiCl2@0.125M.TitratingCurve.Agarose3%dH2O.NegLispCup.LampEnergy10.LIBS07252019_HRD10591_18-28-16-574.txt Node
Date: Thu Jul 25 18:28:16 EDT 2019
User: cochatt
Spectrometer: HR+D1059
Trigger mode: 1
Integration Time (sec): 1.000000E-1
Scans to average: 1
Electric dark correction enabled: true
Nonlinearity correction enabled: false
Boxcar width: 0
XAxis mode: Wavelengths
Number of Pixels in Spectrum: 2048
>>>>>Begin Spectral Data<<<<<
223.165	-7.06
223.4	-7.06
223.635	-7.06
223.869	-17.06
224.104	-11.06
224.338	-11.06
224.573	-22.06
224.808	-7.06
225.042	-11.06
225.277	-15.06
225.511	-17.06
225.746	-9.06
225.98	11.94
226.215	7.94
226.449	13.94
226.683	28.94
226.918	36.94
227.152	27.94
227.387	42.94
227.621	36.94
227.856	47.94
228.09	50.94
228.324	33.94
228.559	49.94
228.793	70.94
229.027	100.94
229.262	122.94
229.496	114.94
229.73	106.94
229.964	122.94
230.199	132.94
230.433	119.94
230.667	141.94
230.901	135.94
231.136	130.94
231.37	142.94
231.604	154.94
231.838	141.94
232.072	133.94
232.306	142.94
232.541	138.94
232.775	162.94
233.009	141.94
233.243	145.94
233.477	159.94
233.711	146.94
233.945	147.94
234.179	146.94
234.413	138.94
234.647	161.94
234.881	154.94
235.115	146.94
235.349	148.94
235.583	156.94
235.817	157.94
236.051	155.94
236.285	161.94
236.519	146.94
236.753	146.94
236.987	147.94
237.221	169.94
237.455	162.94
237.689	163.94
237.922	157.94
238.156	156.94
238.39	173.94
238.624	168.94
238.858	182.94
239.091	176.94
239.325	167.94
239.559	176.94
239.793	167.94
240.027	183.94
240.26	166.94
240.494	169.94
240.728	167.94
240.961	176.94
241.195	182.94
241.429	185.94
241.662	203.94
241.896	177.94
242.13	174.94
242.363	178.94
242.597	190.94
242.83	207.94
243.064	202.94
243.298	204.94
243.531	187.94
243.765	202.94
243.998	213.94
244.232	214.94
244.465	195.94
244.699	221.94
244.932	202.94
245.166	209.94
245.399	211.94
245.633	224.94
245.866	216.94
246.099	212.94
246.333	211.94
246.566	214.94
246.8	233.94
247.033	224.94
247.266	238.94
247.5	226.94
247.733	231.94
247.966	230.94
248.2	234.94
248.433	230.94
248.666	232.94
248.899	227.94
249.133	237.94
249.366	220.94
249.599	236.94
249.832	240.94
250.066	250.94
250.299	225.94
250.532	246.94
250.765	241.94
250.998	253.94
251.231	265.94
251.465	268.94
251.698	264.94
251.931	278.94
252.164	270.94
252.397	260.94
252.63	266.94
252.863	268.94
253.096	276.94
253.329	275.94
253.562	280.94
253.795	286.94
254.028	282.94
254.261	279.94
254.494	267.94
254.727	262.94
254.96	275.94
255.193	280.94
255.426	292.94
255.659	277.94
255.892	277.94
256.124	292.94
256.357	288.94
256.59	308.94
256.823	277.94
257.056	300.94
257.289	291.94
257.521	292.94
257.754	290.94
257.987	302.94
258.22	314.94
258.452	314.94
258.685	291.94
258.918	308.94
259.151	294.94
259.383	318.94
259.616	307.94
259.849	318.94
260.081	316.94
260.314	313.94
260.547	312.94
260.779	323.94
261.012	314.94
261.244	313.94
261.477	313.94
261.71	335.94
261.942	333.94
262.175	342.94
262.407	335.94
262.64	314.94
262.872	329.94
263.105	322.94
263.337	315.94
263.57	330.94
263.802	328.94
264.035	331.94
264.267	364.94
264.499	343.94
264.732	316.94
264.964	348.94
265.197	342.94
265.429	350.94
265.661	353.94
265.894	341.94
266.126	350.94
266.358	348.94
266.591	353.94
266.823	365.94
267.055	343.94
267.287	379.94
267.52	353.94
267.752	362.94
267.984	364.94
268.216	364.94
268.448	370.94
268.681	366.94
268.913	357.94
269.145	357.94
269.377	358.94
269.609	370.94
269.841	374.94
270.073	378.94
270.306	371.94
270.538	363.94
270.77	384.94
271.002	393.94
271.234	355.94
271.466	378.94
271.698	386.94
271.93	385.94
272.162	389.94
272.394	399.94
272.626	368.94
272.858	379.94
273.09	399.94
273.322	404.94
273.553	383.94
273.785	402.94
274.017	384.94
274.249	407.94
274.481	394.94
274.713	387.94
274.945	394.94
275.176	422.94
275.408	429.94
275.64	394.94
275.872	410.94
276.104	424.94
276.335	434.94
276.567	410.94
276.799	427.94
277.031	410.94
277.262	423.94
277.494	416.94
277.726	418.94
277.957	428.94
278.189	422.94
278.421	429.94
278.652	430.94
278.884	439.94
279.115	439.94
279.347	431.94
279.579	419.94
279.81	448.94
280.042	446.94
280.273	453.94
280.505	440.94
280.736	450.94
280.968	436.94
281.199	453.94
281.431	470.94
281.662	451.94
281.894	469.94
282.125	461.94
282.356	471.94
282.588	467.94
282.819	470.94
283.051	474.94
283.282	459.94
283.513	481.94
283.745	481.94
283.976	476.94
284.207	468.94
284.439	468.94
284.67	459.94
284.901	476.94
285.132	483.94
285.364	474.94
285.595	489.94
285.826	498.94
286.057	490.94
286.288	476.94
286.52	481.94
286.751	475.94
286.982	494.94
287.213	504.94
287.444	507.94
287.675	493.94
287.906	505.94
288.138	534.94
288.369	529.94
288.6	531.94
288.831	499.94
289.062	479.94
289.293	514.94
289.524	510.94
289.755	496.94
289.986	547.94
290.217	536.94
290.448	506.94
290.679	531.94
290.91	528.94
291.141	518.94
291.371	500.94
291.602	529.94
291.833	516.94
292.064	523.94
292.295	521.94
292.526	533.94
292.757	510.94
292.987	516.94
293.218	539.94
293.449	544.94
293.68	536.94
293.91	529.94
294.141	523.94
294.372	545.94
294.603	541.94
294.833	553.94
295.064	545.94
295.295	522.94
295.525	536.94
295.756	558.94
295.987	561.94
296.217	544.94
296.448	552.94
296.679	536.94
296.909	553.94
297.14	550.94
297.37	571.94
297.601	562.94
297.831	581.94
298.062	552.94
298.292	560.94
298.523	572.94
298.753	580.94
298.984	576.94
299.214	574.94
299.445	572.94
299.675	582.94
299.905	577.94
300.136	559.94
300.366	587.94
300.597	574.94
300.827	596.94
301.057	590.94
301.288	607.94
301.518	629.94
301.748	624.94
301.979	606.94
302.209	587.94
302.439	611.94
302.669	588.94
302.9	587.94
303.13	600.94
303.36	586.94
303.59	586.94
303.82	614.94
304.051	596.94
304.281	619.94
304.511	585.94
304.741	577.94
304.971	596.94
305.201	583.94
305.431	603.94
305.661	586.94
305.891	599.94
306.121	590.94
306.352	598.94
306.582	569.94
306.812	568.94
307.042	564.94
307.272	585.94
307.502	570.94
307.731	559.94
307.961	578.94
308.191	553.94
308.421	581.94
308.651	582.94
308.881	563.94
309.111	575.94
309.341	578.94
309.571	569.94
309.8	588.94
310.03	584.94
310.26	594.94
310.49	596.94
310.72	578.94
310.949	575.94
311.179	609.94
311.409	583.94
311.639	592.94
311.868	596.94
312.098	595.94
312.328	599.94
312.557	606.94
312.787	592.94
313.017	609.94
313.246	643.94
313.476	619.94
313.706	618.94
313.935	603.94
314.165	608.94
314.394	627.94
314.624	638.94
314.853	642.94
315.083	634.94
315.312	626.94
315.542	626.94
315.771	611.94
316.001	610.94
316.23	600.94
316.46	597.94
316.689	601.94
316.919	614.94
317.148	603.94
317.377	614.94
317.607	602.94
317.836	595.94
318.065	616.94
318.295	601.94
318.524	614.94
318.753	617.94
318.983	607.94
319.212	599.94
319.441	604.94
319.67	602.94
319.9	617.94
320.129	614.94
320.358	602.94
320.587	609.94
320.816	620.94
321.046	592.94
321.275	623.94
321.504	611.94
321.733	606.94
321.962	626.94
322.191	616.94
322.42	623.94
322.649	618.94
322.878	632.94
323.108	619.94
323.337	634.94
323.566	592.94
323.795	625.94
324.024	618.94
324.253	618.94
324.482	616.94
324.71	623.94
324.939	620.94
325.168	626.94
325.397	634.94
325.626	616.94
325.855	635.94
326.084	646.94
326.313	680.94
326.542	663.94
326.77	665.94
326.999	656.94
327.228	656.94
327.457	645.94
327.686	645.94
327.914	660.94
328.143	669.94
328.372	659.94
328.6	650.94
328.829	660.94
329.058	645.94
329.287	677.94
329.515	648.94
329.744	663.94
329.972	638.94
330.201	671.94
330.43	677.94
330.658	669.94
330.887	664.94
331.115	667.94
331.344	708.94
331.572	699.94
331.801	727.94
332.03	723.94
332.258	757.94
332.486	760.94
332.715	777.94
332.943	798.94
333.172	844.94
333.4	891.94
333.629	902.94
333.857	884.94
334.085	920.94
334.314	869.94
334.542	862.94
334.771	830.94
334.999	819.94
335.227	830.94
335.455	832.94
335.684	830.94
335.912	816.94
336.14	800.94
336.369	812.94
336.597	802.94
336.825	811.94
337.053	781.94
337.281	802.94
337.51	763.94
337.738	739.94
337.966	743.94
338.194	729.94
338.422	729.94
338.65	704.94
338.878	706.94
339.106	716.94
339.334	729.94
339.562	720.94
339.79	696.94
340.018	694.94
340.246	683.94
340.474	712.94
340.702	680.94
340.93	695.94
341.158	712.94
341.386	678.94
341.614	679.94
341.842	690.94
342.07	662.94
342.298	708.94
342.526	687.94
342.754	687.94
342.981	690.94
343.209	668.94
343.437	761.94
343.665	786.94
343.893	832.94
344.12	870.94
344.348	831.94
344.576	787.94
344.804	745.94
345.031	738.94
345.259	742.94
345.487	696.94
345.714	690.94
345.942	685.94
346.17	706.94
346.397	681.94
346.625	662.94
346.853	661.94
347.08	642.94
347.308	646.94
347.535	673.94
347.763	667.94
347.99	677.94
348.218	648.94
348.445	675.94
348.673	680.94
348.9	641.94
349.128	673.94
349.355	666.94
349.583	698.94
349.81	682.94
350.037	639.94
350.265	668.94
350.492	652.94
350.72	620.94
350.947	642.94
351.174	660.94
351.402	659.94
351.629	643.94
351.856	667.94
352.083	652.94
352.311	650.94
352.538	649.94
352.765	656.94
352.992	645.94
353.22	624.94
353.447	648.94
353.674	636.94
353.901	653.94
354.128	622.94
354.355	627.94
354.583	644.94
354.81	646.94
355.037	648.94
355.264	658.94
355.491	660.94
355.718	635.94
355.945	646.94
356.172	653.94
356.399	649.94
356.626	670.94
356.853	666.94
357.08	629.94
357.307	680.94
357.534	664.94
357.761	642.94
357.988	654.94
358.215	632.94
358.441	656.94
358.668	648.94
358.895	644.94
359.122	654.94
359.349	652.94
359.576	660.94
359.802	630.94
360.029	648.94
360.256	672.94
360.483	658.94
360.709	643.94
360.936	646.94
361.163	636.94
361.39	667.94
361.616	645.94
361.843	665.94
362.07	657.94
362.296	646.94
362.523	641.94
362.749	639.94
362.976	661.94
363.203	664.94
363.429	651.94
363.656	619.94
363.882	651.94
364.109	648.94
364.335	649.94
364.562	647.94
364.788	658.94
365.015	632.94
365.241	638.94
365.468	654.94
365.694	636.94
365.92	642.94
366.147	652.94
366.373	664.94
366.599	631.94
366.826	632.94
367.052	634.94
367.278	636.94
367.505	626.94
367.731	642.94
367.957	647.94
368.184	659.94
368.41	671.94
368.636	663.94
368.862	648.94
369.089	662.94
369.315	666.94
369.541	661.94
369.767	656.94
369.993	653.94
370.219	677.94
370.445	692.94
370.672	680.94
370.898	692.94
371.124	714.94
371.35	701.94
371.576	705.94
371.802	704.94
372.028	700.94
372.254	707.94
372.48	713.94
372.706	724.94
372.932	738.94
373.158	740.94
373.384	714.94
373.61	740.94
373.835	722.94
374.061	727.94
374.287	712.94
374.513	705.94
374.739	731.94
374.965	769.94
375.191	780.94
375.416	786.94
375.642	738.94
375.868	730.94
376.094	735.94
376.319	722.94
376.545	697.94
376.771	747.94
376.997	714.94
377.222	691.94
377.448	706.94
377.674	700.94
377.899	714.94
378.125	703.94
378.35	698.94
378.576	673.94
378.802	690.94
379.027	718.94
379.253	696.94
379.478	708.94
379.704	707.94
379.929	691.94
380.155	695.94
380.38	692.94
380.606	688.94
380.831	692.94
381.057	702.94
381.282	673.94
381.507	711.94
381.733	709.94
381.958	736.94
382.184	723.94
382.409	739.94
382.634	737.94
382.86	731.94
383.085	746.94
383.31	762.94
383.535	757.94
383.761	809.94
383.986	795.94
384.211	802.94
384.436	822.94
384.662	846.94
384.887	860.94
385.112	854.94
385.337	848.94
385.562	872.94
385.787	880.94
386.013	891.94
386.238	884.94
386.463	905.94
386.688	887.94
386.913	849.94
387.138	856.94
387.363	857.94
387.588	841.94
387.813	859.94
388.038	847.94
388.263	863.94
388.488	838.94
388.713	849.94
388.938	846.94
389.163	835.94
389.387	850.94
389.612	818.94
389.837	841.94
390.062	842.94
390.287	851.94
390.512	838.94
390.736	829.94
390.961	859.94
391.186	882.94
391.411	912.94
391.636	937.94
391.86	943.94
392.085	953.94
392.31	976.94
392.534	947.94
392.759	891.94
392.984	914.94
393.208	909.94
393.433	899.94
393.658	915.94
393.882	911.94
394.107	921.94
394.331	908.94
394.556	921.94
394.78	888.94
395.005	912.94
395.229	902.94
395.454	964.94
395.678	990.94
395.903	998.94
396.127	965.94
396.352	916.94
396.576	883.94
396.801	898.94
397.025	917.94
397.249	948.94
397.474	971.94
397.698	967.94
397.922	951.94
398.147	945.94
398.371	956.94
398.595	1015.94
398.82	1040.94
399.044	1142.94
399.268	1260.94
399.492	1426.94
399.717	1630.94
399.941	1681.94
400.165	1521.94
400.389	1339.94
400.613	1227.94
400.837	1122.94
401.062	1094.94
401.286	1100.94
401.51	1100.94
401.734	1040.94
401.958	1105.94
402.182	1100.94
402.406	1131.94
402.63	1123.94
402.854	1150.94
403.078	1158.94
403.302	1194.94
403.526	1219.94
403.75	1221.94
403.974	1259.94
404.198	1239.94
404.422	1282.94
404.645	1242.94
404.869	1220.94
405.093	1258.94
405.317	1226.94
405.541	1228.94
405.765	1174.94
405.988	1163.94
406.212	1166.94
406.436	1186.94
406.66	1190.94
406.883	1230.94
407.107	1307.94
407.331	1341.94
407.555	1436.94
407.778	1422.94
408.002	1365.94
408.226	1340.94
408.449	1312.94
408.673	1243.94
408.896	1216.94
409.12	1206.94
409.344	1234.94
409.567	1213.94
409.791	1232.94
410.014	1224.94
410.238	1208.94
410.461	1195.94
410.685	1191.94
410.908	1165.94
411.132	1168.94
411.355	1062.94
411.578	1132.94
411.802	1127.94
412.025	1141.94
412.249	1149.94
412.472	1164.94
412.695	1105.94
412.919	1082.94
413.142	1079.94
413.365	1098.94
413.589	1111.94
413.812	1073.94
414.035	1086.94
414.258	1082.94
414.482	1056.94
414.705	1109.94
414.928	1092.94
415.151	1098.94
415.374	1097.94
415.597	1076.94
415.821	1095.94
416.044	1017.94
416.267	1062.94
416.49	1066.94
416.713	1060.94
416.936	1059.94
417.159	1057.94
417.382	1040.94
417.605	1043.94
417.828	1092.94
418.051	1079.94
418.274	1077.94
418.497	1069.94
418.72	1087.94
418.943	1065.94
419.166	1162.94
419.389	1239.94
419.611	1270.94
419.834	1148.94
420.057	1149.94
420.28	1097.94
420.503	1099.94
420.726	1072.94
420.948	1073.94
421.171	1070.94
421.394	1056.94
421.617	1051.94
421.839	1087.94
422.062	1097.94
422.285	1046.94
422.507	1117.94
422.73	1061.94
422.953	1082.94
423.175	1106.94
423.398	1100.94
423.621	1160.94
423.843	1163.94
424.066	1140.94
424.288	1148.94
424.511	1137.94
424.733	1111.94
424.956	1068.94
425.178	1107.94
425.401	1088.94
425.623	1084.94
425.846	1064.94
426.068	1058.94
426.291	1049.94
426.513	1044.94
426.735	1000.94
426.958	1013.94
427.18	984.94
427.402	976.94
427.625	962.94
427.847	964.94
428.069	943.94
428.292	968.94
428.514	942.94
428.736	962.94
428.958	990.94
429.181	943.94
429.403	906.94
429.625	920.94
429.847	923.94
430.069	933.94
430.292	955.94
430.514	948.94
430.736	940.94
430.958	918.94
431.18	937.94
431.402	932.94
431.624	961.94
431.846	946.94
432.068	972.94
432.29	979.94
432.512	951.94
432.734	946.94
432.956	955.94
433.178	984.94
433.4	965.94
433.622	977.94
433.844	985.94
434.066	980.94
434.287	979.94
434.509	1037.94
434.731	1098.94
434.953	1070.94
435.175	1129.94
435.397	1062.94
435.618	1012.94
435.84	1029.94
436.062	983.94
436.284	962.94
436.505	972.94
436.727	964.94
436.949	983.94
437.17	953.94
437.392	957.94
437.614	983.94
437.835	900.94
438.057	942.94
438.278	929.94
438.5	916.94
438.721	936.94
438.943	948.94
439.165	945.94
439.386	946.94
439.608	954.94
439.829	978.94
440.05	972.94
440.272	972.94
440.493	999.94
440.715	977.94
440.936	1005.94
441.158	1022.94
441.379	1060.94
441.6	1125.94
441.822	1108.94
442.043	1116.94
442.264	1084.94
442.486	1054.94
442.707	1074.94
442.928	1055.94
443.149	1086.94
443.371	1039.94
443.592	1068.94
443.813	1110.94
444.034	1106.94
444.255	1112.94
444.476	1192.94
444.698	1256.94
444.919	1327.94
445.14	1398.94
445.361	1223.94
445.582	1145.94
445.803	1062.94
446.024	1031.94
446.245	1030.94
446.466	1009.94
446.687	979.94
446.908	1009.94
447.129	958.94
447.35	926.94
447.571	946.94
447.792	904.94
448.013	912.94
448.234	881.94
448.455	873.94
448.675	897.94
448.896	899.94
449.117	913.94
449.338	896.94
449.559	891.94
449.779	867.94
450	886.94
450.221	865.94
450.442	902.94
450.662	899.94
450.883	908.94
451.104	916.94
451.324	910.94
451.545	902.94
451.766	916.94
451.986	903.94
452.207	898.94
452.428	855.94
452.648	894.94
452.869	870.94
453.089	856.94
453.31	888.94
453.53	868.94
453.751	856.94
453.971	869.94
454.192	846.94
454.412	812.94
454.633	847.94
454.853	840.94
455.073	865.94
455.294	833.94
455.514	835.94
455.734	841.94
455.955	828.94
456.175	801.94
456.395	823.94
456.616	828.94
456.836	847.94
457.056	810.94
457.276	830.94
457.497	846.94
457.717	813.94
457.937	866.94
458.157	839.94
458.377	847.94
458.598	863.94
458.818	873.94
459.038	892.94
459.258	979.94
459.478	982.94
459.698	1004.94
459.918	1014.94
460.138	1076.94
460.358	1117.94
460.578	1144.94
460.798	1166.94
461.018	1160.94
461.238	1152.94
461.458	1168.94
461.678	1136.94
461.898	1188.94
462.118	1173.94
462.338	1228.94
462.558	1264.94
462.777	1319.94
462.997	1388.94
463.217	1539.94
463.437	1580.94
463.657	1432.94
463.876	1386.94
464.096	1363.94
464.316	1343.94
464.536	1341.94
464.755	1299.94
464.975	1260.94
465.195	1208.94
465.414	1128.94
465.634	1062.94
465.854	1024.94
466.073	998.94
466.293	1010.94
466.512	997.94
466.732	919.94
466.951	929.94
467.171	934.94
467.391	929.94
467.61	955.94
467.829	931.94
468.049	902.94
468.268	915.94
468.488	928.94
468.707	882.94
468.927	905.94
469.146	904.94
469.365	897.94
469.585	899.94
469.804	948.94
470.023	952.94
470.243	940.94
470.462	959.94
470.681	972.94
470.901	948.94
471.12	944.94
471.339	931.94
471.558	919.94
471.777	944.94
471.997	883.94
472.216	884.94
472.435	890.94
472.654	874.94
472.873	861.94
473.092	869.94
473.311	885.94
473.53	867.94
473.749	861.94
473.968	849.94
474.187	862.94
474.406	866.94
474.625	881.94
474.844	857.94
475.063	870.94
475.282	880.94
475.501	874.94
475.72	875.94
475.939	888.94
476.158	896.94
476.377	895.94
476.596	890.94
476.814	944.94
477.033	927.94
477.252	951.94
477.471	968.94
477.69	991.94
477.908	1008.94
478.127	1024.94
478.346	1040.94
478.564	1045.94
478.783	1063.94
479.002	1117.94
479.22	1088.94
479.439	1083.94
479.658	1085.94
479.876	1087.94
480.095	1104.94
480.313	1152.94
480.532	1182.94
480.751	1166.94
480.969	1123.94
481.188	1078.94
481.406	1058.94
481.624	1011.94
481.843	1012.94
482.061	1041.94
482.28	980.94
482.498	985.94
482.717	971.94
482.935	1030.94
483.153	976.94
483.372	968.94
483.59	1016.94
483.808	1005.94
484.027	1003.94
484.245	987.94
484.463	997.94
484.681	1007.94
484.9	1034.94
485.118	999.94
485.336	1040.94
485.554	1028.94
485.772	1050.94
485.99	1079.94
486.209	1042.94
486.427	1062.94
486.645	1064.94
486.863	1056.94
487.081	1055.94
487.299	1050.94
487.517	1049.94
487.735	1037.94
487.953	1061.94
488.171	1079.94
488.389	1028.94
488.607	1046.94
488.825	1045.94
489.043	1024.94
489.261	1050.94
489.479	1011.94
489.696	1036.94
489.914	1030.94
490.132	1019.94
490.35	1041.94
490.568	1041.94
490.786	1075.94
491.003	1037.94
491.221	1054.94
491.439	1064.94
491.657	1040.94
491.874	1054.94
492.092	1064.94
492.31	1088.94
492.527	1093.94
492.745	1069.94
492.963	1084.94
493.18	1062.94
493.398	1121.94
493.615	1094.94
493.833	1087.94
494.05	1123.94
494.268	1093.94
494.485	1105.94
494.703	1098.94
494.92	1116.94
495.138	1090.94
495.355	1102.94
495.573	1126.94
495.79	1128.94
496.008	1124.94
496.225	1146.94
496.442	1134.94
496.66	1141.94
496.877	1207.94
497.094	1155.94
497.312	1200.94
497.529	1210.94
497.746	1253.94
497.963	1301.94
498.181	1343.94
498.398	1391.94
498.615	1501.94
498.832	1572.94
499.049	1698.94
499.267	1830.94
499.484	2058.94
499.701	2224.94
499.918	2507.94
500.135	2883.94
500.352	3207.94
500.569	3392.94
500.786	3390.94
501.003	3149.94
501.22	2867.94
501.437	2508.94
501.654	2174.94
501.871	2014.94
502.088	1832.94
502.305	1714.94
502.522	1628.94
502.739	1534.94
502.956	1473.94
503.172	1390.94
503.389	1337.94
503.606	1300.94
503.823	1283.94
504.04	1298.94
504.256	1305.94
504.473	1316.94
504.69	1320.94
504.907	1330.94
505.123	1241.94
505.34	1173.94
505.557	1126.94
505.773	1080.94
505.99	1053.94
506.207	1042.94
506.423	1026.94
506.64	1005.94
506.856	997.94
507.073	992.94
507.289	993.94
507.506	985.94
507.722	970.94
507.939	982.94
508.155	963.94
508.372	962.94
508.588	948.94
508.805	930.94
509.021	949.94
509.238	932.94
509.454	898.94
509.67	913.94
509.887	926.94
510.103	908.94
510.319	896.94
510.536	902.94
510.752	887.94
510.968	902.94
511.184	907.94
511.401	907.94
511.617	909.94
511.833	885.94
512.049	871.94
512.265	888.94
512.481	912.94
512.698	893.94
512.914	901.94
513.13	915.94
513.346	886.94
513.562	896.94
513.778	919.94
513.994	902.94
514.21	897.94
514.426	905.94
514.642	912.94
514.858	898.94
515.074	905.94
515.29	922.94
515.506	934.94
515.721	932.94
515.937	937.94
516.153	962.94
516.369	999.94
516.585	1048.94
516.801	1070.94
517.016	1111.94
517.232	1162.94
517.448	1215.94
517.664	1250.94
517.879	1247.94
518.095	1284.94
518.311	1239.94
518.527	1189.94
518.742	1128.94
518.958	1057.94
519.173	1030.94
519.389	1058.94
519.605	965.94
519.82	958.94
520.036	946.94
520.251	930.94
520.467	924.94
520.682	880.94
520.898	870.94
521.113	904.94
521.329	880.94
521.544	883.94
521.76	898.94
521.975	869.94
522.19	852.94
522.406	840.94
522.621	842.94
522.836	818.94
523.052	844.94
523.267	844.94
523.482	846.94
523.698	830.94
523.913	824.94
524.128	820.94
524.343	823.94
524.559	858.94
524.774	838.94
524.989	826.94
525.204	803.94
525.419	824.94
525.634	828.94
525.849	805.94
526.064	830.94
526.28	825.94
526.495	822.94
526.71	821.94
526.925	797.94
527.14	811.94
527.355	843.94
527.57	815.94
527.785	820.94
527.999	783.94
528.214	798.94
528.429	793.94
528.644	810.94
528.859	836.94
529.074	828.94
529.289	833.94
529.503	816.94
529.718	833.94
529.933	822.94
530.148	804.94
530.363	807.94
530.577	810.94
530.792	826.94
531.007	798.94
531.221	804.94
531.436	828.94
531.651	807.94
531.865	804.94
532.08	810.94
532.295	812.94
532.509	827.94
532.724	808.94
532.938	832.94
533.153	820.94
533.367	772.94
533.582	809.94
533.796	817.94
534.011	824.94
534.225	809.94
534.44	779.94
534.654	794.94
534.868	776.94
535.083	807.94
535.297	775.94
535.511	770.94
535.726	775.94
535.94	780.94
536.154	756.94
536.369	800.94
536.583	774.94
536.797	773.94
537.011	765.94
537.225	744.94
537.44	743.94
537.654	766.94
537.868	738.94
538.082	742.94
538.296	746.94
538.51	756.94
538.724	753.94
538.938	736.94
539.153	752.94
539.367	729.94
539.581	756.94
539.795	728.94
540.009	731.94
540.222	736.94
540.436	720.94
540.65	708.94
540.864	697.94
541.078	734.94
541.292	718.94
541.506	724.94
541.72	732.94
541.934	728.94
542.147	721.94
542.361	727.94
542.575	731.94
542.789	736.94
543.002	725.94
543.216	713.94
543.43	722.94
543.644	734.94
543.857	723.94
544.071	705.94
544.285	745.94
544.498	729.94
544.712	738.94
544.925	730.94
545.139	737.94
545.352	730.94
545.566	787.94
545.779	755.94
545.993	784.94
546.206	751.94
546.42	744.94
546.633	744.94
546.847	721.94
547.06	735.94
547.274	740.94
547.487	745.94
547.7	770.94
547.914	752.94
548.127	751.94
548.34	751.94
548.554	747.94
548.767	754.94
548.98	759.94
549.193	768.94
549.407	759.94
549.62	786.94
549.833	780.94
550.046	772.94
550.259	776.94
550.473	738.94
550.686	782.94
550.899	734.94
551.112	740.94
551.325	721.94
551.538	714.94
551.751	730.94
551.964	734.94
552.177	757.94
552.39	759.94
552.603	764.94
552.816	794.94
553.029	798.94
553.242	826.94
553.455	842.94
553.667	824.94
553.88	806.94
554.093	772.94
554.306	777.94
554.519	783.94
554.732	735.94
554.944	720.94
555.157	726.94
555.37	684.94
555.583	710.94
555.795	682.94
556.008	688.94
556.221	664.94
556.433	661.94
556.646	647.94
556.859	671.94
557.071	659.94
557.284	643.94
557.496	651.94
557.709	645.94
557.921	647.94
558.134	618.94
558.346	628.94
558.559	640.94
558.771	615.94
558.984	628.94
559.196	646.94
559.409	626.94
559.621	648.94
559.833	635.94
560.046	598.94
560.258	612.94
560.47	638.94
560.683	618.94
560.895	611.94
561.107	609.94
561.32	616.94
561.532	630.94
561.744	610.94
561.956	634.94
562.168	625.94
562.381	604.94
562.593	644.94
562.805	614.94
563.017	624.94
563.229	637.94
563.441	619.94
563.653	621.94
563.865	626.94
564.077	630.94
564.289	675.94
564.501	656.94
564.713	668.94
564.925	699.94
565.137	679.94
565.349	703.94
565.561	717.94
565.773	755.94
565.985	786.94
566.197	802.94
566.408	883.94
566.62	969.94
566.832	1028.94
567.044	1062.94
567.255	1031.94
567.467	1065.94
567.679	1125.94
567.891	1194.94
568.102	1257.94
568.314	1152.94
568.526	1037.94
568.737	952.94
568.949	888.94
569.161	803.94
569.372	724.94
569.584	710.94
569.795	704.94
570.007	679.94
570.218	666.94
570.43	659.94
570.641	653.94
570.853	633.94
571.064	662.94
571.276	658.94
571.487	615.94
571.698	608.94
571.91	576.94
572.121	585.94
572.333	567.94
572.544	544.94
572.755	538.94
572.966	528.94
573.178	525.94
573.389	548.94
573.6	527.94
573.811	513.94
574.023	535.94
574.234	542.94
574.445	504.94
574.656	513.94
574.867	523.94
575.078	526.94
575.289	522.94
575.501	512.94
575.712	492.94
575.923	480.94
576.134	491.94
576.345	492.94
576.556	482.94
576.767	485.94
576.978	497.94
577.188	489.94
577.399	459.94
577.61	482.94
577.821	494.94
578.032	469.94
578.243	471.94
578.454	480.94
578.665	445.94
578.875	456.94
579.086	464.94
579.297	455.94
579.508	456.94
579.718	472.94
579.929	461.94
580.14	442.94
580.35	452.94
580.561	465.94
580.772	454.94
580.982	455.94
581.193	458.94
581.403	425.94
581.614	432.94
581.825	436.94
582.035	451.94
582.246	443.94
582.456	430.94
582.667	424.94
582.877	446.94
583.087	442.94
583.298	434.94
583.508	436.94
583.719	440.94
583.929	448.94
584.139	419.94
584.35	436.94
584.56	429.94
584.77	433.94
584.981	422.94
585.191	438.94
585.401	425.94
585.611	426.94
585.821	433.94
586.032	424.94
586.242	437.94
586.452	402.94
586.662	420.94
586.872	435.94
587.082	423.94
587.292	427.94
587.502	421.94
587.713	407.94
587.923	409.94
588.133	416.94
588.343	414.94
588.553	410.94
588.762	402.94
588.972	425.94
589.182	419.94
589.392	435.94
589.602	410.94
589.812	424.94
590.022	428.94
590.232	414.94
590.441	410.94
590.651	427.94
590.861	426.94
591.071	425.94
591.281	426.94
591.49	444.94
591.7	423.94
591.91	438.94
592.119	458.94
592.329	475.94
592.539	479.94
592.748	489.94
592.958	514.94
593.167	520.94
593.377	522.94
593.587	543.94
593.796	543.94
594.006	547.94
594.215	538.94
594.424	528.94
594.634	529.94
594.843	519.94
595.053	507.94
595.262	488.94
595.472	449.94
595.681	458.94
595.89	448.94
596.1	432.94
596.309	401.94
596.518	409.94
596.727	414.94
596.937	378.94
597.146	391.94
597.355	387.94
597.564	391.94
597.774	374.94
597.983	382.94
598.192	367.94
598.401	376.94
598.61	385.94
598.819	363.94
599.028	344.94
599.237	366.94
599.446	350.94
599.655	354.94
599.864	362.94
600.073	369.94
600.282	351.94
600.491	354.94
600.7	358.94
600.909	358.94
601.118	351.94
601.327	352.94
601.536	339.94
601.745	345.94
601.953	360.94
602.162	340.94
602.371	354.94
602.58	340.94
602.789	344.94
602.997	339.94
603.206	359.94
603.415	340.94
603.623	352.94
603.832	340.94
604.041	356.94
604.249	324.94
604.458	346.94
604.666	312.94
604.875	326.94
605.084	325.94
605.292	321.94
605.501	320.94
605.709	321.94
605.918	318.94
606.126	310.94
606.334	322.94
606.543	336.94
606.751	309.94
606.96	315.94
607.168	315.94
607.376	313.94
607.585	308.94
607.793	306.94
608.001	319.94
608.21	327.94
608.418	314.94
608.626	313.94
608.834	319.94
609.043	318.94
609.251	316.94
609.459	326.94
609.667	319.94
609.875	315.94
610.083	331.94
610.291	305.94
610.499	295.94
610.707	318.94
610.916	302.94
611.124	308.94
611.332	319.94
611.54	332.94
611.748	320.94
611.955	299.94
612.163	317.94
612.371	317.94
612.579	314.94
612.787	325.94
612.995	304.94
613.203	310.94
613.411	276.94
613.618	299.94
613.826	310.94
614.034	326.94
614.242	296.94
614.449	313.94
614.657	314.94
614.865	302.94
615.072	307.94
615.28	299.94
615.488	299.94
615.695	296.94
615.903	298.94
616.111	305.94
616.318	309.94
616.526	312.94
616.733	318.94
616.941	302.94
617.148	315.94
617.356	311.94
617.563	329.94
617.771	293.94
617.978	299.94
618.185	294.94
618.393	308.94
618.6	310.94
618.807	308.94
619.015	315.94
619.222	302.94
619.429	305.94
619.637	307.94
619.844	288.94
620.051	287.94
620.258	298.94
620.466	283.94
620.673	282.94
620.88	275.94
621.087	278.94
621.294	298.94
621.501	288.94
621.708	287.94
621.915	294.94
622.122	277.94
622.329	280.94
622.536	291.94
622.743	284.94
622.95	281.94
623.157	283.94
623.364	276.94
623.571	257.94
623.778	266.94
623.985	276.94
624.192	265.94
624.399	267.94
624.606	271.94
624.812	264.94
625.019	264.94
625.226	268.94
625.433	260.94
625.639	255.94
625.846	272.94
626.053	266.94
626.259	271.94
626.466	259.94
626.673	258.94
626.879	265.94
627.086	258.94
627.293	258.94
627.499	238.94
627.706	262.94
627.912	272.94
628.119	267.94
628.325	262.94
628.532	251.94
628.738	261.94
628.945	275.94
629.151	253.94
629.357	248.94
629.564	270.94
629.77	243.94
629.976	224.94
630.183	251.94
630.389	244.94
630.595	238.94
630.802	234.94
631.008	228.94
631.214	241.94
631.42	231.94
631.627	252.94
631.833	240.94
632.039	224.94
632.245	228.94
632.451	223.94
632.657	249.94
632.863	233.94
633.069	242.94
633.275	243.94
633.481	227.94
633.688	240.94
633.893	235.94
634.099	213.94
634.305	220.94
634.511	220.94
634.717	222.94
634.923	218.94
635.129	242.94
635.335	217.94
635.541	243.94
635.747	217.94
635.952	230.94
636.158	214.94
636.364	224.94
636.57	210.94
636.775	231.94
636.981	217.94
637.187	228.94
637.392	219.94
637.598	200.94
637.804	198.94
638.009	216.94
638.215	225.94
638.421	213.94
638.626	210.94
638.832	222.94
639.037	223.94
639.243	209.94
639.448	202.94
639.654	208.94
639.859	208.94
640.065	219.94
640.27	207.94
640.475	198.94
640.681	187.94
640.886	200.94
641.091	215.94
641.297	201.94
641.502	216.94
641.707	202.94
641.913	197.94
642.118	203.94
642.323	200.94
642.528	208.94
642.733	194.94
642.939	218.94
643.144	209.94
643.349	201.94
643.554	186.94
643.759	198.94
643.964	193.94
644.169	189.94
644.374	188.94
644.579	195.94
644.784	218.94
644.989	211.94
645.194	192.94
645.399	191.94
645.604	201.94
645.809	198.94
646.014	192.94
646.219	204.94
646.423	193.94
646.628	201.94
646.833	203.94
647.038	199.94
647.243	212.94
647.447	207.94
647.652	218.94
647.857	221.94
648.062	202.94
648.266	215.94
648.471	212.94
648.676	214.94
648.88	211.94
649.085	199.94
649.289	191.94
649.494	189.94
649.698	202.94
649.903	202.94
650.107	199.94
650.312	195.94
650.516	178.94
650.721	187.94
650.925	182.94
651.13	179.94
651.334	182.94
651.539	176.94
651.743	192.94
651.947	187.94
652.152	180.94
652.356	174.94
652.56	159.94
652.764	152.94
652.969	178.94
653.173	166.94
653.377	152.94
653.581	153.94
653.785	170.94
653.99	167.94
654.194	152.94
654.398	140.94
654.602	154.94
654.806	147.94
655.01	141.94
655.214	146.94
655.418	149.94
655.622	148.94
655.826	148.94
656.03	140.94
656.234	154.94
656.438	145.94
656.642	135.94
656.846	157.94
657.049	128.94
657.253	136.94
657.457	135.94
657.661	136.94
657.865	120.94
658.068	126.94
658.272	120.94
658.476	120.94
658.68	116.94
658.883	100.94
659.087	100.94
659.291	102.94
659.494	118.94
659.698	96.94
659.901	90.94
660.105	86.94
660.309	88.94
660.512	97.94
660.716	99.94
660.919	85.94
661.123	87.94
661.326	90.94
661.53	79.94
661.733	91.94
661.936	92.94
662.14	83.94
662.343	84.94
662.546	84.94
662.75	80.94
662.953	82.94
663.156	83.94
663.36	72.94
663.563	93.94
663.766	76.94
663.969	79.94
664.173	82.94
664.376	75.94
664.579	80.94
664.782	60.94
664.985	79.94
665.188	87.94
665.391	81.94
665.594	85.94
665.797	91.94
666	89.94
666.203	76.94
666.406	81.94
666.609	90.94
666.812	88.94
667.015	85.94
667.218	82.94
667.421	91.94
667.624	84.94
667.827	78.94
668.03	72.94
668.232	88.94
668.435	83.94
668.638	80.94
668.841	84.94
669.043	72.94
669.246	74.94
669.449	88.94
669.651	75.94
669.854	80.94
670.057	81.94
670.259	75.94
670.462	71.94
670.665	81.94
670.867	80.94
671.07	78.94
671.272	74.94
671.475	77.94
671.677	74.94
671.88	73.94
672.082	69.94
672.284	80.94
672.487	82.94
672.689	75.94
672.892	76.94
