Data from NiCl2@0.0625M.TitratingCurve.Agarose3%dH2O.NegLispCup.LampEnergy10.LIBS07252019_HRD10591_18-33-39-577.txt Node
Date: Thu Jul 25 18:33:39 EDT 2019
User: cochatt
Spectrometer: HR+D1059
Trigger mode: 1
Integration Time (sec): 1.000000E-1
Scans to average: 1
Electric dark correction enabled: true
Nonlinearity correction enabled: false
Boxcar width: 0
XAxis mode: Wavelengths
Number of Pixels in Spectrum: 2048
>>>>>Begin Spectral Data<<<<<
223.165	-12.88
223.4	-12.88
223.635	-12.88
223.869	-24.88
224.104	-15.88
224.338	1.12
224.573	-10.88
224.808	-31.88
225.042	-18.88
225.277	-5.88
225.511	7.12
225.746	2.12
225.98	14.12
226.215	15.12
226.449	8.12
226.683	23.12
226.918	30.12
227.152	20.12
227.387	23.12
227.621	40.12
227.856	43.12
228.09	50.12
228.324	43.12
228.559	49.12
228.793	87.12
229.027	153.12
229.262	161.12
229.496	159.12
229.73	171.12
229.964	178.12
230.199	184.12
230.433	177.12
230.667	181.12
230.901	184.12
231.136	175.12
231.37	199.12
231.604	188.12
231.838	193.12
232.072	208.12
232.306	190.12
232.541	211.12
232.775	203.12
233.009	199.12
233.243	210.12
233.477	197.12
233.711	195.12
233.945	231.12
234.179	212.12
234.413	216.12
234.647	221.12
234.881	222.12
235.115	218.12
235.349	208.12
235.583	195.12
235.817	229.12
236.051	222.12
236.285	216.12
236.519	233.12
236.753	223.12
236.987	231.12
237.221	229.12
237.455	231.12
237.689	233.12
237.922	239.12
238.156	240.12
238.39	227.12
238.624	253.12
238.858	253.12
239.091	268.12
239.325	274.12
239.559	257.12
239.793	265.12
240.027	289.12
240.26	279.12
240.494	258.12
240.728	258.12
240.961	275.12
241.195	290.12
241.429	282.12
241.662	287.12
241.896	282.12
242.13	285.12
242.363	299.12
242.597	312.12
242.83	299.12
243.064	315.12
243.298	318.12
243.531	324.12
243.765	320.12
243.998	314.12
244.232	322.12
244.465	323.12
244.699	343.12
244.932	330.12
245.166	337.12
245.399	340.12
245.633	329.12
245.866	345.12
246.099	329.12
246.333	346.12
246.566	351.12
246.8	339.12
247.033	327.12
247.266	369.12
247.5	360.12
247.733	360.12
247.966	357.12
248.2	387.12
248.433	388.12
248.666	372.12
248.899	377.12
249.133	385.12
249.366	399.12
249.599	390.12
249.832	392.12
250.066	373.12
250.299	388.12
250.532	394.12
250.765	394.12
250.998	409.12
251.231	425.12
251.465	408.12
251.698	410.12
251.931	420.12
252.164	431.12
252.397	417.12
252.63	428.12
252.863	438.12
253.096	430.12
253.329	426.12
253.562	426.12
253.795	444.12
254.028	447.12
254.261	458.12
254.494	461.12
254.727	449.12
254.96	463.12
255.193	470.12
255.426	461.12
255.659	449.12
255.892	460.12
256.124	453.12
256.357	469.12
256.59	467.12
256.823	475.12
257.056	471.12
257.289	494.12
257.521	481.12
257.754	485.12
257.987	481.12
258.22	505.12
258.452	524.12
258.685	510.12
258.918	497.12
259.151	506.12
259.383	524.12
259.616	507.12
259.849	524.12
260.081	507.12
260.314	524.12
260.547	515.12
260.779	523.12
261.012	549.12
261.244	534.12
261.477	542.12
261.71	549.12
261.942	532.12
262.175	547.12
262.407	527.12
262.64	546.12
262.872	551.12
263.105	565.12
263.337	547.12
263.57	576.12
263.802	585.12
264.035	587.12
264.267	554.12
264.499	559.12
264.732	581.12
264.964	573.12
265.197	572.12
265.429	582.12
265.661	600.12
265.894	577.12
266.126	571.12
266.358	606.12
266.591	593.12
266.823	601.12
267.055	582.12
267.287	604.12
267.52	591.12
267.752	591.12
267.984	615.12
268.216	609.12
268.448	624.12
268.681	617.12
268.913	621.12
269.145	630.12
269.377	642.12
269.609	637.12
269.841	618.12
270.073	615.12
270.306	641.12
270.538	609.12
270.77	618.12
271.002	643.12
271.234	633.12
271.466	643.12
271.698	657.12
271.93	656.12
272.162	673.12
272.394	662.12
272.626	669.12
272.858	641.12
273.09	668.12
273.322	675.12
273.553	680.12
273.785	656.12
274.017	675.12
274.249	705.12
274.481	704.12
274.713	694.12
274.945	705.12
275.176	714.12
275.408	690.12
275.64	714.12
275.872	721.12
276.104	733.12
276.335	700.12
276.567	705.12
276.799	715.12
277.031	739.12
277.262	730.12
277.494	710.12
277.726	714.12
277.957	744.12
278.189	739.12
278.421	728.12
278.652	737.12
278.884	737.12
279.115	729.12
279.347	744.12
279.579	744.12
279.81	770.12
280.042	765.12
280.273	786.12
280.505	778.12
280.736	778.12
280.968	786.12
281.199	752.12
281.431	802.12
281.662	764.12
281.894	770.12
282.125	792.12
282.356	809.12
282.588	800.12
282.819	806.12
283.051	830.12
283.282	807.12
283.513	835.12
283.745	819.12
283.976	841.12
284.207	843.12
284.439	807.12
284.67	838.12
284.901	844.12
285.132	831.12
285.364	834.12
285.595	829.12
285.826	824.12
286.057	831.12
286.288	864.12
286.52	874.12
286.751	855.12
286.982	869.12
287.213	875.12
287.444	849.12
287.675	853.12
287.906	889.12
288.138	874.12
288.369	888.12
288.6	891.12
288.831	893.12
289.062	874.12
289.293	880.12
289.524	872.12
289.755	901.12
289.986	883.12
290.217	895.12
290.448	877.12
290.679	890.12
290.91	893.12
291.141	903.12
291.371	922.12
291.602	877.12
291.833	881.12
292.064	897.12
292.295	893.12
292.526	898.12
292.757	893.12
292.987	911.12
293.218	893.12
293.449	892.12
293.68	903.12
293.91	917.12
294.141	899.12
294.372	893.12
294.603	907.12
294.833	905.12
295.064	925.12
295.295	923.12
295.525	919.12
295.756	939.12
295.987	925.12
296.217	945.12
296.448	907.12
296.679	926.12
296.909	918.12
297.14	944.12
297.37	936.12
297.601	962.12
297.831	943.12
298.062	947.12
298.292	963.12
298.523	995.12
298.753	997.12
298.984	987.12
299.214	993.12
299.445	985.12
299.675	959.12
299.905	971.12
300.136	971.12
300.366	979.12
300.597	1004.12
300.827	986.12
301.057	997.12
301.288	1001.12
301.518	1034.12
301.748	997.12
301.979	1048.12
302.209	1039.12
302.439	1020.12
302.669	1051.12
302.9	1051.12
303.13	1008.12
303.36	1055.12
303.59	1013.12
303.82	1025.12
304.051	1047.12
304.281	1030.12
304.511	1000.12
304.741	1028.12
304.971	1025.12
305.201	1030.12
305.431	1031.12
305.661	1046.12
305.891	1023.12
306.121	1008.12
306.352	1030.12
306.582	1009.12
306.812	1010.12
307.042	1007.12
307.272	1008.12
307.502	1010.12
307.731	1015.12
307.961	1010.12
308.191	1006.12
308.421	1007.12
308.651	1009.12
308.881	1001.12
309.111	995.12
309.341	1000.12
309.571	1030.12
309.8	1041.12
310.03	1021.12
310.26	1047.12
310.49	1026.12
310.72	1002.12
310.949	1014.12
311.179	1031.12
311.409	1041.12
311.639	1063.12
311.868	1049.12
312.098	1021.12
312.328	1065.12
312.557	1058.12
312.787	1062.12
313.017	1111.12
313.246	1104.12
313.476	1082.12
313.706	1096.12
313.935	1128.12
314.165	1080.12
314.394	1120.12
314.624	1117.12
314.853	1106.12
315.083	1085.12
315.312	1091.12
315.542	1100.12
315.771	1101.12
316.001	1064.12
316.23	1071.12
316.46	1092.12
316.689	1117.12
316.919	1061.12
317.148	1112.12
317.377	1077.12
317.607	1067.12
317.836	1047.12
318.065	1085.12
318.295	1080.12
318.524	1113.12
318.753	1068.12
318.983	1075.12
319.212	1068.12
319.441	1055.12
319.67	1074.12
319.9	1085.12
320.129	1080.12
320.358	1077.12
320.587	1084.12
320.816	1101.12
321.046	1094.12
321.275	1093.12
321.504	1076.12
321.733	1122.12
321.962	1109.12
322.191	1104.12
322.42	1089.12
322.649	1115.12
322.878	1098.12
323.108	1083.12
323.337	1113.12
323.566	1136.12
323.795	1104.12
324.024	1110.12
324.253	1145.12
324.482	1121.12
324.71	1126.12
324.939	1153.12
325.168	1142.12
325.397	1151.12
325.626	1152.12
325.855	1173.12
326.084	1153.12
326.313	1181.12
326.542	1192.12
326.77	1190.12
326.999	1158.12
327.228	1195.12
327.457	1198.12
327.686	1161.12
327.914	1177.12
328.143	1178.12
328.372	1214.12
328.6	1189.12
328.829	1197.12
329.058	1176.12
329.287	1220.12
329.515	1194.12
329.744	1213.12
329.972	1238.12
330.201	1182.12
330.43	1198.12
330.658	1188.12
330.887	1250.12
331.115	1236.12
331.344	1269.12
331.572	1281.12
331.801	1256.12
332.03	1295.12
332.258	1298.12
332.486	1378.12
332.715	1334.12
332.943	1379.12
333.172	1463.12
333.4	1513.12
333.629	1508.12
333.857	1554.12
334.085	1531.12
334.314	1501.12
334.542	1506.12
334.771	1508.12
334.999	1486.12
335.227	1468.12
335.455	1510.12
335.684	1517.12
335.912	1486.12
336.14	1437.12
336.369	1448.12
336.597	1461.12
336.825	1468.12
337.053	1422.12
337.281	1370.12
337.51	1408.12
337.738	1401.12
337.966	1333.12
338.194	1335.12
338.422	1311.12
338.65	1285.12
338.878	1305.12
339.106	1318.12
339.334	1304.12
339.562	1288.12
339.79	1280.12
340.018	1259.12
340.246	1255.12
340.474	1238.12
340.702	1240.12
340.93	1248.12
341.158	1247.12
341.386	1257.12
341.614	1232.12
341.842	1275.12
342.07	1218.12
342.298	1240.12
342.526	1263.12
342.754	1242.12
342.981	1224.12
343.209	1254.12
343.437	1341.12
343.665	1347.12
343.893	1439.12
344.12	1463.12
344.348	1461.12
344.576	1406.12
344.804	1363.12
345.031	1291.12
345.259	1281.12
345.487	1271.12
345.714	1227.12
345.942	1242.12
346.17	1220.12
346.397	1207.12
346.625	1214.12
346.853	1186.12
347.08	1167.12
347.308	1174.12
347.535	1214.12
347.763	1199.12
347.99	1205.12
348.218	1197.12
348.445	1177.12
348.673	1185.12
348.9	1190.12
349.128	1194.12
349.355	1185.12
349.583	1170.12
349.81	1174.12
350.037	1174.12
350.265	1201.12
350.492	1167.12
350.72	1165.12
350.947	1136.12
351.174	1185.12
351.402	1169.12
351.629	1159.12
351.856	1161.12
352.083	1175.12
352.311	1161.12
352.538	1177.12
352.765	1158.12
352.992	1126.12
353.22	1123.12
353.447	1137.12
353.674	1129.12
353.901	1171.12
354.128	1145.12
354.355	1135.12
354.583	1138.12
354.81	1131.12
355.037	1167.12
355.264	1139.12
355.491	1147.12
355.718	1178.12
355.945	1154.12
356.172	1169.12
356.399	1188.12
356.626	1146.12
356.853	1157.12
357.08	1140.12
357.307	1163.12
357.534	1140.12
357.761	1163.12
357.988	1161.12
358.215	1127.12
358.441	1140.12
358.668	1148.12
358.895	1181.12
359.122	1163.12
359.349	1163.12
359.576	1136.12
359.802	1155.12
360.029	1164.12
360.256	1159.12
360.483	1151.12
360.709	1169.12
360.936	1175.12
361.163	1156.12
361.39	1160.12
361.616	1146.12
361.843	1152.12
362.07	1165.12
362.296	1163.12
362.523	1147.12
362.749	1173.12
362.976	1179.12
363.203	1173.12
363.429	1170.12
363.656	1137.12
363.882	1163.12
364.109	1161.12
364.335	1128.12
364.562	1153.12
364.788	1143.12
365.015	1154.12
365.241	1162.12
365.468	1200.12
365.694	1148.12
365.92	1147.12
366.147	1138.12
366.373	1146.12
366.599	1171.12
366.826	1150.12
367.052	1155.12
367.278	1147.12
367.505	1154.12
367.731	1153.12
367.957	1158.12
368.184	1185.12
368.41	1197.12
368.636	1160.12
368.862	1205.12
369.089	1176.12
369.315	1187.12
369.541	1207.12
369.767	1194.12
369.993	1189.12
370.219	1217.12
370.445	1240.12
370.672	1244.12
370.898	1219.12
371.124	1234.12
371.35	1248.12
371.576	1266.12
371.802	1249.12
372.028	1235.12
372.254	1265.12
372.48	1256.12
372.706	1277.12
372.932	1358.12
373.158	1293.12
373.384	1295.12
373.61	1283.12
373.835	1261.12
374.061	1294.12
374.287	1297.12
374.513	1327.12
374.739	1334.12
374.965	1340.12
375.191	1381.12
375.416	1403.12
375.642	1345.12
375.868	1349.12
376.094	1316.12
376.319	1304.12
376.545	1263.12
376.771	1261.12
376.997	1231.12
377.222	1267.12
377.448	1265.12
377.674	1229.12
377.899	1279.12
378.125	1208.12
378.35	1226.12
378.576	1255.12
378.802	1190.12
379.027	1243.12
379.253	1259.12
379.478	1253.12
379.704	1248.12
379.929	1256.12
380.155	1253.12
380.38	1250.12
380.606	1231.12
380.831	1254.12
381.057	1296.12
381.282	1254.12
381.507	1249.12
381.733	1247.12
381.958	1291.12
382.184	1285.12
382.409	1306.12
382.634	1293.12
382.86	1347.12
383.085	1329.12
383.31	1330.12
383.535	1406.12
383.761	1376.12
383.986	1376.12
384.211	1416.12
384.436	1444.12
384.662	1418.12
384.887	1459.12
385.112	1455.12
385.337	1519.12
385.562	1482.12
385.787	1522.12
386.013	1530.12
386.238	1482.12
386.463	1470.12
386.688	1515.12
386.913	1482.12
387.138	1495.12
387.363	1501.12
387.588	1459.12
387.813	1504.12
388.038	1488.12
388.263	1460.12
388.488	1519.12
388.713	1486.12
388.938	1512.12
389.163	1483.12
389.387	1503.12
389.612	1489.12
389.837	1476.12
390.062	1483.12
390.287	1502.12
390.512	1481.12
390.736	1512.12
390.961	1553.12
391.186	1546.12
391.411	1577.12
391.636	1603.12
391.86	1669.12
392.085	1661.12
392.31	1685.12
392.534	1678.12
392.759	1654.12
392.984	1622.12
393.208	1587.12
393.433	1578.12
393.658	1599.12
393.882	1589.12
394.107	1546.12
394.331	1607.12
394.556	1602.12
394.78	1607.12
395.005	1621.12
395.229	1602.12
395.454	1650.12
395.678	1662.12
395.903	1661.12
396.127	1706.12
396.352	1641.12
396.576	1651.12
396.801	1617.12
397.025	1656.12
397.249	1690.12
397.474	1716.12
397.698	1688.12
397.922	1741.12
398.147	1695.12
398.371	1748.12
398.595	1793.12
398.82	1876.12
399.044	1967.12
399.268	2157.12
399.492	2384.12
399.717	2509.12
399.941	2583.12
400.165	2405.12
400.389	2285.12
400.613	2083.12
400.837	2016.12
401.062	1955.12
401.286	1891.12
401.51	1863.12
401.734	1914.12
401.958	1905.12
402.182	1901.12
402.406	1921.12
402.63	1919.12
402.854	1957.12
403.078	1973.12
403.302	2013.12
403.526	2035.12
403.75	1997.12
403.974	2086.12
404.198	2029.12
404.422	2043.12
404.645	2051.12
404.869	2041.12
405.093	2036.12
405.317	2018.12
405.541	2031.12
405.765	2014.12
405.988	1982.12
406.212	2017.12
406.436	2020.12
406.66	2058.12
406.883	2131.12
407.107	2245.12
407.331	2241.12
407.555	2366.12
407.778	2314.12
408.002	2306.12
408.226	2251.12
408.449	2224.12
408.673	2152.12
408.896	2090.12
409.12	2103.12
409.344	2108.12
409.567	2093.12
409.791	2093.12
410.014	2083.12
410.238	2059.12
410.461	2060.12
410.685	2034.12
410.908	2010.12
411.132	2005.12
411.355	1920.12
411.578	1974.12
411.802	1934.12
412.025	1970.12
412.249	1926.12
412.472	1966.12
412.695	1958.12
412.919	1889.12
413.142	1905.12
413.365	1850.12
413.589	1913.12
413.812	1831.12
414.035	1849.12
414.258	1848.12
414.482	1921.12
414.705	1869.12
414.928	1866.12
415.151	1851.12
415.374	1859.12
415.597	1857.12
415.821	1840.12
416.044	1797.12
416.267	1791.12
416.49	1810.12
416.713	1803.12
416.936	1815.12
417.159	1783.12
417.382	1765.12
417.605	1765.12
417.828	1753.12
418.051	1809.12
418.274	1819.12
418.497	1785.12
418.72	1840.12
418.943	1829.12
419.166	1943.12
419.389	2067.12
419.611	2024.12
419.834	1965.12
420.057	1870.12
420.28	1837.12
420.503	1761.12
420.726	1758.12
420.948	1761.12
421.171	1841.12
421.394	1777.12
421.617	1801.12
421.839	1767.12
422.062	1818.12
422.285	1823.12
422.507	1856.12
422.73	1863.12
422.953	1846.12
423.175	1858.12
423.398	1865.12
423.621	1835.12
423.843	1867.12
424.066	1870.12
424.288	1829.12
424.511	1862.12
424.733	1870.12
424.956	1790.12
425.178	1782.12
425.401	1811.12
425.623	1813.12
425.846	1747.12
426.068	1733.12
426.291	1740.12
426.513	1729.12
426.735	1683.12
426.958	1723.12
427.18	1678.12
427.402	1711.12
427.625	1699.12
427.847	1632.12
428.069	1639.12
428.292	1654.12
428.514	1619.12
428.736	1619.12
428.958	1647.12
429.181	1608.12
429.403	1589.12
429.625	1666.12
429.847	1633.12
430.069	1610.12
430.292	1618.12
430.514	1588.12
430.736	1603.12
430.958	1622.12
431.18	1656.12
431.402	1664.12
431.624	1617.12
431.846	1657.12
432.068	1661.12
432.29	1657.12
432.512	1657.12
432.734	1689.12
432.956	1694.12
433.178	1678.12
433.4	1647.12
433.622	1703.12
433.844	1673.12
434.066	1687.12
434.287	1719.12
434.509	1737.12
434.731	1770.12
434.953	1812.12
435.175	1841.12
435.397	1825.12
435.618	1705.12
435.84	1714.12
436.062	1672.12
436.284	1673.12
436.505	1633.12
436.727	1675.12
436.949	1634.12
437.17	1639.12
437.392	1611.12
437.614	1601.12
437.835	1587.12
438.057	1565.12
438.278	1548.12
438.5	1565.12
438.721	1575.12
438.943	1586.12
439.165	1546.12
439.386	1553.12
439.608	1624.12
439.829	1613.12
440.05	1599.12
440.272	1623.12
440.493	1609.12
440.715	1619.12
440.936	1656.12
441.158	1694.12
441.379	1751.12
441.6	1787.12
441.822	1767.12
442.043	1813.12
442.264	1758.12
442.486	1707.12
442.707	1749.12
442.928	1745.12
443.149	1757.12
443.371	1715.12
443.592	1730.12
443.813	1787.12
444.034	1781.12
444.255	1826.12
444.476	1903.12
444.698	1944.12
444.919	2004.12
445.14	2079.12
445.361	1921.12
445.582	1864.12
445.803	1737.12
446.024	1714.12
446.245	1690.12
446.466	1656.12
446.687	1600.12
446.908	1609.12
447.129	1607.12
447.35	1609.12
447.571	1542.12
447.792	1491.12
448.013	1509.12
448.234	1498.12
448.455	1473.12
448.675	1446.12
448.896	1464.12
449.117	1445.12
449.338	1411.12
449.559	1454.12
449.779	1469.12
450	1482.12
450.221	1465.12
450.442	1441.12
450.662	1455.12
450.883	1469.12
451.104	1492.12
451.324	1461.12
451.545	1483.12
451.766	1434.12
451.986	1427.12
452.207	1427.12
452.428	1443.12
452.648	1424.12
452.869	1412.12
453.089	1403.12
453.31	1432.12
453.53	1395.12
453.751	1425.12
453.971	1413.12
454.192	1386.12
454.412	1370.12
454.633	1401.12
454.853	1386.12
455.073	1387.12
455.294	1415.12
455.514	1377.12
455.734	1347.12
455.955	1311.12
456.175	1336.12
456.395	1368.12
456.616	1350.12
456.836	1386.12
457.056	1385.12
457.276	1318.12
457.497	1411.12
457.717	1372.12
457.937	1378.12
458.157	1437.12
458.377	1423.12
458.598	1467.12
458.818	1457.12
459.038	1491.12
459.258	1541.12
459.478	1605.12
459.698	1675.12
459.918	1677.12
460.138	1715.12
460.358	1798.12
460.578	1833.12
460.798	1853.12
461.018	1882.12
461.238	1824.12
461.458	1858.12
461.678	1828.12
461.898	1892.12
462.118	1871.12
462.338	1965.12
462.558	1960.12
462.777	2066.12
462.997	2229.12
463.217	2303.12
463.437	2350.12
463.657	2197.12
463.876	2162.12
464.096	2171.12
464.316	2136.12
464.536	2116.12
464.755	2075.12
464.975	1971.12
465.195	1882.12
465.414	1829.12
465.634	1704.12
465.854	1699.12
466.073	1661.12
466.293	1605.12
466.512	1578.12
466.732	1558.12
466.951	1492.12
467.171	1557.12
467.391	1534.12
467.61	1509.12
467.829	1509.12
468.049	1527.12
468.268	1501.12
468.488	1457.12
468.707	1451.12
468.927	1481.12
469.146	1478.12
469.365	1510.12
469.585	1496.12
469.804	1511.12
470.023	1550.12
470.243	1565.12
470.462	1592.12
470.681	1574.12
470.901	1586.12
471.12	1545.12
471.339	1540.12
471.558	1530.12
471.777	1498.12
471.997	1515.12
472.216	1501.12
472.435	1501.12
472.654	1439.12
472.873	1477.12
473.092	1443.12
473.311	1442.12
473.53	1473.12
473.749	1476.12
473.968	1462.12
474.187	1445.12
474.406	1463.12
474.625	1482.12
474.844	1468.12
475.063	1471.12
475.282	1465.12
475.501	1454.12
475.72	1504.12
475.939	1534.12
476.158	1533.12
476.377	1531.12
476.596	1545.12
476.814	1559.12
477.033	1543.12
477.252	1577.12
477.471	1647.12
477.69	1672.12
477.908	1703.12
478.127	1734.12
478.346	1707.12
478.564	1799.12
478.783	1806.12
479.002	1852.12
479.22	1826.12
479.439	1845.12
479.658	1847.12
479.876	1814.12
480.095	1877.12
480.313	1961.12
480.532	1982.12
480.751	1950.12
480.969	1915.12
481.188	1878.12
481.406	1813.12
481.624	1823.12
481.843	1788.12
482.061	1742.12
482.28	1808.12
482.498	1802.12
482.717	1800.12
482.935	1819.12
483.153	1794.12
483.372	1814.12
483.59	1842.12
483.808	1777.12
484.027	1809.12
484.245	1895.12
484.463	1874.12
484.681	1911.12
484.9	1901.12
485.118	1939.12
485.336	1941.12
485.554	1952.12
485.772	1966.12
485.99	1958.12
486.209	1974.12
486.427	1960.12
486.645	1963.12
486.863	1954.12
487.081	1943.12
487.299	1916.12
487.517	1931.12
487.735	1906.12
487.953	1945.12
488.171	1938.12
488.389	1895.12
488.607	1847.12
488.825	1846.12
489.043	1843.12
489.261	1827.12
489.479	1826.12
489.696	1844.12
489.914	1818.12
490.132	1840.12
490.35	1850.12
490.568	1856.12
490.786	1874.12
491.003	1850.12
491.221	1875.12
491.439	1829.12
491.657	1866.12
491.874	1830.12
492.092	1823.12
492.31	1821.12
492.527	1835.12
492.745	1847.12
492.963	1826.12
493.18	1840.12
493.398	1876.12
493.615	1843.12
493.833	1810.12
494.05	1839.12
494.268	1870.12
494.485	1927.12
494.703	1864.12
494.92	1865.12
495.138	1888.12
495.355	1902.12
495.573	1893.12
495.79	1894.12
496.008	1955.12
496.225	1904.12
496.442	1957.12
496.66	1950.12
496.877	2031.12
497.094	2032.12
497.312	2051.12
497.529	2082.12
497.746	2091.12
497.963	2165.12
498.181	2259.12
498.398	2353.12
498.615	2481.12
498.832	2593.12
499.049	2757.12
499.267	3053.12
499.484	3217.12
499.701	3507.12
499.918	3838.12
500.135	4236.12
500.352	4637.12
500.569	4781.12
500.786	4719.12
501.003	4486.12
501.22	4143.12
501.437	3814.12
501.654	3404.12
501.871	3096.12
502.088	2915.12
502.305	2771.12
502.522	2613.12
502.739	2520.12
502.956	2420.12
503.172	2341.12
503.389	2229.12
503.606	2172.12
503.823	2099.12
504.04	2151.12
504.256	2149.12
504.473	2168.12
504.69	2121.12
504.907	2108.12
505.123	1961.12
505.34	1921.12
505.557	1852.12
505.773	1784.12
505.99	1760.12
506.207	1712.12
506.423	1714.12
506.64	1658.12
506.856	1659.12
507.073	1626.12
507.289	1660.12
507.506	1619.12
507.722	1607.12
507.939	1607.12
508.155	1549.12
508.372	1574.12
508.588	1549.12
508.805	1525.12
509.021	1511.12
509.238	1529.12
509.454	1483.12
509.67	1521.12
509.887	1490.12
510.103	1453.12
510.319	1488.12
510.536	1496.12
510.752	1483.12
510.968	1466.12
511.184	1416.12
511.401	1461.12
511.617	1459.12
511.833	1443.12
512.049	1457.12
512.265	1458.12
512.481	1471.12
512.698	1471.12
512.914	1480.12
513.13	1463.12
513.346	1431.12
513.562	1461.12
513.778	1504.12
513.994	1484.12
514.21	1444.12
514.426	1433.12
514.642	1506.12
514.858	1523.12
515.074	1512.12
515.29	1530.12
515.506	1517.12
515.721	1550.12
515.937	1576.12
516.153	1583.12
516.369	1630.12
516.585	1659.12
516.801	1699.12
517.016	1775.12
517.232	1843.12
517.448	1904.12
517.664	1897.12
517.879	1892.12
518.095	1913.12
518.311	1879.12
518.527	1834.12
518.742	1770.12
518.958	1733.12
519.173	1695.12
519.389	1697.12
519.605	1608.12
519.82	1563.12
520.036	1511.12
520.251	1539.12
520.467	1465.12
520.682	1494.12
520.898	1425.12
521.113	1398.12
521.329	1411.12
521.544	1406.12
521.76	1366.12
521.975	1375.12
522.19	1399.12
522.406	1373.12
522.621	1392.12
522.836	1362.12
523.052	1374.12
523.267	1369.12
523.482	1351.12
523.698	1345.12
523.913	1365.12
524.128	1317.12
524.343	1301.12
524.559	1327.12
524.774	1327.12
524.989	1337.12
525.204	1347.12
525.419	1310.12
525.634	1256.12
525.849	1296.12
526.064	1317.12
526.28	1294.12
526.495	1294.12
526.71	1301.12
526.925	1266.12
527.14	1275.12
527.355	1285.12
527.57	1324.12
527.785	1295.12
527.999	1296.12
528.214	1286.12
528.429	1254.12
528.644	1284.12
528.859	1314.12
529.074	1272.12
529.289	1277.12
529.503	1291.12
529.718	1301.12
529.933	1258.12
530.148	1267.12
530.363	1271.12
530.577	1284.12
530.792	1249.12
531.007	1264.12
531.221	1275.12
531.436	1277.12
531.651	1294.12
531.865	1273.12
532.08	1275.12
532.295	1256.12
532.509	1299.12
532.724	1266.12
532.938	1267.12
533.153	1280.12
533.367	1249.12
533.582	1279.12
533.796	1286.12
534.011	1239.12
534.225	1267.12
534.44	1271.12
534.654	1252.12
534.868	1271.12
535.083	1263.12
535.297	1237.12
535.511	1228.12
535.726	1222.12
535.94	1221.12
536.154	1197.12
536.369	1193.12
536.583	1184.12
536.797	1193.12
537.011	1172.12
537.225	1197.12
537.44	1181.12
537.654	1166.12
537.868	1178.12
538.082	1149.12
538.296	1159.12
538.51	1150.12
538.724	1154.12
538.938	1161.12
539.153	1151.12
539.367	1169.12
539.581	1147.12
539.795	1151.12
540.009	1139.12
540.222	1141.12
540.436	1140.12
540.65	1135.12
540.864	1130.12
541.078	1128.12
541.292	1146.12
541.506	1133.12
541.72	1115.12
541.934	1122.12
542.147	1153.12
542.361	1137.12
542.575	1096.12
542.789	1108.12
543.002	1095.12
543.216	1138.12
543.43	1125.12
543.644	1103.12
543.857	1089.12
544.071	1113.12
544.285	1147.12
544.498	1104.12
544.712	1125.12
544.925	1145.12
545.139	1138.12
545.352	1127.12
545.566	1149.12
545.779	1163.12
545.993	1163.12
546.206	1140.12
546.42	1137.12
546.633	1134.12
546.847	1129.12
547.06	1147.12
547.274	1142.12
547.487	1111.12
547.7	1139.12
547.914	1163.12
548.127	1153.12
548.34	1172.12
548.554	1167.12
548.767	1161.12
548.98	1137.12
549.193	1154.12
549.407	1152.12
549.62	1159.12
549.833	1197.12
550.046	1173.12
550.259	1161.12
550.473	1140.12
550.686	1144.12
550.899	1128.12
551.112	1137.12
551.325	1130.12
551.538	1145.12
551.751	1104.12
551.964	1115.12
552.177	1159.12
552.39	1149.12
552.603	1156.12
552.816	1201.12
553.029	1214.12
553.242	1209.12
553.455	1227.12
553.667	1240.12
553.88	1229.12
554.093	1187.12
554.306	1172.12
554.519	1149.12
554.732	1155.12
554.944	1106.12
555.157	1099.12
555.37	1093.12
555.583	1068.12
555.795	1038.12
556.008	1030.12
556.221	1023.12
556.433	1004.12
556.646	1013.12
556.859	1013.12
557.071	994.12
557.284	1012.12
557.496	970.12
557.709	980.12
557.921	979.12
558.134	992.12
558.346	969.12
558.559	982.12
558.771	941.12
558.984	960.12
559.196	955.12
559.409	952.12
559.621	979.12
559.833	920.12
560.046	935.12
560.258	938.12
560.47	934.12
560.683	940.12
560.895	943.12
561.107	932.12
561.32	918.12
561.532	933.12
561.744	950.12
561.956	942.12
562.168	928.12
562.381	948.12
562.593	925.12
562.805	923.12
563.017	934.12
563.229	926.12
563.441	947.12
563.653	961.12
563.865	962.12
564.077	943.12
564.289	975.12
564.501	1015.12
564.713	1017.12
564.925	1031.12
565.137	1037.12
565.349	1033.12
565.561	1098.12
565.773	1145.12
565.985	1161.12
566.197	1202.12
566.408	1292.12
566.62	1352.12
566.832	1435.12
567.044	1418.12
567.255	1469.12
567.467	1559.12
567.679	1555.12
567.891	1609.12
568.102	1678.12
568.314	1565.12
568.526	1486.12
568.737	1384.12
568.949	1232.12
569.161	1175.12
569.372	1122.12
569.584	1048.12
569.795	1034.12
570.007	998.12
570.218	992.12
570.43	973.12
570.641	955.12
570.853	935.12
571.064	964.12
571.276	987.12
571.487	938.12
571.698	898.12
571.91	896.12
572.121	882.12
572.333	870.12
572.544	819.12
572.755	806.12
572.966	834.12
573.178	820.12
573.389	779.12
573.6	762.12
573.811	769.12
574.023	777.12
574.234	762.12
574.445	767.12
574.656	769.12
574.867	777.12
575.078	776.12
575.289	772.12
575.501	738.12
575.712	738.12
575.923	729.12
576.134	733.12
576.345	722.12
576.556	723.12
576.767	694.12
576.978	720.12
577.188	712.12
577.399	709.12
577.61	689.12
577.821	724.12
578.032	681.12
578.243	695.12
578.454	673.12
578.665	677.12
578.875	688.12
579.086	659.12
579.297	657.12
579.508	663.12
579.718	662.12
579.929	669.12
580.14	649.12
580.35	666.12
580.561	651.12
580.772	649.12
580.982	663.12
581.193	670.12
581.403	648.12
581.614	673.12
581.825	648.12
582.035	680.12
582.246	634.12
582.456	655.12
582.667	637.12
582.877	605.12
583.087	648.12
583.298	631.12
583.508	642.12
583.719	632.12
583.929	637.12
584.139	628.12
584.35	629.12
584.56	628.12
584.77	624.12
584.981	612.12
585.191	623.12
585.401	637.12
585.611	628.12
585.821	614.12
586.032	611.12
586.242	621.12
586.452	610.12
586.662	608.12
586.872	618.12
587.082	611.12
587.292	614.12
587.502	606.12
587.713	587.12
587.923	595.12
588.133	601.12
588.343	607.12
588.553	623.12
588.762	621.12
588.972	609.12
589.182	629.12
589.392	625.12
589.602	617.12
589.812	601.12
590.022	605.12
590.232	608.12
590.441	623.12
590.651	625.12
590.861	614.12
591.071	633.12
591.281	631.12
591.49	633.12
591.7	629.12
591.91	639.12
592.119	651.12
592.329	677.12
592.539	661.12
592.748	702.12
592.958	706.12
593.167	706.12
593.377	736.12
593.587	720.12
593.796	767.12
594.006	733.12
594.215	724.12
594.424	771.12
594.634	733.12
594.843	705.12
595.053	678.12
595.262	663.12
595.472	645.12
595.681	636.12
595.89	621.12
596.1	614.12
596.309	602.12
596.518	568.12
596.727	575.12
596.937	569.12
597.146	569.12
597.355	550.12
597.564	552.12
597.774	534.12
597.983	554.12
598.192	523.12
598.401	533.12
598.61	533.12
598.819	524.12
599.028	507.12
599.237	502.12
599.446	491.12
599.655	508.12
599.864	515.12
600.073	522.12
600.282	494.12
600.491	530.12
600.7	508.12
600.909	495.12
601.118	495.12
601.327	494.12
601.536	517.12
601.745	504.12
601.953	499.12
602.162	492.12
602.371	493.12
602.58	497.12
602.789	489.12
602.997	483.12
603.206	492.12
603.415	496.12
603.623	483.12
603.832	472.12
604.041	465.12
604.249	471.12
604.458	473.12
604.666	473.12
604.875	456.12
605.084	465.12
605.292	451.12
605.501	480.12
605.709	455.12
605.918	453.12
606.126	449.12
606.334	456.12
606.543	442.12
606.751	453.12
606.96	451.12
607.168	450.12
607.376	450.12
607.585	471.12
607.793	464.12
608.001	467.12
608.21	447.12
608.418	453.12
608.626	445.12
608.834	448.12
609.043	465.12
609.251	426.12
609.459	435.12
609.667	438.12
609.875	419.12
610.083	443.12
610.291	417.12
610.499	442.12
610.707	431.12
610.916	426.12
611.124	447.12
611.332	431.12
611.54	442.12
611.748	416.12
611.955	405.12
612.163	436.12
612.371	434.12
612.579	424.12
612.787	437.12
612.995	445.12
613.203	415.12
613.411	431.12
613.618	415.12
613.826	421.12
614.034	416.12
614.242	449.12
614.449	418.12
614.657	419.12
614.865	435.12
615.072	431.12
615.28	413.12
615.488	415.12
615.695	414.12
615.903	433.12
616.111	439.12
616.318	438.12
616.526	425.12
616.733	425.12
616.941	418.12
617.148	446.12
617.356	421.12
617.563	417.12
617.771	421.12
617.978	404.12
618.185	426.12
618.393	412.12
618.6	413.12
618.807	411.12
619.015	412.12
619.222	420.12
619.429	392.12
619.637	430.12
619.844	395.12
620.051	395.12
620.258	392.12
620.466	387.12
620.673	375.12
620.88	382.12
621.087	371.12
621.294	383.12
621.501	390.12
621.708	391.12
621.915	389.12
622.122	388.12
622.329	375.12
622.536	389.12
622.743	392.12
622.95	388.12
623.157	366.12
623.364	370.12
623.571	383.12
623.778	389.12
623.985	376.12
624.192	382.12
624.399	385.12
624.606	375.12
624.812	373.12
625.019	351.12
625.226	358.12
625.433	353.12
625.639	364.12
625.846	345.12
626.053	356.12
626.259	358.12
626.466	353.12
626.673	342.12
626.879	358.12
627.086	361.12
627.293	361.12
627.499	320.12
627.706	356.12
627.912	338.12
628.119	341.12
628.325	339.12
628.532	350.12
628.738	339.12
628.945	353.12
629.151	337.12
629.357	336.12
629.564	341.12
629.77	324.12
629.976	338.12
630.183	329.12
630.389	340.12
630.595	330.12
630.802	327.12
631.008	317.12
631.214	313.12
631.42	316.12
631.627	331.12
631.833	325.12
632.039	319.12
632.245	315.12
632.451	305.12
632.657	324.12
632.863	302.12
633.069	307.12
633.275	317.12
633.481	310.12
633.688	295.12
633.893	315.12
634.099	315.12
634.305	287.12
634.511	301.12
634.717	292.12
634.923	324.12
635.129	307.12
635.335	317.12
635.541	311.12
635.747	295.12
635.952	303.12
636.158	293.12
636.364	303.12
636.57	303.12
636.775	289.12
636.981	294.12
637.187	297.12
637.392	305.12
637.598	311.12
637.804	315.12
638.009	282.12
638.215	290.12
638.421	294.12
638.626	294.12
638.832	289.12
639.037	298.12
639.243	302.12
639.448	296.12
639.654	291.12
639.859	288.12
640.065	279.12
640.27	279.12
640.475	279.12
640.681	297.12
640.886	300.12
641.091	293.12
641.297	275.12
641.502	286.12
641.707	266.12
641.913	268.12
642.118	275.12
642.323	273.12
642.528	278.12
642.733	274.12
642.939	287.12
643.144	277.12
643.349	294.12
643.554	256.12
643.759	275.12
643.964	262.12
644.169	268.12
644.374	266.12
644.579	272.12
644.784	275.12
644.989	289.12
645.194	275.12
645.399	283.12
645.604	273.12
645.809	271.12
646.014	270.12
646.219	289.12
646.423	285.12
646.628	301.12
646.833	309.12
647.038	286.12
647.243	283.12
647.447	293.12
647.652	304.12
647.857	304.12
648.062	306.12
648.266	310.12
648.471	307.12
648.676	293.12
648.88	314.12
649.085	320.12
649.289	307.12
649.494	305.12
649.698	285.12
649.903	283.12
650.107	294.12
650.312	305.12
650.516	300.12
650.721	276.12
650.925	278.12
651.13	280.12
651.334	297.12
651.539	282.12
651.743	271.12
651.947	296.12
652.152	280.12
652.356	257.12
652.56	284.12
652.764	277.12
652.969	257.12
653.173	263.12
653.377	273.12
653.581	270.12
653.785	275.12
653.99	277.12
654.194	261.12
654.398	286.12
654.602	271.12
654.806	278.12
655.01	286.12
655.214	305.12
655.418	306.12
655.622	303.12
655.826	341.12
656.03	333.12
656.234	371.12
656.438	406.12
656.642	390.12
656.846	370.12
657.049	328.12
657.253	310.12
657.457	251.12
657.661	254.12
657.865	230.12
658.068	220.12
658.272	213.12
658.476	185.12
658.68	162.12
658.883	164.12
659.087	156.12
659.291	152.12
659.494	153.12
659.698	139.12
659.901	137.12
660.105	129.12
660.309	115.12
660.512	123.12
660.716	112.12
660.919	115.12
661.123	117.12
661.326	103.12
661.53	109.12
661.733	96.12
661.936	95.12
662.14	111.12
662.343	95.12
662.546	100.12
662.75	84.12
662.953	101.12
663.156	83.12
663.36	86.12
663.563	84.12
663.766	75.12
663.969	76.12
664.173	80.12
664.376	89.12
664.579	79.12
664.782	87.12
664.985	85.12
665.188	86.12
665.391	74.12
665.594	78.12
665.797	91.12
666	83.12
666.203	81.12
666.406	73.12
666.609	87.12
666.812	84.12
667.015	75.12
667.218	73.12
667.421	75.12
667.624	77.12
667.827	86.12
668.03	82.12
668.232	83.12
668.435	88.12
668.638	81.12
668.841	85.12
669.043	78.12
669.246	74.12
669.449	69.12
669.651	80.12
669.854	79.12
670.057	81.12
670.259	80.12
670.462	81.12
670.665	81.12
670.867	83.12
671.07	66.12
671.272	83.12
671.475	74.12
671.677	79.12
671.88	92.12
672.082	81.12
672.284	85.12
672.487	75.12
672.689	77.12
672.892	65.12
