Data from NiCl2@0.5M.TitratingCurve.Agarose3%dH2O.NegLispCup.LampEnergy10.LIBS07252019_HRD10591_18-18-42-571.txt Node
Date: Thu Jul 25 18:18:42 EDT 2019
User: cochatt
Spectrometer: HR+D1059
Trigger mode: 1
Integration Time (sec): 1.000000E-1
Scans to average: 1
Electric dark correction enabled: true
Nonlinearity correction enabled: false
Boxcar width: 0
XAxis mode: Wavelengths
Number of Pixels in Spectrum: 2048
>>>>>Begin Spectral Data<<<<<
223.165	-31.44
223.4	-31.44
223.635	-31.44
223.869	-16.44
224.104	-8.44
224.338	-16.44
224.573	-2.44
224.808	-3.44
225.042	-0.44
225.277	-2.44
225.511	-5.44
225.746	7.56
225.98	8.56
226.215	8.56
226.449	22.56
226.683	1.56
226.918	10.56
227.152	27.56
227.387	32.56
227.621	52.56
227.856	55.56
228.09	53.56
228.324	59.56
228.559	51.56
228.793	80.56
229.027	175.56
229.262	199.56
229.496	212.56
229.73	219.56
229.964	239.56
230.199	288.56
230.433	280.56
230.667	256.56
230.901	242.56
231.136	218.56
231.37	228.56
231.604	258.56
231.838	277.56
232.072	284.56
232.306	280.56
232.541	258.56
232.775	248.56
233.009	250.56
233.243	250.56
233.477	226.56
233.711	232.56
233.945	261.56
234.179	270.56
234.413	250.56
234.647	268.56
234.881	285.56
235.115	264.56
235.349	282.56
235.583	262.56
235.817	279.56
236.051	264.56
236.285	268.56
236.519	274.56
236.753	298.56
236.987	277.56
237.221	291.56
237.455	273.56
237.689	286.56
237.922	300.56
238.156	304.56
238.39	295.56
238.624	294.56
238.858	309.56
239.091	303.56
239.325	322.56
239.559	319.56
239.793	362.56
240.027	367.56
240.26	339.56
240.494	339.56
240.728	324.56
240.961	333.56
241.195	336.56
241.429	347.56
241.662	359.56
241.896	367.56
242.13	393.56
242.363	349.56
242.597	366.56
242.83	358.56
243.064	359.56
243.298	370.56
243.531	370.56
243.765	379.56
243.998	417.56
244.232	412.56
244.465	375.56
244.699	376.56
244.932	384.56
245.166	401.56
245.399	406.56
245.633	406.56
245.866	408.56
246.099	409.56
246.333	409.56
246.566	425.56
246.8	419.56
247.033	391.56
247.266	440.56
247.5	419.56
247.733	424.56
247.966	436.56
248.2	444.56
248.433	428.56
248.666	423.56
248.899	447.56
249.133	457.56
249.366	468.56
249.599	464.56
249.832	479.56
250.066	467.56
250.299	503.56
250.532	471.56
250.765	498.56
250.998	509.56
251.231	523.56
251.465	554.56
251.698	536.56
251.931	514.56
252.164	510.56
252.397	499.56
252.63	504.56
252.863	527.56
253.096	512.56
253.329	537.56
253.562	514.56
253.795	546.56
254.028	542.56
254.261	543.56
254.494	546.56
254.727	540.56
254.96	566.56
255.193	571.56
255.426	554.56
255.659	565.56
255.892	556.56
256.124	568.56
256.357	582.56
256.59	586.56
256.823	594.56
257.056	581.56
257.289	590.56
257.521	603.56
257.754	614.56
257.987	614.56
258.22	600.56
258.452	595.56
258.685	595.56
258.918	612.56
259.151	608.56
259.383	615.56
259.616	627.56
259.849	644.56
260.081	630.56
260.314	626.56
260.547	634.56
260.779	645.56
261.012	658.56
261.244	619.56
261.477	660.56
261.71	659.56
261.942	651.56
262.175	671.56
262.407	671.56
262.64	650.56
262.872	662.56
263.105	674.56
263.337	682.56
263.57	696.56
263.802	670.56
264.035	690.56
264.267	677.56
264.499	688.56
264.732	682.56
264.964	695.56
265.197	710.56
265.429	726.56
265.661	703.56
265.894	733.56
266.126	713.56
266.358	714.56
266.591	723.56
266.823	735.56
267.055	748.56
267.287	782.56
267.52	745.56
267.752	754.56
267.984	756.56
268.216	761.56
268.448	782.56
268.681	788.56
268.913	773.56
269.145	779.56
269.377	774.56
269.609	773.56
269.841	778.56
270.073	788.56
270.306	790.56
270.538	799.56
270.77	786.56
271.002	808.56
271.234	807.56
271.466	804.56
271.698	804.56
271.93	806.56
272.162	818.56
272.394	794.56
272.626	812.56
272.858	806.56
273.09	836.56
273.322	858.56
273.553	826.56
273.785	839.56
274.017	856.56
274.249	852.56
274.481	873.56
274.713	843.56
274.945	892.56
275.176	840.56
275.408	876.56
275.64	875.56
275.872	896.56
276.104	872.56
276.335	892.56
276.567	874.56
276.799	901.56
277.031	910.56
277.262	943.56
277.494	891.56
277.726	893.56
277.957	924.56
278.189	905.56
278.421	927.56
278.652	918.56
278.884	913.56
279.115	959.56
279.347	942.56
279.579	918.56
279.81	934.56
280.042	937.56
280.273	906.56
280.505	941.56
280.736	928.56
280.968	966.56
281.199	953.56
281.431	980.56
281.662	983.56
281.894	961.56
282.125	966.56
282.356	982.56
282.588	985.56
282.819	976.56
283.051	985.56
283.282	984.56
283.513	980.56
283.745	996.56
283.976	977.56
284.207	1004.56
284.439	1018.56
284.67	1011.56
284.901	995.56
285.132	1071.56
285.364	995.56
285.595	1034.56
285.826	1033.56
286.057	1031.56
286.288	1043.56
286.52	1045.56
286.751	1051.56
286.982	1071.56
287.213	1062.56
287.444	1046.56
287.675	1081.56
287.906	1060.56
288.138	1038.56
288.369	1060.56
288.6	1050.56
288.831	1074.56
289.062	1090.56
289.293	1087.56
289.524	1079.56
289.755	1066.56
289.986	1093.56
290.217	1071.56
290.448	1109.56
290.679	1093.56
290.91	1089.56
291.141	1101.56
291.371	1133.56
291.602	1114.56
291.833	1108.56
292.064	1129.56
292.295	1130.56
292.526	1092.56
292.757	1086.56
292.987	1093.56
293.218	1090.56
293.449	1080.56
293.68	1102.56
293.91	1122.56
294.141	1132.56
294.372	1123.56
294.603	1124.56
294.833	1142.56
295.064	1116.56
295.295	1122.56
295.525	1113.56
295.756	1145.56
295.987	1088.56
296.217	1128.56
296.448	1144.56
296.679	1140.56
296.909	1133.56
297.14	1133.56
297.37	1180.56
297.601	1161.56
297.831	1204.56
298.062	1168.56
298.292	1199.56
298.523	1189.56
298.753	1204.56
298.984	1187.56
299.214	1195.56
299.445	1212.56
299.675	1215.56
299.905	1236.56
300.136	1206.56
300.366	1242.56
300.597	1245.56
300.827	1244.56
301.057	1229.56
301.288	1243.56
301.518	1255.56
301.748	1268.56
301.979	1266.56
302.209	1291.56
302.439	1263.56
302.669	1263.56
302.9	1238.56
303.13	1270.56
303.36	1271.56
303.59	1255.56
303.82	1276.56
304.051	1299.56
304.281	1289.56
304.511	1259.56
304.741	1266.56
304.971	1309.56
305.201	1318.56
305.431	1318.56
305.661	1290.56
305.891	1294.56
306.121	1291.56
306.352	1271.56
306.582	1295.56
306.812	1259.56
307.042	1290.56
307.272	1293.56
307.502	1272.56
307.731	1320.56
307.961	1284.56
308.191	1301.56
308.421	1256.56
308.651	1246.56
308.881	1270.56
309.111	1303.56
309.341	1295.56
309.571	1319.56
309.8	1311.56
310.03	1358.56
310.26	1369.56
310.49	1379.56
310.72	1334.56
310.949	1309.56
311.179	1330.56
311.409	1306.56
311.639	1304.56
311.868	1311.56
312.098	1351.56
312.328	1327.56
312.557	1379.56
312.787	1344.56
313.017	1344.56
313.246	1360.56
313.476	1384.56
313.706	1387.56
313.935	1370.56
314.165	1368.56
314.394	1388.56
314.624	1377.56
314.853	1384.56
315.083	1353.56
315.312	1412.56
315.542	1404.56
315.771	1355.56
316.001	1365.56
316.23	1398.56
316.46	1368.56
316.689	1412.56
316.919	1398.56
317.148	1394.56
317.377	1379.56
317.607	1389.56
317.836	1363.56
318.065	1386.56
318.295	1374.56
318.524	1406.56
318.753	1376.56
318.983	1368.56
319.212	1386.56
319.441	1382.56
319.67	1400.56
319.9	1446.56
320.129	1411.56
320.358	1400.56
320.587	1416.56
320.816	1420.56
321.046	1418.56
321.275	1418.56
321.504	1448.56
321.733	1421.56
321.962	1468.56
322.191	1462.56
322.42	1433.56
322.649	1430.56
322.878	1441.56
323.108	1455.56
323.337	1468.56
323.566	1484.56
323.795	1469.56
324.024	1455.56
324.253	1478.56
324.482	1472.56
324.71	1483.56
324.939	1470.56
325.168	1493.56
325.397	1488.56
325.626	1498.56
325.855	1491.56
326.084	1478.56
326.313	1516.56
326.542	1490.56
326.77	1542.56
326.999	1529.56
327.228	1503.56
327.457	1535.56
327.686	1504.56
327.914	1511.56
328.143	1523.56
328.372	1523.56
328.6	1525.56
328.829	1511.56
329.058	1493.56
329.287	1539.56
329.515	1531.56
329.744	1511.56
329.972	1537.56
330.201	1568.56
330.43	1546.56
330.658	1523.56
330.887	1562.56
331.115	1546.56
331.344	1605.56
331.572	1578.56
331.801	1618.56
332.03	1629.56
332.258	1627.56
332.486	1638.56
332.715	1630.56
332.943	1623.56
333.172	1685.56
333.4	1696.56
333.629	1742.56
333.857	1773.56
334.085	1756.56
334.314	1772.56
334.542	1747.56
334.771	1743.56
334.999	1770.56
335.227	1755.56
335.455	1763.56
335.684	1772.56
335.912	1781.56
336.14	1778.56
336.369	1757.56
336.597	1799.56
336.825	1785.56
337.053	1786.56
337.281	1794.56
337.51	1736.56
337.738	1748.56
337.966	1706.56
338.194	1782.56
338.422	1711.56
338.65	1670.56
338.878	1704.56
339.106	1672.56
339.334	1716.56
339.562	1675.56
339.79	1646.56
340.018	1628.56
340.246	1650.56
340.474	1650.56
340.702	1593.56
340.93	1607.56
341.158	1638.56
341.386	1643.56
341.614	1719.56
341.842	1678.56
342.07	1604.56
342.298	1595.56
342.526	1610.56
342.754	1602.56
342.981	1559.56
343.209	1582.56
343.437	1652.56
343.665	1690.56
343.893	1676.56
344.12	1735.56
344.348	1706.56
344.576	1678.56
344.804	1734.56
345.031	1711.56
345.259	1661.56
345.487	1653.56
345.714	1657.56
345.942	1657.56
346.17	1671.56
346.397	1634.56
346.625	1576.56
346.853	1549.56
347.08	1575.56
347.308	1586.56
347.535	1579.56
347.763	1562.56
347.99	1546.56
348.218	1538.56
348.445	1542.56
348.673	1550.56
348.9	1560.56
349.128	1539.56
349.355	1578.56
349.583	1598.56
349.81	1503.56
350.037	1507.56
350.265	1519.56
350.492	1499.56
350.72	1528.56
350.947	1508.56
351.174	1555.56
351.402	1579.56
351.629	1542.56
351.856	1549.56
352.083	1503.56
352.311	1504.56
352.538	1563.56
352.765	1609.56
352.992	1488.56
353.22	1437.56
353.447	1487.56
353.674	1454.56
353.901	1492.56
354.128	1474.56
354.355	1444.56
354.583	1451.56
354.81	1443.56
355.037	1459.56
355.264	1453.56
355.491	1460.56
355.718	1469.56
355.945	1483.56
356.172	1496.56
356.399	1502.56
356.626	1507.56
356.853	1563.56
357.08	1501.56
357.307	1485.56
357.534	1524.56
357.761	1440.56
357.988	1449.56
358.215	1471.56
358.441	1453.56
358.668	1431.56
358.895	1435.56
359.122	1468.56
359.349	1417.56
359.576	1422.56
359.802	1465.56
360.029	1488.56
360.256	1475.56
360.483	1448.56
360.709	1423.56
360.936	1489.56
361.163	1475.56
361.39	1483.56
361.616	1485.56
361.843	1502.56
362.07	1577.56
362.296	1548.56
362.523	1468.56
362.749	1451.56
362.976	1451.56
363.203	1442.56
363.429	1439.56
363.656	1440.56
363.882	1438.56
364.109	1450.56
364.335	1431.56
364.562	1454.56
364.788	1430.56
365.015	1481.56
365.241	1443.56
365.468	1453.56
365.694	1451.56
365.92	1436.56
366.147	1426.56
366.373	1442.56
366.599	1460.56
366.826	1441.56
367.052	1438.56
367.278	1484.56
367.505	1477.56
367.731	1459.56
367.957	1466.56
368.184	1484.56
368.41	1495.56
368.636	1462.56
368.862	1458.56
369.089	1440.56
369.315	1477.56
369.541	1501.56
369.767	1497.56
369.993	1504.56
370.219	1466.56
370.445	1540.56
370.672	1552.56
370.898	1492.56
371.124	1513.56
371.35	1501.56
371.576	1538.56
371.802	1506.56
372.028	1483.56
372.254	1562.56
372.48	1470.56
372.706	1539.56
372.932	1530.56
373.158	1543.56
373.384	1548.56
373.61	1518.56
373.835	1535.56
374.061	1535.56
374.287	1540.56
374.513	1581.56
374.739	1580.56
374.965	1586.56
375.191	1562.56
375.416	1573.56
375.642	1500.56
375.868	1562.56
376.094	1540.56
376.319	1511.56
376.545	1514.56
376.771	1488.56
376.997	1494.56
377.222	1511.56
377.448	1502.56
377.674	1501.56
377.899	1480.56
378.125	1458.56
378.35	1490.56
378.576	1488.56
378.802	1493.56
379.027	1502.56
379.253	1478.56
379.478	1504.56
379.704	1460.56
379.929	1492.56
380.155	1494.56
380.38	1499.56
380.606	1498.56
380.831	1507.56
381.057	1518.56
381.282	1502.56
381.507	1474.56
381.733	1495.56
381.958	1503.56
382.184	1499.56
382.409	1518.56
382.634	1501.56
382.86	1501.56
383.085	1549.56
383.31	1586.56
383.535	1591.56
383.761	1572.56
383.986	1591.56
384.211	1623.56
384.436	1614.56
384.662	1616.56
384.887	1643.56
385.112	1611.56
385.337	1639.56
385.562	1626.56
385.787	1665.56
386.013	1712.56
386.238	1682.56
386.463	1686.56
386.688	1666.56
386.913	1664.56
387.138	1652.56
387.363	1673.56
387.588	1677.56
387.813	1648.56
388.038	1677.56
388.263	1701.56
388.488	1718.56
388.713	1718.56
388.938	1693.56
389.163	1730.56
389.387	1682.56
389.612	1631.56
389.837	1681.56
390.062	1692.56
390.287	1704.56
390.512	1690.56
390.736	1707.56
390.961	1761.56
391.186	1740.56
391.411	1757.56
391.636	1759.56
391.86	1808.56
392.085	1808.56
392.31	1818.56
392.534	1782.56
392.759	1789.56
392.984	1803.56
393.208	1760.56
393.433	1794.56
393.658	1762.56
393.882	1741.56
394.107	1777.56
394.331	1786.56
394.556	1790.56
394.78	1770.56
395.005	1776.56
395.229	1789.56
395.454	1803.56
395.678	1786.56
395.903	1839.56
396.127	1820.56
396.352	1848.56
396.576	1840.56
396.801	1817.56
397.025	1834.56
397.249	1838.56
397.474	1865.56
397.698	1899.56
397.922	1931.56
398.147	1906.56
398.371	1911.56
398.595	1983.56
398.82	1999.56
399.044	2114.56
399.268	2123.56
399.492	2214.56
399.717	2281.56
399.941	2399.56
400.165	2286.56
400.389	2256.56
400.613	2205.56
400.837	2093.56
401.062	2161.56
401.286	2055.56
401.51	2063.56
401.734	2040.56
401.958	2021.56
402.182	2009.56
402.406	2067.56
402.63	2016.56
402.854	2027.56
403.078	1998.56
403.302	2027.56
403.526	1997.56
403.75	2038.56
403.974	2033.56
404.198	1990.56
404.422	2005.56
404.645	2036.56
404.869	2045.56
405.093	2093.56
405.317	2052.56
405.541	2076.56
405.765	2118.56
405.988	2125.56
406.212	2175.56
406.436	2105.56
406.66	2207.56
406.883	2141.56
407.107	2248.56
407.331	2279.56
407.555	2321.56
407.778	2264.56
408.002	2261.56
408.226	2246.56
408.449	2294.56
408.673	2241.56
408.896	2240.56
409.12	2165.56
409.344	2204.56
409.567	2165.56
409.791	2130.56
410.014	2168.56
410.238	2180.56
410.461	2190.56
410.685	2175.56
410.908	2110.56
411.132	2108.56
411.355	2127.56
411.578	2082.56
411.802	2118.56
412.025	2134.56
412.249	2091.56
412.472	2134.56
412.695	2077.56
412.919	2071.56
413.142	2087.56
413.365	2067.56
413.589	2068.56
413.812	2034.56
414.035	2036.56
414.258	2028.56
414.482	2023.56
414.705	2031.56
414.928	2014.56
415.151	2007.56
415.374	2029.56
415.597	2016.56
415.821	1997.56
416.044	1983.56
416.267	1990.56
416.49	2034.56
416.713	1955.56
416.936	1974.56
417.159	1963.56
417.382	1962.56
417.605	1910.56
417.828	1925.56
418.051	1990.56
418.274	1953.56
418.497	1974.56
418.72	1944.56
418.943	1949.56
419.166	2086.56
419.389	2210.56
419.611	2165.56
419.834	2094.56
420.057	2031.56
420.28	2002.56
420.503	1968.56
420.726	1952.56
420.948	1915.56
421.171	1958.56
421.394	1933.56
421.617	1921.56
421.839	1935.56
422.062	1951.56
422.285	1908.56
422.507	2004.56
422.73	1955.56
422.953	1986.56
423.175	1983.56
423.398	1955.56
423.621	1918.56
423.843	1962.56
424.066	1947.56
424.288	1982.56
424.511	1956.56
424.733	1986.56
424.956	1954.56
425.178	1927.56
425.401	1935.56
425.623	1940.56
425.846	1950.56
426.068	1959.56
426.291	1962.56
426.513	1951.56
426.735	1923.56
426.958	1914.56
427.18	1930.56
427.402	1936.56
427.625	1955.56
427.847	1925.56
428.069	1935.56
428.292	1897.56
428.514	1868.56
428.736	1854.56
428.958	1909.56
429.181	1884.56
429.403	1890.56
429.625	1912.56
429.847	1899.56
430.069	1899.56
430.292	1915.56
430.514	1882.56
430.736	1897.56
430.958	1850.56
431.18	1911.56
431.402	1887.56
431.624	1887.56
431.846	1909.56
432.068	1916.56
432.29	1924.56
432.512	1917.56
432.734	1948.56
432.956	1925.56
433.178	1947.56
433.4	1955.56
433.622	1986.56
433.844	1970.56
434.066	1941.56
434.287	1981.56
434.509	1992.56
434.731	1969.56
434.953	2027.56
435.175	2030.56
435.397	2058.56
435.618	1978.56
435.84	1964.56
436.062	1954.56
436.284	1928.56
436.505	1897.56
436.727	1878.56
436.949	1911.56
437.17	1920.56
437.392	1924.56
437.614	1887.56
437.835	1842.56
438.057	1876.56
438.278	1835.56
438.5	1878.56
438.721	1839.56
438.943	1866.56
439.165	1845.56
439.386	1857.56
439.608	1900.56
439.829	1860.56
440.05	1912.56
440.272	1889.56
440.493	1893.56
440.715	1930.56
440.936	1928.56
441.158	1958.56
441.379	1956.56
441.6	2021.56
441.822	1982.56
442.043	2007.56
442.264	1996.56
442.486	1972.56
442.707	2048.56
442.928	2010.56
443.149	1989.56
443.371	2025.56
443.592	2077.56
443.813	2093.56
444.034	2080.56
444.255	2046.56
444.476	2111.56
444.698	2083.56
444.919	2127.56
445.14	2228.56
445.361	2120.56
445.582	2090.56
445.803	2038.56
446.024	1992.56
446.245	1975.56
446.466	1957.56
446.687	1903.56
446.908	1946.56
447.129	1877.56
447.35	1858.56
447.571	1839.56
447.792	1809.56
448.013	1843.56
448.234	1788.56
448.455	1789.56
448.675	1784.56
448.896	1806.56
449.117	1783.56
449.338	1792.56
449.559	1786.56
449.779	1784.56
450	1722.56
450.221	1741.56
450.442	1788.56
450.662	1758.56
450.883	1779.56
451.104	1822.56
451.324	1820.56
451.545	1802.56
451.766	1775.56
451.986	1753.56
452.207	1780.56
452.428	1770.56
452.648	1746.56
452.869	1706.56
453.089	1771.56
453.31	1770.56
453.53	1718.56
453.751	1734.56
453.971	1704.56
454.192	1773.56
454.412	1756.56
454.633	1738.56
454.853	1752.56
455.073	1710.56
455.294	1742.56
455.514	1728.56
455.734	1723.56
455.955	1751.56
456.175	1751.56
456.395	1733.56
456.616	1688.56
456.836	1711.56
457.056	1722.56
457.276	1705.56
457.497	1778.56
457.717	1797.56
457.937	1741.56
458.157	1787.56
458.377	1753.56
458.598	1763.56
458.818	1824.56
459.038	1846.56
459.258	1875.56
459.478	1963.56
459.698	2050.56
459.918	2127.56
460.138	2079.56
460.358	2154.56
460.578	2076.56
460.798	2176.56
461.018	2204.56
461.238	2125.56
461.458	2067.56
461.678	2085.56
461.898	2127.56
462.118	2139.56
462.338	2206.56
462.558	2265.56
462.777	2269.56
462.997	2344.56
463.217	2405.56
463.437	2453.56
463.657	2413.56
463.876	2310.56
464.096	2312.56
464.316	2285.56
464.536	2294.56
464.755	2261.56
464.975	2202.56
465.195	2173.56
465.414	2141.56
465.634	2019.56
465.854	2046.56
466.073	2002.56
466.293	1953.56
466.512	1920.56
466.732	1928.56
466.951	1932.56
467.171	1940.56
467.391	1898.56
467.61	1894.56
467.829	1870.56
468.049	1859.56
468.268	1863.56
468.488	1878.56
468.707	1858.56
468.927	1832.56
469.146	1875.56
469.365	1895.56
469.585	1883.56
469.804	1850.56
470.023	1892.56
470.243	1868.56
470.462	1870.56
470.681	1856.56
470.901	1867.56
471.12	1873.56
471.339	1915.56
471.558	1871.56
471.777	1912.56
471.997	1882.56
472.216	1868.56
472.435	1869.56
472.654	1834.56
472.873	1826.56
473.092	1897.56
473.311	1858.56
473.53	1839.56
473.749	1874.56
473.968	1901.56
474.187	1854.56
474.406	1853.56
474.625	1867.56
474.844	1898.56
475.063	1910.56
475.282	1938.56
475.501	1944.56
475.72	1929.56
475.939	1964.56
476.158	1927.56
476.377	1969.56
476.596	1974.56
476.814	2011.56
477.033	2011.56
477.252	2021.56
477.471	2007.56
477.69	2102.56
477.908	2106.56
478.127	2171.56
478.346	2188.56
478.564	2160.56
478.783	2215.56
479.002	2238.56
479.22	2283.56
479.439	2278.56
479.658	2228.56
479.876	2227.56
480.095	2259.56
480.313	2262.56
480.532	2281.56
480.751	2315.56
480.969	2237.56
481.188	2233.56
481.406	2230.56
481.624	2228.56
481.843	2188.56
482.061	2188.56
482.28	2219.56
482.498	2211.56
482.717	2201.56
482.935	2184.56
483.153	2295.56
483.372	2328.56
483.59	2279.56
483.808	2259.56
484.027	2219.56
484.245	2253.56
484.463	2276.56
484.681	2292.56
484.9	2241.56
485.118	2334.56
485.336	2269.56
485.554	2291.56
485.772	2359.56
485.99	2309.56
486.209	2299.56
486.427	2292.56
486.645	2318.56
486.863	2370.56
487.081	2279.56
487.299	2302.56
487.517	2267.56
487.735	2303.56
487.953	2386.56
488.171	2343.56
488.389	2343.56
488.607	2360.56
488.825	2315.56
489.043	2308.56
489.261	2281.56
489.479	2293.56
489.696	2284.56
489.914	2285.56
490.132	2295.56
490.35	2302.56
490.568	2347.56
490.786	2347.56
491.003	2339.56
491.221	2391.56
491.439	2363.56
491.657	2395.56
491.874	2376.56
492.092	2390.56
492.31	2362.56
492.527	2370.56
492.745	2392.56
492.963	2340.56
493.18	2399.56
493.398	2412.56
493.615	2426.56
493.833	2442.56
494.05	2420.56
494.268	2466.56
494.485	2472.56
494.703	2453.56
494.92	2453.56
495.138	2514.56
495.355	2444.56
495.573	2480.56
495.79	2484.56
496.008	2479.56
496.225	2517.56
496.442	2536.56
496.66	2597.56
496.877	2599.56
497.094	2651.56
497.312	2643.56
497.529	2688.56
497.746	2772.56
497.963	2790.56
498.181	2897.56
498.398	2948.56
498.615	3117.56
498.832	3165.56
499.049	3252.56
499.267	3348.56
499.484	3498.56
499.701	3632.56
499.918	3773.56
500.135	3998.56
500.352	4127.56
500.569	4136.56
500.786	4138.56
501.003	4107.56
501.22	4027.56
501.437	3814.56
501.654	3630.56
501.871	3539.56
502.088	3375.56
502.305	3268.56
502.522	3176.56
502.739	3061.56
502.956	2934.56
503.172	2917.56
503.389	2871.56
503.606	2805.56
503.823	2757.56
504.04	2675.56
504.256	2673.56
504.473	2670.56
504.69	2567.56
504.907	2554.56
505.123	2555.56
505.34	2473.56
505.557	2360.56
505.773	2324.56
505.99	2330.56
506.207	2317.56
506.423	2271.56
506.64	2274.56
506.856	2217.56
507.073	2230.56
507.289	2199.56
507.506	2206.56
507.722	2171.56
507.939	2150.56
508.155	2138.56
508.372	2168.56
508.588	2122.56
508.805	2136.56
509.021	2060.56
509.238	2068.56
509.454	2086.56
509.67	2018.56
509.887	2055.56
510.103	2028.56
510.319	1971.56
510.536	1998.56
510.752	1978.56
510.968	1944.56
511.184	1945.56
511.401	1960.56
511.617	1977.56
511.833	1965.56
512.049	1959.56
512.265	1982.56
512.481	1954.56
512.698	1967.56
512.914	1994.56
513.13	1929.56
513.346	1961.56
513.562	1948.56
513.778	1977.56
513.994	1977.56
514.21	1963.56
514.426	1971.56
514.642	1955.56
514.858	1996.56
515.074	1954.56
515.29	2005.56
515.506	1991.56
515.721	2037.56
515.937	2047.56
516.153	2039.56
516.369	2064.56
516.585	2114.56
516.801	2142.56
517.016	2102.56
517.232	2139.56
517.448	2176.56
517.664	2197.56
517.879	2206.56
518.095	2189.56
518.311	2198.56
518.527	2170.56
518.742	2132.56
518.958	2112.56
519.173	2052.56
519.389	2063.56
519.605	2031.56
519.82	2002.56
520.036	1984.56
520.251	1893.56
520.467	1981.56
520.682	1906.56
520.898	1888.56
521.113	1896.56
521.329	1883.56
521.544	1862.56
521.76	1836.56
521.975	1852.56
522.19	1782.56
522.406	1848.56
522.621	1809.56
522.836	1781.56
523.052	1794.56
523.267	1775.56
523.482	1755.56
523.698	1746.56
523.913	1778.56
524.128	1775.56
524.343	1756.56
524.559	1758.56
524.774	1755.56
524.989	1771.56
525.204	1747.56
525.419	1761.56
525.634	1751.56
525.849	1735.56
526.064	1725.56
526.28	1731.56
526.495	1718.56
526.71	1698.56
526.925	1703.56
527.14	1704.56
527.355	1671.56
527.57	1706.56
527.785	1727.56
527.999	1694.56
528.214	1668.56
528.429	1672.56
528.644	1694.56
528.859	1710.56
529.074	1713.56
529.289	1708.56
529.503	1703.56
529.718	1676.56
529.933	1688.56
530.148	1677.56
530.363	1660.56
530.577	1659.56
530.792	1664.56
531.007	1684.56
531.221	1652.56
531.436	1653.56
531.651	1637.56
531.865	1663.56
532.08	1702.56
532.295	1713.56
532.509	1654.56
532.724	1608.56
532.938	1643.56
533.153	1646.56
533.367	1677.56
533.582	1638.56
533.796	1640.56
534.011	1630.56
534.225	1616.56
534.44	1598.56
534.654	1628.56
534.868	1604.56
535.083	1598.56
535.297	1602.56
535.511	1582.56
535.726	1604.56
535.94	1590.56
536.154	1550.56
536.369	1587.56
536.583	1549.56
536.797	1559.56
537.011	1529.56
537.225	1555.56
537.44	1541.56
537.654	1507.56
537.868	1516.56
538.082	1518.56
538.296	1508.56
538.51	1544.56
538.724	1540.56
538.938	1494.56
539.153	1525.56
539.367	1552.56
539.581	1518.56
539.795	1488.56
540.009	1491.56
540.222	1462.56
540.436	1508.56
540.65	1499.56
540.864	1480.56
541.078	1528.56
541.292	1535.56
541.506	1503.56
541.72	1516.56
541.934	1490.56
542.147	1529.56
542.361	1495.56
542.575	1503.56
542.789	1486.56
543.002	1454.56
543.216	1437.56
543.43	1459.56
543.644	1482.56
543.857	1483.56
544.071	1471.56
544.285	1501.56
544.498	1512.56
544.712	1443.56
544.925	1498.56
545.139	1458.56
545.352	1464.56
545.566	1483.56
545.779	1442.56
545.993	1461.56
546.206	1490.56
546.42	1476.56
546.633	1464.56
546.847	1447.56
547.06	1447.56
547.274	1477.56
547.487	1445.56
547.7	1482.56
547.914	1491.56
548.127	1470.56
548.34	1431.56
548.554	1468.56
548.767	1480.56
548.98	1476.56
549.193	1476.56
549.407	1447.56
549.62	1449.56
549.833	1467.56
550.046	1451.56
550.259	1462.56
550.473	1441.56
550.686	1468.56
550.899	1436.56
551.112	1441.56
551.325	1463.56
551.538	1409.56
551.751	1421.56
551.964	1434.56
552.177	1460.56
552.39	1441.56
552.603	1469.56
552.816	1504.56
553.029	1451.56
553.242	1479.56
553.455	1471.56
553.667	1440.56
553.88	1476.56
554.093	1472.56
554.306	1440.56
554.519	1409.56
554.732	1381.56
554.944	1402.56
555.157	1386.56
555.37	1383.56
555.583	1330.56
555.795	1353.56
556.008	1343.56
556.221	1283.56
556.433	1326.56
556.646	1304.56
556.859	1319.56
557.071	1286.56
557.284	1288.56
557.496	1283.56
557.709	1270.56
557.921	1262.56
558.134	1246.56
558.346	1269.56
558.559	1300.56
558.771	1270.56
558.984	1232.56
559.196	1236.56
559.409	1244.56
559.621	1216.56
559.833	1237.56
560.046	1250.56
560.258	1211.56
560.47	1230.56
560.683	1195.56
560.895	1234.56
561.107	1195.56
561.32	1245.56
561.532	1207.56
561.744	1216.56
561.956	1226.56
562.168	1213.56
562.381	1231.56
562.593	1229.56
562.805	1239.56
563.017	1257.56
563.229	1240.56
563.441	1238.56
563.653	1236.56
563.865	1250.56
564.077	1241.56
564.289	1303.56
564.501	1267.56
564.713	1326.56
564.925	1304.56
565.137	1303.56
565.349	1318.56
565.561	1365.56
565.773	1352.56
565.985	1382.56
566.197	1414.56
566.408	1474.56
566.62	1472.56
566.832	1516.56
567.044	1539.56
567.255	1542.56
567.467	1558.56
567.679	1530.56
567.891	1563.56
568.102	1564.56
568.314	1501.56
568.526	1479.56
568.737	1413.56
568.949	1379.56
569.161	1357.56
569.372	1334.56
569.584	1276.56
569.795	1230.56
570.007	1193.56
570.218	1183.56
570.43	1181.56
570.641	1160.56
570.853	1139.56
571.064	1181.56
571.276	1143.56
571.487	1122.56
571.698	1078.56
571.91	1080.56
572.121	1064.56
572.333	1080.56
572.544	1090.56
572.755	1051.56
572.966	1026.56
573.178	1029.56
573.389	1037.56
573.6	1010.56
573.811	989.56
574.023	979.56
574.234	971.56
574.445	965.56
574.656	976.56
574.867	971.56
575.078	968.56
575.289	950.56
575.501	937.56
575.712	924.56
575.923	949.56
576.134	915.56
576.345	915.56
576.556	928.56
576.767	884.56
576.978	910.56
577.188	898.56
577.399	930.56
577.61	904.56
577.821	889.56
578.032	890.56
578.243	874.56
578.454	862.56
578.665	893.56
578.875	864.56
579.086	875.56
579.297	864.56
579.508	862.56
579.718	862.56
579.929	844.56
580.14	844.56
580.35	876.56
580.561	837.56
580.772	813.56
580.982	831.56
581.193	836.56
581.403	816.56
581.614	828.56
581.825	822.56
582.035	819.56
582.246	794.56
582.456	815.56
582.667	826.56
582.877	808.56
583.087	791.56
583.298	796.56
583.508	782.56
583.719	782.56
583.929	799.56
584.139	799.56
584.35	771.56
584.56	805.56
584.77	787.56
584.981	773.56
585.191	772.56
585.401	781.56
585.611	755.56
585.821	767.56
586.032	775.56
586.242	772.56
586.452	772.56
586.662	762.56
586.872	782.56
587.082	770.56
587.292	756.56
587.502	758.56
587.713	742.56
587.923	760.56
588.133	779.56
588.343	738.56
588.553	757.56
588.762	748.56
588.972	800.56
589.182	915.56
589.392	882.56
589.602	805.56
589.812	880.56
590.022	808.56
590.232	749.56
590.441	760.56
590.651	754.56
590.861	758.56
591.071	769.56
591.281	750.56
591.49	761.56
591.7	787.56
591.91	802.56
592.119	783.56
592.329	776.56
592.539	784.56
592.748	773.56
592.958	805.56
593.167	779.56
593.377	807.56
593.587	798.56
593.796	796.56
594.006	794.56
594.215	790.56
594.424	783.56
594.634	766.56
594.843	751.56
595.053	782.56
595.262	751.56
595.472	708.56
595.681	716.56
595.89	726.56
596.1	730.56
596.309	701.56
596.518	705.56
596.727	698.56
596.937	695.56
597.146	676.56
597.355	678.56
597.564	691.56
597.774	656.56
597.983	663.56
598.192	665.56
598.401	652.56
598.61	672.56
598.819	634.56
599.028	644.56
599.237	631.56
599.446	663.56
599.655	631.56
599.864	620.56
600.073	623.56
600.282	627.56
600.491	601.56
600.7	614.56
600.909	590.56
601.118	616.56
601.327	604.56
601.536	595.56
601.745	610.56
601.953	613.56
602.162	623.56
602.371	595.56
602.58	584.56
602.789	602.56
602.997	596.56
603.206	587.56
603.415	592.56
603.623	580.56
603.832	565.56
604.041	604.56
604.249	568.56
604.458	583.56
604.666	571.56
604.875	567.56
605.084	564.56
605.292	587.56
605.501	578.56
605.709	554.56
605.918	569.56
606.126	557.56
606.334	555.56
606.543	554.56
606.751	566.56
606.96	557.56
607.168	568.56
607.376	542.56
607.585	534.56
607.793	531.56
608.001	534.56
608.21	536.56
608.418	543.56
608.626	554.56
608.834	546.56
609.043	538.56
609.251	526.56
609.459	542.56
609.667	536.56
609.875	528.56
610.083	515.56
610.291	530.56
610.499	560.56
610.707	546.56
610.916	533.56
611.124	533.56
611.332	535.56
611.54	540.56
611.748	535.56
611.955	522.56
612.163	511.56
612.371	518.56
612.579	523.56
612.787	506.56
612.995	524.56
613.203	514.56
613.411	514.56
613.618	494.56
613.826	514.56
614.034	516.56
614.242	528.56
614.449	516.56
614.657	512.56
614.865	489.56
615.072	510.56
615.28	512.56
615.488	492.56
615.695	496.56
615.903	481.56
616.111	524.56
616.318	514.56
616.526	512.56
616.733	496.56
616.941	490.56
617.148	506.56
617.356	498.56
617.563	487.56
617.771	511.56
617.978	504.56
618.185	493.56
618.393	476.56
618.6	492.56
618.807	491.56
619.015	477.56
619.222	477.56
619.429	469.56
619.637	472.56
619.844	478.56
620.051	459.56
620.258	461.56
620.466	454.56
620.673	435.56
620.88	456.56
621.087	468.56
621.294	478.56
621.501	441.56
621.708	446.56
621.915	440.56
622.122	433.56
622.329	421.56
622.536	485.56
622.743	444.56
622.95	456.56
623.157	450.56
623.364	449.56
623.571	446.56
623.778	430.56
623.985	433.56
624.192	444.56
624.399	451.56
624.606	434.56
624.812	436.56
625.019	419.56
625.226	428.56
625.433	429.56
625.639	411.56
625.846	408.56
626.053	427.56
626.259	413.56
626.466	434.56
626.673	410.56
626.879	398.56
627.086	415.56
627.293	430.56
627.499	398.56
627.706	416.56
627.912	396.56
628.119	415.56
628.325	395.56
628.532	406.56
628.738	408.56
628.945	388.56
629.151	380.56
629.357	392.56
629.564	396.56
629.77	407.56
629.976	376.56
630.183	386.56
630.389	398.56
630.595	384.56
630.802	364.56
631.008	398.56
631.214	378.56
631.42	378.56
631.627	392.56
631.833	394.56
632.039	381.56
632.245	380.56
632.451	376.56
632.657	385.56
632.863	382.56
633.069	368.56
633.275	385.56
633.481	358.56
633.688	348.56
633.893	358.56
634.099	337.56
634.305	354.56
634.511	347.56
634.717	355.56
634.923	334.56
635.129	365.56
635.335	379.56
635.541	349.56
635.747	344.56
635.952	352.56
636.158	357.56
636.364	361.56
636.57	334.56
636.775	328.56
636.981	342.56
637.187	336.56
637.392	330.56
637.598	333.56
637.804	343.56
638.009	345.56
638.215	329.56
638.421	325.56
638.626	352.56
638.832	355.56
639.037	326.56
639.243	335.56
639.448	343.56
639.654	347.56
639.859	330.56
640.065	332.56
640.27	333.56
640.475	318.56
640.681	319.56
640.886	311.56
641.091	320.56
641.297	323.56
641.502	325.56
641.707	329.56
641.913	328.56
642.118	312.56
642.323	327.56
642.528	323.56
642.733	333.56
642.939	320.56
643.144	316.56
643.349	325.56
643.554	318.56
643.759	316.56
643.964	326.56
644.169	320.56
644.374	316.56
644.579	310.56
644.784	312.56
644.989	328.56
645.194	310.56
645.399	309.56
645.604	314.56
645.809	322.56
646.014	327.56
646.219	308.56
646.423	304.56
646.628	308.56
646.833	322.56
647.038	305.56
647.243	341.56
647.447	315.56
647.652	332.56
647.857	310.56
648.062	332.56
648.266	322.56
648.471	331.56
648.676	316.56
648.88	328.56
649.085	314.56
649.289	309.56
649.494	316.56
649.698	310.56
649.903	310.56
650.107	293.56
650.312	323.56
650.516	308.56
650.721	307.56
650.925	303.56
651.13	297.56
651.334	290.56
651.539	289.56
651.743	276.56
651.947	287.56
652.152	287.56
652.356	277.56
652.56	276.56
652.764	272.56
652.969	271.56
653.173	266.56
653.377	271.56
653.581	238.56
653.785	241.56
653.99	254.56
654.194	260.56
654.398	245.56
654.602	251.56
654.806	258.56
655.01	265.56
655.214	256.56
655.418	261.56
655.622	262.56
655.826	238.56
656.03	225.56
656.234	232.56
656.438	251.56
656.642	229.56
656.846	239.56
657.049	243.56
657.253	212.56
657.457	210.56
657.661	195.56
657.865	197.56
658.068	189.56
658.272	174.56
658.476	162.56
658.68	165.56
658.883	144.56
659.087	147.56
659.291	137.56
659.494	136.56
659.698	144.56
659.901	139.56
660.105	124.56
660.309	126.56
660.512	108.56
660.716	126.56
660.919	95.56
661.123	112.56
661.326	110.56
661.53	112.56
661.733	107.56
661.936	92.56
662.14	90.56
662.343	99.56
662.546	100.56
662.75	87.56
662.953	93.56
663.156	93.56
663.36	71.56
663.563	88.56
663.766	87.56
663.969	97.56
664.173	102.56
664.376	89.56
664.579	74.56
664.782	87.56
664.985	94.56
665.188	93.56
665.391	93.56
665.594	95.56
665.797	94.56
666	88.56
666.203	102.56
666.406	85.56
666.609	105.56
666.812	79.56
667.015	82.56
667.218	87.56
667.421	94.56
667.624	87.56
667.827	86.56
668.03	82.56
668.232	81.56
668.435	80.56
668.638	91.56
668.841	80.56
669.043	80.56
669.246	96.56
669.449	86.56
669.651	91.56
669.854	88.56
670.057	101.56
670.259	68.56
670.462	84.56
670.665	84.56
670.867	86.56
671.07	88.56
671.272	85.56
671.475	91.56
671.677	78.56
671.88	78.56
672.082	78.56
672.284	87.56
672.487	94.56
672.689	96.56
672.892	80.56
