Data from NiCl2@0.125M.TitratingCurve.Agarose3%dH2O.NegLispCup.LampEnergy10.LIBS07252019_HRD10591_18-29-46-575.txt Node
Date: Thu Jul 25 18:29:46 EDT 2019
User: cochatt
Spectrometer: HR+D1059
Trigger mode: 1
Integration Time (sec): 1.000000E-1
Scans to average: 1
Electric dark correction enabled: true
Nonlinearity correction enabled: false
Boxcar width: 0
XAxis mode: Wavelengths
Number of Pixels in Spectrum: 2048
>>>>>Begin Spectral Data<<<<<
223.165	-14.38
223.4	-14.38
223.635	-14.38
223.869	-19.38
224.104	-34.38
224.338	-8.38
224.573	-29.38
224.808	-2.38
225.042	-12.38
225.277	-4.38
225.511	-6.38
225.746	13.62
225.98	1.62
226.215	3.62
226.449	23.62
226.683	28.62
226.918	29.62
227.152	30.62
227.387	20.62
227.621	35.62
227.856	57.62
228.09	41.62
228.324	41.62
228.559	50.62
228.793	85.62
229.027	112.62
229.262	108.62
229.496	115.62
229.73	118.62
229.964	138.62
230.199	129.62
230.433	129.62
230.667	147.62
230.901	135.62
231.136	133.62
231.37	126.62
231.604	153.62
231.838	158.62
232.072	146.62
232.306	170.62
232.541	155.62
232.775	157.62
233.009	138.62
233.243	158.62
233.477	163.62
233.711	145.62
233.945	147.62
234.179	157.62
234.413	157.62
234.647	155.62
234.881	166.62
235.115	147.62
235.349	164.62
235.583	147.62
235.817	164.62
236.051	174.62
236.285	171.62
236.519	153.62
236.753	160.62
236.987	172.62
237.221	161.62
237.455	181.62
237.689	170.62
237.922	160.62
238.156	176.62
238.39	164.62
238.624	177.62
238.858	164.62
239.091	177.62
239.325	169.62
239.559	179.62
239.793	183.62
240.027	199.62
240.26	194.62
240.494	202.62
240.728	182.62
240.961	187.62
241.195	203.62
241.429	193.62
241.662	204.62
241.896	195.62
242.13	205.62
242.363	191.62
242.597	208.62
242.83	215.62
243.064	226.62
243.298	210.62
243.531	214.62
243.765	204.62
243.998	194.62
244.232	222.62
244.465	235.62
244.699	223.62
244.932	220.62
245.166	222.62
245.399	235.62
245.633	236.62
245.866	226.62
246.099	221.62
246.333	243.62
246.566	235.62
246.8	214.62
247.033	237.62
247.266	250.62
247.5	250.62
247.733	246.62
247.966	266.62
248.2	233.62
248.433	244.62
248.666	246.62
248.899	249.62
249.133	277.62
249.366	266.62
249.599	245.62
249.832	256.62
250.066	258.62
250.299	262.62
250.532	262.62
250.765	271.62
250.998	273.62
251.231	284.62
251.465	280.62
251.698	295.62
251.931	261.62
252.164	291.62
252.397	272.62
252.63	293.62
252.863	295.62
253.096	288.62
253.329	297.62
253.562	289.62
253.795	295.62
254.028	274.62
254.261	307.62
254.494	280.62
254.727	291.62
254.96	299.62
255.193	291.62
255.426	282.62
255.659	282.62
255.892	309.62
256.124	311.62
256.357	297.62
256.59	300.62
256.823	316.62
257.056	310.62
257.289	316.62
257.521	296.62
257.754	321.62
257.987	305.62
258.22	316.62
258.452	311.62
258.685	317.62
258.918	316.62
259.151	332.62
259.383	327.62
259.616	345.62
259.849	333.62
260.081	358.62
260.314	339.62
260.547	345.62
260.779	333.62
261.012	326.62
261.244	327.62
261.477	323.62
261.71	343.62
261.942	330.62
262.175	338.62
262.407	354.62
262.64	349.62
262.872	353.62
263.105	345.62
263.337	366.62
263.57	356.62
263.802	360.62
264.035	376.62
264.267	364.62
264.499	375.62
264.732	371.62
264.964	349.62
265.197	360.62
265.429	388.62
265.661	386.62
265.894	385.62
266.126	374.62
266.358	371.62
266.591	365.62
266.823	352.62
267.055	370.62
267.287	378.62
267.52	399.62
267.752	374.62
267.984	378.62
268.216	375.62
268.448	398.62
268.681	407.62
268.913	388.62
269.145	393.62
269.377	375.62
269.609	389.62
269.841	409.62
270.073	394.62
270.306	387.62
270.538	392.62
270.77	405.62
271.002	395.62
271.234	390.62
271.466	411.62
271.698	393.62
271.93	403.62
272.162	398.62
272.394	401.62
272.626	400.62
272.858	409.62
273.09	410.62
273.322	393.62
273.553	417.62
273.785	412.62
274.017	439.62
274.249	429.62
274.481	432.62
274.713	432.62
274.945	408.62
275.176	429.62
275.408	441.62
275.64	432.62
275.872	416.62
276.104	428.62
276.335	447.62
276.567	437.62
276.799	435.62
277.031	437.62
277.262	441.62
277.494	437.62
277.726	451.62
277.957	454.62
278.189	443.62
278.421	444.62
278.652	450.62
278.884	472.62
279.115	461.62
279.347	459.62
279.579	464.62
279.81	478.62
280.042	479.62
280.273	470.62
280.505	489.62
280.736	477.62
280.968	470.62
281.199	456.62
281.431	489.62
281.662	482.62
281.894	482.62
282.125	461.62
282.356	477.62
282.588	480.62
282.819	489.62
283.051	514.62
283.282	488.62
283.513	507.62
283.745	491.62
283.976	498.62
284.207	490.62
284.439	490.62
284.67	491.62
284.901	506.62
285.132	490.62
285.364	516.62
285.595	510.62
285.826	494.62
286.057	506.62
286.288	504.62
286.52	497.62
286.751	528.62
286.982	538.62
287.213	533.62
287.444	531.62
287.675	545.62
287.906	545.62
288.138	529.62
288.369	536.62
288.6	532.62
288.831	537.62
289.062	562.62
289.293	542.62
289.524	554.62
289.755	538.62
289.986	561.62
290.217	555.62
290.448	531.62
290.679	549.62
290.91	567.62
291.141	541.62
291.371	564.62
291.602	571.62
291.833	543.62
292.064	541.62
292.295	551.62
292.526	547.62
292.757	550.62
292.987	564.62
293.218	547.62
293.449	557.62
293.68	537.62
293.91	549.62
294.141	546.62
294.372	550.62
294.603	560.62
294.833	577.62
295.064	571.62
295.295	544.62
295.525	577.62
295.756	576.62
295.987	558.62
296.217	573.62
296.448	587.62
296.679	576.62
296.909	578.62
297.14	569.62
297.37	617.62
297.601	583.62
297.831	594.62
298.062	599.62
298.292	637.62
298.523	624.62
298.753	618.62
298.984	583.62
299.214	619.62
299.445	610.62
299.675	609.62
299.905	595.62
300.136	611.62
300.366	618.62
300.597	619.62
300.827	619.62
301.057	642.62
301.288	647.62
301.518	642.62
301.748	637.62
301.979	645.62
302.209	617.62
302.439	633.62
302.669	609.62
302.9	603.62
303.13	616.62
303.36	611.62
303.59	611.62
303.82	629.62
304.051	608.62
304.281	607.62
304.511	610.62
304.741	615.62
304.971	602.62
305.201	628.62
305.431	594.62
305.661	619.62
305.891	623.62
306.121	594.62
306.352	615.62
306.582	618.62
306.812	604.62
307.042	622.62
307.272	610.62
307.502	602.62
307.731	607.62
307.961	618.62
308.191	589.62
308.421	607.62
308.651	596.62
308.881	602.62
309.111	591.62
309.341	600.62
309.571	603.62
309.8	599.62
310.03	609.62
310.26	620.62
310.49	602.62
310.72	590.62
310.949	606.62
311.179	607.62
311.409	630.62
311.639	610.62
311.868	625.62
312.098	622.62
312.328	629.62
312.557	611.62
312.787	628.62
313.017	633.62
313.246	645.62
313.476	635.62
313.706	627.62
313.935	640.62
314.165	673.62
314.394	658.62
314.624	631.62
314.853	636.62
315.083	644.62
315.312	630.62
315.542	640.62
315.771	644.62
316.001	651.62
316.23	641.62
316.46	635.62
316.689	625.62
316.919	629.62
317.148	626.62
317.377	630.62
317.607	610.62
317.836	631.62
318.065	625.62
318.295	630.62
318.524	632.62
318.753	614.62
318.983	635.62
319.212	625.62
319.441	632.62
319.67	632.62
319.9	598.62
320.129	632.62
320.358	618.62
320.587	610.62
320.816	637.62
321.046	639.62
321.275	634.62
321.504	641.62
321.733	603.62
321.962	643.62
322.191	636.62
322.42	645.62
322.649	662.62
322.878	643.62
323.108	643.62
323.337	662.62
323.566	639.62
323.795	656.62
324.024	649.62
324.253	651.62
324.482	638.62
324.71	662.62
324.939	659.62
325.168	661.62
325.397	659.62
325.626	658.62
325.855	651.62
326.084	697.62
326.313	676.62
326.542	682.62
326.77	701.62
326.999	693.62
327.228	681.62
327.457	692.62
327.686	699.62
327.914	698.62
328.143	685.62
328.372	680.62
328.6	706.62
328.829	694.62
329.058	688.62
329.287	690.62
329.515	703.62
329.744	712.62
329.972	718.62
330.201	704.62
330.43	714.62
330.658	713.62
330.887	727.62
331.115	706.62
331.344	739.62
331.572	735.62
331.801	759.62
332.03	781.62
332.258	779.62
332.486	794.62
332.715	811.62
332.943	854.62
333.172	897.62
333.4	934.62
333.629	952.62
333.857	960.62
334.085	920.62
334.314	905.62
334.542	890.62
334.771	855.62
334.999	851.62
335.227	843.62
335.455	844.62
335.684	873.62
335.912	865.62
336.14	825.62
336.369	830.62
336.597	835.62
336.825	855.62
337.053	835.62
337.281	822.62
337.51	811.62
337.738	797.62
337.966	777.62
338.194	785.62
338.422	736.62
338.65	741.62
338.878	739.62
339.106	761.62
339.334	746.62
339.562	741.62
339.79	737.62
340.018	715.62
340.246	726.62
340.474	706.62
340.702	708.62
340.93	701.62
341.158	725.62
341.386	730.62
341.614	729.62
341.842	716.62
342.07	716.62
342.298	719.62
342.526	714.62
342.754	718.62
342.981	702.62
343.209	719.62
343.437	746.62
343.665	803.62
343.893	894.62
344.12	924.62
344.348	875.62
344.576	822.62
344.804	767.62
345.031	753.62
345.259	728.62
345.487	756.62
345.714	741.62
345.942	704.62
346.17	713.62
346.397	687.62
346.625	698.62
346.853	713.62
347.08	719.62
347.308	705.62
347.535	712.62
347.763	729.62
347.99	743.62
348.218	732.62
348.445	707.62
348.673	701.62
348.9	700.62
349.128	685.62
349.355	684.62
349.583	680.62
349.81	689.62
350.037	670.62
350.265	695.62
350.492	678.62
350.72	675.62
350.947	669.62
351.174	669.62
351.402	648.62
351.629	666.62
351.856	662.62
352.083	693.62
352.311	670.62
352.538	670.62
352.765	692.62
352.992	677.62
353.22	686.62
353.447	676.62
353.674	652.62
353.901	665.62
354.128	659.62
354.355	673.62
354.583	658.62
354.81	682.62
355.037	689.62
355.264	672.62
355.491	688.62
355.718	696.62
355.945	655.62
356.172	668.62
356.399	678.62
356.626	660.62
356.853	679.62
357.08	672.62
357.307	673.62
357.534	647.62
357.761	684.62
357.988	699.62
358.215	670.62
358.441	670.62
358.668	686.62
358.895	682.62
359.122	656.62
359.349	690.62
359.576	682.62
359.802	685.62
360.029	650.62
360.256	682.62
360.483	666.62
360.709	669.62
360.936	665.62
361.163	681.62
361.39	657.62
361.616	684.62
361.843	667.62
362.07	675.62
362.296	695.62
362.523	677.62
362.749	651.62
362.976	667.62
363.203	680.62
363.429	659.62
363.656	684.62
363.882	675.62
364.109	682.62
364.335	665.62
364.562	674.62
364.788	652.62
365.015	656.62
365.241	675.62
365.468	675.62
365.694	659.62
365.92	667.62
366.147	678.62
366.373	661.62
366.599	680.62
366.826	683.62
367.052	675.62
367.278	690.62
367.505	643.62
367.731	643.62
367.957	668.62
368.184	676.62
368.41	677.62
368.636	687.62
368.862	680.62
369.089	676.62
369.315	710.62
369.541	702.62
369.767	686.62
369.993	728.62
370.219	698.62
370.445	713.62
370.672	700.62
370.898	698.62
371.124	713.62
371.35	705.62
371.576	764.62
371.802	735.62
372.028	717.62
372.254	750.62
372.48	722.62
372.706	751.62
372.932	767.62
373.158	753.62
373.384	767.62
373.61	736.62
373.835	743.62
374.061	734.62
374.287	746.62
374.513	749.62
374.739	782.62
374.965	807.62
375.191	828.62
375.416	845.62
375.642	780.62
375.868	763.62
376.094	758.62
376.319	777.62
376.545	752.62
376.771	741.62
376.997	729.62
377.222	743.62
377.448	738.62
377.674	746.62
377.899	722.62
378.125	713.62
378.35	707.62
378.576	724.62
378.802	733.62
379.027	715.62
379.253	723.62
379.478	696.62
379.704	716.62
379.929	712.62
380.155	722.62
380.38	704.62
380.606	721.62
380.831	712.62
381.057	726.62
381.282	723.62
381.507	705.62
381.733	759.62
381.958	746.62
382.184	771.62
382.409	750.62
382.634	768.62
382.86	766.62
383.085	768.62
383.31	797.62
383.535	759.62
383.761	835.62
383.986	835.62
384.211	838.62
384.436	853.62
384.662	873.62
384.887	889.62
385.112	887.62
385.337	895.62
385.562	918.62
385.787	895.62
386.013	903.62
386.238	888.62
386.463	895.62
386.688	894.62
386.913	895.62
387.138	885.62
387.363	890.62
387.588	841.62
387.813	865.62
388.038	869.62
388.263	862.62
388.488	893.62
388.713	865.62
388.938	848.62
389.163	851.62
389.387	863.62
389.612	834.62
389.837	881.62
390.062	876.62
390.287	864.62
390.512	868.62
390.736	869.62
390.961	911.62
391.186	881.62
391.411	925.62
391.636	948.62
391.86	974.62
392.085	1007.62
392.31	997.62
392.534	967.62
392.759	949.62
392.984	933.62
393.208	919.62
393.433	919.62
393.658	953.62
393.882	958.62
394.107	957.62
394.331	977.62
394.556	949.62
394.78	958.62
395.005	921.62
395.229	936.62
395.454	953.62
395.678	1014.62
395.903	1014.62
396.127	986.62
396.352	938.62
396.576	937.62
396.801	949.62
397.025	951.62
397.249	974.62
397.474	1002.62
397.698	980.62
397.922	1012.62
398.147	974.62
398.371	1009.62
398.595	1021.62
398.82	1085.62
399.044	1145.62
399.268	1273.62
399.492	1486.62
399.717	1725.62
399.941	1737.62
400.165	1524.62
400.389	1358.62
400.613	1249.62
400.837	1163.62
401.062	1115.62
401.286	1116.62
401.51	1059.62
401.734	1109.62
401.958	1113.62
402.182	1109.62
402.406	1135.62
402.63	1165.62
402.854	1192.62
403.078	1203.62
403.302	1266.62
403.526	1251.62
403.75	1282.62
403.974	1325.62
404.198	1301.62
404.422	1305.62
404.645	1301.62
404.869	1295.62
405.093	1277.62
405.317	1246.62
405.541	1248.62
405.765	1225.62
405.988	1203.62
406.212	1227.62
406.436	1197.62
406.66	1251.62
406.883	1261.62
407.107	1386.62
407.331	1391.62
407.555	1462.62
407.778	1445.62
408.002	1414.62
408.226	1393.62
408.449	1345.62
408.673	1302.62
408.896	1300.62
409.12	1244.62
409.344	1282.62
409.567	1251.62
409.791	1281.62
410.014	1273.62
410.238	1280.62
410.461	1251.62
410.685	1228.62
410.908	1214.62
411.132	1162.62
411.355	1171.62
411.578	1165.62
411.802	1152.62
412.025	1163.62
412.249	1203.62
412.472	1168.62
412.695	1141.62
412.919	1121.62
413.142	1115.62
413.365	1118.62
413.589	1127.62
413.812	1110.62
414.035	1096.62
414.258	1064.62
414.482	1089.62
414.705	1140.62
414.928	1146.62
415.151	1117.62
415.374	1118.62
415.597	1113.62
415.821	1084.62
416.044	1106.62
416.267	1090.62
416.49	1062.62
416.713	1079.62
416.936	1117.62
417.159	1089.62
417.382	1067.62
417.605	1093.62
417.828	1059.62
418.051	1109.62
418.274	1125.62
418.497	1122.62
418.72	1130.62
418.943	1114.62
419.166	1203.62
419.389	1311.62
419.611	1273.62
419.834	1211.62
420.057	1179.62
420.28	1137.62
420.503	1118.62
420.726	1062.62
420.948	1095.62
421.171	1107.62
421.394	1100.62
421.617	1098.62
421.839	1127.62
422.062	1112.62
422.285	1095.62
422.507	1150.62
422.73	1147.62
422.953	1148.62
423.175	1162.62
423.398	1162.62
423.621	1178.62
423.843	1194.62
424.066	1197.62
424.288	1185.62
424.511	1195.62
424.733	1143.62
424.956	1148.62
425.178	1119.62
425.401	1155.62
425.623	1108.62
425.846	1057.62
426.068	1078.62
426.291	1068.62
426.513	1029.62
426.735	1067.62
426.958	1034.62
427.18	1035.62
427.402	999.62
427.625	1009.62
427.847	964.62
428.069	987.62
428.292	965.62
428.514	993.62
428.736	989.62
428.958	1000.62
429.181	965.62
429.403	989.62
429.625	942.62
429.847	932.62
430.069	955.62
430.292	975.62
430.514	943.62
430.736	959.62
430.958	963.62
431.18	945.62
431.402	962.62
431.624	979.62
431.846	995.62
432.068	988.62
432.29	1010.62
432.512	979.62
432.734	958.62
432.956	1002.62
433.178	1014.62
433.4	1005.62
433.622	1011.62
433.844	996.62
434.066	985.62
434.287	1023.62
434.509	1014.62
434.731	1083.62
434.953	1112.62
435.175	1127.62
435.397	1107.62
435.618	1063.62
435.84	1034.62
436.062	1005.62
436.284	993.62
436.505	993.62
436.727	963.62
436.949	1014.62
437.17	1006.62
437.392	982.62
437.614	962.62
437.835	966.62
438.057	954.62
438.278	937.62
438.5	961.62
438.721	970.62
438.943	953.62
439.165	943.62
439.386	975.62
439.608	969.62
439.829	986.62
440.05	972.62
440.272	1004.62
440.493	1002.62
440.715	1001.62
440.936	1045.62
441.158	1033.62
441.379	1070.62
441.6	1126.62
441.822	1143.62
442.043	1154.62
442.264	1107.62
442.486	1071.62
442.707	1089.62
442.928	1131.62
443.149	1111.62
443.371	1105.62
443.592	1129.62
443.813	1127.62
444.034	1117.62
444.255	1171.62
444.476	1213.62
444.698	1296.62
444.919	1371.62
445.14	1434.62
445.361	1289.62
445.582	1208.62
445.803	1099.62
446.024	1093.62
446.245	1057.62
446.466	1020.62
446.687	988.62
446.908	1003.62
447.129	979.62
447.35	951.62
447.571	923.62
447.792	958.62
448.013	942.62
448.234	962.62
448.455	932.62
448.675	890.62
448.896	910.62
449.117	921.62
449.338	903.62
449.559	895.62
449.779	876.62
450	907.62
450.221	931.62
450.442	910.62
450.662	886.62
450.883	915.62
451.104	978.62
451.324	985.62
451.545	923.62
451.766	926.62
451.986	946.62
452.207	891.62
452.428	904.62
452.648	931.62
452.869	909.62
453.089	900.62
453.31	917.62
453.53	913.62
453.751	918.62
453.971	875.62
454.192	901.62
454.412	865.62
454.633	867.62
454.853	874.62
455.073	886.62
455.294	867.62
455.514	846.62
455.734	857.62
455.955	823.62
456.175	857.62
456.395	830.62
456.616	829.62
456.836	852.62
457.056	865.62
457.276	841.62
457.497	868.62
457.717	868.62
457.937	857.62
458.157	865.62
458.377	878.62
458.598	890.62
458.818	891.62
459.038	936.62
459.258	961.62
459.478	1007.62
459.698	1037.62
459.918	1045.62
460.138	1092.62
460.358	1164.62
460.578	1202.62
460.798	1189.62
461.018	1198.62
461.238	1207.62
461.458	1178.62
461.678	1149.62
461.898	1197.62
462.118	1204.62
462.338	1255.62
462.558	1294.62
462.777	1342.62
462.997	1505.62
463.217	1665.62
463.437	1662.62
463.657	1517.62
463.876	1403.62
464.096	1415.62
464.316	1384.62
464.536	1419.62
464.755	1358.62
464.975	1331.62
465.195	1245.62
465.414	1169.62
465.634	1083.62
465.854	1055.62
466.073	1020.62
466.293	989.62
466.512	982.62
466.732	977.62
466.951	950.62
467.171	976.62
467.391	973.62
467.61	938.62
467.829	958.62
468.049	941.62
468.268	901.62
468.488	917.62
468.707	916.62
468.927	921.62
469.146	926.62
469.365	916.62
469.585	947.62
469.804	968.62
470.023	981.62
470.243	987.62
470.462	978.62
470.681	1025.62
470.901	1008.62
471.12	970.62
471.339	971.62
471.558	933.62
471.777	928.62
471.997	954.62
472.216	922.62
472.435	898.62
472.654	900.62
472.873	866.62
473.092	869.62
473.311	866.62
473.53	883.62
473.749	869.62
473.968	897.62
474.187	878.62
474.406	885.62
474.625	887.62
474.844	920.62
475.063	929.62
475.282	884.62
475.501	881.62
475.72	907.62
475.939	895.62
476.158	930.62
476.377	911.62
476.596	925.62
476.814	935.62
477.033	979.62
477.252	970.62
477.471	975.62
477.69	985.62
477.908	1064.62
478.127	1063.62
478.346	1056.62
478.564	1051.62
478.783	1117.62
479.002	1138.62
479.22	1127.62
479.439	1124.62
479.658	1143.62
479.876	1131.62
480.095	1152.62
480.313	1175.62
480.532	1266.62
480.751	1209.62
480.969	1168.62
481.188	1118.62
481.406	1096.62
481.624	1065.62
481.843	1059.62
482.061	1028.62
482.28	1013.62
482.498	1056.62
482.717	1027.62
482.935	1021.62
483.153	1029.62
483.372	989.62
483.59	1023.62
483.808	1031.62
484.027	1048.62
484.245	1055.62
484.463	1076.62
484.681	1061.62
484.9	1047.62
485.118	1038.62
485.336	1086.62
485.554	1122.62
485.772	1109.62
485.99	1126.62
486.209	1126.62
486.427	1114.62
486.645	1117.62
486.863	1049.62
487.081	1096.62
487.299	1097.62
487.517	1091.62
487.735	1106.62
487.953	1082.62
488.171	1074.62
488.389	1059.62
488.607	1065.62
488.825	1053.62
489.043	1061.62
489.261	1070.62
489.479	1039.62
489.696	1063.62
489.914	1084.62
490.132	1074.62
490.35	1083.62
490.568	1101.62
490.786	1058.62
491.003	1105.62
491.221	1070.62
491.439	1097.62
491.657	1079.62
491.874	1086.62
492.092	1079.62
492.31	1095.62
492.527	1094.62
492.745	1116.62
492.963	1128.62
493.18	1137.62
493.398	1073.62
493.615	1116.62
493.833	1144.62
494.05	1152.62
494.268	1139.62
494.485	1151.62
494.703	1141.62
494.92	1155.62
495.138	1145.62
495.355	1128.62
495.573	1125.62
495.79	1146.62
496.008	1142.62
496.225	1167.62
496.442	1156.62
496.66	1168.62
496.877	1179.62
497.094	1202.62
497.312	1223.62
497.529	1246.62
497.746	1285.62
497.963	1328.62
498.181	1371.62
498.398	1448.62
498.615	1501.62
498.832	1641.62
499.049	1750.62
499.267	1886.62
499.484	2070.62
499.701	2291.62
499.918	2576.62
500.135	2959.62
500.352	3393.62
500.569	3640.62
500.786	3566.62
501.003	3293.62
501.22	2946.62
501.437	2565.62
501.654	2234.62
501.871	1993.62
502.088	1811.62
502.305	1721.62
502.522	1647.62
502.739	1583.62
502.956	1507.62
503.172	1437.62
503.389	1359.62
503.606	1333.62
503.823	1307.62
504.04	1245.62
504.256	1277.62
504.473	1330.62
504.69	1371.62
504.907	1329.62
505.123	1281.62
505.34	1214.62
505.557	1149.62
505.773	1093.62
505.99	1079.62
506.207	1047.62
506.423	1060.62
506.64	1039.62
506.856	989.62
507.073	1031.62
507.289	1020.62
507.506	990.62
507.722	997.62
507.939	985.62
508.155	976.62
508.372	949.62
508.588	957.62
508.805	967.62
509.021	956.62
509.238	968.62
509.454	933.62
509.67	941.62
509.887	923.62
510.103	923.62
510.319	930.62
510.536	909.62
510.752	913.62
510.968	915.62
511.184	929.62
511.401	921.62
511.617	901.62
511.833	914.62
512.049	898.62
512.265	905.62
512.481	933.62
512.698	933.62
512.914	895.62
513.13	923.62
513.346	922.62
513.562	933.62
513.778	909.62
513.994	937.62
514.21	935.62
514.426	955.62
514.642	908.62
514.858	964.62
515.074	939.62
515.29	950.62
515.506	954.62
515.721	986.62
515.937	996.62
516.153	978.62
516.369	1011.62
516.585	1038.62
516.801	1084.62
517.016	1139.62
517.232	1167.62
517.448	1284.62
517.664	1306.62
517.879	1310.62
518.095	1299.62
518.311	1259.62
518.527	1188.62
518.742	1155.62
518.958	1126.62
519.173	1071.62
519.389	1073.62
519.605	989.62
519.82	956.62
520.036	989.62
520.251	940.62
520.467	942.62
520.682	931.62
520.898	921.62
521.113	878.62
521.329	918.62
521.544	876.62
521.76	883.62
521.975	854.62
522.19	877.62
522.406	866.62
522.621	863.62
522.836	856.62
523.052	884.62
523.267	865.62
523.482	862.62
523.698	821.62
523.913	855.62
524.128	858.62
524.343	859.62
524.559	857.62
524.774	866.62
524.989	839.62
525.204	826.62
525.419	787.62
525.634	848.62
525.849	842.62
526.064	842.62
526.28	851.62
526.495	831.62
526.71	830.62
526.925	818.62
527.14	812.62
527.355	843.62
527.57	830.62
527.785	844.62
527.999	817.62
528.214	837.62
528.429	833.62
528.644	837.62
528.859	836.62
529.074	834.62
529.289	826.62
529.503	849.62
529.718	818.62
529.933	829.62
530.148	817.62
530.363	821.62
530.577	828.62
530.792	822.62
531.007	833.62
531.221	829.62
531.436	808.62
531.651	838.62
531.865	847.62
532.08	842.62
532.295	849.62
532.509	821.62
532.724	842.62
532.938	801.62
533.153	821.62
533.367	809.62
533.582	838.62
533.796	838.62
534.011	803.62
534.225	819.62
534.44	819.62
534.654	829.62
534.868	767.62
535.083	797.62
535.297	797.62
535.511	826.62
535.726	842.62
535.94	799.62
536.154	813.62
536.369	772.62
536.583	779.62
536.797	796.62
537.011	759.62
537.225	790.62
537.44	767.62
537.654	761.62
537.868	756.62
538.082	769.62
538.296	773.62
538.51	746.62
538.724	769.62
538.938	774.62
539.153	772.62
539.367	763.62
539.581	757.62
539.795	738.62
540.009	766.62
540.222	736.62
540.436	744.62
540.65	725.62
540.864	733.62
541.078	738.62
541.292	747.62
541.506	734.62
541.72	749.62
541.934	730.62
542.147	746.62
542.361	729.62
542.575	730.62
542.789	739.62
543.002	734.62
543.216	730.62
543.43	738.62
543.644	738.62
543.857	737.62
544.071	723.62
544.285	758.62
544.498	747.62
544.712	717.62
544.925	731.62
545.139	754.62
545.352	763.62
545.566	796.62
545.779	778.62
545.993	773.62
546.206	755.62
546.42	750.62
546.633	747.62
546.847	742.62
547.06	780.62
547.274	751.62
547.487	730.62
547.7	751.62
547.914	787.62
548.127	802.62
548.34	794.62
548.554	754.62
548.767	786.62
548.98	739.62
549.193	775.62
549.407	753.62
549.62	777.62
549.833	781.62
550.046	794.62
550.259	783.62
550.473	764.62
550.686	778.62
550.899	754.62
551.112	745.62
551.325	746.62
551.538	743.62
551.751	726.62
551.964	744.62
552.177	719.62
552.39	748.62
552.603	806.62
552.816	831.62
553.029	795.62
553.242	834.62
553.455	857.62
553.667	827.62
553.88	834.62
554.093	814.62
554.306	769.62
554.519	797.62
554.732	762.62
554.944	747.62
555.157	732.62
555.37	739.62
555.583	703.62
555.795	704.62
556.008	719.62
556.221	682.62
556.433	660.62
556.646	663.62
556.859	675.62
557.071	666.62
557.284	687.62
557.496	659.62
557.709	642.62
557.921	614.62
558.134	632.62
558.346	667.62
558.559	659.62
558.771	661.62
558.984	618.62
559.196	645.62
559.409	625.62
559.621	624.62
559.833	659.62
560.046	636.62
560.258	655.62
560.47	631.62
560.683	641.62
560.895	625.62
561.107	632.62
561.32	615.62
561.532	605.62
561.744	628.62
561.956	619.62
562.168	620.62
562.381	605.62
562.593	631.62
562.805	635.62
563.017	625.62
563.229	639.62
563.441	634.62
563.653	648.62
563.865	637.62
564.077	638.62
564.289	648.62
564.501	655.62
564.713	670.62
564.925	652.62
565.137	680.62
565.349	694.62
565.561	729.62
565.773	738.62
565.985	769.62
566.197	825.62
566.408	884.62
566.62	957.62
566.832	1053.62
567.044	1066.62
567.255	1029.62
567.467	1100.62
567.679	1166.62
567.891	1244.62
568.102	1291.62
568.314	1262.62
568.526	1101.62
568.737	981.62
568.949	909.62
569.161	835.62
569.372	765.62
569.584	732.62
569.795	693.62
570.007	707.62
570.218	646.62
570.43	664.62
570.641	647.62
570.853	665.62
571.064	668.62
571.276	666.62
571.487	663.62
571.698	620.62
571.91	611.62
572.121	589.62
572.333	581.62
572.544	553.62
572.755	561.62
572.966	537.62
573.178	559.62
573.389	514.62
573.6	545.62
573.811	524.62
574.023	555.62
574.234	534.62
574.445	525.62
574.656	524.62
574.867	528.62
575.078	530.62
575.289	523.62
575.501	521.62
575.712	514.62
575.923	539.62
576.134	506.62
576.345	509.62
576.556	504.62
576.767	518.62
576.978	486.62
577.188	482.62
577.399	493.62
577.61	477.62
577.821	501.62
578.032	469.62
578.243	493.62
578.454	463.62
578.665	471.62
578.875	461.62
579.086	459.62
579.297	469.62
579.508	470.62
579.718	472.62
579.929	446.62
580.14	460.62
580.35	454.62
580.561	453.62
580.772	473.62
580.982	459.62
581.193	449.62
581.403	462.62
581.614	453.62
581.825	458.62
582.035	446.62
582.246	455.62
582.456	468.62
582.667	456.62
582.877	439.62
583.087	484.62
583.298	437.62
583.508	428.62
583.719	458.62
583.929	429.62
584.139	437.62
584.35	417.62
584.56	423.62
584.77	423.62
584.981	435.62
585.191	423.62
585.401	444.62
585.611	430.62
585.821	435.62
586.032	435.62
586.242	426.62
586.452	430.62
586.662	428.62
586.872	415.62
587.082	399.62
587.292	428.62
587.502	438.62
587.713	423.62
587.923	402.62
588.133	419.62
588.343	429.62
588.553	439.62
588.762	426.62
588.972	426.62
589.182	460.62
589.392	426.62
589.602	423.62
589.812	449.62
590.022	450.62
590.232	419.62
590.441	430.62
590.651	420.62
590.861	421.62
591.071	441.62
591.281	446.62
591.49	433.62
591.7	461.62
591.91	455.62
592.119	454.62
592.329	478.62
592.539	487.62
592.748	493.62
592.958	533.62
593.167	553.62
593.377	538.62
593.587	543.62
593.796	549.62
594.006	564.62
594.215	567.62
594.424	564.62
594.634	548.62
594.843	544.62
595.053	485.62
595.262	486.62
595.472	466.62
595.681	449.62
595.89	447.62
596.1	428.62
596.309	428.62
596.518	397.62
596.727	423.62
596.937	414.62
597.146	396.62
597.355	406.62
597.564	393.62
597.774	398.62
597.983	382.62
598.192	392.62
598.401	362.62
598.61	375.62
598.819	386.62
599.028	389.62
599.237	379.62
599.446	367.62
599.655	372.62
599.864	365.62
600.073	359.62
600.282	362.62
600.491	359.62
600.7	372.62
600.909	344.62
601.118	359.62
601.327	342.62
601.536	330.62
601.745	350.62
601.953	367.62
602.162	347.62
602.371	355.62
602.58	362.62
602.789	353.62
602.997	354.62
603.206	366.62
603.415	352.62
603.623	339.62
603.832	347.62
604.041	357.62
604.249	339.62
604.458	349.62
604.666	342.62
604.875	340.62
605.084	334.62
605.292	366.62
605.501	332.62
605.709	342.62
605.918	347.62
606.126	351.62
606.334	331.62
606.543	322.62
606.751	308.62
606.96	334.62
607.168	317.62
607.376	325.62
607.585	329.62
607.793	337.62
608.001	323.62
608.21	316.62
608.418	313.62
608.626	316.62
608.834	321.62
609.043	329.62
609.251	323.62
609.459	308.62
609.667	338.62
609.875	315.62
610.083	317.62
610.291	327.62
610.499	300.62
610.707	327.62
610.916	327.62
611.124	305.62
611.332	329.62
611.54	328.62
611.748	318.62
611.955	318.62
612.163	319.62
612.371	326.62
612.579	316.62
612.787	323.62
612.995	314.62
613.203	305.62
613.411	295.62
613.618	322.62
613.826	314.62
614.034	321.62
614.242	325.62
614.449	282.62
614.657	306.62
614.865	305.62
615.072	303.62
615.28	302.62
615.488	285.62
615.695	327.62
615.903	314.62
616.111	323.62
616.318	328.62
616.526	315.62
616.733	316.62
616.941	319.62
617.148	326.62
617.356	309.62
617.563	295.62
617.771	310.62
617.978	322.62
618.185	312.62
618.393	313.62
618.6	315.62
618.807	315.62
619.015	330.62
619.222	309.62
619.429	289.62
619.637	306.62
619.844	300.62
620.051	298.62
620.258	308.62
620.466	284.62
620.673	283.62
620.88	281.62
621.087	279.62
621.294	298.62
621.501	284.62
621.708	291.62
621.915	281.62
622.122	288.62
622.329	293.62
622.536	289.62
622.743	275.62
622.95	289.62
623.157	301.62
623.364	277.62
623.571	265.62
623.778	281.62
623.985	282.62
624.192	277.62
624.399	265.62
624.606	276.62
624.812	258.62
625.019	253.62
625.226	282.62
625.433	269.62
625.639	281.62
625.846	264.62
626.053	267.62
626.259	246.62
626.466	263.62
626.673	271.62
626.879	261.62
627.086	273.62
627.293	271.62
627.499	275.62
627.706	260.62
627.912	270.62
628.119	258.62
628.325	249.62
628.532	249.62
628.738	247.62
628.945	267.62
629.151	263.62
629.357	279.62
629.564	246.62
629.77	238.62
629.976	248.62
630.183	234.62
630.389	231.62
630.595	248.62
630.802	252.62
631.008	237.62
631.214	275.62
631.42	234.62
631.627	255.62
631.833	241.62
632.039	261.62
632.245	246.62
632.451	234.62
632.657	247.62
632.863	236.62
633.069	218.62
633.275	244.62
633.481	227.62
633.688	233.62
633.893	241.62
634.099	243.62
634.305	223.62
634.511	230.62
634.717	220.62
634.923	247.62
635.129	225.62
635.335	227.62
635.541	219.62
635.747	243.62
635.952	221.62
636.158	225.62
636.364	222.62
636.57	221.62
636.775	230.62
636.981	233.62
637.187	236.62
637.392	217.62
637.598	228.62
637.804	223.62
638.009	231.62
638.215	224.62
638.421	229.62
638.626	233.62
638.832	220.62
639.037	225.62
639.243	213.62
639.448	233.62
639.654	226.62
639.859	225.62
640.065	208.62
640.27	228.62
640.475	223.62
640.681	208.62
640.886	212.62
641.091	229.62
641.297	211.62
641.502	199.62
641.707	210.62
641.913	238.62
642.118	228.62
642.323	213.62
642.528	221.62
642.733	205.62
642.939	202.62
643.144	206.62
643.349	205.62
643.554	205.62
643.759	202.62
643.964	206.62
644.169	210.62
644.374	216.62
644.579	217.62
644.784	203.62
644.989	200.62
645.194	200.62
645.399	209.62
645.604	199.62
645.809	214.62
646.014	194.62
646.219	218.62
646.423	214.62
646.628	210.62
646.833	196.62
647.038	214.62
647.243	211.62
647.447	210.62
647.652	219.62
647.857	198.62
648.062	220.62
648.266	225.62
648.471	227.62
648.676	231.62
648.88	219.62
649.085	218.62
649.289	204.62
649.494	220.62
649.698	208.62
649.903	213.62
650.107	214.62
650.312	217.62
650.516	201.62
650.721	209.62
650.925	197.62
651.13	195.62
651.334	193.62
651.539	169.62
651.743	185.62
651.947	174.62
652.152	198.62
652.356	175.62
652.56	180.62
652.764	169.62
652.969	180.62
653.173	173.62
653.377	171.62
653.581	163.62
653.785	177.62
653.99	159.62
654.194	166.62
654.398	168.62
654.602	179.62
654.806	165.62
655.01	161.62
655.214	164.62
655.418	164.62
655.622	164.62
655.826	149.62
656.03	163.62
656.234	150.62
656.438	152.62
656.642	153.62
656.846	161.62
657.049	147.62
657.253	152.62
657.457	150.62
657.661	150.62
657.865	131.62
658.068	119.62
658.272	121.62
658.476	125.62
658.68	131.62
658.883	118.62
659.087	124.62
659.291	115.62
659.494	105.62
659.698	106.62
659.901	110.62
660.105	94.62
660.309	107.62
660.512	105.62
660.716	109.62
660.919	109.62
661.123	93.62
661.326	96.62
661.53	108.62
661.733	96.62
661.936	81.62
662.14	93.62
662.343	90.62
662.546	99.62
662.75	90.62
662.953	79.62
663.156	94.62
663.36	94.62
663.563	84.62
663.766	93.62
663.969	94.62
664.173	98.62
664.376	91.62
664.579	67.62
664.782	78.62
664.985	86.62
665.188	82.62
665.391	85.62
665.594	66.62
665.797	76.62
666	80.62
666.203	76.62
666.406	70.62
666.609	79.62
666.812	79.62
667.015	87.62
667.218	89.62
667.421	90.62
667.624	84.62
667.827	89.62
668.03	72.62
668.232	69.62
668.435	87.62
668.638	82.62
668.841	94.62
669.043	79.62
669.246	81.62
669.449	74.62
669.651	88.62
669.854	67.62
670.057	66.62
670.259	72.62
670.462	75.62
670.665	91.62
670.867	87.62
671.07	91.62
671.272	84.62
671.475	97.62
671.677	83.62
671.88	72.62
672.082	91.62
672.284	83.62
672.487	82.62
672.689	80.62
672.892	78.62
