Data from NiCl2@0.0625M.TitratingCurve.Agarose3%dH2O.NegLispCup.LampEnergy10.LIBS07252019_HRD10591_18-34-54-577.txt Node
Date: Thu Jul 25 18:34:54 EDT 2019
User: cochatt
Spectrometer: HR+D1059
Trigger mode: 1
Integration Time (sec): 1.000000E-1
Scans to average: 1
Electric dark correction enabled: true
Nonlinearity correction enabled: false
Boxcar width: 0
XAxis mode: Wavelengths
Number of Pixels in Spectrum: 2048
>>>>>Begin Spectral Data<<<<<
223.165	-12.56
223.4	-12.56
223.635	-12.56
223.869	-9.56
224.104	-6.56
224.338	-28.56
224.573	-24.56
224.808	-19.56
225.042	-9.56
225.277	-6.56
225.511	12.44
225.746	11.44
225.98	3.44
226.215	6.44
226.449	12.44
226.683	21.44
226.918	30.44
227.152	19.44
227.387	50.44
227.621	50.44
227.856	36.44
228.09	41.44
228.324	50.44
228.559	53.44
228.793	72.44
229.027	135.44
229.262	141.44
229.496	163.44
229.73	158.44
229.964	154.44
230.199	175.44
230.433	182.44
230.667	175.44
230.901	174.44
231.136	173.44
231.37	191.44
231.604	186.44
231.838	190.44
232.072	191.44
232.306	202.44
232.541	211.44
232.775	206.44
233.009	207.44
233.243	200.44
233.477	208.44
233.711	208.44
233.945	200.44
234.179	192.44
234.413	201.44
234.647	199.44
234.881	198.44
235.115	216.44
235.349	234.44
235.583	202.44
235.817	228.44
236.051	208.44
236.285	222.44
236.519	220.44
236.753	210.44
236.987	227.44
237.221	204.44
237.455	224.44
237.689	228.44
237.922	245.44
238.156	258.44
238.39	237.44
238.624	252.44
238.858	224.44
239.091	242.44
239.325	248.44
239.559	249.44
239.793	263.44
240.027	254.44
240.26	267.44
240.494	252.44
240.728	268.44
240.961	263.44
241.195	284.44
241.429	270.44
241.662	266.44
241.896	295.44
242.13	277.44
242.363	270.44
242.597	299.44
242.83	309.44
243.064	274.44
243.298	306.44
243.531	316.44
243.765	315.44
243.998	303.44
244.232	308.44
244.465	314.44
244.699	311.44
244.932	313.44
245.166	328.44
245.399	317.44
245.633	317.44
245.866	326.44
246.099	329.44
246.333	328.44
246.566	347.44
246.8	319.44
247.033	352.44
247.266	360.44
247.5	340.44
247.733	351.44
247.966	330.44
248.2	380.44
248.433	357.44
248.666	364.44
248.899	365.44
249.133	354.44
249.366	346.44
249.599	384.44
249.832	382.44
250.066	382.44
250.299	395.44
250.532	379.44
250.765	391.44
250.998	398.44
251.231	392.44
251.465	381.44
251.698	400.44
251.931	407.44
252.164	426.44
252.397	411.44
252.63	389.44
252.863	400.44
253.096	409.44
253.329	413.44
253.562	407.44
253.795	426.44
254.028	412.44
254.261	437.44
254.494	420.44
254.727	452.44
254.96	426.44
255.193	429.44
255.426	439.44
255.659	453.44
255.892	458.44
256.124	456.44
256.357	453.44
256.59	445.44
256.823	459.44
257.056	465.44
257.289	464.44
257.521	464.44
257.754	490.44
257.987	478.44
258.22	476.44
258.452	468.44
258.685	470.44
258.918	477.44
259.151	485.44
259.383	496.44
259.616	476.44
259.849	486.44
260.081	499.44
260.314	480.44
260.547	488.44
260.779	507.44
261.012	511.44
261.244	493.44
261.477	526.44
261.71	522.44
261.942	500.44
262.175	497.44
262.407	501.44
262.64	515.44
262.872	518.44
263.105	524.44
263.337	537.44
263.57	511.44
263.802	529.44
264.035	531.44
264.267	537.44
264.499	552.44
264.732	545.44
264.964	534.44
265.197	557.44
265.429	539.44
265.661	550.44
265.894	576.44
266.126	554.44
266.358	564.44
266.591	567.44
266.823	570.44
267.055	557.44
267.287	562.44
267.52	574.44
267.752	609.44
267.984	589.44
268.216	590.44
268.448	591.44
268.681	586.44
268.913	603.44
269.145	602.44
269.377	605.44
269.609	597.44
269.841	616.44
270.073	618.44
270.306	610.44
270.538	628.44
270.77	608.44
271.002	621.44
271.234	618.44
271.466	603.44
271.698	618.44
271.93	611.44
272.162	627.44
272.394	639.44
272.626	612.44
272.858	622.44
273.09	614.44
273.322	623.44
273.553	648.44
273.785	621.44
274.017	638.44
274.249	632.44
274.481	656.44
274.713	640.44
274.945	665.44
275.176	667.44
275.408	655.44
275.64	657.44
275.872	662.44
276.104	665.44
276.335	704.44
276.567	673.44
276.799	670.44
277.031	661.44
277.262	653.44
277.494	663.44
277.726	714.44
277.957	712.44
278.189	701.44
278.421	702.44
278.652	691.44
278.884	719.44
279.115	711.44
279.347	733.44
279.579	740.44
279.81	719.44
280.042	711.44
280.273	737.44
280.505	742.44
280.736	712.44
280.968	719.44
281.199	743.44
281.431	754.44
281.662	763.44
281.894	734.44
282.125	734.44
282.356	750.44
282.588	758.44
282.819	784.44
283.051	763.44
283.282	791.44
283.513	765.44
283.745	789.44
283.976	799.44
284.207	775.44
284.439	765.44
284.67	799.44
284.901	772.44
285.132	788.44
285.364	779.44
285.595	821.44
285.826	793.44
286.057	809.44
286.288	796.44
286.52	789.44
286.751	814.44
286.982	822.44
287.213	792.44
287.444	805.44
287.675	818.44
287.906	793.44
288.138	825.44
288.369	820.44
288.6	835.44
288.831	827.44
289.062	810.44
289.293	837.44
289.524	838.44
289.755	826.44
289.986	836.44
290.217	848.44
290.448	858.44
290.679	856.44
290.91	861.44
291.141	812.44
291.371	859.44
291.602	846.44
291.833	839.44
292.064	845.44
292.295	832.44
292.526	843.44
292.757	852.44
292.987	838.44
293.218	822.44
293.449	831.44
293.68	852.44
293.91	839.44
294.141	824.44
294.372	863.44
294.603	857.44
294.833	847.44
295.064	888.44
295.295	866.44
295.525	857.44
295.756	870.44
295.987	902.44
296.217	895.44
296.448	859.44
296.679	875.44
296.909	877.44
297.14	871.44
297.37	919.44
297.601	927.44
297.831	905.44
298.062	922.44
298.292	946.44
298.523	947.44
298.753	910.44
298.984	901.44
299.214	922.44
299.445	884.44
299.675	936.44
299.905	925.44
300.136	928.44
300.366	910.44
300.597	942.44
300.827	941.44
301.057	962.44
301.288	977.44
301.518	989.44
301.748	974.44
301.979	947.44
302.209	986.44
302.439	969.44
302.669	981.44
302.9	987.44
303.13	968.44
303.36	964.44
303.59	950.44
303.82	972.44
304.051	972.44
304.281	966.44
304.511	956.44
304.741	954.44
304.971	960.44
305.201	961.44
305.431	986.44
305.661	970.44
305.891	957.44
306.121	943.44
306.352	952.44
306.582	944.44
306.812	954.44
307.042	976.44
307.272	974.44
307.502	973.44
307.731	967.44
307.961	960.44
308.191	958.44
308.421	937.44
308.651	964.44
308.881	918.44
309.111	950.44
309.341	965.44
309.571	954.44
309.8	987.44
310.03	961.44
310.26	959.44
310.49	975.44
310.72	956.44
310.949	975.44
311.179	990.44
311.409	1017.44
311.639	990.44
311.868	993.44
312.098	981.44
312.328	996.44
312.557	1010.44
312.787	1014.44
313.017	1013.44
313.246	1032.44
313.476	994.44
313.706	1045.44
313.935	1029.44
314.165	1024.44
314.394	1029.44
314.624	1030.44
314.853	1008.44
315.083	1042.44
315.312	1046.44
315.542	1036.44
315.771	1051.44
316.001	1011.44
316.23	1014.44
316.46	1037.44
316.689	1049.44
316.919	1003.44
317.148	1004.44
317.377	994.44
317.607	1014.44
317.836	1020.44
318.065	1040.44
318.295	1021.44
318.524	1027.44
318.753	1038.44
318.983	1039.44
319.212	1033.44
319.441	1016.44
319.67	1012.44
319.9	1049.44
320.129	1026.44
320.358	1030.44
320.587	1021.44
320.816	1037.44
321.046	1044.44
321.275	1012.44
321.504	1004.44
321.733	1032.44
321.962	1036.44
322.191	1041.44
322.42	1027.44
322.649	995.44
322.878	1046.44
323.108	1044.44
323.337	1050.44
323.566	1042.44
323.795	1071.44
324.024	1071.44
324.253	1078.44
324.482	1051.44
324.71	1041.44
324.939	1068.44
325.168	1062.44
325.397	1075.44
325.626	1085.44
325.855	1090.44
326.084	1123.44
326.313	1100.44
326.542	1118.44
326.77	1134.44
326.999	1119.44
327.228	1101.44
327.457	1072.44
327.686	1103.44
327.914	1109.44
328.143	1108.44
328.372	1076.44
328.6	1128.44
328.829	1113.44
329.058	1095.44
329.287	1125.44
329.515	1134.44
329.744	1167.44
329.972	1107.44
330.201	1160.44
330.43	1150.44
330.658	1161.44
330.887	1157.44
331.115	1158.44
331.344	1166.44
331.572	1157.44
331.801	1203.44
332.03	1206.44
332.258	1224.44
332.486	1255.44
332.715	1264.44
332.943	1326.44
333.172	1346.44
333.4	1406.44
333.629	1438.44
333.857	1436.44
334.085	1451.44
334.314	1428.44
334.542	1429.44
334.771	1441.44
334.999	1426.44
335.227	1361.44
335.455	1409.44
335.684	1378.44
335.912	1361.44
336.14	1366.44
336.369	1360.44
336.597	1383.44
336.825	1311.44
337.053	1350.44
337.281	1307.44
337.51	1264.44
337.738	1286.44
337.966	1276.44
338.194	1258.44
338.422	1246.44
338.65	1229.44
338.878	1222.44
339.106	1230.44
339.334	1243.44
339.562	1237.44
339.79	1191.44
340.018	1186.44
340.246	1150.44
340.474	1169.44
340.702	1205.44
340.93	1163.44
341.158	1174.44
341.386	1168.44
341.614	1159.44
341.842	1208.44
342.07	1153.44
342.298	1192.44
342.526	1139.44
342.754	1158.44
342.981	1202.44
343.209	1183.44
343.437	1256.44
343.665	1285.44
343.893	1348.44
344.12	1402.44
344.348	1389.44
344.576	1313.44
344.804	1284.44
345.031	1212.44
345.259	1234.44
345.487	1194.44
345.714	1164.44
345.942	1148.44
346.17	1151.44
346.397	1128.44
346.625	1136.44
346.853	1148.44
347.08	1117.44
347.308	1127.44
347.535	1136.44
347.763	1140.44
347.99	1101.44
348.218	1109.44
348.445	1140.44
348.673	1106.44
348.9	1109.44
349.128	1122.44
349.355	1108.44
349.583	1115.44
349.81	1062.44
350.037	1091.44
350.265	1103.44
350.492	1095.44
350.72	1083.44
350.947	1065.44
351.174	1093.44
351.402	1097.44
351.629	1085.44
351.856	1067.44
352.083	1066.44
352.311	1089.44
352.538	1087.44
352.765	1103.44
352.992	1070.44
353.22	1060.44
353.447	1077.44
353.674	1098.44
353.901	1084.44
354.128	1113.44
354.355	1061.44
354.583	1065.44
354.81	1059.44
355.037	1111.44
355.264	1087.44
355.491	1090.44
355.718	1076.44
355.945	1088.44
356.172	1120.44
356.399	1075.44
356.626	1085.44
356.853	1092.44
357.08	1084.44
357.307	1078.44
357.534	1096.44
357.761	1109.44
357.988	1101.44
358.215	1098.44
358.441	1085.44
358.668	1062.44
358.895	1085.44
359.122	1102.44
359.349	1076.44
359.576	1090.44
359.802	1083.44
360.029	1054.44
360.256	1076.44
360.483	1081.44
360.709	1099.44
360.936	1101.44
361.163	1102.44
361.39	1062.44
361.616	1086.44
361.843	1061.44
362.07	1116.44
362.296	1070.44
362.523	1084.44
362.749	1080.44
362.976	1063.44
363.203	1095.44
363.429	1092.44
363.656	1091.44
363.882	1099.44
364.109	1097.44
364.335	1060.44
364.562	1056.44
364.788	1072.44
365.015	1066.44
365.241	1072.44
365.468	1099.44
365.694	1085.44
365.92	1082.44
366.147	1098.44
366.373	1099.44
366.599	1093.44
366.826	1060.44
367.052	1074.44
367.278	1090.44
367.505	1101.44
367.731	1094.44
367.957	1094.44
368.184	1110.44
368.41	1111.44
368.636	1133.44
368.862	1096.44
369.089	1125.44
369.315	1136.44
369.541	1099.44
369.767	1174.44
369.993	1140.44
370.219	1147.44
370.445	1136.44
370.672	1152.44
370.898	1157.44
371.124	1142.44
371.35	1159.44
371.576	1142.44
371.802	1184.44
372.028	1182.44
372.254	1202.44
372.48	1184.44
372.706	1215.44
372.932	1243.44
373.158	1225.44
373.384	1192.44
373.61	1177.44
373.835	1194.44
374.061	1156.44
374.287	1182.44
374.513	1220.44
374.739	1266.44
374.965	1251.44
375.191	1289.44
375.416	1264.44
375.642	1260.44
375.868	1215.44
376.094	1203.44
376.319	1205.44
376.545	1211.44
376.771	1194.44
376.997	1166.44
377.222	1176.44
377.448	1158.44
377.674	1195.44
377.899	1165.44
378.125	1158.44
378.35	1186.44
378.576	1149.44
378.802	1151.44
379.027	1156.44
379.253	1171.44
379.478	1158.44
379.704	1170.44
379.929	1199.44
380.155	1148.44
380.38	1180.44
380.606	1150.44
380.831	1154.44
381.057	1182.44
381.282	1177.44
381.507	1160.44
381.733	1197.44
381.958	1210.44
382.184	1204.44
382.409	1229.44
382.634	1223.44
382.86	1226.44
383.085	1261.44
383.31	1247.44
383.535	1278.44
383.761	1294.44
383.986	1315.44
384.211	1299.44
384.436	1320.44
384.662	1344.44
384.887	1342.44
385.112	1319.44
385.337	1364.44
385.562	1389.44
385.787	1402.44
386.013	1382.44
386.238	1389.44
386.463	1431.44
386.688	1406.44
386.913	1383.44
387.138	1389.44
387.363	1402.44
387.588	1382.44
387.813	1380.44
388.038	1368.44
388.263	1390.44
388.488	1423.44
388.713	1410.44
388.938	1399.44
389.163	1359.44
389.387	1406.44
389.612	1378.44
389.837	1400.44
390.062	1388.44
390.287	1428.44
390.512	1388.44
390.736	1426.44
390.961	1438.44
391.186	1435.44
391.411	1458.44
391.636	1506.44
391.86	1506.44
392.085	1548.44
392.31	1571.44
392.534	1519.44
392.759	1483.44
392.984	1490.44
393.208	1472.44
393.433	1438.44
393.658	1488.44
393.882	1458.44
394.107	1446.44
394.331	1484.44
394.556	1455.44
394.78	1518.44
395.005	1484.44
395.229	1515.44
395.454	1542.44
395.678	1576.44
395.903	1559.44
396.127	1511.44
396.352	1531.44
396.576	1466.44
396.801	1468.44
397.025	1512.44
397.249	1548.44
397.474	1562.44
397.698	1565.44
397.922	1565.44
398.147	1596.44
398.371	1622.44
398.595	1640.44
398.82	1765.44
399.044	1856.44
399.268	1973.44
399.492	2207.44
399.717	2344.44
399.941	2462.44
400.165	2261.44
400.389	2071.44
400.613	1954.44
400.837	1869.44
401.062	1760.44
401.286	1757.44
401.51	1762.44
401.734	1755.44
401.958	1790.44
402.182	1782.44
402.406	1763.44
402.63	1794.44
402.854	1816.44
403.078	1771.44
403.302	1828.44
403.526	1856.44
403.75	1859.44
403.974	1868.44
404.198	1915.44
404.422	1895.44
404.645	1872.44
404.869	1845.44
405.093	1916.44
405.317	1863.44
405.541	1870.44
405.765	1855.44
405.988	1843.44
406.212	1893.44
406.436	1910.44
406.66	1972.44
406.883	1939.44
407.107	2050.44
407.331	2109.44
407.555	2191.44
407.778	2180.44
408.002	2159.44
408.226	2138.44
408.449	2098.44
408.673	2007.44
408.896	1925.44
409.12	1955.44
409.344	1957.44
409.567	1950.44
409.791	1908.44
410.014	1952.44
410.238	1922.44
410.461	1913.44
410.685	1872.44
410.908	1846.44
411.132	1885.44
411.355	1830.44
411.578	1819.44
411.802	1813.44
412.025	1815.44
412.249	1848.44
412.472	1858.44
412.695	1762.44
412.919	1755.44
413.142	1762.44
413.365	1779.44
413.589	1783.44
413.812	1753.44
414.035	1715.44
414.258	1719.44
414.482	1719.44
414.705	1775.44
414.928	1782.44
415.151	1727.44
415.374	1730.44
415.597	1708.44
415.821	1715.44
416.044	1681.44
416.267	1656.44
416.49	1639.44
416.713	1702.44
416.936	1670.44
417.159	1661.44
417.382	1616.44
417.605	1662.44
417.828	1675.44
418.051	1704.44
418.274	1702.44
418.497	1666.44
418.72	1699.44
418.943	1705.44
419.166	1830.44
419.389	1943.44
419.611	1901.44
419.834	1826.44
420.057	1751.44
420.28	1724.44
420.503	1671.44
420.726	1676.44
420.948	1659.44
421.171	1679.44
421.394	1666.44
421.617	1672.44
421.839	1641.44
422.062	1679.44
422.285	1637.44
422.507	1664.44
422.73	1727.44
422.953	1735.44
423.175	1714.44
423.398	1735.44
423.621	1715.44
423.843	1681.44
424.066	1744.44
424.288	1732.44
424.511	1711.44
424.733	1674.44
424.956	1691.44
425.178	1668.44
425.401	1677.44
425.623	1672.44
425.846	1639.44
426.068	1655.44
426.291	1624.44
426.513	1621.44
426.735	1590.44
426.958	1618.44
427.18	1564.44
427.402	1610.44
427.625	1548.44
427.847	1546.44
428.069	1518.44
428.292	1536.44
428.514	1541.44
428.736	1518.44
428.958	1566.44
429.181	1485.44
429.403	1498.44
429.625	1478.44
429.847	1501.44
430.069	1496.44
430.292	1532.44
430.514	1482.44
430.736	1502.44
430.958	1498.44
431.18	1510.44
431.402	1536.44
431.624	1516.44
431.846	1557.44
432.068	1561.44
432.29	1561.44
432.512	1525.44
432.734	1572.44
432.956	1556.44
433.178	1528.44
433.4	1581.44
433.622	1555.44
433.844	1567.44
434.066	1563.44
434.287	1612.44
434.509	1667.44
434.731	1668.44
434.953	1717.44
435.175	1702.44
435.397	1691.44
435.618	1654.44
435.84	1611.44
436.062	1564.44
436.284	1542.44
436.505	1512.44
436.727	1526.44
436.949	1543.44
437.17	1532.44
437.392	1515.44
437.614	1458.44
437.835	1477.44
438.057	1483.44
438.278	1433.44
438.5	1462.44
438.721	1428.44
438.943	1480.44
439.165	1470.44
439.386	1479.44
439.608	1490.44
439.829	1510.44
440.05	1505.44
440.272	1508.44
440.493	1506.44
440.715	1563.44
440.936	1529.44
441.158	1544.44
441.379	1587.44
441.6	1652.44
441.822	1666.44
442.043	1656.44
442.264	1610.44
442.486	1615.44
442.707	1636.44
442.928	1602.44
443.149	1615.44
443.371	1602.44
443.592	1634.44
443.813	1648.44
444.034	1656.44
444.255	1694.44
444.476	1805.44
444.698	1800.44
444.919	1900.44
445.14	1975.44
445.361	1810.44
445.582	1696.44
445.803	1650.44
446.024	1603.44
446.245	1548.44
446.466	1564.44
446.687	1533.44
446.908	1554.44
447.129	1498.44
447.35	1430.44
447.571	1450.44
447.792	1405.44
448.013	1415.44
448.234	1404.44
448.455	1400.44
448.675	1399.44
448.896	1387.44
449.117	1343.44
449.338	1366.44
449.559	1368.44
449.779	1381.44
450	1352.44
450.221	1361.44
450.442	1372.44
450.662	1332.44
450.883	1347.44
451.104	1395.44
451.324	1386.44
451.545	1353.44
451.766	1375.44
451.986	1367.44
452.207	1327.44
452.428	1383.44
452.648	1333.44
452.869	1323.44
453.089	1303.44
453.31	1349.44
453.53	1334.44
453.751	1304.44
453.971	1317.44
454.192	1282.44
454.412	1309.44
454.633	1302.44
454.853	1258.44
455.073	1266.44
455.294	1275.44
455.514	1300.44
455.734	1297.44
455.955	1262.44
456.175	1263.44
456.395	1266.44
456.616	1246.44
456.836	1272.44
457.056	1294.44
457.276	1291.44
457.497	1267.44
457.717	1291.44
457.937	1299.44
458.157	1314.44
458.377	1364.44
458.598	1371.44
458.818	1377.44
459.038	1430.44
459.258	1436.44
459.478	1518.44
459.698	1547.44
459.918	1558.44
460.138	1592.44
460.358	1674.44
460.578	1714.44
460.798	1720.44
461.018	1756.44
461.238	1716.44
461.458	1690.44
461.678	1688.44
461.898	1739.44
462.118	1795.44
462.338	1836.44
462.558	1858.44
462.777	1896.44
462.997	2038.44
463.217	2151.44
463.437	2206.44
463.657	2060.44
463.876	1983.44
464.096	2028.44
464.316	1995.44
464.536	1961.44
464.755	1912.44
464.975	1852.44
465.195	1780.44
465.414	1699.44
465.634	1606.44
465.854	1518.44
466.073	1551.44
466.293	1542.44
466.512	1492.44
466.732	1470.44
466.951	1457.44
467.171	1440.44
467.391	1423.44
467.61	1426.44
467.829	1405.44
468.049	1410.44
468.268	1367.44
468.488	1410.44
468.707	1391.44
468.927	1442.44
469.146	1398.44
469.365	1402.44
469.585	1400.44
469.804	1441.44
470.023	1451.44
470.243	1446.44
470.462	1463.44
470.681	1452.44
470.901	1463.44
471.12	1438.44
471.339	1408.44
471.558	1401.44
471.777	1393.44
471.997	1403.44
472.216	1400.44
472.435	1419.44
472.654	1380.44
472.873	1384.44
473.092	1406.44
473.311	1383.44
473.53	1381.44
473.749	1372.44
473.968	1346.44
474.187	1350.44
474.406	1342.44
474.625	1367.44
474.844	1370.44
475.063	1351.44
475.282	1377.44
475.501	1397.44
475.72	1447.44
475.939	1410.44
476.158	1418.44
476.377	1414.44
476.596	1432.44
476.814	1477.44
477.033	1450.44
477.252	1483.44
477.471	1510.44
477.69	1539.44
477.908	1581.44
478.127	1611.44
478.346	1596.44
478.564	1654.44
478.783	1663.44
479.002	1690.44
479.22	1702.44
479.439	1696.44
479.658	1722.44
479.876	1727.44
480.095	1775.44
480.313	1830.44
480.532	1826.44
480.751	1843.44
480.969	1782.44
481.188	1707.44
481.406	1697.44
481.624	1719.44
481.843	1674.44
482.061	1650.44
482.28	1635.44
482.498	1728.44
482.717	1657.44
482.935	1673.44
483.153	1660.44
483.372	1710.44
483.59	1685.44
483.808	1700.44
484.027	1670.44
484.245	1738.44
484.463	1756.44
484.681	1798.44
484.9	1807.44
485.118	1837.44
485.336	1838.44
485.554	1838.44
485.772	1853.44
485.99	1858.44
486.209	1828.44
486.427	1835.44
486.645	1823.44
486.863	1824.44
487.081	1814.44
487.299	1808.44
487.517	1826.44
487.735	1827.44
487.953	1822.44
488.171	1778.44
488.389	1794.44
488.607	1773.44
488.825	1736.44
489.043	1764.44
489.261	1774.44
489.479	1730.44
489.696	1743.44
489.914	1732.44
490.132	1757.44
490.35	1720.44
490.568	1709.44
490.786	1725.44
491.003	1703.44
491.221	1741.44
491.439	1717.44
491.657	1726.44
491.874	1718.44
492.092	1701.44
492.31	1747.44
492.527	1722.44
492.745	1728.44
492.963	1725.44
493.18	1694.44
493.398	1730.44
493.615	1725.44
493.833	1736.44
494.05	1732.44
494.268	1737.44
494.485	1759.44
494.703	1765.44
494.92	1754.44
495.138	1748.44
495.355	1770.44
495.573	1769.44
495.79	1772.44
496.008	1805.44
496.225	1794.44
496.442	1788.44
496.66	1838.44
496.877	1828.44
497.094	1918.44
497.312	1868.44
497.529	1909.44
497.746	1960.44
497.963	2048.44
498.181	2102.44
498.398	2211.44
498.615	2342.44
498.832	2424.44
499.049	2651.44
499.267	2774.44
499.484	2989.44
499.701	3252.44
499.918	3562.44
500.135	3930.44
500.352	4241.44
500.569	4446.44
500.786	4423.44
501.003	4150.44
501.22	3740.44
501.437	3542.44
501.654	3163.44
501.871	2984.44
502.088	2722.44
502.305	2559.44
502.522	2458.44
502.739	2346.44
502.956	2248.44
503.172	2181.44
503.389	2072.44
503.606	2052.44
503.823	1985.44
504.04	1967.44
504.256	1966.44
504.473	1947.44
504.69	1973.44
504.907	1964.44
505.123	1853.44
505.34	1756.44
505.557	1740.44
505.773	1679.44
505.99	1696.44
506.207	1629.44
506.423	1594.44
506.64	1531.44
506.856	1545.44
507.073	1533.44
507.289	1497.44
507.506	1523.44
507.722	1550.44
507.939	1466.44
508.155	1466.44
508.372	1461.44
508.588	1421.44
508.805	1455.44
509.021	1440.44
509.238	1436.44
509.454	1419.44
509.67	1402.44
509.887	1413.44
510.103	1396.44
510.319	1360.44
510.536	1372.44
510.752	1342.44
510.968	1397.44
511.184	1376.44
511.401	1366.44
511.617	1371.44
511.833	1383.44
512.049	1373.44
512.265	1355.44
512.481	1358.44
512.698	1345.44
512.914	1350.44
513.13	1378.44
513.346	1355.44
513.562	1330.44
513.778	1350.44
513.994	1343.44
514.21	1363.44
514.426	1376.44
514.642	1370.44
514.858	1399.44
515.074	1422.44
515.29	1421.44
515.506	1424.44
515.721	1431.44
515.937	1501.44
516.153	1454.44
516.369	1527.44
516.585	1591.44
516.801	1601.44
517.016	1631.44
517.232	1675.44
517.448	1736.44
517.664	1731.44
517.879	1805.44
518.095	1774.44
518.311	1766.44
518.527	1703.44
518.742	1673.44
518.958	1589.44
519.173	1548.44
519.389	1509.44
519.605	1470.44
519.82	1459.44
520.036	1412.44
520.251	1411.44
520.467	1396.44
520.682	1380.44
520.898	1346.44
521.113	1334.44
521.329	1340.44
521.544	1374.44
521.76	1322.44
521.975	1294.44
522.19	1309.44
522.406	1300.44
522.621	1299.44
522.836	1265.44
523.052	1267.44
523.267	1243.44
523.482	1286.44
523.698	1261.44
523.913	1246.44
524.128	1232.44
524.343	1245.44
524.559	1259.44
524.774	1234.44
524.989	1229.44
525.204	1220.44
525.419	1222.44
525.634	1206.44
525.849	1213.44
526.064	1239.44
526.28	1227.44
526.495	1195.44
526.71	1227.44
526.925	1212.44
527.14	1203.44
527.355	1207.44
527.57	1214.44
527.785	1207.44
527.999	1202.44
528.214	1214.44
528.429	1240.44
528.644	1206.44
528.859	1174.44
529.074	1224.44
529.289	1207.44
529.503	1190.44
529.718	1168.44
529.933	1176.44
530.148	1180.44
530.363	1181.44
530.577	1175.44
530.792	1167.44
531.007	1182.44
531.221	1181.44
531.436	1181.44
531.651	1172.44
531.865	1198.44
532.08	1202.44
532.295	1198.44
532.509	1172.44
532.724	1179.44
532.938	1176.44
533.153	1216.44
533.367	1186.44
533.582	1174.44
533.796	1168.44
534.011	1198.44
534.225	1159.44
534.44	1156.44
534.654	1191.44
534.868	1154.44
535.083	1158.44
535.297	1162.44
535.511	1148.44
535.726	1169.44
535.94	1157.44
536.154	1128.44
536.369	1130.44
536.583	1130.44
536.797	1134.44
537.011	1130.44
537.225	1123.44
537.44	1111.44
537.654	1111.44
537.868	1108.44
538.082	1088.44
538.296	1088.44
538.51	1073.44
538.724	1102.44
538.938	1060.44
539.153	1096.44
539.367	1075.44
539.581	1067.44
539.795	1055.44
540.009	1068.44
540.222	1094.44
540.436	1047.44
540.65	1029.44
540.864	1071.44
541.078	1055.44
541.292	1057.44
541.506	1078.44
541.72	1062.44
541.934	1057.44
542.147	1076.44
542.361	1077.44
542.575	1059.44
542.789	1069.44
543.002	1054.44
543.216	1022.44
543.43	1035.44
543.644	1012.44
543.857	1035.44
544.071	1037.44
544.285	1039.44
544.498	1040.44
544.712	1036.44
544.925	1064.44
545.139	1049.44
545.352	1086.44
545.566	1096.44
545.779	1045.44
545.993	1066.44
546.206	1103.44
546.42	1106.44
546.633	1058.44
546.847	1061.44
547.06	1091.44
547.274	1067.44
547.487	1088.44
547.7	1044.44
547.914	1058.44
548.127	1067.44
548.34	1071.44
548.554	1093.44
548.767	1081.44
548.98	1065.44
549.193	1095.44
549.407	1080.44
549.62	1080.44
549.833	1101.44
550.046	1069.44
550.259	1071.44
550.473	1041.44
550.686	1051.44
550.899	1022.44
551.112	1039.44
551.325	1054.44
551.538	1062.44
551.751	1033.44
551.964	1070.44
552.177	1068.44
552.39	1045.44
552.603	1102.44
552.816	1118.44
553.029	1143.44
553.242	1135.44
553.455	1131.44
553.667	1143.44
553.88	1123.44
554.093	1082.44
554.306	1080.44
554.519	1096.44
554.732	1046.44
554.944	1071.44
555.157	1028.44
555.37	1017.44
555.583	1018.44
555.795	991.44
556.008	953.44
556.221	971.44
556.433	964.44
556.646	953.44
556.859	977.44
557.071	919.44
557.284	938.44
557.496	928.44
557.709	932.44
557.921	927.44
558.134	899.44
558.346	911.44
558.559	894.44
558.771	901.44
558.984	904.44
559.196	894.44
559.409	892.44
559.621	910.44
559.833	908.44
560.046	875.44
560.258	879.44
560.47	893.44
560.683	856.44
560.895	871.44
561.107	859.44
561.32	872.44
561.532	857.44
561.744	863.44
561.956	874.44
562.168	861.44
562.381	903.44
562.593	926.44
562.805	862.44
563.017	872.44
563.229	899.44
563.441	887.44
563.653	900.44
563.865	908.44
564.077	916.44
564.289	958.44
564.501	943.44
564.713	943.44
564.925	978.44
565.137	942.44
565.349	999.44
565.561	1003.44
565.773	1102.44
565.985	1095.44
566.197	1123.44
566.408	1218.44
566.62	1270.44
566.832	1353.44
567.044	1380.44
567.255	1399.44
567.467	1391.44
567.679	1449.44
567.891	1519.44
568.102	1499.44
568.314	1479.44
568.526	1362.44
568.737	1290.44
568.949	1188.44
569.161	1132.44
569.372	1031.44
569.584	995.44
569.795	982.44
570.007	930.44
570.218	908.44
570.43	910.44
570.641	912.44
570.853	921.44
571.064	903.44
571.276	877.44
571.487	887.44
571.698	846.44
571.91	835.44
572.121	805.44
572.333	768.44
572.544	758.44
572.755	772.44
572.966	744.44
573.178	764.44
573.389	758.44
573.6	755.44
573.811	730.44
574.023	736.44
574.234	731.44
574.445	726.44
574.656	732.44
574.867	711.44
575.078	704.44
575.289	684.44
575.501	703.44
575.712	685.44
575.923	686.44
576.134	683.44
576.345	711.44
576.556	700.44
576.767	667.44
576.978	694.44
577.188	681.44
577.399	677.44
577.61	667.44
577.821	664.44
578.032	677.44
578.243	660.44
578.454	639.44
578.665	663.44
578.875	642.44
579.086	652.44
579.297	638.44
579.508	629.44
579.718	636.44
579.929	642.44
580.14	629.44
580.35	624.44
580.561	658.44
580.772	614.44
580.982	621.44
581.193	599.44
581.403	612.44
581.614	610.44
581.825	615.44
582.035	631.44
582.246	609.44
582.456	594.44
582.667	600.44
582.877	614.44
583.087	599.44
583.298	599.44
583.508	627.44
583.719	592.44
583.929	597.44
584.139	597.44
584.35	584.44
584.56	586.44
584.77	582.44
584.981	587.44
585.191	594.44
585.401	559.44
585.611	559.44
585.821	575.44
586.032	596.44
586.242	596.44
586.452	579.44
586.662	582.44
586.872	566.44
587.082	588.44
587.292	581.44
587.502	573.44
587.713	578.44
587.923	588.44
588.133	591.44
588.343	572.44
588.553	569.44
588.762	575.44
588.972	578.44
589.182	545.44
589.392	583.44
589.602	583.44
589.812	574.44
590.022	565.44
590.232	578.44
590.441	607.44
590.651	574.44
590.861	587.44
591.071	594.44
591.281	595.44
591.49	599.44
591.7	595.44
591.91	607.44
592.119	632.44
592.329	602.44
592.539	645.44
592.748	633.44
592.958	652.44
593.167	680.44
593.377	693.44
593.587	710.44
593.796	691.44
594.006	678.44
594.215	675.44
594.424	682.44
594.634	672.44
594.843	666.44
595.053	644.44
595.262	638.44
595.472	618.44
595.681	608.44
595.89	577.44
596.1	560.44
596.309	578.44
596.518	539.44
596.727	536.44
596.937	526.44
597.146	511.44
597.355	560.44
597.564	509.44
597.774	534.44
597.983	525.44
598.192	512.44
598.401	505.44
598.61	495.44
598.819	501.44
599.028	487.44
599.237	480.44
599.446	478.44
599.655	494.44
599.864	511.44
600.073	493.44
600.282	478.44
600.491	476.44
600.7	485.44
600.909	472.44
601.118	461.44
601.327	472.44
601.536	499.44
601.745	470.44
601.953	458.44
602.162	446.44
602.371	464.44
602.58	458.44
602.789	470.44
602.997	461.44
603.206	476.44
603.415	463.44
603.623	457.44
603.832	444.44
604.041	444.44
604.249	467.44
604.458	456.44
604.666	436.44
604.875	441.44
605.084	441.44
605.292	443.44
605.501	459.44
605.709	425.44
605.918	443.44
606.126	428.44
606.334	428.44
606.543	421.44
606.751	446.44
606.96	427.44
607.168	431.44
607.376	436.44
607.585	427.44
607.793	438.44
608.001	436.44
608.21	415.44
608.418	426.44
608.626	419.44
608.834	427.44
609.043	398.44
609.251	416.44
609.459	430.44
609.667	415.44
609.875	416.44
610.083	429.44
610.291	420.44
610.499	416.44
610.707	410.44
610.916	407.44
611.124	407.44
611.332	420.44
611.54	414.44
611.748	412.44
611.955	408.44
612.163	397.44
612.371	412.44
612.579	412.44
612.787	400.44
612.995	411.44
613.203	408.44
613.411	407.44
613.618	401.44
613.826	412.44
614.034	418.44
614.242	406.44
614.449	396.44
614.657	398.44
614.865	405.44
615.072	386.44
615.28	390.44
615.488	399.44
615.695	399.44
615.903	419.44
616.111	428.44
616.318	403.44
616.526	400.44
616.733	412.44
616.941	408.44
617.148	401.44
617.356	382.44
617.563	405.44
617.771	390.44
617.978	396.44
618.185	388.44
618.393	380.44
618.6	410.44
618.807	407.44
619.015	400.44
619.222	404.44
619.429	400.44
619.637	396.44
619.844	410.44
620.051	389.44
620.258	379.44
620.466	357.44
620.673	372.44
620.88	370.44
621.087	361.44
621.294	361.44
621.501	373.44
621.708	382.44
621.915	378.44
622.122	380.44
622.329	389.44
622.536	380.44
622.743	363.44
622.95	357.44
623.157	363.44
623.364	363.44
623.571	379.44
623.778	346.44
623.985	354.44
624.192	348.44
624.399	360.44
624.606	354.44
624.812	358.44
625.019	356.44
625.226	355.44
625.433	361.44
625.639	345.44
625.846	355.44
626.053	337.44
626.259	342.44
626.466	321.44
626.673	339.44
626.879	343.44
627.086	336.44
627.293	331.44
627.499	341.44
627.706	328.44
627.912	331.44
628.119	333.44
628.325	349.44
628.532	335.44
628.738	343.44
628.945	333.44
629.151	329.44
629.357	333.44
629.564	299.44
629.77	307.44
629.976	315.44
630.183	319.44
630.389	315.44
630.595	331.44
630.802	303.44
631.008	306.44
631.214	306.44
631.42	321.44
631.627	298.44
631.833	302.44
632.039	304.44
632.245	284.44
632.451	307.44
632.657	304.44
632.863	297.44
633.069	302.44
633.275	304.44
633.481	293.44
633.688	302.44
633.893	283.44
634.099	311.44
634.305	300.44
634.511	288.44
634.717	291.44
634.923	299.44
635.129	295.44
635.335	310.44
635.541	290.44
635.747	297.44
635.952	295.44
636.158	304.44
636.364	286.44
636.57	316.44
636.775	284.44
636.981	284.44
637.187	292.44
637.392	294.44
637.598	303.44
637.804	295.44
638.009	277.44
638.215	285.44
638.421	270.44
638.626	270.44
638.832	287.44
639.037	274.44
639.243	272.44
639.448	290.44
639.654	291.44
639.859	275.44
640.065	276.44
640.27	263.44
640.475	290.44
640.681	262.44
640.886	290.44
641.091	254.44
641.297	278.44
641.502	264.44
641.707	278.44
641.913	274.44
642.118	267.44
642.323	275.44
642.528	271.44
642.733	286.44
642.939	276.44
643.144	280.44
643.349	267.44
643.554	267.44
643.759	292.44
643.964	270.44
644.169	262.44
644.374	262.44
644.579	263.44
644.784	259.44
644.989	270.44
645.194	262.44
645.399	263.44
645.604	287.44
645.809	257.44
646.014	263.44
646.219	296.44
646.423	277.44
646.628	281.44
646.833	273.44
647.038	285.44
647.243	283.44
647.447	284.44
647.652	290.44
647.857	294.44
648.062	273.44
648.266	285.44
648.471	307.44
648.676	280.44
648.88	301.44
649.085	294.44
649.289	289.44
649.494	285.44
649.698	275.44
649.903	291.44
650.107	283.44
650.312	273.44
650.516	275.44
650.721	268.44
650.925	254.44
651.13	269.44
651.334	270.44
651.539	281.44
651.743	266.44
651.947	264.44
652.152	270.44
652.356	262.44
652.56	250.44
652.764	239.44
652.969	248.44
653.173	246.44
653.377	255.44
653.581	249.44
653.785	274.44
653.99	266.44
654.194	277.44
654.398	274.44
654.602	265.44
654.806	276.44
655.01	285.44
655.214	284.44
655.418	276.44
655.622	304.44
655.826	330.44
656.03	352.44
656.234	360.44
656.438	387.44
656.642	414.44
656.846	378.44
657.049	346.44
657.253	306.44
657.457	279.44
657.661	271.44
657.865	235.44
658.068	212.44
658.272	196.44
658.476	194.44
658.68	178.44
658.883	158.44
659.087	162.44
659.291	157.44
659.494	130.44
659.698	125.44
659.901	123.44
660.105	134.44
660.309	126.44
660.512	118.44
660.716	122.44
660.919	112.44
661.123	117.44
661.326	116.44
661.53	107.44
661.733	93.44
661.936	114.44
662.14	105.44
662.343	97.44
662.546	102.44
662.75	93.44
662.953	96.44
663.156	77.44
663.36	96.44
663.563	95.44
663.766	74.44
663.969	103.44
664.173	100.44
664.376	85.44
664.579	85.44
664.782	88.44
664.985	88.44
665.188	100.44
665.391	88.44
665.594	82.44
665.797	80.44
666	71.44
666.203	87.44
666.406	95.44
666.609	77.44
666.812	95.44
667.015	86.44
667.218	72.44
667.421	87.44
667.624	82.44
667.827	79.44
668.03	89.44
668.232	86.44
668.435	91.44
668.638	86.44
668.841	94.44
669.043	81.44
669.246	69.44
669.449	78.44
669.651	92.44
669.854	87.44
670.057	98.44
670.259	93.44
670.462	89.44
670.665	75.44
670.867	92.44
671.07	85.44
671.272	82.44
671.475	93.44
671.677	86.44
671.88	91.44
672.082	93.44
672.284	86.44
672.487	85.44
672.689	87.44
672.892	83.44
