Data from NiCl2@0.0625M.TitratingCurve.Agarose3%dH2O.NegLispCup.LampEnergy10.LIBS07252019_HRD10591_18-35-30-577.txt Node
Date: Thu Jul 25 18:35:30 EDT 2019
User: cochatt
Spectrometer: HR+D1059
Trigger mode: 1
Integration Time (sec): 1.000000E-1
Scans to average: 1
Electric dark correction enabled: true
Nonlinearity correction enabled: false
Boxcar width: 0
XAxis mode: Wavelengths
Number of Pixels in Spectrum: 2048
>>>>>Begin Spectral Data<<<<<
223.165	-21.56
223.4	-21.56
223.635	-21.56
223.869	-16.56
224.104	-31.56
224.338	-3.56
224.573	2.44
224.808	-18.56
225.042	-5.56
225.277	-6.56
225.511	-18.56
225.746	2.44
225.98	8.44
226.215	6.44
226.449	19.44
226.683	24.44
226.918	28.44
227.152	30.44
227.387	35.44
227.621	42.44
227.856	39.44
228.09	41.44
228.324	34.44
228.559	40.44
228.793	73.44
229.027	136.44
229.262	140.44
229.496	181.44
229.73	171.44
229.964	177.44
230.199	170.44
230.433	171.44
230.667	189.44
230.901	184.44
231.136	169.44
231.37	182.44
231.604	191.44
231.838	212.44
232.072	181.44
232.306	222.44
232.541	185.44
232.775	202.44
233.009	210.44
233.243	194.44
233.477	197.44
233.711	201.44
233.945	202.44
234.179	198.44
234.413	213.44
234.647	217.44
234.881	199.44
235.115	194.44
235.349	204.44
235.583	216.44
235.817	226.44
236.051	207.44
236.285	226.44
236.519	204.44
236.753	224.44
236.987	209.44
237.221	225.44
237.455	218.44
237.689	231.44
237.922	226.44
238.156	231.44
238.39	242.44
238.624	242.44
238.858	255.44
239.091	256.44
239.325	273.44
239.559	245.44
239.793	244.44
240.027	253.44
240.26	269.44
240.494	248.44
240.728	275.44
240.961	274.44
241.195	283.44
241.429	272.44
241.662	274.44
241.896	282.44
242.13	296.44
242.363	280.44
242.597	302.44
242.83	308.44
243.064	298.44
243.298	292.44
243.531	314.44
243.765	326.44
243.998	321.44
244.232	323.44
244.465	322.44
244.699	330.44
244.932	329.44
245.166	340.44
245.399	327.44
245.633	334.44
245.866	331.44
246.099	338.44
246.333	336.44
246.566	320.44
246.8	355.44
247.033	357.44
247.266	356.44
247.5	328.44
247.733	348.44
247.966	358.44
248.2	364.44
248.433	359.44
248.666	385.44
248.899	374.44
249.133	367.44
249.366	394.44
249.599	392.44
249.832	388.44
250.066	386.44
250.299	387.44
250.532	395.44
250.765	395.44
250.998	397.44
251.231	407.44
251.465	410.44
251.698	404.44
251.931	409.44
252.164	390.44
252.397	416.44
252.63	416.44
252.863	434.44
253.096	418.44
253.329	425.44
253.562	448.44
253.795	466.44
254.028	417.44
254.261	448.44
254.494	457.44
254.727	435.44
254.96	456.44
255.193	438.44
255.426	450.44
255.659	458.44
255.892	451.44
256.124	465.44
256.357	470.44
256.59	457.44
256.823	457.44
257.056	468.44
257.289	460.44
257.521	472.44
257.754	457.44
257.987	464.44
258.22	496.44
258.452	484.44
258.685	494.44
258.918	491.44
259.151	506.44
259.383	494.44
259.616	509.44
259.849	484.44
260.081	503.44
260.314	521.44
260.547	503.44
260.779	489.44
261.012	520.44
261.244	486.44
261.477	513.44
261.71	514.44
261.942	510.44
262.175	526.44
262.407	568.44
262.64	515.44
262.872	537.44
263.105	539.44
263.337	534.44
263.57	537.44
263.802	562.44
264.035	564.44
264.267	552.44
264.499	576.44
264.732	575.44
264.964	568.44
265.197	588.44
265.429	563.44
265.661	564.44
265.894	559.44
266.126	556.44
266.358	556.44
266.591	582.44
266.823	602.44
267.055	592.44
267.287	584.44
267.52	597.44
267.752	583.44
267.984	608.44
268.216	608.44
268.448	597.44
268.681	626.44
268.913	584.44
269.145	592.44
269.377	601.44
269.609	625.44
269.841	619.44
270.073	614.44
270.306	633.44
270.538	624.44
270.77	617.44
271.002	633.44
271.234	614.44
271.466	634.44
271.698	632.44
271.93	617.44
272.162	653.44
272.394	660.44
272.626	652.44
272.858	641.44
273.09	659.44
273.322	694.44
273.553	629.44
273.785	653.44
274.017	679.44
274.249	672.44
274.481	649.44
274.713	671.44
274.945	700.44
275.176	679.44
275.408	698.44
275.64	676.44
275.872	690.44
276.104	697.44
276.335	694.44
276.567	687.44
276.799	681.44
277.031	710.44
277.262	704.44
277.494	710.44
277.726	714.44
277.957	710.44
278.189	708.44
278.421	725.44
278.652	746.44
278.884	735.44
279.115	706.44
279.347	714.44
279.579	735.44
279.81	741.44
280.042	743.44
280.273	751.44
280.505	750.44
280.736	760.44
280.968	744.44
281.199	763.44
281.431	777.44
281.662	774.44
281.894	781.44
282.125	758.44
282.356	792.44
282.588	763.44
282.819	781.44
283.051	771.44
283.282	770.44
283.513	793.44
283.745	816.44
283.976	814.44
284.207	801.44
284.439	796.44
284.67	794.44
284.901	814.44
285.132	794.44
285.364	808.44
285.595	806.44
285.826	817.44
286.057	814.44
286.288	814.44
286.52	800.44
286.751	868.44
286.982	827.44
287.213	818.44
287.444	814.44
287.675	808.44
287.906	854.44
288.138	859.44
288.369	837.44
288.6	863.44
288.831	860.44
289.062	827.44
289.293	860.44
289.524	882.44
289.755	879.44
289.986	848.44
290.217	858.44
290.448	853.44
290.679	866.44
290.91	862.44
291.141	882.44
291.371	891.44
291.602	880.44
291.833	854.44
292.064	887.44
292.295	874.44
292.526	894.44
292.757	864.44
292.987	879.44
293.218	890.44
293.449	880.44
293.68	862.44
293.91	880.44
294.141	873.44
294.372	872.44
294.603	902.44
294.833	887.44
295.064	885.44
295.295	891.44
295.525	873.44
295.756	922.44
295.987	904.44
296.217	896.44
296.448	898.44
296.679	905.44
296.909	905.44
297.14	924.44
297.37	915.44
297.601	935.44
297.831	930.44
298.062	950.44
298.292	926.44
298.523	959.44
298.753	958.44
298.984	928.44
299.214	941.44
299.445	930.44
299.675	951.44
299.905	956.44
300.136	936.44
300.366	939.44
300.597	938.44
300.827	974.44
301.057	979.44
301.288	966.44
301.518	1001.44
301.748	969.44
301.979	1005.44
302.209	1022.44
302.439	1008.44
302.669	1003.44
302.9	1004.44
303.13	991.44
303.36	1001.44
303.59	969.44
303.82	1014.44
304.051	999.44
304.281	1018.44
304.511	989.44
304.741	996.44
304.971	1008.44
305.201	988.44
305.431	992.44
305.661	989.44
305.891	1018.44
306.121	1002.44
306.352	992.44
306.582	1001.44
306.812	991.44
307.042	993.44
307.272	1015.44
307.502	991.44
307.731	971.44
307.961	998.44
308.191	984.44
308.421	983.44
308.651	965.44
308.881	978.44
309.111	980.44
309.341	975.44
309.571	1022.44
309.8	983.44
310.03	974.44
310.26	964.44
310.49	978.44
310.72	983.44
310.949	1004.44
311.179	1002.44
311.409	999.44
311.639	1009.44
311.868	1042.44
312.098	1027.44
312.328	1011.44
312.557	1032.44
312.787	1027.44
313.017	1050.44
313.246	1047.44
313.476	1058.44
313.706	1068.44
313.935	1076.44
314.165	1067.44
314.394	1070.44
314.624	1070.44
314.853	1033.44
315.083	1082.44
315.312	1068.44
315.542	1066.44
315.771	1064.44
316.001	1078.44
316.23	1040.44
316.46	1063.44
316.689	1040.44
316.919	1033.44
317.148	1044.44
317.377	1068.44
317.607	1037.44
317.836	1036.44
318.065	1009.44
318.295	1043.44
318.524	1064.44
318.753	1042.44
318.983	1040.44
319.212	1057.44
319.441	1037.44
319.67	1036.44
319.9	1069.44
320.129	1057.44
320.358	1072.44
320.587	1065.44
320.816	1065.44
321.046	1073.44
321.275	1060.44
321.504	1060.44
321.733	1048.44
321.962	1043.44
322.191	1055.44
322.42	1052.44
322.649	1078.44
322.878	1047.44
323.108	1056.44
323.337	1091.44
323.566	1091.44
323.795	1101.44
324.024	1081.44
324.253	1085.44
324.482	1110.44
324.71	1116.44
324.939	1120.44
325.168	1096.44
325.397	1126.44
325.626	1127.44
325.855	1075.44
326.084	1132.44
326.313	1138.44
326.542	1148.44
326.77	1170.44
326.999	1123.44
327.228	1128.44
327.457	1140.44
327.686	1112.44
327.914	1153.44
328.143	1138.44
328.372	1170.44
328.6	1132.44
328.829	1159.44
329.058	1156.44
329.287	1149.44
329.515	1135.44
329.744	1192.44
329.972	1178.44
330.201	1200.44
330.43	1192.44
330.658	1195.44
330.887	1195.44
331.115	1233.44
331.344	1214.44
331.572	1220.44
331.801	1262.44
332.03	1266.44
332.258	1262.44
332.486	1291.44
332.715	1322.44
332.943	1361.44
333.172	1400.44
333.4	1438.44
333.629	1494.44
333.857	1552.44
334.085	1523.44
334.314	1495.44
334.542	1483.44
334.771	1458.44
334.999	1454.44
335.227	1440.44
335.455	1435.44
335.684	1421.44
335.912	1449.44
336.14	1415.44
336.369	1407.44
336.597	1420.44
336.825	1390.44
337.053	1392.44
337.281	1363.44
337.51	1342.44
337.738	1286.44
337.966	1271.44
338.194	1281.44
338.422	1294.44
338.65	1289.44
338.878	1252.44
339.106	1300.44
339.334	1255.44
339.562	1275.44
339.79	1247.44
340.018	1223.44
340.246	1220.44
340.474	1192.44
340.702	1225.44
340.93	1230.44
341.158	1234.44
341.386	1233.44
341.614	1247.44
341.842	1220.44
342.07	1211.44
342.298	1189.44
342.526	1174.44
342.754	1191.44
342.981	1201.44
343.209	1236.44
343.437	1285.44
343.665	1320.44
343.893	1424.44
344.12	1425.44
344.348	1406.44
344.576	1350.44
344.804	1340.44
345.031	1268.44
345.259	1225.44
345.487	1222.44
345.714	1217.44
345.942	1211.44
346.17	1197.44
346.397	1216.44
346.625	1179.44
346.853	1176.44
347.08	1167.44
347.308	1164.44
347.535	1147.44
347.763	1178.44
347.99	1198.44
348.218	1169.44
348.445	1139.44
348.673	1137.44
348.9	1146.44
349.128	1144.44
349.355	1170.44
349.583	1150.44
349.81	1159.44
350.037	1149.44
350.265	1104.44
350.492	1145.44
350.72	1116.44
350.947	1134.44
351.174	1130.44
351.402	1136.44
351.629	1126.44
351.856	1116.44
352.083	1094.44
352.311	1122.44
352.538	1139.44
352.765	1152.44
352.992	1113.44
353.22	1118.44
353.447	1126.44
353.674	1113.44
353.901	1091.44
354.128	1104.44
354.355	1120.44
354.583	1086.44
354.81	1112.44
355.037	1135.44
355.264	1128.44
355.491	1125.44
355.718	1116.44
355.945	1112.44
356.172	1135.44
356.399	1127.44
356.626	1164.44
356.853	1110.44
357.08	1141.44
357.307	1136.44
357.534	1145.44
357.761	1150.44
357.988	1150.44
358.215	1103.44
358.441	1138.44
358.668	1124.44
358.895	1107.44
359.122	1111.44
359.349	1130.44
359.576	1094.44
359.802	1137.44
360.029	1118.44
360.256	1131.44
360.483	1140.44
360.709	1138.44
360.936	1122.44
361.163	1147.44
361.39	1126.44
361.616	1094.44
361.843	1091.44
362.07	1137.44
362.296	1126.44
362.523	1108.44
362.749	1128.44
362.976	1126.44
363.203	1108.44
363.429	1110.44
363.656	1084.44
363.882	1112.44
364.109	1080.44
364.335	1109.44
364.562	1100.44
364.788	1143.44
365.015	1139.44
365.241	1106.44
365.468	1130.44
365.694	1115.44
365.92	1127.44
366.147	1077.44
366.373	1113.44
366.599	1140.44
366.826	1097.44
367.052	1140.44
367.278	1152.44
367.505	1111.44
367.731	1145.44
367.957	1147.44
368.184	1141.44
368.41	1128.44
368.636	1168.44
368.862	1161.44
369.089	1111.44
369.315	1144.44
369.541	1145.44
369.767	1162.44
369.993	1183.44
370.219	1184.44
370.445	1166.44
370.672	1189.44
370.898	1194.44
371.124	1192.44
371.35	1225.44
371.576	1214.44
371.802	1227.44
372.028	1191.44
372.254	1198.44
372.48	1248.44
372.706	1258.44
372.932	1269.44
373.158	1235.44
373.384	1230.44
373.61	1200.44
373.835	1239.44
374.061	1199.44
374.287	1211.44
374.513	1279.44
374.739	1300.44
374.965	1319.44
375.191	1338.44
375.416	1329.44
375.642	1298.44
375.868	1249.44
376.094	1254.44
376.319	1254.44
376.545	1228.44
376.771	1251.44
376.997	1205.44
377.222	1208.44
377.448	1196.44
377.674	1186.44
377.899	1206.44
378.125	1206.44
378.35	1187.44
378.576	1206.44
378.802	1196.44
379.027	1188.44
379.253	1210.44
379.478	1200.44
379.704	1194.44
379.929	1198.44
380.155	1187.44
380.38	1197.44
380.606	1246.44
380.831	1212.44
381.057	1221.44
381.282	1187.44
381.507	1189.44
381.733	1180.44
381.958	1239.44
382.184	1217.44
382.409	1264.44
382.634	1240.44
382.86	1274.44
383.085	1288.44
383.31	1285.44
383.535	1328.44
383.761	1317.44
383.986	1348.44
384.211	1414.44
384.436	1394.44
384.662	1417.44
384.887	1427.44
385.112	1418.44
385.337	1429.44
385.562	1427.44
385.787	1450.44
386.013	1501.44
386.238	1475.44
386.463	1449.44
386.688	1487.44
386.913	1408.44
387.138	1438.44
387.363	1455.44
387.588	1454.44
387.813	1452.44
388.038	1469.44
388.263	1440.44
388.488	1444.44
388.713	1443.44
388.938	1464.44
389.163	1461.44
389.387	1481.44
389.612	1409.44
389.837	1445.44
390.062	1432.44
390.287	1434.44
390.512	1464.44
390.736	1449.44
390.961	1489.44
391.186	1511.44
391.411	1502.44
391.636	1554.44
391.86	1600.44
392.085	1652.44
392.31	1622.44
392.534	1586.44
392.759	1554.44
392.984	1541.44
393.208	1547.44
393.433	1530.44
393.658	1545.44
393.882	1506.44
394.107	1543.44
394.331	1541.44
394.556	1516.44
394.78	1544.44
395.005	1552.44
395.229	1542.44
395.454	1592.44
395.678	1633.44
395.903	1640.44
396.127	1575.44
396.352	1603.44
396.576	1566.44
396.801	1568.44
397.025	1586.44
397.249	1610.44
397.474	1654.44
397.698	1644.44
397.922	1624.44
398.147	1639.44
398.371	1694.44
398.595	1742.44
398.82	1830.44
399.044	1918.44
399.268	2047.44
399.492	2304.44
399.717	2498.44
399.941	2535.44
400.165	2377.44
400.389	2169.44
400.613	2050.44
400.837	1938.44
401.062	1886.44
401.286	1857.44
401.51	1837.44
401.734	1827.44
401.958	1849.44
402.182	1816.44
402.406	1872.44
402.63	1862.44
402.854	1886.44
403.078	1884.44
403.302	1894.44
403.526	1936.44
403.75	1945.44
403.974	2001.44
404.198	1982.44
404.422	2010.44
404.645	1982.44
404.869	1963.44
405.093	1947.44
405.317	1982.44
405.541	1922.44
405.765	1930.44
405.988	1954.44
406.212	2014.44
406.436	2005.44
406.66	2056.44
406.883	2033.44
407.107	2166.44
407.331	2235.44
407.555	2322.44
407.778	2249.44
408.002	2250.44
408.226	2198.44
408.449	2151.44
408.673	2120.44
408.896	2053.44
409.12	2040.44
409.344	2094.44
409.567	2006.44
409.791	2015.44
410.014	1987.44
410.238	2002.44
410.461	1967.44
410.685	1991.44
410.908	1957.44
411.132	1972.44
411.355	1872.44
411.578	1897.44
411.802	1889.44
412.025	1927.44
412.249	1949.44
412.472	1922.44
412.695	1845.44
412.919	1854.44
413.142	1832.44
413.365	1847.44
413.589	1836.44
413.812	1831.44
414.035	1791.44
414.258	1801.44
414.482	1815.44
414.705	1883.44
414.928	1833.44
415.151	1867.44
415.374	1815.44
415.597	1782.44
415.821	1779.44
416.044	1771.44
416.267	1743.44
416.49	1746.44
416.713	1726.44
416.936	1760.44
417.159	1760.44
417.382	1721.44
417.605	1738.44
417.828	1711.44
418.051	1767.44
418.274	1745.44
418.497	1758.44
418.72	1757.44
418.943	1764.44
419.166	1915.44
419.389	2012.44
419.611	1947.44
419.834	1902.44
420.057	1820.44
420.28	1802.44
420.503	1729.44
420.726	1719.44
420.948	1744.44
421.171	1720.44
421.394	1732.44
421.617	1726.44
421.839	1777.44
422.062	1761.44
422.285	1722.44
422.507	1806.44
422.73	1797.44
422.953	1726.44
423.175	1783.44
423.398	1810.44
423.621	1768.44
423.843	1812.44
424.066	1814.44
424.288	1769.44
424.511	1789.44
424.733	1765.44
424.956	1772.44
425.178	1753.44
425.401	1757.44
425.623	1758.44
425.846	1680.44
426.068	1715.44
426.291	1707.44
426.513	1643.44
426.735	1682.44
426.958	1678.44
427.18	1665.44
427.402	1633.44
427.625	1639.44
427.847	1571.44
428.069	1602.44
428.292	1604.44
428.514	1563.44
428.736	1609.44
428.958	1585.44
429.181	1574.44
429.403	1534.44
429.625	1534.44
429.847	1550.44
430.069	1539.44
430.292	1586.44
430.514	1534.44
430.736	1548.44
430.958	1566.44
431.18	1594.44
431.402	1610.44
431.624	1596.44
431.846	1591.44
432.068	1594.44
432.29	1650.44
432.512	1597.44
432.734	1619.44
432.956	1600.44
433.178	1578.44
433.4	1608.44
433.622	1618.44
433.844	1669.44
434.066	1633.44
434.287	1635.44
434.509	1712.44
434.731	1717.44
434.953	1766.44
435.175	1788.44
435.397	1744.44
435.618	1690.44
435.84	1651.44
436.062	1601.44
436.284	1602.44
436.505	1606.44
436.727	1605.44
436.949	1603.44
437.17	1607.44
437.392	1550.44
437.614	1555.44
437.835	1570.44
438.057	1552.44
438.278	1515.44
438.5	1527.44
438.721	1510.44
438.943	1554.44
439.165	1499.44
439.386	1537.44
439.608	1572.44
439.829	1538.44
440.05	1566.44
440.272	1609.44
440.493	1584.44
440.715	1570.44
440.936	1606.44
441.158	1618.44
441.379	1655.44
441.6	1719.44
441.822	1727.44
442.043	1746.44
442.264	1730.44
442.486	1672.44
442.707	1698.44
442.928	1668.44
443.149	1723.44
443.371	1680.44
443.592	1705.44
443.813	1732.44
444.034	1739.44
444.255	1785.44
444.476	1862.44
444.698	1893.44
444.919	1969.44
445.14	2068.44
445.361	1932.44
445.582	1798.44
445.803	1698.44
446.024	1659.44
446.245	1641.44
446.466	1600.44
446.687	1571.44
446.908	1544.44
447.129	1523.44
447.35	1500.44
447.571	1512.44
447.792	1471.44
448.013	1503.44
448.234	1446.44
448.455	1440.44
448.675	1426.44
448.896	1436.44
449.117	1382.44
449.338	1457.44
449.559	1381.44
449.779	1395.44
450	1412.44
450.221	1418.44
450.442	1422.44
450.662	1419.44
450.883	1432.44
451.104	1442.44
451.324	1401.44
451.545	1425.44
451.766	1452.44
451.986	1408.44
452.207	1398.44
452.428	1389.44
452.648	1414.44
452.869	1364.44
453.089	1373.44
453.31	1402.44
453.53	1334.44
453.751	1351.44
453.971	1327.44
454.192	1349.44
454.412	1316.44
454.633	1322.44
454.853	1350.44
455.073	1314.44
455.294	1340.44
455.514	1350.44
455.734	1324.44
455.955	1345.44
456.175	1324.44
456.395	1316.44
456.616	1287.44
456.836	1316.44
457.056	1315.44
457.276	1330.44
457.497	1343.44
457.717	1346.44
457.937	1386.44
458.157	1364.44
458.377	1373.44
458.598	1430.44
458.818	1454.44
459.038	1501.44
459.258	1503.44
459.478	1553.44
459.698	1626.44
459.918	1657.44
460.138	1663.44
460.358	1752.44
460.578	1779.44
460.798	1813.44
461.018	1844.44
461.238	1811.44
461.458	1788.44
461.678	1766.44
461.898	1826.44
462.118	1829.44
462.338	1910.44
462.558	1953.44
462.777	2054.44
462.997	2146.44
463.217	2278.44
463.437	2306.44
463.657	2131.44
463.876	2115.44
464.096	2090.44
464.316	2060.44
464.536	2030.44
464.755	1996.44
464.975	1984.44
465.195	1875.44
465.414	1786.44
465.634	1703.44
465.854	1654.44
466.073	1606.44
466.293	1558.44
466.512	1512.44
466.732	1544.44
466.951	1557.44
467.171	1521.44
467.391	1490.44
467.61	1518.44
467.829	1462.44
468.049	1462.44
468.268	1464.44
468.488	1448.44
468.707	1395.44
468.927	1402.44
469.146	1435.44
469.365	1458.44
469.585	1433.44
469.804	1481.44
470.023	1505.44
470.243	1477.44
470.462	1520.44
470.681	1540.44
470.901	1512.44
471.12	1508.44
471.339	1502.44
471.558	1467.44
471.777	1464.44
471.997	1478.44
472.216	1463.44
472.435	1420.44
472.654	1424.44
472.873	1400.44
473.092	1418.44
473.311	1410.44
473.53	1403.44
473.749	1353.44
473.968	1420.44
474.187	1408.44
474.406	1435.44
474.625	1442.44
474.844	1434.44
475.063	1393.44
475.282	1408.44
475.501	1453.44
475.72	1468.44
475.939	1464.44
476.158	1449.44
476.377	1507.44
476.596	1491.44
476.814	1501.44
477.033	1500.44
477.252	1519.44
477.471	1571.44
477.69	1589.44
477.908	1612.44
478.127	1623.44
478.346	1699.44
478.564	1748.44
478.783	1711.44
479.002	1795.44
479.22	1808.44
479.439	1779.44
479.658	1790.44
479.876	1826.44
480.095	1820.44
480.313	1880.44
480.532	1925.44
480.751	1898.44
480.969	1870.44
481.188	1786.44
481.406	1791.44
481.624	1745.44
481.843	1748.44
482.061	1676.44
482.28	1712.44
482.498	1714.44
482.717	1722.44
482.935	1760.44
483.153	1741.44
483.372	1705.44
483.59	1764.44
483.808	1775.44
484.027	1735.44
484.245	1794.44
484.463	1803.44
484.681	1829.44
484.9	1857.44
485.118	1842.44
485.336	1901.44
485.554	1914.44
485.772	1886.44
485.99	1876.44
486.209	1922.44
486.427	1891.44
486.645	1915.44
486.863	1886.44
487.081	1855.44
487.299	1868.44
487.517	1870.44
487.735	1843.44
487.953	1831.44
488.171	1850.44
488.389	1842.44
488.607	1844.44
488.825	1803.44
489.043	1823.44
489.261	1800.44
489.479	1759.44
489.696	1807.44
489.914	1801.44
490.132	1805.44
490.35	1782.44
490.568	1768.44
490.786	1780.44
491.003	1811.44
491.221	1784.44
491.439	1760.44
491.657	1776.44
491.874	1723.44
492.092	1752.44
492.31	1763.44
492.527	1809.44
492.745	1771.44
492.963	1810.44
493.18	1801.44
493.398	1829.44
493.615	1815.44
493.833	1825.44
494.05	1796.44
494.268	1808.44
494.485	1799.44
494.703	1820.44
494.92	1826.44
495.138	1822.44
495.355	1810.44
495.573	1824.44
495.79	1831.44
496.008	1861.44
496.225	1887.44
496.442	1880.44
496.66	1938.44
496.877	1930.44
497.094	1934.44
497.312	1985.44
497.529	2083.44
497.746	2061.44
497.963	2151.44
498.181	2246.44
498.398	2358.44
498.615	2389.44
498.832	2588.44
499.049	2729.44
499.267	2926.44
499.484	3167.44
499.701	3440.44
499.918	3737.44
500.135	4158.44
500.352	4542.44
500.569	4748.44
500.786	4676.44
501.003	4411.44
501.22	4030.44
501.437	3728.44
501.654	3320.44
501.871	3136.44
502.088	2908.44
502.305	2683.44
502.522	2600.44
502.739	2442.44
502.956	2376.44
503.172	2255.44
503.389	2165.44
503.606	2115.44
503.823	2088.44
504.04	2016.44
504.256	2067.44
504.473	2066.44
504.69	2083.44
504.907	2073.44
505.123	1963.44
505.34	1840.44
505.557	1763.44
505.773	1758.44
505.99	1730.44
506.207	1639.44
506.423	1641.44
506.64	1606.44
506.856	1620.44
507.073	1618.44
507.289	1593.44
507.506	1570.44
507.722	1546.44
507.939	1488.44
508.155	1536.44
508.372	1559.44
508.588	1523.44
508.805	1513.44
509.021	1485.44
509.238	1479.44
509.454	1434.44
509.67	1430.44
509.887	1452.44
510.103	1469.44
510.319	1420.44
510.536	1435.44
510.752	1420.44
510.968	1419.44
511.184	1436.44
511.401	1414.44
511.617	1406.44
511.833	1410.44
512.049	1399.44
512.265	1379.44
512.481	1406.44
512.698	1411.44
512.914	1438.44
513.13	1409.44
513.346	1403.44
513.562	1397.44
513.778	1430.44
513.994	1428.44
514.21	1402.44
514.426	1417.44
514.642	1435.44
514.858	1448.44
515.074	1466.44
515.29	1450.44
515.506	1494.44
515.721	1524.44
515.937	1562.44
516.153	1541.44
516.369	1543.44
516.585	1596.44
516.801	1662.44
517.016	1716.44
517.232	1784.44
517.448	1853.44
517.664	1868.44
517.879	1903.44
518.095	1909.44
518.311	1858.44
518.527	1800.44
518.742	1737.44
518.958	1722.44
519.173	1616.44
519.389	1586.44
519.605	1536.44
519.82	1530.44
520.036	1501.44
520.251	1466.44
520.467	1458.44
520.682	1458.44
520.898	1419.44
521.113	1379.44
521.329	1387.44
521.544	1350.44
521.76	1379.44
521.975	1363.44
522.19	1346.44
522.406	1305.44
522.621	1346.44
522.836	1284.44
523.052	1307.44
523.267	1309.44
523.482	1315.44
523.698	1262.44
523.913	1278.44
524.128	1253.44
524.343	1294.44
524.559	1272.44
524.774	1262.44
524.989	1277.44
525.204	1293.44
525.419	1286.44
525.634	1239.44
525.849	1282.44
526.064	1278.44
526.28	1268.44
526.495	1284.44
526.71	1275.44
526.925	1240.44
527.14	1243.44
527.355	1222.44
527.57	1257.44
527.785	1258.44
527.999	1265.44
528.214	1273.44
528.429	1223.44
528.644	1266.44
528.859	1240.44
529.074	1275.44
529.289	1271.44
529.503	1249.44
529.718	1273.44
529.933	1221.44
530.148	1263.44
530.363	1242.44
530.577	1228.44
530.792	1245.44
531.007	1260.44
531.221	1236.44
531.436	1240.44
531.651	1255.44
531.865	1234.44
532.08	1249.44
532.295	1246.44
532.509	1250.44
532.724	1269.44
532.938	1251.44
533.153	1234.44
533.367	1250.44
533.582	1243.44
533.796	1252.44
534.011	1248.44
534.225	1211.44
534.44	1235.44
534.654	1247.44
534.868	1227.44
535.083	1198.44
535.297	1228.44
535.511	1175.44
535.726	1187.44
535.94	1162.44
536.154	1185.44
536.369	1163.44
536.583	1156.44
536.797	1173.44
537.011	1150.44
537.225	1146.44
537.44	1162.44
537.654	1178.44
537.868	1160.44
538.082	1163.44
538.296	1162.44
538.51	1089.44
538.724	1156.44
538.938	1141.44
539.153	1126.44
539.367	1117.44
539.581	1124.44
539.795	1071.44
540.009	1118.44
540.222	1097.44
540.436	1098.44
540.65	1125.44
540.864	1072.44
541.078	1103.44
541.292	1088.44
541.506	1092.44
541.72	1110.44
541.934	1076.44
542.147	1106.44
542.361	1100.44
542.575	1064.44
542.789	1091.44
543.002	1090.44
543.216	1089.44
543.43	1065.44
543.644	1084.44
543.857	1054.44
544.071	1094.44
544.285	1092.44
544.498	1072.44
544.712	1098.44
544.925	1074.44
545.139	1107.44
545.352	1126.44
545.566	1115.44
545.779	1096.44
545.993	1106.44
546.206	1096.44
546.42	1090.44
546.633	1098.44
546.847	1135.44
547.06	1110.44
547.274	1120.44
547.487	1120.44
547.7	1119.44
547.914	1114.44
548.127	1114.44
548.34	1123.44
548.554	1109.44
548.767	1115.44
548.98	1082.44
549.193	1127.44
549.407	1106.44
549.62	1137.44
549.833	1144.44
550.046	1158.44
550.259	1129.44
550.473	1108.44
550.686	1092.44
550.899	1123.44
551.112	1070.44
551.325	1089.44
551.538	1101.44
551.751	1096.44
551.964	1136.44
552.177	1090.44
552.39	1133.44
552.603	1154.44
552.816	1156.44
553.029	1172.44
553.242	1191.44
553.455	1188.44
553.667	1188.44
553.88	1187.44
554.093	1160.44
554.306	1119.44
554.519	1122.44
554.732	1092.44
554.944	1074.44
555.157	1054.44
555.37	1033.44
555.583	1043.44
555.795	1030.44
556.008	1009.44
556.221	998.44
556.433	1004.44
556.646	983.44
556.859	971.44
557.071	969.44
557.284	954.44
557.496	964.44
557.709	963.44
557.921	951.44
558.134	948.44
558.346	926.44
558.559	931.44
558.771	952.44
558.984	946.44
559.196	945.44
559.409	918.44
559.621	934.44
559.833	912.44
560.046	916.44
560.258	921.44
560.47	903.44
560.683	930.44
560.895	917.44
561.107	906.44
561.32	932.44
561.532	950.44
561.744	946.44
561.956	911.44
562.168	922.44
562.381	921.44
562.593	945.44
562.805	889.44
563.017	915.44
563.229	924.44
563.441	925.44
563.653	939.44
563.865	953.44
564.077	960.44
564.289	940.44
564.501	972.44
564.713	1011.44
564.925	990.44
565.137	1004.44
565.349	1044.44
565.561	1063.44
565.773	1082.44
565.985	1139.44
566.197	1200.44
566.408	1241.44
566.62	1362.44
566.832	1414.44
567.044	1446.44
567.255	1481.44
567.467	1483.44
567.679	1523.44
567.891	1614.44
568.102	1590.44
568.314	1528.44
568.526	1410.44
568.737	1351.44
568.949	1262.44
569.161	1161.44
569.372	1097.44
569.584	1052.44
569.795	1011.44
570.007	975.44
570.218	963.44
570.43	969.44
570.641	942.44
570.853	933.44
571.064	943.44
571.276	930.44
571.487	914.44
571.698	879.44
571.91	881.44
572.121	821.44
572.333	825.44
572.544	811.44
572.755	814.44
572.966	794.44
573.178	773.44
573.389	791.44
573.6	774.44
573.811	768.44
574.023	755.44
574.234	746.44
574.445	752.44
574.656	747.44
574.867	728.44
575.078	738.44
575.289	757.44
575.501	731.44
575.712	729.44
575.923	710.44
576.134	691.44
576.345	712.44
576.556	712.44
576.767	699.44
576.978	690.44
577.188	698.44
577.399	683.44
577.61	663.44
577.821	675.44
578.032	663.44
578.243	661.44
578.454	678.44
578.665	694.44
578.875	687.44
579.086	656.44
579.297	673.44
579.508	662.44
579.718	638.44
579.929	648.44
580.14	635.44
580.35	625.44
580.561	652.44
580.772	636.44
580.982	650.44
581.193	632.44
581.403	644.44
581.614	634.44
581.825	651.44
582.035	652.44
582.246	611.44
582.456	594.44
582.667	619.44
582.877	656.44
583.087	594.44
583.298	627.44
583.508	626.44
583.719	616.44
583.929	634.44
584.139	607.44
584.35	611.44
584.56	600.44
584.77	604.44
584.981	594.44
585.191	598.44
585.401	602.44
585.611	588.44
585.821	596.44
586.032	597.44
586.242	594.44
586.452	608.44
586.662	609.44
586.872	606.44
587.082	598.44
587.292	610.44
587.502	579.44
587.713	585.44
587.923	586.44
588.133	599.44
588.343	577.44
588.553	589.44
588.762	594.44
588.972	577.44
589.182	616.44
589.392	600.44
589.602	618.44
589.812	616.44
590.022	591.44
590.232	582.44
590.441	590.44
590.651	599.44
590.861	618.44
591.071	606.44
591.281	624.44
591.49	609.44
591.7	626.44
591.91	630.44
592.119	643.44
592.329	646.44
592.539	644.44
592.748	651.44
592.958	701.44
593.167	721.44
593.377	705.44
593.587	723.44
593.796	741.44
594.006	726.44
594.215	734.44
594.424	718.44
594.634	706.44
594.843	675.44
595.053	668.44
595.262	636.44
595.472	642.44
595.681	631.44
595.89	608.44
596.1	583.44
596.309	577.44
596.518	551.44
596.727	546.44
596.937	548.44
597.146	577.44
597.355	559.44
597.564	526.44
597.774	521.44
597.983	510.44
598.192	510.44
598.401	531.44
598.61	507.44
598.819	522.44
599.028	502.44
599.237	482.44
599.446	490.44
599.655	508.44
599.864	517.44
600.073	511.44
600.282	518.44
600.491	484.44
600.7	481.44
600.909	490.44
601.118	466.44
601.327	499.44
601.536	476.44
601.745	478.44
601.953	462.44
602.162	491.44
602.371	466.44
602.58	478.44
602.789	471.44
602.997	452.44
603.206	464.44
603.415	470.44
603.623	459.44
603.832	428.44
604.041	477.44
604.249	468.44
604.458	459.44
604.666	460.44
604.875	460.44
605.084	443.44
605.292	438.44
605.501	465.44
605.709	447.44
605.918	465.44
606.126	446.44
606.334	427.44
606.543	426.44
606.751	433.44
606.96	438.44
607.168	449.44
607.376	451.44
607.585	465.44
607.793	456.44
608.001	443.44
608.21	438.44
608.418	440.44
608.626	433.44
608.834	441.44
609.043	435.44
609.251	432.44
609.459	424.44
609.667	445.44
609.875	415.44
610.083	420.44
610.291	434.44
610.499	423.44
610.707	425.44
610.916	423.44
611.124	438.44
611.332	425.44
611.54	388.44
611.748	432.44
611.955	413.44
612.163	412.44
612.371	411.44
612.579	424.44
612.787	417.44
612.995	410.44
613.203	404.44
613.411	405.44
613.618	404.44
613.826	421.44
614.034	422.44
614.242	403.44
614.449	399.44
614.657	402.44
614.865	421.44
615.072	424.44
615.28	413.44
615.488	402.44
615.695	402.44
615.903	404.44
616.111	433.44
616.318	428.44
616.526	439.44
616.733	404.44
616.941	414.44
617.148	405.44
617.356	399.44
617.563	415.44
617.771	404.44
617.978	419.44
618.185	395.44
618.393	430.44
618.6	406.44
618.807	395.44
619.015	397.44
619.222	421.44
619.429	410.44
619.637	400.44
619.844	389.44
620.051	402.44
620.258	404.44
620.466	388.44
620.673	381.44
620.88	390.44
621.087	370.44
621.294	382.44
621.501	367.44
621.708	378.44
621.915	378.44
622.122	370.44
622.329	362.44
622.536	393.44
622.743	351.44
622.95	372.44
623.157	362.44
623.364	361.44
623.571	355.44
623.778	380.44
623.985	363.44
624.192	368.44
624.399	363.44
624.606	353.44
624.812	343.44
625.019	354.44
625.226	359.44
625.433	350.44
625.639	354.44
625.846	329.44
626.053	352.44
626.259	344.44
626.466	358.44
626.673	361.44
626.879	342.44
627.086	369.44
627.293	345.44
627.499	341.44
627.706	348.44
627.912	326.44
628.119	360.44
628.325	351.44
628.532	347.44
628.738	340.44
628.945	339.44
629.151	333.44
629.357	334.44
629.564	326.44
629.77	323.44
629.976	328.44
630.183	305.44
630.389	336.44
630.595	332.44
630.802	329.44
631.008	315.44
631.214	318.44
631.42	319.44
631.627	315.44
631.833	312.44
632.039	306.44
632.245	322.44
632.451	299.44
632.657	314.44
632.863	293.44
633.069	307.44
633.275	319.44
633.481	294.44
633.688	295.44
633.893	297.44
634.099	307.44
634.305	321.44
634.511	313.44
634.717	308.44
634.923	296.44
635.129	298.44
635.335	299.44
635.541	311.44
635.747	288.44
635.952	303.44
636.158	290.44
636.364	300.44
636.57	290.44
636.775	307.44
636.981	295.44
637.187	288.44
637.392	325.44
637.598	293.44
637.804	299.44
638.009	304.44
638.215	317.44
638.421	278.44
638.626	263.44
638.832	277.44
639.037	289.44
639.243	267.44
639.448	302.44
639.654	304.44
639.859	275.44
640.065	276.44
640.27	277.44
640.475	281.44
640.681	290.44
640.886	282.44
641.091	270.44
641.297	280.44
641.502	260.44
641.707	282.44
641.913	270.44
642.118	282.44
642.323	280.44
642.528	268.44
642.733	277.44
642.939	251.44
643.144	266.44
643.349	265.44
643.554	264.44
643.759	274.44
643.964	282.44
644.169	266.44
644.374	274.44
644.579	262.44
644.784	274.44
644.989	277.44
645.194	280.44
645.399	253.44
645.604	282.44
645.809	282.44
646.014	279.44
646.219	274.44
646.423	278.44
646.628	274.44
646.833	293.44
647.038	277.44
647.243	299.44
647.447	279.44
647.652	293.44
647.857	291.44
648.062	286.44
648.266	304.44
648.471	302.44
648.676	299.44
648.88	299.44
649.085	290.44
649.289	280.44
649.494	279.44
649.698	303.44
649.903	274.44
650.107	262.44
650.312	279.44
650.516	278.44
650.721	279.44
650.925	269.44
651.13	283.44
651.334	258.44
651.539	274.44
651.743	277.44
651.947	269.44
652.152	272.44
652.356	263.44
652.56	250.44
652.764	254.44
652.969	252.44
653.173	262.44
653.377	260.44
653.581	250.44
653.785	260.44
653.99	257.44
654.194	257.44
654.398	254.44
654.602	275.44
654.806	284.44
655.01	275.44
655.214	278.44
655.418	302.44
655.622	299.44
655.826	328.44
656.03	332.44
656.234	370.44
656.438	394.44
656.642	404.44
656.846	377.44
657.049	310.44
657.253	287.44
657.457	266.44
657.661	242.44
657.865	231.44
658.068	201.44
658.272	179.44
658.476	183.44
658.68	180.44
658.883	165.44
659.087	153.44
659.291	149.44
659.494	133.44
659.698	135.44
659.901	126.44
660.105	112.44
660.309	125.44
660.512	118.44
660.716	107.44
660.919	112.44
661.123	110.44
661.326	87.44
661.53	99.44
661.733	87.44
661.936	79.44
662.14	106.44
662.343	90.44
662.546	90.44
662.75	88.44
662.953	97.44
663.156	98.44
663.36	90.44
663.563	82.44
663.766	83.44
663.969	82.44
664.173	89.44
664.376	84.44
664.579	82.44
664.782	81.44
664.985	77.44
665.188	93.44
665.391	87.44
665.594	75.44
665.797	81.44
666	94.44
666.203	80.44
666.406	81.44
666.609	62.44
666.812	74.44
667.015	75.44
667.218	100.44
667.421	71.44
667.624	71.44
667.827	90.44
668.03	79.44
668.232	76.44
668.435	87.44
668.638	91.44
668.841	74.44
669.043	81.44
669.246	91.44
669.449	88.44
669.651	78.44
669.854	76.44
670.057	67.44
670.259	77.44
670.462	75.44
670.665	75.44
670.867	86.44
671.07	84.44
671.272	76.44
671.475	88.44
671.677	78.44
671.88	76.44
672.082	89.44
672.284	89.44
672.487	94.44
672.689	79.44
672.892	81.44
