Data from NiCl2@0.25M.TitratingCurve.Agarose3%dH2O.NegLispCup.LampEnergy10.LIBS07252019_HRD10591_18-23-58-573.txt Node
Date: Thu Jul 25 18:23:58 EDT 2019
User: cochatt
Spectrometer: HR+D1059
Trigger mode: 1
Integration Time (sec): 1.000000E-1
Scans to average: 1
Electric dark correction enabled: true
Nonlinearity correction enabled: false
Boxcar width: 0
XAxis mode: Wavelengths
Number of Pixels in Spectrum: 2048
>>>>>Begin Spectral Data<<<<<
223.165	-15.75
223.4	-15.75
223.635	-15.75
223.869	-19.75
224.104	-33.75
224.338	-16.75
224.573	-11.75
224.808	-7.75
225.042	-8.75
225.277	-0.75
225.511	-1.75
225.746	10.25
225.98	7.25
226.215	10.25
226.449	26.25
226.683	21.25
226.918	11.25
227.152	30.25
227.387	44.25
227.621	40.25
227.856	58.25
228.09	60.25
228.324	53.25
228.559	61.25
228.793	69.25
229.027	107.25
229.262	101.25
229.496	110.25
229.73	127.25
229.964	109.25
230.199	124.25
230.433	132.25
230.667	125.25
230.901	134.25
231.136	124.25
231.37	136.25
231.604	140.25
231.838	148.25
232.072	152.25
232.306	156.25
232.541	141.25
232.775	148.25
233.009	157.25
233.243	138.25
233.477	154.25
233.711	146.25
233.945	136.25
234.179	134.25
234.413	159.25
234.647	167.25
234.881	150.25
235.115	152.25
235.349	140.25
235.583	140.25
235.817	168.25
236.051	152.25
236.285	142.25
236.519	163.25
236.753	152.25
236.987	150.25
237.221	140.25
237.455	141.25
237.689	164.25
237.922	173.25
238.156	160.25
238.39	163.25
238.624	168.25
238.858	167.25
239.091	148.25
239.325	161.25
239.559	164.25
239.793	155.25
240.027	173.25
240.26	181.25
240.494	173.25
240.728	183.25
240.961	169.25
241.195	181.25
241.429	186.25
241.662	159.25
241.896	180.25
242.13	182.25
242.363	183.25
242.597	187.25
242.83	190.25
243.064	191.25
243.298	192.25
243.531	190.25
243.765	187.25
243.998	197.25
244.232	192.25
244.465	186.25
244.699	207.25
244.932	212.25
245.166	189.25
245.399	211.25
245.633	202.25
245.866	202.25
246.099	200.25
246.333	206.25
246.566	204.25
246.8	219.25
247.033	219.25
247.266	204.25
247.5	247.25
247.733	229.25
247.966	222.25
248.2	223.25
248.433	225.25
248.666	236.25
248.899	228.25
249.133	230.25
249.366	223.25
249.599	240.25
249.832	255.25
250.066	219.25
250.299	228.25
250.532	217.25
250.765	226.25
250.998	236.25
251.231	230.25
251.465	253.25
251.698	235.25
251.931	250.25
252.164	238.25
252.397	254.25
252.63	248.25
252.863	278.25
253.096	265.25
253.329	253.25
253.562	234.25
253.795	230.25
254.028	264.25
254.261	270.25
254.494	262.25
254.727	264.25
254.96	256.25
255.193	270.25
255.426	259.25
255.659	266.25
255.892	256.25
256.124	263.25
256.357	264.25
256.59	266.25
256.823	260.25
257.056	275.25
257.289	274.25
257.521	279.25
257.754	291.25
257.987	273.25
258.22	274.25
258.452	267.25
258.685	280.25
258.918	292.25
259.151	297.25
259.383	272.25
259.616	293.25
259.849	307.25
260.081	280.25
260.314	287.25
260.547	321.25
260.779	312.25
261.012	296.25
261.244	294.25
261.477	302.25
261.71	313.25
261.942	295.25
262.175	314.25
262.407	305.25
262.64	313.25
262.872	295.25
263.105	327.25
263.337	314.25
263.57	321.25
263.802	313.25
264.035	306.25
264.267	316.25
264.499	308.25
264.732	326.25
264.964	312.25
265.197	312.25
265.429	325.25
265.661	326.25
265.894	333.25
266.126	343.25
266.358	308.25
266.591	320.25
266.823	339.25
267.055	342.25
267.287	332.25
267.52	328.25
267.752	343.25
267.984	327.25
268.216	331.25
268.448	343.25
268.681	333.25
268.913	336.25
269.145	340.25
269.377	343.25
269.609	355.25
269.841	348.25
270.073	336.25
270.306	358.25
270.538	342.25
270.77	357.25
271.002	350.25
271.234	346.25
271.466	353.25
271.698	363.25
271.93	346.25
272.162	349.25
272.394	348.25
272.626	358.25
272.858	366.25
273.09	363.25
273.322	386.25
273.553	376.25
273.785	375.25
274.017	358.25
274.249	380.25
274.481	366.25
274.713	362.25
274.945	372.25
275.176	388.25
275.408	371.25
275.64	387.25
275.872	381.25
276.104	399.25
276.335	370.25
276.567	377.25
276.799	373.25
277.031	401.25
277.262	401.25
277.494	405.25
277.726	401.25
277.957	388.25
278.189	396.25
278.421	400.25
278.652	404.25
278.884	400.25
279.115	405.25
279.347	428.25
279.579	402.25
279.81	412.25
280.042	409.25
280.273	415.25
280.505	411.25
280.736	404.25
280.968	421.25
281.199	410.25
281.431	390.25
281.662	429.25
281.894	426.25
282.125	417.25
282.356	422.25
282.588	432.25
282.819	431.25
283.051	428.25
283.282	430.25
283.513	456.25
283.745	444.25
283.976	446.25
284.207	443.25
284.439	438.25
284.67	456.25
284.901	475.25
285.132	443.25
285.364	454.25
285.595	449.25
285.826	447.25
286.057	447.25
286.288	454.25
286.52	452.25
286.751	447.25
286.982	464.25
287.213	459.25
287.444	455.25
287.675	446.25
287.906	459.25
288.138	477.25
288.369	462.25
288.6	484.25
288.831	475.25
289.062	468.25
289.293	472.25
289.524	489.25
289.755	488.25
289.986	478.25
290.217	469.25
290.448	476.25
290.679	479.25
290.91	477.25
291.141	470.25
291.371	480.25
291.602	487.25
291.833	474.25
292.064	491.25
292.295	469.25
292.526	475.25
292.757	484.25
292.987	466.25
293.218	476.25
293.449	502.25
293.68	481.25
293.91	486.25
294.141	497.25
294.372	462.25
294.603	504.25
294.833	505.25
295.064	499.25
295.295	490.25
295.525	491.25
295.756	495.25
295.987	505.25
296.217	514.25
296.448	499.25
296.679	509.25
296.909	492.25
297.14	518.25
297.37	536.25
297.601	528.25
297.831	526.25
298.062	514.25
298.292	521.25
298.523	526.25
298.753	546.25
298.984	516.25
299.214	517.25
299.445	509.25
299.675	548.25
299.905	549.25
300.136	540.25
300.366	578.25
300.597	528.25
300.827	564.25
301.057	533.25
301.288	555.25
301.518	566.25
301.748	563.25
301.979	564.25
302.209	585.25
302.439	564.25
302.669	542.25
302.9	526.25
303.13	539.25
303.36	540.25
303.59	546.25
303.82	543.25
304.051	551.25
304.281	560.25
304.511	538.25
304.741	568.25
304.971	559.25
305.201	533.25
305.431	551.25
305.661	548.25
305.891	559.25
306.121	558.25
306.352	546.25
306.582	534.25
306.812	524.25
307.042	530.25
307.272	537.25
307.502	524.25
307.731	563.25
307.961	549.25
308.191	574.25
308.421	557.25
308.651	536.25
308.881	550.25
309.111	548.25
309.341	525.25
309.571	525.25
309.8	547.25
310.03	524.25
310.26	539.25
310.49	526.25
310.72	552.25
310.949	542.25
311.179	552.25
311.409	566.25
311.639	576.25
311.868	554.25
312.098	543.25
312.328	562.25
312.557	550.25
312.787	576.25
313.017	569.25
313.246	575.25
313.476	568.25
313.706	585.25
313.935	602.25
314.165	588.25
314.394	595.25
314.624	598.25
314.853	580.25
315.083	562.25
315.312	595.25
315.542	581.25
315.771	549.25
316.001	562.25
316.23	565.25
316.46	587.25
316.689	590.25
316.919	559.25
317.148	564.25
317.377	571.25
317.607	583.25
317.836	547.25
318.065	582.25
318.295	559.25
318.524	577.25
318.753	575.25
318.983	575.25
319.212	558.25
319.441	566.25
319.67	567.25
319.9	567.25
320.129	544.25
320.358	564.25
320.587	566.25
320.816	574.25
321.046	585.25
321.275	562.25
321.504	584.25
321.733	555.25
321.962	575.25
322.191	582.25
322.42	574.25
322.649	568.25
322.878	597.25
323.108	566.25
323.337	597.25
323.566	591.25
323.795	587.25
324.024	580.25
324.253	599.25
324.482	601.25
324.71	598.25
324.939	578.25
325.168	589.25
325.397	602.25
325.626	620.25
325.855	626.25
326.084	618.25
326.313	623.25
326.542	657.25
326.77	630.25
326.999	613.25
327.228	602.25
327.457	603.25
327.686	628.25
327.914	623.25
328.143	627.25
328.372	628.25
328.6	645.25
328.829	632.25
329.058	639.25
329.287	622.25
329.515	626.25
329.744	648.25
329.972	627.25
330.201	644.25
330.43	628.25
330.658	647.25
330.887	648.25
331.115	661.25
331.344	662.25
331.572	661.25
331.801	683.25
332.03	713.25
332.258	708.25
332.486	723.25
332.715	717.25
332.943	746.25
333.172	794.25
333.4	829.25
333.629	860.25
333.857	835.25
334.085	841.25
334.314	809.25
334.542	800.25
334.771	791.25
334.999	793.25
335.227	780.25
335.455	790.25
335.684	772.25
335.912	786.25
336.14	742.25
336.369	743.25
336.597	746.25
336.825	761.25
337.053	745.25
337.281	731.25
337.51	708.25
337.738	708.25
337.966	711.25
338.194	695.25
338.422	670.25
338.65	709.25
338.878	671.25
339.106	672.25
339.334	697.25
339.562	662.25
339.79	655.25
340.018	650.25
340.246	670.25
340.474	666.25
340.702	668.25
340.93	677.25
341.158	667.25
341.386	660.25
341.614	677.25
341.842	655.25
342.07	680.25
342.298	644.25
342.526	671.25
342.754	658.25
342.981	652.25
343.209	668.25
343.437	698.25
343.665	722.25
343.893	795.25
344.12	815.25
344.348	787.25
344.576	702.25
344.804	710.25
345.031	697.25
345.259	672.25
345.487	661.25
345.714	646.25
345.942	648.25
346.17	646.25
346.397	649.25
346.625	636.25
346.853	634.25
347.08	635.25
347.308	648.25
347.535	631.25
347.763	648.25
347.99	650.25
348.218	624.25
348.445	633.25
348.673	630.25
348.9	633.25
349.128	622.25
349.355	619.25
349.583	648.25
349.81	627.25
350.037	631.25
350.265	618.25
350.492	634.25
350.72	596.25
350.947	592.25
351.174	617.25
351.402	618.25
351.629	631.25
351.856	622.25
352.083	594.25
352.311	622.25
352.538	606.25
352.765	650.25
352.992	612.25
353.22	602.25
353.447	603.25
353.674	613.25
353.901	627.25
354.128	604.25
354.355	630.25
354.583	619.25
354.81	605.25
355.037	624.25
355.264	605.25
355.491	608.25
355.718	618.25
355.945	635.25
356.172	636.25
356.399	616.25
356.626	606.25
356.853	621.25
357.08	626.25
357.307	620.25
357.534	599.25
357.761	602.25
357.988	608.25
358.215	605.25
358.441	628.25
358.668	612.25
358.895	626.25
359.122	591.25
359.349	615.25
359.576	609.25
359.802	615.25
360.029	609.25
360.256	622.25
360.483	637.25
360.709	592.25
360.936	615.25
361.163	606.25
361.39	618.25
361.616	609.25
361.843	604.25
362.07	626.25
362.296	621.25
362.523	601.25
362.749	611.25
362.976	590.25
363.203	605.25
363.429	601.25
363.656	621.25
363.882	597.25
364.109	619.25
364.335	595.25
364.562	601.25
364.788	611.25
365.015	600.25
365.241	623.25
365.468	623.25
365.694	591.25
365.92	591.25
366.147	596.25
366.373	627.25
366.599	606.25
366.826	588.25
367.052	626.25
367.278	626.25
367.505	623.25
367.731	638.25
367.957	594.25
368.184	628.25
368.41	616.25
368.636	614.25
368.862	627.25
369.089	625.25
369.315	618.25
369.541	634.25
369.767	648.25
369.993	640.25
370.219	678.25
370.445	632.25
370.672	666.25
370.898	652.25
371.124	661.25
371.35	661.25
371.576	656.25
371.802	671.25
372.028	668.25
372.254	646.25
372.48	679.25
372.706	687.25
372.932	723.25
373.158	688.25
373.384	688.25
373.61	679.25
373.835	670.25
374.061	677.25
374.287	679.25
374.513	697.25
374.739	708.25
374.965	718.25
375.191	740.25
375.416	725.25
375.642	698.25
375.868	710.25
376.094	673.25
376.319	677.25
376.545	665.25
376.771	678.25
376.997	674.25
377.222	672.25
377.448	679.25
377.674	654.25
377.899	661.25
378.125	653.25
378.35	649.25
378.576	662.25
378.802	651.25
379.027	649.25
379.253	667.25
379.478	645.25
379.704	653.25
379.929	646.25
380.155	654.25
380.38	644.25
380.606	647.25
380.831	665.25
381.057	678.25
381.282	652.25
381.507	674.25
381.733	661.25
381.958	644.25
382.184	667.25
382.409	694.25
382.634	695.25
382.86	698.25
383.085	721.25
383.31	720.25
383.535	731.25
383.761	732.25
383.986	744.25
384.211	758.25
384.436	762.25
384.662	774.25
384.887	794.25
385.112	808.25
385.337	817.25
385.562	804.25
385.787	802.25
386.013	824.25
386.238	812.25
386.463	814.25
386.688	830.25
386.913	792.25
387.138	772.25
387.363	783.25
387.588	742.25
387.813	780.25
388.038	783.25
388.263	785.25
388.488	794.25
388.713	786.25
388.938	803.25
389.163	751.25
389.387	788.25
389.612	758.25
389.837	796.25
390.062	746.25
390.287	784.25
390.512	800.25
390.736	782.25
390.961	775.25
391.186	799.25
391.411	834.25
391.636	836.25
391.86	885.25
392.085	902.25
392.31	886.25
392.534	907.25
392.759	872.25
392.984	850.25
393.208	832.25
393.433	832.25
393.658	865.25
393.882	843.25
394.107	868.25
394.331	850.25
394.556	843.25
394.78	871.25
395.005	852.25
395.229	853.25
395.454	893.25
395.678	920.25
395.903	917.25
396.127	895.25
396.352	858.25
396.576	858.25
396.801	852.25
397.025	868.25
397.249	865.25
397.474	891.25
397.698	890.25
397.922	927.25
398.147	887.25
398.371	909.25
398.595	942.25
398.82	994.25
399.044	1051.25
399.268	1172.25
399.492	1402.25
399.717	1567.25
399.941	1514.25
400.165	1308.25
400.389	1246.25
400.613	1132.25
400.837	1042.25
401.062	1035.25
401.286	1013.25
401.51	1000.25
401.734	991.25
401.958	1038.25
402.182	1028.25
402.406	1022.25
402.63	1049.25
402.854	1088.25
403.078	1070.25
403.302	1108.25
403.526	1119.25
403.75	1145.25
403.974	1186.25
404.198	1179.25
404.422	1174.25
404.645	1157.25
404.869	1158.25
405.093	1132.25
405.317	1131.25
405.541	1097.25
405.765	1118.25
405.988	1089.25
406.212	1096.25
406.436	1064.25
406.66	1138.25
406.883	1126.25
407.107	1208.25
407.331	1267.25
407.555	1309.25
407.778	1332.25
408.002	1287.25
408.226	1253.25
408.449	1239.25
408.673	1159.25
408.896	1158.25
409.12	1099.25
409.344	1147.25
409.567	1143.25
409.791	1155.25
410.014	1161.25
410.238	1102.25
410.461	1115.25
410.685	1117.25
410.908	1083.25
411.132	1107.25
411.355	1032.25
411.578	1053.25
411.802	1031.25
412.025	1046.25
412.249	1085.25
412.472	1050.25
412.695	1019.25
412.919	1033.25
413.142	1002.25
413.365	987.25
413.589	1034.25
413.812	1018.25
414.035	978.25
414.258	992.25
414.482	1011.25
414.705	1048.25
414.928	1019.25
415.151	1020.25
415.374	1002.25
415.597	1019.25
415.821	992.25
416.044	971.25
416.267	1001.25
416.49	978.25
416.713	958.25
416.936	971.25
417.159	979.25
417.382	995.25
417.605	1000.25
417.828	998.25
418.051	1001.25
418.274	997.25
418.497	996.25
418.72	1017.25
418.943	1010.25
419.166	1084.25
419.389	1147.25
419.611	1124.25
419.834	1108.25
420.057	1063.25
420.28	1013.25
420.503	979.25
420.726	1010.25
420.948	990.25
421.171	995.25
421.394	994.25
421.617	968.25
421.839	1000.25
422.062	1002.25
422.285	990.25
422.507	1028.25
422.73	1016.25
422.953	1042.25
423.175	1033.25
423.398	1036.25
423.621	1043.25
423.843	1066.25
424.066	1079.25
424.288	1043.25
424.511	1036.25
424.733	1037.25
424.956	1006.25
425.178	1007.25
425.401	989.25
425.623	974.25
425.846	975.25
426.068	956.25
426.291	947.25
426.513	952.25
426.735	939.25
426.958	935.25
427.18	895.25
427.402	924.25
427.625	894.25
427.847	878.25
428.069	869.25
428.292	911.25
428.514	870.25
428.736	876.25
428.958	890.25
429.181	860.25
429.403	861.25
429.625	884.25
429.847	864.25
430.069	856.25
430.292	842.25
430.514	834.25
430.736	870.25
430.958	852.25
431.18	853.25
431.402	847.25
431.624	865.25
431.846	866.25
432.068	893.25
432.29	890.25
432.512	858.25
432.734	873.25
432.956	863.25
433.178	855.25
433.4	860.25
433.622	875.25
433.844	898.25
434.066	902.25
434.287	878.25
434.509	913.25
434.731	950.25
434.953	1015.25
435.175	998.25
435.397	970.25
435.618	920.25
435.84	907.25
436.062	878.25
436.284	862.25
436.505	865.25
436.727	890.25
436.949	868.25
437.17	882.25
437.392	841.25
437.614	831.25
437.835	836.25
438.057	818.25
438.278	838.25
438.5	862.25
438.721	866.25
438.943	832.25
439.165	841.25
439.386	875.25
439.608	862.25
439.829	832.25
440.05	884.25
440.272	886.25
440.493	890.25
440.715	891.25
440.936	894.25
441.158	926.25
441.379	933.25
441.6	1002.25
441.822	986.25
442.043	984.25
442.264	962.25
442.486	965.25
442.707	966.25
442.928	971.25
443.149	992.25
443.371	953.25
443.592	983.25
443.813	997.25
444.034	998.25
444.255	1043.25
444.476	1056.25
444.698	1164.25
444.919	1205.25
445.14	1232.25
445.361	1110.25
445.582	1019.25
445.803	948.25
446.024	972.25
446.245	907.25
446.466	877.25
446.687	891.25
446.908	876.25
447.129	869.25
447.35	858.25
447.571	816.25
447.792	837.25
448.013	836.25
448.234	794.25
448.455	796.25
448.675	803.25
448.896	786.25
449.117	783.25
449.338	820.25
449.559	812.25
449.779	788.25
450	810.25
450.221	782.25
450.442	838.25
450.662	830.25
450.883	824.25
451.104	807.25
451.324	815.25
451.545	792.25
451.766	806.25
451.986	805.25
452.207	795.25
452.428	798.25
452.648	820.25
452.869	809.25
453.089	790.25
453.31	788.25
453.53	769.25
453.751	786.25
453.971	781.25
454.192	779.25
454.412	758.25
454.633	778.25
454.853	765.25
455.073	737.25
455.294	749.25
455.514	743.25
455.734	741.25
455.955	703.25
456.175	747.25
456.395	766.25
456.616	757.25
456.836	741.25
457.056	747.25
457.276	745.25
457.497	768.25
457.717	746.25
457.937	748.25
458.157	798.25
458.377	784.25
458.598	795.25
458.818	806.25
459.038	831.25
459.258	848.25
459.478	911.25
459.698	929.25
459.918	895.25
460.138	953.25
460.358	997.25
460.578	1032.25
460.798	1036.25
461.018	1048.25
461.238	1065.25
461.458	1060.25
461.678	1046.25
461.898	1037.25
462.118	1068.25
462.338	1127.25
462.558	1129.25
462.777	1173.25
462.997	1270.25
463.217	1416.25
463.437	1410.25
463.657	1290.25
463.876	1246.25
464.096	1226.25
464.316	1202.25
464.536	1236.25
464.755	1214.25
464.975	1120.25
465.195	1066.25
465.414	1029.25
465.634	937.25
465.854	957.25
466.073	932.25
466.293	899.25
466.512	895.25
466.732	856.25
466.951	878.25
467.171	868.25
467.391	828.25
467.61	842.25
467.829	857.25
468.049	858.25
468.268	812.25
468.488	808.25
468.707	804.25
468.927	796.25
469.146	811.25
469.365	835.25
469.585	847.25
469.804	841.25
470.023	860.25
470.243	872.25
470.462	871.25
470.681	865.25
470.901	883.25
471.12	869.25
471.339	847.25
471.558	841.25
471.777	831.25
471.997	825.25
472.216	788.25
472.435	808.25
472.654	788.25
472.873	790.25
473.092	810.25
473.311	812.25
473.53	794.25
473.749	758.25
473.968	761.25
474.187	790.25
474.406	790.25
474.625	792.25
474.844	788.25
475.063	774.25
475.282	784.25
475.501	792.25
475.72	786.25
475.939	806.25
476.158	805.25
476.377	822.25
476.596	852.25
476.814	826.25
477.033	825.25
477.252	826.25
477.471	880.25
477.69	901.25
477.908	920.25
478.127	949.25
478.346	943.25
478.564	969.25
478.783	932.25
479.002	988.25
479.22	1020.25
479.439	1011.25
479.658	971.25
479.876	985.25
480.095	994.25
480.313	1062.25
480.532	1068.25
480.751	1060.25
480.969	996.25
481.188	988.25
481.406	947.25
481.624	917.25
481.843	916.25
482.061	910.25
482.28	901.25
482.498	910.25
482.717	878.25
482.935	887.25
483.153	893.25
483.372	898.25
483.59	895.25
483.808	915.25
484.027	889.25
484.245	930.25
484.463	906.25
484.681	938.25
484.9	942.25
485.118	925.25
485.336	940.25
485.554	934.25
485.772	952.25
485.99	931.25
486.209	958.25
486.427	939.25
486.645	934.25
486.863	938.25
487.081	946.25
487.299	950.25
487.517	934.25
487.735	932.25
487.953	955.25
488.171	966.25
488.389	913.25
488.607	935.25
488.825	925.25
489.043	927.25
489.261	931.25
489.479	949.25
489.696	930.25
489.914	956.25
490.132	967.25
490.35	959.25
490.568	966.25
490.786	940.25
491.003	985.25
491.221	942.25
491.439	975.25
491.657	934.25
491.874	950.25
492.092	973.25
492.31	979.25
492.527	971.25
492.745	994.25
492.963	994.25
493.18	1007.25
493.398	984.25
493.615	1022.25
493.833	974.25
494.05	995.25
494.268	989.25
494.485	1012.25
494.703	995.25
494.92	1030.25
495.138	1014.25
495.355	1043.25
495.573	1026.25
495.79	1017.25
496.008	1045.25
496.225	1007.25
496.442	1043.25
496.66	1044.25
496.877	1068.25
497.094	1098.25
497.312	1102.25
497.529	1120.25
497.746	1146.25
497.963	1177.25
498.181	1220.25
498.398	1282.25
498.615	1412.25
498.832	1432.25
499.049	1573.25
499.267	1679.25
499.484	1844.25
499.701	2088.25
499.918	2298.25
500.135	2661.25
500.352	3002.25
500.569	3160.25
500.786	3080.25
501.003	2841.25
501.22	2548.25
501.437	2280.25
501.654	1986.25
501.871	1812.25
502.088	1657.25
502.305	1560.25
502.522	1454.25
502.739	1428.25
502.956	1340.25
503.172	1253.25
503.389	1234.25
503.606	1173.25
503.823	1207.25
504.04	1192.25
504.256	1177.25
504.473	1222.25
504.69	1233.25
504.907	1194.25
505.123	1108.25
505.34	1047.25
505.557	1010.25
505.773	996.25
505.99	973.25
506.207	947.25
506.423	929.25
506.64	912.25
506.856	940.25
507.073	931.25
507.289	898.25
507.506	875.25
507.722	891.25
507.939	898.25
508.155	883.25
508.372	842.25
508.588	857.25
508.805	855.25
509.021	846.25
509.238	857.25
509.454	845.25
509.67	831.25
509.887	832.25
510.103	813.25
510.319	844.25
510.536	822.25
510.752	830.25
510.968	836.25
511.184	806.25
511.401	854.25
511.617	833.25
511.833	823.25
512.049	814.25
512.265	800.25
512.481	782.25
512.698	807.25
512.914	820.25
513.13	834.25
513.346	806.25
513.562	851.25
513.778	830.25
513.994	831.25
514.21	814.25
514.426	842.25
514.642	823.25
514.858	862.25
515.074	846.25
515.29	864.25
515.506	866.25
515.721	856.25
515.937	877.25
516.153	888.25
516.369	907.25
516.585	956.25
516.801	984.25
517.016	1028.25
517.232	1083.25
517.448	1127.25
517.664	1151.25
517.879	1139.25
518.095	1190.25
518.311	1135.25
518.527	1079.25
518.742	1040.25
518.958	988.25
519.173	954.25
519.389	906.25
519.605	926.25
519.82	864.25
520.036	871.25
520.251	846.25
520.467	839.25
520.682	833.25
520.898	823.25
521.113	811.25
521.329	810.25
521.544	815.25
521.76	768.25
521.975	777.25
522.19	790.25
522.406	757.25
522.621	741.25
522.836	770.25
523.052	789.25
523.267	794.25
523.482	744.25
523.698	771.25
523.913	751.25
524.128	747.25
524.343	762.25
524.559	770.25
524.774	746.25
524.989	756.25
525.204	749.25
525.419	736.25
525.634	735.25
525.849	770.25
526.064	758.25
526.28	743.25
526.495	726.25
526.71	748.25
526.925	737.25
527.14	730.25
527.355	702.25
527.57	720.25
527.785	735.25
527.999	735.25
528.214	754.25
528.429	733.25
528.644	748.25
528.859	767.25
529.074	724.25
529.289	738.25
529.503	724.25
529.718	754.25
529.933	730.25
530.148	757.25
530.363	746.25
530.577	710.25
530.792	719.25
531.007	725.25
531.221	732.25
531.436	730.25
531.651	735.25
531.865	745.25
532.08	720.25
532.295	746.25
532.509	730.25
532.724	714.25
532.938	730.25
533.153	722.25
533.367	714.25
533.582	729.25
533.796	718.25
534.011	727.25
534.225	734.25
534.44	720.25
534.654	719.25
534.868	712.25
535.083	720.25
535.297	716.25
535.511	700.25
535.726	688.25
535.94	702.25
536.154	683.25
536.369	703.25
536.583	701.25
536.797	683.25
537.011	709.25
537.225	677.25
537.44	656.25
537.654	669.25
537.868	683.25
538.082	678.25
538.296	675.25
538.51	667.25
538.724	673.25
538.938	674.25
539.153	647.25
539.367	663.25
539.581	651.25
539.795	647.25
540.009	666.25
540.222	657.25
540.436	664.25
540.65	652.25
540.864	668.25
541.078	655.25
541.292	668.25
541.506	667.25
541.72	677.25
541.934	670.25
542.147	687.25
542.361	662.25
542.575	645.25
542.789	651.25
543.002	616.25
543.216	644.25
543.43	648.25
543.644	649.25
543.857	661.25
544.071	653.25
544.285	642.25
544.498	658.25
544.712	670.25
544.925	671.25
545.139	646.25
545.352	682.25
545.566	671.25
545.779	677.25
545.993	685.25
546.206	702.25
546.42	670.25
546.633	667.25
546.847	667.25
547.06	656.25
547.274	677.25
547.487	674.25
547.7	665.25
547.914	696.25
548.127	668.25
548.34	692.25
548.554	685.25
548.767	676.25
548.98	683.25
549.193	666.25
549.407	669.25
549.62	682.25
549.833	715.25
550.046	704.25
550.259	685.25
550.473	656.25
550.686	677.25
550.899	662.25
551.112	648.25
551.325	677.25
551.538	669.25
551.751	645.25
551.964	687.25
552.177	667.25
552.39	674.25
552.603	702.25
552.816	735.25
553.029	740.25
553.242	745.25
553.455	770.25
553.667	713.25
553.88	716.25
554.093	713.25
554.306	734.25
554.519	671.25
554.732	686.25
554.944	655.25
555.157	645.25
555.37	638.25
555.583	621.25
555.795	595.25
556.008	595.25
556.221	617.25
556.433	584.25
556.646	594.25
556.859	627.25
557.071	602.25
557.284	589.25
557.496	580.25
557.709	585.25
557.921	552.25
558.134	569.25
558.346	574.25
558.559	578.25
558.771	571.25
558.984	588.25
559.196	557.25
559.409	549.25
559.621	582.25
559.833	554.25
560.046	562.25
560.258	534.25
560.47	513.25
560.683	549.25
560.895	550.25
561.107	538.25
561.32	564.25
561.532	563.25
561.744	540.25
561.956	551.25
562.168	534.25
562.381	553.25
562.593	560.25
562.805	563.25
563.017	546.25
563.229	556.25
563.441	549.25
563.653	558.25
563.865	547.25
564.077	573.25
564.289	578.25
564.501	604.25
564.713	600.25
564.925	595.25
565.137	619.25
565.349	637.25
565.561	644.25
565.773	642.25
565.985	696.25
566.197	698.25
566.408	776.25
566.62	837.25
566.832	874.25
567.044	914.25
567.255	912.25
567.467	940.25
567.679	1012.25
567.891	1088.25
568.102	1111.25
568.314	1039.25
568.526	908.25
568.737	870.25
568.949	776.25
569.161	727.25
569.372	668.25
569.584	633.25
569.795	602.25
570.007	604.25
570.218	586.25
570.43	587.25
570.641	579.25
570.853	564.25
571.064	586.25
571.276	586.25
571.487	540.25
571.698	534.25
571.91	513.25
572.121	517.25
572.333	504.25
572.544	489.25
572.755	472.25
572.966	468.25
573.178	477.25
573.389	446.25
573.6	451.25
573.811	452.25
574.023	453.25
574.234	470.25
574.445	442.25
574.656	457.25
574.867	469.25
575.078	449.25
575.289	443.25
575.501	431.25
575.712	438.25
575.923	434.25
576.134	447.25
576.345	434.25
576.556	443.25
576.767	418.25
576.978	446.25
577.188	424.25
577.399	421.25
577.61	444.25
577.821	407.25
578.032	428.25
578.243	400.25
578.454	412.25
578.665	394.25
578.875	407.25
579.086	406.25
579.297	418.25
579.508	389.25
579.718	388.25
579.929	412.25
580.14	397.25
580.35	394.25
580.561	401.25
580.772	411.25
580.982	397.25
581.193	399.25
581.403	392.25
581.614	410.25
581.825	388.25
582.035	380.25
582.246	406.25
582.456	402.25
582.667	383.25
582.877	355.25
583.087	386.25
583.298	388.25
583.508	375.25
583.719	371.25
583.929	415.25
584.139	399.25
584.35	394.25
584.56	382.25
584.77	372.25
584.981	388.25
585.191	377.25
585.401	375.25
585.611	386.25
585.821	370.25
586.032	366.25
586.242	365.25
586.452	371.25
586.662	370.25
586.872	379.25
587.082	364.25
587.292	367.25
587.502	373.25
587.713	367.25
587.923	355.25
588.133	364.25
588.343	373.25
588.553	373.25
588.762	372.25
588.972	369.25
589.182	386.25
589.392	378.25
589.602	375.25
589.812	373.25
590.022	367.25
590.232	380.25
590.441	391.25
590.651	365.25
590.861	380.25
591.071	368.25
591.281	382.25
591.49	373.25
591.7	380.25
591.91	418.25
592.119	420.25
592.329	408.25
592.539	413.25
592.748	456.25
592.958	431.25
593.167	450.25
593.377	467.25
593.587	480.25
593.796	478.25
594.006	470.25
594.215	471.25
594.424	493.25
594.634	450.25
594.843	444.25
595.053	418.25
595.262	414.25
595.472	427.25
595.681	403.25
595.89	390.25
596.1	377.25
596.309	367.25
596.518	353.25
596.727	355.25
596.937	348.25
597.146	346.25
597.355	371.25
597.564	353.25
597.774	349.25
597.983	328.25
598.192	339.25
598.401	338.25
598.61	339.25
598.819	327.25
599.028	307.25
599.237	326.25
599.446	314.25
599.655	318.25
599.864	328.25
600.073	322.25
600.282	324.25
600.491	328.25
600.7	312.25
600.909	302.25
601.118	309.25
601.327	302.25
601.536	309.25
601.745	309.25
601.953	304.25
602.162	302.25
602.371	322.25
602.58	293.25
602.789	327.25
602.997	302.25
603.206	298.25
603.415	293.25
603.623	296.25
603.832	306.25
604.041	292.25
604.249	298.25
604.458	302.25
604.666	293.25
604.875	306.25
605.084	290.25
605.292	283.25
605.501	300.25
605.709	279.25
605.918	291.25
606.126	283.25
606.334	280.25
606.543	286.25
606.751	304.25
606.96	283.25
607.168	311.25
607.376	294.25
607.585	277.25
607.793	276.25
608.001	278.25
608.21	275.25
608.418	290.25
608.626	281.25
608.834	277.25
609.043	294.25
609.251	266.25
609.459	276.25
609.667	287.25
609.875	282.25
610.083	291.25
610.291	280.25
610.499	283.25
610.707	262.25
610.916	278.25
611.124	286.25
611.332	276.25
611.54	276.25
611.748	267.25
611.955	269.25
612.163	255.25
612.371	265.25
612.579	281.25
612.787	264.25
612.995	272.25
613.203	269.25
613.411	267.25
613.618	268.25
613.826	278.25
614.034	284.25
614.242	278.25
614.449	269.25
614.657	267.25
614.865	264.25
615.072	273.25
615.28	294.25
615.488	266.25
615.695	269.25
615.903	283.25
616.111	271.25
616.318	282.25
616.526	260.25
616.733	267.25
616.941	277.25
617.148	260.25
617.356	277.25
617.563	260.25
617.771	248.25
617.978	265.25
618.185	272.25
618.393	276.25
618.6	269.25
618.807	251.25
619.015	259.25
619.222	271.25
619.429	278.25
619.637	284.25
619.844	259.25
620.051	265.25
620.258	267.25
620.466	243.25
620.673	253.25
620.88	243.25
621.087	232.25
621.294	248.25
621.501	260.25
621.708	250.25
621.915	275.25
622.122	245.25
622.329	237.25
622.536	244.25
622.743	249.25
622.95	233.25
623.157	243.25
623.364	242.25
623.571	252.25
623.778	269.25
623.985	237.25
624.192	244.25
624.399	237.25
624.606	236.25
624.812	232.25
625.019	222.25
625.226	258.25
625.433	234.25
625.639	232.25
625.846	213.25
626.053	213.25
626.259	233.25
626.466	228.25
626.673	235.25
626.879	222.25
627.086	221.25
627.293	225.25
627.499	223.25
627.706	229.25
627.912	224.25
628.119	235.25
628.325	231.25
628.532	222.25
628.738	218.25
628.945	216.25
629.151	222.25
629.357	229.25
629.564	212.25
629.77	222.25
629.976	221.25
630.183	213.25
630.389	225.25
630.595	217.25
630.802	218.25
631.008	226.25
631.214	221.25
631.42	224.25
631.627	224.25
631.833	213.25
632.039	212.25
632.245	213.25
632.451	226.25
632.657	222.25
632.863	206.25
633.069	198.25
633.275	218.25
633.481	192.25
633.688	214.25
633.893	190.25
634.099	202.25
634.305	211.25
634.511	205.25
634.717	210.25
634.923	186.25
635.129	191.25
635.335	191.25
635.541	202.25
635.747	197.25
635.952	192.25
636.158	214.25
636.364	201.25
636.57	195.25
636.775	193.25
636.981	202.25
637.187	182.25
637.392	197.25
637.598	206.25
637.804	186.25
638.009	199.25
638.215	196.25
638.421	207.25
638.626	195.25
638.832	188.25
639.037	182.25
639.243	188.25
639.448	196.25
639.654	200.25
639.859	186.25
640.065	180.25
640.27	198.25
640.475	168.25
640.681	179.25
640.886	186.25
641.091	180.25
641.297	198.25
641.502	188.25
641.707	170.25
641.913	182.25
642.118	170.25
642.323	186.25
642.528	188.25
642.733	188.25
642.939	187.25
643.144	190.25
643.349	169.25
643.554	192.25
643.759	172.25
643.964	182.25
644.169	194.25
644.374	177.25
644.579	182.25
644.784	191.25
644.989	178.25
645.194	186.25
645.399	181.25
645.604	179.25
645.809	172.25
646.014	176.25
646.219	173.25
646.423	173.25
646.628	188.25
646.833	178.25
647.038	156.25
647.243	192.25
647.447	178.25
647.652	175.25
647.857	200.25
648.062	202.25
648.266	189.25
648.471	195.25
648.676	200.25
648.88	188.25
649.085	169.25
649.289	183.25
649.494	163.25
649.698	166.25
649.903	166.25
650.107	174.25
650.312	171.25
650.516	154.25
650.721	180.25
650.925	170.25
651.13	161.25
651.334	156.25
651.539	188.25
651.743	166.25
651.947	170.25
652.152	173.25
652.356	161.25
652.56	149.25
652.764	161.25
652.969	151.25
653.173	158.25
653.377	154.25
653.581	151.25
653.785	138.25
653.99	154.25
654.194	142.25
654.398	134.25
654.602	139.25
654.806	135.25
655.01	148.25
655.214	164.25
655.418	133.25
655.622	131.25
655.826	139.25
656.03	143.25
656.234	133.25
656.438	118.25
656.642	133.25
656.846	135.25
657.049	124.25
657.253	130.25
657.457	122.25
657.661	122.25
657.865	126.25
658.068	109.25
658.272	118.25
658.476	112.25
658.68	101.25
658.883	115.25
659.087	104.25
659.291	101.25
659.494	102.25
659.698	117.25
659.901	97.25
660.105	111.25
660.309	102.25
660.512	93.25
660.716	101.25
660.919	107.25
661.123	95.25
661.326	98.25
661.53	80.25
661.733	97.25
661.936	83.25
662.14	79.25
662.343	91.25
662.546	86.25
662.75	78.25
662.953	91.25
663.156	85.25
663.36	82.25
663.563	86.25
663.766	97.25
663.969	90.25
664.173	95.25
664.376	89.25
664.579	93.25
664.782	94.25
664.985	93.25
665.188	81.25
665.391	94.25
665.594	84.25
665.797	92.25
666	85.25
666.203	85.25
666.406	80.25
666.609	80.25
666.812	74.25
667.015	92.25
667.218	89.25
667.421	93.25
667.624	78.25
667.827	99.25
668.03	70.25
668.232	84.25
668.435	95.25
668.638	83.25
668.841	86.25
669.043	78.25
669.246	91.25
669.449	81.25
669.651	92.25
669.854	80.25
670.057	85.25
670.259	75.25
670.462	68.25
670.665	77.25
670.867	81.25
671.07	87.25
671.272	85.25
671.475	80.25
671.677	78.25
671.88	91.25
672.082	88.25
672.284	85.25
672.487	81.25
672.689	81.25
672.892	80.25
