Data from NiCl2@0.125M.TitratingCurve.Agarose3%dH2O.NegLispCup.LampEnergy10.LIBS07252019_HRD10591_18-28-27-575.txt Node
Date: Thu Jul 25 18:28:27 EDT 2019
User: cochatt
Spectrometer: HR+D1059
Trigger mode: 1
Integration Time (sec): 1.000000E-1
Scans to average: 1
Electric dark correction enabled: true
Nonlinearity correction enabled: false
Boxcar width: 0
XAxis mode: Wavelengths
Number of Pixels in Spectrum: 2048
>>>>>Begin Spectral Data<<<<<
223.165	-11.19
223.4	-11.19
223.635	-11.19
223.869	-14.19
224.104	-14.19
224.338	-21.19
224.573	-12.19
224.808	-22.19
225.042	-9.19
225.277	-5.19
225.511	-8.19
225.746	-5.19
225.98	1.81
226.215	9.81
226.449	22.81
226.683	33.81
226.918	24.81
227.152	29.81
227.387	47.81
227.621	21.81
227.856	42.81
228.09	40.81
228.324	56.81
228.559	57.81
228.793	85.81
229.027	120.81
229.262	127.81
229.496	123.81
229.73	130.81
229.964	119.81
230.199	143.81
230.433	141.81
230.667	137.81
230.901	140.81
231.136	137.81
231.37	157.81
231.604	155.81
231.838	153.81
232.072	159.81
232.306	164.81
232.541	189.81
232.775	163.81
233.009	167.81
233.243	171.81
233.477	160.81
233.711	181.81
233.945	153.81
234.179	162.81
234.413	165.81
234.647	175.81
234.881	177.81
235.115	174.81
235.349	179.81
235.583	177.81
235.817	169.81
236.051	163.81
236.285	173.81
236.519	177.81
236.753	192.81
236.987	177.81
237.221	191.81
237.455	186.81
237.689	197.81
237.922	191.81
238.156	178.81
238.39	183.81
238.624	184.81
238.858	202.81
239.091	196.81
239.325	211.81
239.559	211.81
239.793	198.81
240.027	211.81
240.26	209.81
240.494	222.81
240.728	193.81
240.961	217.81
241.195	222.81
241.429	221.81
241.662	211.81
241.896	222.81
242.13	233.81
242.363	214.81
242.597	245.81
242.83	234.81
243.064	231.81
243.298	225.81
243.531	234.81
243.765	236.81
243.998	253.81
244.232	263.81
244.465	245.81
244.699	255.81
244.932	260.81
245.166	273.81
245.399	265.81
245.633	281.81
245.866	254.81
246.099	237.81
246.333	262.81
246.566	267.81
246.8	263.81
247.033	265.81
247.266	286.81
247.5	277.81
247.733	250.81
247.966	284.81
248.2	284.81
248.433	290.81
248.666	276.81
248.899	279.81
249.133	303.81
249.366	294.81
249.599	279.81
249.832	317.81
250.066	295.81
250.299	296.81
250.532	294.81
250.765	285.81
250.998	293.81
251.231	312.81
251.465	301.81
251.698	328.81
251.931	322.81
252.164	319.81
252.397	330.81
252.63	332.81
252.863	318.81
253.096	325.81
253.329	328.81
253.562	317.81
253.795	348.81
254.028	341.81
254.261	327.81
254.494	330.81
254.727	335.81
254.96	341.81
255.193	357.81
255.426	331.81
255.659	326.81
255.892	345.81
256.124	372.81
256.357	345.81
256.59	336.81
256.823	349.81
257.056	344.81
257.289	348.81
257.521	373.81
257.754	369.81
257.987	353.81
258.22	384.81
258.452	364.81
258.685	348.81
258.918	364.81
259.151	377.81
259.383	379.81
259.616	384.81
259.849	392.81
260.081	375.81
260.314	383.81
260.547	392.81
260.779	385.81
261.012	405.81
261.244	377.81
261.477	388.81
261.71	388.81
261.942	404.81
262.175	401.81
262.407	394.81
262.64	385.81
262.872	405.81
263.105	396.81
263.337	407.81
263.57	418.81
263.802	419.81
264.035	418.81
264.267	412.81
264.499	396.81
264.732	443.81
264.964	428.81
265.197	411.81
265.429	420.81
265.661	427.81
265.894	447.81
266.126	435.81
266.358	425.81
266.591	419.81
266.823	438.81
267.055	446.81
267.287	425.81
267.52	440.81
267.752	444.81
267.984	456.81
268.216	446.81
268.448	467.81
268.681	427.81
268.913	448.81
269.145	441.81
269.377	437.81
269.609	457.81
269.841	460.81
270.073	469.81
270.306	454.81
270.538	485.81
270.77	479.81
271.002	478.81
271.234	465.81
271.466	469.81
271.698	482.81
271.93	486.81
272.162	472.81
272.394	484.81
272.626	458.81
272.858	478.81
273.09	513.81
273.322	501.81
273.553	494.81
273.785	499.81
274.017	493.81
274.249	475.81
274.481	510.81
274.713	508.81
274.945	516.81
275.176	513.81
275.408	485.81
275.64	494.81
275.872	519.81
276.104	521.81
276.335	485.81
276.567	514.81
276.799	515.81
277.031	543.81
277.262	498.81
277.494	509.81
277.726	521.81
277.957	532.81
278.189	527.81
278.421	507.81
278.652	513.81
278.884	525.81
279.115	540.81
279.347	534.81
279.579	550.81
279.81	547.81
280.042	546.81
280.273	543.81
280.505	553.81
280.736	551.81
280.968	562.81
281.199	549.81
281.431	563.81
281.662	561.81
281.894	562.81
282.125	567.81
282.356	586.81
282.588	580.81
282.819	561.81
283.051	581.81
283.282	566.81
283.513	587.81
283.745	589.81
283.976	588.81
284.207	588.81
284.439	594.81
284.67	594.81
284.901	606.81
285.132	594.81
285.364	572.81
285.595	606.81
285.826	576.81
286.057	613.81
286.288	600.81
286.52	636.81
286.751	629.81
286.982	611.81
287.213	633.81
287.444	617.81
287.675	611.81
287.906	630.81
288.138	627.81
288.369	638.81
288.6	645.81
288.831	628.81
289.062	631.81
289.293	651.81
289.524	651.81
289.755	657.81
289.986	632.81
290.217	648.81
290.448	625.81
290.679	618.81
290.91	622.81
291.141	666.81
291.371	654.81
291.602	647.81
291.833	661.81
292.064	663.81
292.295	663.81
292.526	651.81
292.757	662.81
292.987	637.81
293.218	643.81
293.449	661.81
293.68	645.81
293.91	655.81
294.141	631.81
294.372	651.81
294.603	643.81
294.833	666.81
295.064	652.81
295.295	671.81
295.525	657.81
295.756	671.81
295.987	659.81
296.217	665.81
296.448	676.81
296.679	683.81
296.909	669.81
297.14	694.81
297.37	695.81
297.601	684.81
297.831	707.81
298.062	699.81
298.292	686.81
298.523	742.81
298.753	734.81
298.984	713.81
299.214	719.81
299.445	698.81
299.675	677.81
299.905	695.81
300.136	702.81
300.366	698.81
300.597	722.81
300.827	715.81
301.057	746.81
301.288	755.81
301.518	732.81
301.748	777.81
301.979	767.81
302.209	748.81
302.439	735.81
302.669	732.81
302.9	716.81
303.13	702.81
303.36	724.81
303.59	726.81
303.82	741.81
304.051	737.81
304.281	711.81
304.511	720.81
304.741	711.81
304.971	713.81
305.201	736.81
305.431	707.81
305.661	734.81
305.891	732.81
306.121	713.81
306.352	709.81
306.582	705.81
306.812	713.81
307.042	719.81
307.272	727.81
307.502	709.81
307.731	721.81
307.961	706.81
308.191	707.81
308.421	678.81
308.651	725.81
308.881	722.81
309.111	712.81
309.341	711.81
309.571	684.81
309.8	694.81
310.03	705.81
310.26	695.81
310.49	702.81
310.72	730.81
310.949	718.81
311.179	710.81
311.409	719.81
311.639	749.81
311.868	740.81
312.098	746.81
312.328	744.81
312.557	737.81
312.787	744.81
313.017	746.81
313.246	741.81
313.476	743.81
313.706	736.81
313.935	740.81
314.165	773.81
314.394	784.81
314.624	786.81
314.853	757.81
315.083	746.81
315.312	774.81
315.542	755.81
315.771	759.81
316.001	720.81
316.23	730.81
316.46	727.81
316.689	735.81
316.919	725.81
317.148	741.81
317.377	754.81
317.607	749.81
317.836	743.81
318.065	743.81
318.295	764.81
318.524	737.81
318.753	744.81
318.983	725.81
319.212	734.81
319.441	769.81
319.67	733.81
319.9	730.81
320.129	735.81
320.358	729.81
320.587	748.81
320.816	760.81
321.046	731.81
321.275	733.81
321.504	732.81
321.733	759.81
321.962	750.81
322.191	754.81
322.42	777.81
322.649	771.81
322.878	745.81
323.108	767.81
323.337	749.81
323.566	766.81
323.795	769.81
324.024	749.81
324.253	764.81
324.482	761.81
324.71	795.81
324.939	776.81
325.168	806.81
325.397	804.81
325.626	789.81
325.855	796.81
326.084	801.81
326.313	819.81
326.542	822.81
326.77	826.81
326.999	797.81
327.228	813.81
327.457	781.81
327.686	806.81
327.914	821.81
328.143	817.81
328.372	823.81
328.6	825.81
328.829	820.81
329.058	826.81
329.287	815.81
329.515	840.81
329.744	839.81
329.972	824.81
330.201	829.81
330.43	838.81
330.658	852.81
330.887	850.81
331.115	841.81
331.344	847.81
331.572	886.81
331.801	865.81
332.03	867.81
332.258	905.81
332.486	910.81
332.715	946.81
332.943	1040.81
333.172	1055.81
333.4	1122.81
333.629	1099.81
333.857	1113.81
334.085	1139.81
334.314	1125.81
334.542	1053.81
334.771	1039.81
334.999	1036.81
335.227	1038.81
335.455	1015.81
335.684	1010.81
335.912	1007.81
336.14	994.81
336.369	966.81
336.597	968.81
336.825	988.81
337.053	985.81
337.281	969.81
337.51	941.81
337.738	919.81
337.966	896.81
338.194	931.81
338.422	899.81
338.65	901.81
338.878	874.81
339.106	890.81
339.334	900.81
339.562	843.81
339.79	850.81
340.018	827.81
340.246	822.81
340.474	859.81
340.702	851.81
340.93	854.81
341.158	850.81
341.386	850.81
341.614	826.81
341.842	863.81
342.07	830.81
342.298	828.81
342.526	827.81
342.754	840.81
342.981	839.81
343.209	871.81
343.437	887.81
343.665	949.81
343.893	1028.81
344.12	1091.81
344.348	1000.81
344.576	992.81
344.804	929.81
345.031	909.81
345.259	876.81
345.487	862.81
345.714	845.81
345.942	842.81
346.17	832.81
346.397	843.81
346.625	788.81
346.853	812.81
347.08	812.81
347.308	826.81
347.535	852.81
347.763	842.81
347.99	838.81
348.218	835.81
348.445	861.81
348.673	834.81
348.9	825.81
349.128	845.81
349.355	796.81
349.583	811.81
349.81	809.81
350.037	798.81
350.265	785.81
350.492	776.81
350.72	784.81
350.947	783.81
351.174	799.81
351.402	775.81
351.629	795.81
351.856	795.81
352.083	771.81
352.311	771.81
352.538	767.81
352.765	798.81
352.992	757.81
353.22	765.81
353.447	762.81
353.674	774.81
353.901	781.81
354.128	810.81
354.355	779.81
354.583	783.81
354.81	811.81
355.037	805.81
355.264	803.81
355.491	806.81
355.718	783.81
355.945	786.81
356.172	802.81
356.399	801.81
356.626	795.81
356.853	799.81
357.08	806.81
357.307	821.81
357.534	801.81
357.761	810.81
357.988	800.81
358.215	783.81
358.441	789.81
358.668	805.81
358.895	772.81
359.122	788.81
359.349	817.81
359.576	795.81
359.802	803.81
360.029	770.81
360.256	800.81
360.483	783.81
360.709	792.81
360.936	793.81
361.163	803.81
361.39	764.81
361.616	793.81
361.843	778.81
362.07	798.81
362.296	787.81
362.523	764.81
362.749	798.81
362.976	803.81
363.203	783.81
363.429	778.81
363.656	796.81
363.882	802.81
364.109	787.81
364.335	801.81
364.562	803.81
364.788	777.81
365.015	795.81
365.241	785.81
365.468	790.81
365.694	800.81
365.92	790.81
366.147	793.81
366.373	779.81
366.599	795.81
366.826	780.81
367.052	783.81
367.278	806.81
367.505	797.81
367.731	814.81
367.957	783.81
368.184	800.81
368.41	793.81
368.636	792.81
368.862	794.81
369.089	819.81
369.315	802.81
369.541	828.81
369.767	813.81
369.993	831.81
370.219	830.81
370.445	822.81
370.672	841.81
370.898	846.81
371.124	851.81
371.35	840.81
371.576	853.81
371.802	843.81
372.028	854.81
372.254	865.81
372.48	865.81
372.706	885.81
372.932	907.81
373.158	908.81
373.384	899.81
373.61	864.81
373.835	873.81
374.061	890.81
374.287	850.81
374.513	855.81
374.739	905.81
374.965	937.81
375.191	961.81
375.416	963.81
375.642	962.81
375.868	910.81
376.094	900.81
376.319	877.81
376.545	866.81
376.771	897.81
376.997	866.81
377.222	862.81
377.448	859.81
377.674	857.81
377.899	842.81
378.125	852.81
378.35	859.81
378.576	865.81
378.802	844.81
379.027	850.81
379.253	846.81
379.478	883.81
379.704	862.81
379.929	846.81
380.155	859.81
380.38	862.81
380.606	858.81
380.831	855.81
381.057	846.81
381.282	850.81
381.507	864.81
381.733	860.81
381.958	889.81
382.184	891.81
382.409	887.81
382.634	888.81
382.86	918.81
383.085	931.81
383.31	923.81
383.535	968.81
383.761	939.81
383.986	975.81
384.211	1018.81
384.436	1012.81
384.662	1050.81
384.887	1045.81
385.112	1043.81
385.337	1090.81
385.562	1052.81
385.787	1038.81
386.013	1045.81
386.238	1053.81
386.463	1070.81
386.688	1025.81
386.913	1025.81
387.138	1019.81
387.363	1015.81
387.588	1033.81
387.813	1035.81
388.038	1020.81
388.263	1017.81
388.488	1025.81
388.713	1005.81
388.938	1007.81
389.163	1002.81
389.387	1000.81
389.612	990.81
389.837	1012.81
390.062	990.81
390.287	1007.81
390.512	980.81
390.736	1045.81
390.961	1034.81
391.186	1051.81
391.411	1070.81
391.636	1125.81
391.86	1158.81
392.085	1198.81
392.31	1167.81
392.534	1153.81
392.759	1111.81
392.984	1077.81
393.208	1082.81
393.433	1117.81
393.658	1108.81
393.882	1101.81
394.107	1132.81
394.331	1125.81
394.556	1122.81
394.78	1146.81
395.005	1101.81
395.229	1121.81
395.454	1143.81
395.678	1147.81
395.903	1165.81
396.127	1125.81
396.352	1100.81
396.576	1077.81
396.801	1090.81
397.025	1118.81
397.249	1113.81
397.474	1149.81
397.698	1168.81
397.922	1137.81
398.147	1132.81
398.371	1183.81
398.595	1190.81
398.82	1223.81
399.044	1356.81
399.268	1493.81
399.492	1774.81
399.717	2077.81
399.941	2085.81
400.165	1795.81
400.389	1589.81
400.613	1453.81
400.837	1339.81
401.062	1293.81
401.286	1312.81
401.51	1305.81
401.734	1256.81
401.958	1320.81
402.182	1337.81
402.406	1345.81
402.63	1352.81
402.854	1395.81
403.078	1437.81
403.302	1464.81
403.526	1493.81
403.75	1528.81
403.974	1560.81
404.198	1539.81
404.422	1548.81
404.645	1512.81
404.869	1491.81
405.093	1451.81
405.317	1466.81
405.541	1482.81
405.765	1459.81
405.988	1421.81
406.212	1438.81
406.436	1421.81
406.66	1467.81
406.883	1457.81
407.107	1559.81
407.331	1693.81
407.555	1720.81
407.778	1703.81
408.002	1695.81
408.226	1639.81
408.449	1549.81
408.673	1497.81
408.896	1469.81
409.12	1468.81
409.344	1487.81
409.567	1464.81
409.791	1485.81
410.014	1492.81
410.238	1465.81
410.461	1452.81
410.685	1454.81
410.908	1401.81
411.132	1389.81
411.355	1359.81
411.578	1365.81
411.802	1382.81
412.025	1378.81
412.249	1385.81
412.472	1355.81
412.695	1322.81
412.919	1296.81
413.142	1301.81
413.365	1306.81
413.589	1353.81
413.812	1297.81
414.035	1273.81
414.258	1304.81
414.482	1268.81
414.705	1325.81
414.928	1387.81
415.151	1316.81
415.374	1307.81
415.597	1299.81
415.821	1267.81
416.044	1278.81
416.267	1257.81
416.49	1271.81
416.713	1288.81
416.936	1292.81
417.159	1297.81
417.382	1297.81
417.605	1265.81
417.828	1293.81
418.051	1306.81
418.274	1267.81
418.497	1301.81
418.72	1337.81
418.943	1306.81
419.166	1406.81
419.389	1557.81
419.611	1491.81
419.834	1401.81
420.057	1366.81
420.28	1343.81
420.503	1281.81
420.726	1263.81
420.948	1251.81
421.171	1242.81
421.394	1305.81
421.617	1315.81
421.839	1304.81
422.062	1304.81
422.285	1269.81
422.507	1367.81
422.73	1334.81
422.953	1290.81
423.175	1355.81
423.398	1388.81
423.621	1360.81
423.843	1403.81
424.066	1372.81
424.288	1395.81
424.511	1397.81
424.733	1344.81
424.956	1344.81
425.178	1314.81
425.401	1307.81
425.623	1291.81
425.846	1291.81
426.068	1269.81
426.291	1254.81
426.513	1210.81
426.735	1226.81
426.958	1233.81
427.18	1198.81
427.402	1179.81
427.625	1201.81
427.847	1131.81
428.069	1180.81
428.292	1171.81
428.514	1117.81
428.736	1147.81
428.958	1161.81
429.181	1143.81
429.403	1114.81
429.625	1101.81
429.847	1118.81
430.069	1089.81
430.292	1121.81
430.514	1093.81
430.736	1105.81
430.958	1130.81
431.18	1113.81
431.402	1144.81
431.624	1135.81
431.846	1160.81
432.068	1167.81
432.29	1185.81
432.512	1142.81
432.734	1181.81
432.956	1163.81
433.178	1155.81
433.4	1173.81
433.622	1150.81
433.844	1127.81
434.066	1180.81
434.287	1182.81
434.509	1231.81
434.731	1250.81
434.953	1288.81
435.175	1318.81
435.397	1305.81
435.618	1228.81
435.84	1209.81
436.062	1157.81
436.284	1154.81
436.505	1162.81
436.727	1171.81
436.949	1161.81
437.17	1151.81
437.392	1140.81
437.614	1124.81
437.835	1090.81
438.057	1075.81
438.278	1100.81
438.5	1108.81
438.721	1093.81
438.943	1132.81
439.165	1112.81
439.386	1132.81
439.608	1164.81
439.829	1142.81
440.05	1190.81
440.272	1167.81
440.493	1127.81
440.715	1189.81
440.936	1174.81
441.158	1190.81
441.379	1247.81
441.6	1314.81
441.822	1362.81
442.043	1327.81
442.264	1288.81
442.486	1285.81
442.707	1288.81
442.928	1298.81
443.149	1294.81
443.371	1291.81
443.592	1295.81
443.813	1293.81
444.034	1361.81
444.255	1360.81
444.476	1428.81
444.698	1549.81
444.919	1633.81
445.14	1657.81
445.361	1493.81
445.582	1356.81
445.803	1287.81
446.024	1229.81
446.245	1242.81
446.466	1193.81
446.687	1191.81
446.908	1197.81
447.129	1140.81
447.35	1154.81
447.571	1120.81
447.792	1076.81
448.013	1095.81
448.234	1059.81
448.455	1059.81
448.675	1054.81
448.896	1066.81
449.117	1029.81
449.338	1049.81
449.559	1050.81
449.779	1042.81
450	1010.81
450.221	1049.81
450.442	1081.81
450.662	1103.81
450.883	1071.81
451.104	1116.81
451.324	1086.81
451.545	1075.81
451.766	1102.81
451.986	1052.81
452.207	1058.81
452.428	1049.81
452.648	1061.81
452.869	1051.81
453.089	1027.81
453.31	1070.81
453.53	1047.81
453.751	1031.81
453.971	1045.81
454.192	1027.81
454.412	998.81
454.633	1008.81
454.853	1017.81
455.073	998.81
455.294	1025.81
455.514	1003.81
455.734	998.81
455.955	975.81
456.175	985.81
456.395	962.81
456.616	970.81
456.836	994.81
457.056	986.81
457.276	978.81
457.497	1006.81
457.717	984.81
457.937	1007.81
458.157	1018.81
458.377	1019.81
458.598	1018.81
458.818	1061.81
459.038	1103.81
459.258	1147.81
459.478	1156.81
459.698	1181.81
459.918	1239.81
460.138	1299.81
460.358	1396.81
460.578	1377.81
460.798	1385.81
461.018	1403.81
461.238	1397.81
461.458	1355.81
461.678	1348.81
461.898	1383.81
462.118	1357.81
462.338	1450.81
462.558	1505.81
462.777	1566.81
462.997	1729.81
463.217	1886.81
463.437	1923.81
463.657	1756.81
463.876	1637.81
464.096	1664.81
464.316	1635.81
464.536	1650.81
464.755	1564.81
464.975	1501.81
465.195	1423.81
465.414	1382.81
465.634	1285.81
465.854	1260.81
466.073	1182.81
466.293	1160.81
466.512	1153.81
466.732	1103.81
466.951	1117.81
467.171	1109.81
467.391	1110.81
467.61	1127.81
467.829	1127.81
468.049	1122.81
468.268	1080.81
468.488	1045.81
468.707	1061.81
468.927	1043.81
469.146	1036.81
469.365	1074.81
469.585	1061.81
469.804	1092.81
470.023	1148.81
470.243	1146.81
470.462	1135.81
470.681	1119.81
470.901	1116.81
471.12	1147.81
471.339	1128.81
471.558	1067.81
471.777	1100.81
471.997	1047.81
472.216	1085.81
472.435	1052.81
472.654	1037.81
472.873	1020.81
473.092	1039.81
473.311	1021.81
473.53	1027.81
473.749	1008.81
473.968	1031.81
474.187	1033.81
474.406	1008.81
474.625	998.81
474.844	1028.81
475.063	1034.81
475.282	1018.81
475.501	1045.81
475.72	1080.81
475.939	1035.81
476.158	1037.81
476.377	1075.81
476.596	1087.81
476.814	1100.81
477.033	1086.81
477.252	1085.81
477.471	1155.81
477.69	1157.81
477.908	1189.81
478.127	1225.81
478.346	1239.81
478.564	1244.81
478.783	1283.81
479.002	1315.81
479.22	1301.81
479.439	1296.81
479.658	1265.81
479.876	1305.81
480.095	1300.81
480.313	1356.81
480.532	1431.81
480.751	1401.81
480.969	1358.81
481.188	1286.81
481.406	1281.81
481.624	1209.81
481.843	1201.81
482.061	1192.81
482.28	1191.81
482.498	1159.81
482.717	1151.81
482.935	1175.81
483.153	1185.81
483.372	1175.81
483.59	1191.81
483.808	1180.81
484.027	1169.81
484.245	1179.81
484.463	1183.81
484.681	1247.81
484.9	1240.81
485.118	1213.81
485.336	1230.81
485.554	1245.81
485.772	1239.81
485.99	1235.81
486.209	1276.81
486.427	1268.81
486.645	1259.81
486.863	1264.81
487.081	1270.81
487.299	1254.81
487.517	1231.81
487.735	1217.81
487.953	1242.81
488.171	1227.81
488.389	1237.81
488.607	1183.81
488.825	1218.81
489.043	1213.81
489.261	1204.81
489.479	1247.81
489.696	1229.81
489.914	1226.81
490.132	1244.81
490.35	1217.81
490.568	1231.81
490.786	1252.81
491.003	1256.81
491.221	1284.81
491.439	1269.81
491.657	1241.81
491.874	1258.81
492.092	1235.81
492.31	1262.81
492.527	1289.81
492.745	1262.81
492.963	1275.81
493.18	1268.81
493.398	1275.81
493.615	1321.81
493.833	1310.81
494.05	1319.81
494.268	1307.81
494.485	1330.81
494.703	1348.81
494.92	1335.81
495.138	1325.81
495.355	1325.81
495.573	1318.81
495.79	1334.81
496.008	1342.81
496.225	1329.81
496.442	1342.81
496.66	1374.81
496.877	1376.81
497.094	1386.81
497.312	1419.81
497.529	1413.81
497.746	1477.81
497.963	1557.81
498.181	1614.81
498.398	1655.81
498.615	1754.81
498.832	1861.81
499.049	2025.81
499.267	2209.81
499.484	2385.81
499.701	2680.81
499.918	3016.81
500.135	3344.81
500.352	3977.81
500.569	4199.81
500.786	4084.81
501.003	3837.81
501.22	3417.81
501.437	2998.81
501.654	2620.81
501.871	2379.81
502.088	2120.81
502.305	1958.81
502.522	1888.81
502.739	1832.81
502.956	1719.81
503.172	1667.81
503.389	1605.81
503.606	1522.81
503.823	1526.81
504.04	1515.81
504.256	1528.81
504.473	1562.81
504.69	1617.81
504.907	1592.81
505.123	1477.81
505.34	1380.81
505.557	1320.81
505.773	1277.81
505.99	1243.81
506.207	1208.81
506.423	1214.81
506.64	1206.81
506.856	1185.81
507.073	1175.81
507.289	1154.81
507.506	1167.81
507.722	1174.81
507.939	1131.81
508.155	1149.81
508.372	1110.81
508.588	1101.81
508.805	1106.81
509.021	1093.81
509.238	1089.81
509.454	1098.81
509.67	1070.81
509.887	1111.81
510.103	1089.81
510.319	1066.81
510.536	1065.81
510.752	1073.81
510.968	1088.81
511.184	1060.81
511.401	1027.81
511.617	1065.81
511.833	1032.81
512.049	1028.81
512.265	1058.81
512.481	1052.81
512.698	1027.81
512.914	1089.81
513.13	1042.81
513.346	1053.81
513.562	1058.81
513.778	1050.81
513.994	1059.81
514.21	1107.81
514.426	1091.81
514.642	1040.81
514.858	1102.81
515.074	1082.81
515.29	1098.81
515.506	1108.81
515.721	1149.81
515.937	1137.81
516.153	1148.81
516.369	1160.81
516.585	1237.81
516.801	1243.81
517.016	1284.81
517.232	1358.81
517.448	1432.81
517.664	1483.81
517.879	1499.81
518.095	1491.81
518.311	1485.81
518.527	1435.81
518.742	1363.81
518.958	1271.81
519.173	1249.81
519.389	1213.81
519.605	1175.81
519.82	1165.81
520.036	1135.81
520.251	1102.81
520.467	1073.81
520.682	1080.81
520.898	1085.81
521.113	1049.81
521.329	1032.81
521.544	1035.81
521.76	1025.81
521.975	1022.81
522.19	973.81
522.406	995.81
522.621	1028.81
522.836	963.81
523.052	974.81
523.267	983.81
523.482	998.81
523.698	984.81
523.913	980.81
524.128	986.81
524.343	974.81
524.559	1003.81
524.774	970.81
524.989	974.81
525.204	992.81
525.419	974.81
525.634	940.81
525.849	983.81
526.064	961.81
526.28	947.81
526.495	967.81
526.71	957.81
526.925	940.81
527.14	953.81
527.355	959.81
527.57	939.81
527.785	943.81
527.999	939.81
528.214	938.81
528.429	954.81
528.644	930.81
528.859	986.81
529.074	948.81
529.289	950.81
529.503	963.81
529.718	987.81
529.933	941.81
530.148	927.81
530.363	945.81
530.577	949.81
530.792	953.81
531.007	950.81
531.221	947.81
531.436	937.81
531.651	966.81
531.865	983.81
532.08	972.81
532.295	969.81
532.509	954.81
532.724	951.81
532.938	964.81
533.153	969.81
533.367	942.81
533.582	969.81
533.796	944.81
534.011	963.81
534.225	968.81
534.44	925.81
534.654	918.81
534.868	919.81
535.083	943.81
535.297	938.81
535.511	908.81
535.726	925.81
535.94	930.81
536.154	902.81
536.369	908.81
536.583	903.81
536.797	894.81
537.011	873.81
537.225	891.81
537.44	890.81
537.654	890.81
537.868	889.81
538.082	866.81
538.296	857.81
538.51	881.81
538.724	872.81
538.938	851.81
539.153	885.81
539.367	871.81
539.581	857.81
539.795	835.81
540.009	857.81
540.222	849.81
540.436	830.81
540.65	823.81
540.864	832.81
541.078	836.81
541.292	836.81
541.506	851.81
541.72	868.81
541.934	850.81
542.147	876.81
542.361	869.81
542.575	822.81
542.789	846.81
543.002	853.81
543.216	845.81
543.43	849.81
543.644	827.81
543.857	831.81
544.071	829.81
544.285	869.81
544.498	847.81
544.712	830.81
544.925	883.81
545.139	883.81
545.352	872.81
545.566	889.81
545.779	875.81
545.993	905.81
546.206	895.81
546.42	879.81
546.633	877.81
546.847	855.81
547.06	891.81
547.274	864.81
547.487	835.81
547.7	884.81
547.914	879.81
548.127	865.81
548.34	871.81
548.554	862.81
548.767	891.81
548.98	884.81
549.193	881.81
549.407	892.81
549.62	899.81
549.833	916.81
550.046	905.81
550.259	879.81
550.473	861.81
550.686	883.81
550.899	871.81
551.112	872.81
551.325	833.81
551.538	842.81
551.751	826.81
551.964	871.81
552.177	876.81
552.39	857.81
552.603	900.81
552.816	916.81
553.029	944.81
553.242	953.81
553.455	975.81
553.667	964.81
553.88	972.81
554.093	925.81
554.306	896.81
554.519	901.81
554.732	884.81
554.944	885.81
555.157	861.81
555.37	815.81
555.583	817.81
555.795	826.81
556.008	783.81
556.221	775.81
556.433	782.81
556.646	763.81
556.859	755.81
557.071	757.81
557.284	773.81
557.496	750.81
557.709	766.81
557.921	753.81
558.134	738.81
558.346	718.81
558.559	724.81
558.771	738.81
558.984	747.81
559.196	738.81
559.409	733.81
559.621	739.81
559.833	720.81
560.046	738.81
560.258	709.81
560.47	722.81
560.683	730.81
560.895	724.81
561.107	714.81
561.32	720.81
561.532	718.81
561.744	718.81
561.956	706.81
562.168	718.81
562.381	723.81
562.593	714.81
562.805	714.81
563.017	735.81
563.229	734.81
563.441	739.81
563.653	721.81
563.865	735.81
564.077	722.81
564.289	740.81
564.501	755.81
564.713	789.81
564.925	781.81
565.137	785.81
565.349	825.81
565.561	829.81
565.773	842.81
565.985	901.81
566.197	927.81
566.408	1010.81
566.62	1100.81
566.832	1232.81
567.044	1217.81
567.255	1236.81
567.467	1234.81
567.679	1319.81
567.891	1439.81
568.102	1507.81
568.314	1415.81
568.526	1279.81
568.737	1133.81
568.949	1026.81
569.161	982.81
569.372	863.81
569.584	830.81
569.795	801.81
570.007	784.81
570.218	784.81
570.43	744.81
570.641	747.81
570.853	750.81
571.064	748.81
571.276	778.81
571.487	749.81
571.698	692.81
571.91	681.81
572.121	663.81
572.333	678.81
572.544	641.81
572.755	625.81
572.966	621.81
573.178	615.81
573.389	626.81
573.6	601.81
573.811	601.81
574.023	609.81
574.234	595.81
574.445	597.81
574.656	589.81
574.867	590.81
575.078	590.81
575.289	583.81
575.501	602.81
575.712	574.81
575.923	573.81
576.134	567.81
576.345	570.81
576.556	581.81
576.767	572.81
576.978	567.81
577.188	562.81
577.399	548.81
577.61	547.81
577.821	567.81
578.032	552.81
578.243	541.81
578.454	561.81
578.665	544.81
578.875	531.81
579.086	519.81
579.297	527.81
579.508	538.81
579.718	536.81
579.929	519.81
580.14	507.81
580.35	527.81
580.561	516.81
580.772	524.81
580.982	528.81
581.193	517.81
581.403	505.81
581.614	501.81
581.825	521.81
582.035	487.81
582.246	513.81
582.456	511.81
582.667	502.81
582.877	509.81
583.087	494.81
583.298	477.81
583.508	493.81
583.719	487.81
583.929	510.81
584.139	499.81
584.35	503.81
584.56	499.81
584.77	475.81
584.981	495.81
585.191	484.81
585.401	494.81
585.611	500.81
585.821	489.81
586.032	501.81
586.242	489.81
586.452	488.81
586.662	490.81
586.872	486.81
587.082	503.81
587.292	477.81
587.502	472.81
587.713	478.81
587.923	486.81
588.133	474.81
588.343	451.81
588.553	487.81
588.762	486.81
588.972	491.81
589.182	479.81
589.392	477.81
589.602	482.81
589.812	478.81
590.022	490.81
590.232	486.81
590.441	491.81
590.651	481.81
590.861	469.81
591.071	486.81
591.281	498.81
591.49	479.81
591.7	517.81
591.91	521.81
592.119	518.81
592.329	525.81
592.539	547.81
592.748	578.81
592.958	589.81
593.167	599.81
593.377	630.81
593.587	625.81
593.796	601.81
594.006	611.81
594.215	630.81
594.424	611.81
594.634	625.81
594.843	592.81
595.053	572.81
595.262	555.81
595.472	546.81
595.681	527.81
595.89	503.81
596.1	497.81
596.309	472.81
596.518	473.81
596.727	454.81
596.937	447.81
597.146	451.81
597.355	439.81
597.564	434.81
597.774	431.81
597.983	430.81
598.192	435.81
598.401	412.81
598.61	400.81
598.819	406.81
599.028	422.81
599.237	396.81
599.446	403.81
599.655	400.81
599.864	404.81
600.073	398.81
600.282	384.81
600.491	415.81
600.7	397.81
600.909	392.81
601.118	385.81
601.327	395.81
601.536	389.81
601.745	390.81
601.953	408.81
602.162	387.81
602.371	399.81
602.58	384.81
602.789	399.81
602.997	397.81
603.206	395.81
603.415	395.81
603.623	386.81
603.832	394.81
604.041	371.81
604.249	386.81
604.458	375.81
604.666	387.81
604.875	386.81
605.084	378.81
605.292	377.81
605.501	375.81
605.709	382.81
605.918	371.81
606.126	369.81
606.334	369.81
606.543	386.81
606.751	364.81
606.96	366.81
607.168	346.81
607.376	372.81
607.585	369.81
607.793	371.81
608.001	361.81
608.21	365.81
608.418	371.81
608.626	362.81
608.834	353.81
609.043	359.81
609.251	350.81
609.459	341.81
609.667	363.81
609.875	356.81
610.083	362.81
610.291	356.81
610.499	347.81
610.707	333.81
610.916	358.81
611.124	354.81
611.332	343.81
611.54	355.81
611.748	369.81
611.955	362.81
612.163	346.81
612.371	361.81
612.579	373.81
612.787	353.81
612.995	362.81
613.203	359.81
613.411	358.81
613.618	353.81
613.826	354.81
614.034	344.81
614.242	331.81
614.449	343.81
614.657	352.81
614.865	347.81
615.072	333.81
615.28	333.81
615.488	347.81
615.695	341.81
615.903	342.81
616.111	351.81
616.318	352.81
616.526	361.81
616.733	362.81
616.941	355.81
617.148	361.81
617.356	331.81
617.563	336.81
617.771	360.81
617.978	333.81
618.185	341.81
618.393	347.81
618.6	340.81
618.807	354.81
619.015	343.81
619.222	321.81
619.429	315.81
619.637	335.81
619.844	312.81
620.051	325.81
620.258	343.81
620.466	327.81
620.673	311.81
620.88	313.81
621.087	319.81
621.294	321.81
621.501	317.81
621.708	319.81
621.915	339.81
622.122	326.81
622.329	316.81
622.536	314.81
622.743	329.81
622.95	326.81
623.157	287.81
623.364	314.81
623.571	326.81
623.778	308.81
623.985	318.81
624.192	315.81
624.399	302.81
624.606	311.81
624.812	299.81
625.019	317.81
625.226	271.81
625.433	297.81
625.639	291.81
625.846	309.81
626.053	296.81
626.259	295.81
626.466	288.81
626.673	302.81
626.879	293.81
627.086	285.81
627.293	277.81
627.499	311.81
627.706	290.81
627.912	278.81
628.119	291.81
628.325	282.81
628.532	279.81
628.738	292.81
628.945	285.81
629.151	284.81
629.357	284.81
629.564	292.81
629.77	282.81
629.976	290.81
630.183	266.81
630.389	267.81
630.595	267.81
630.802	260.81
631.008	257.81
631.214	253.81
631.42	258.81
631.627	261.81
631.833	273.81
632.039	277.81
632.245	252.81
632.451	259.81
632.657	257.81
632.863	270.81
633.069	249.81
633.275	267.81
633.481	262.81
633.688	249.81
633.893	247.81
634.099	257.81
634.305	237.81
634.511	253.81
634.717	261.81
634.923	251.81
635.129	252.81
635.335	261.81
635.541	238.81
635.747	257.81
635.952	255.81
636.158	252.81
636.364	252.81
636.57	243.81
636.775	229.81
636.981	253.81
637.187	250.81
637.392	243.81
637.598	230.81
637.804	218.81
638.009	233.81
638.215	246.81
638.421	241.81
638.626	234.81
638.832	243.81
639.037	234.81
639.243	225.81
639.448	248.81
639.654	225.81
639.859	243.81
640.065	214.81
640.27	246.81
640.475	231.81
640.681	243.81
640.886	227.81
641.091	221.81
641.297	218.81
641.502	223.81
641.707	244.81
641.913	207.81
642.118	226.81
642.323	234.81
642.528	228.81
642.733	233.81
642.939	227.81
643.144	221.81
643.349	223.81
643.554	220.81
643.759	220.81
643.964	218.81
644.169	204.81
644.374	223.81
644.579	236.81
644.784	226.81
644.989	215.81
645.194	213.81
645.399	223.81
645.604	225.81
645.809	221.81
646.014	213.81
646.219	223.81
646.423	212.81
646.628	219.81
646.833	219.81
647.038	221.81
647.243	220.81
647.447	217.81
647.652	233.81
647.857	216.81
648.062	236.81
648.266	247.81
648.471	245.81
648.676	228.81
648.88	239.81
649.085	233.81
649.289	225.81
649.494	228.81
649.698	238.81
649.903	214.81
650.107	222.81
650.312	209.81
650.516	217.81
650.721	190.81
650.925	199.81
651.13	213.81
651.334	194.81
651.539	208.81
651.743	175.81
651.947	210.81
652.152	181.81
652.356	190.81
652.56	182.81
652.764	177.81
652.969	188.81
653.173	173.81
653.377	183.81
653.581	182.81
653.785	172.81
653.99	163.81
654.194	155.81
654.398	173.81
654.602	179.81
654.806	182.81
655.01	167.81
655.214	158.81
655.418	156.81
655.622	166.81
655.826	158.81
656.03	163.81
656.234	149.81
656.438	165.81
656.642	157.81
656.846	142.81
657.049	148.81
657.253	155.81
657.457	126.81
657.661	133.81
657.865	129.81
658.068	125.81
658.272	117.81
658.476	106.81
658.68	121.81
658.883	121.81
659.087	114.81
659.291	104.81
659.494	102.81
659.698	103.81
659.901	90.81
660.105	105.81
660.309	100.81
660.512	93.81
660.716	107.81
660.919	104.81
661.123	93.81
661.326	104.81
661.53	105.81
661.733	86.81
661.936	104.81
662.14	94.81
662.343	85.81
662.546	101.81
662.75	92.81
662.953	80.81
663.156	82.81
663.36	90.81
663.563	74.81
663.766	84.81
663.969	87.81
664.173	74.81
664.376	80.81
664.579	91.81
664.782	86.81
664.985	81.81
665.188	79.81
665.391	90.81
665.594	78.81
665.797	72.81
666	77.81
666.203	93.81
666.406	89.81
666.609	74.81
666.812	85.81
667.015	81.81
667.218	81.81
667.421	74.81
667.624	85.81
667.827	93.81
668.03	60.81
668.232	67.81
668.435	69.81
668.638	86.81
668.841	79.81
669.043	82.81
669.246	85.81
669.449	91.81
669.651	69.81
669.854	99.81
670.057	82.81
670.259	77.81
670.462	81.81
670.665	83.81
670.867	88.81
671.07	85.81
671.272	82.81
671.475	91.81
671.677	105.81
671.88	68.81
672.082	63.81
672.284	89.81
672.487	86.81
672.689	79.81
672.892	81.81
