Data from NiCl2@0.0625M.TitratingCurve.Agarose3%dH2O.NegLispCup.LampEnergy10.LIBS07252019_HRD10591_18-32-38-580.txt Node
Date: Thu Jul 25 18:32:38 EDT 2019
User: cochatt
Spectrometer: HR+D1059
Trigger mode: 1
Integration Time (sec): 1.000000E-1
Scans to average: 1
Electric dark correction enabled: true
Nonlinearity correction enabled: false
Boxcar width: 0
XAxis mode: Wavelengths
Number of Pixels in Spectrum: 2048
>>>>>Begin Spectral Data<<<<<
223.165	-27.94
223.4	-27.94
223.635	-27.94
223.869	-24.94
224.104	-7.94
224.338	-19.94
224.573	-15.94
224.808	-2.94
225.042	0.06
225.277	-13.94
225.511	9.06
225.746	7.06
225.98	10.06
226.215	8.06
226.449	8.06
226.683	-0.94
226.918	38.06
227.152	34.06
227.387	22.06
227.621	43.06
227.856	35.06
228.09	48.06
228.324	50.06
228.559	47.06
228.793	83.06
229.027	139.06
229.262	170.06
229.496	157.06
229.73	156.06
229.964	165.06
230.199	191.06
230.433	185.06
230.667	204.06
230.901	201.06
231.136	192.06
231.37	200.06
231.604	189.06
231.838	198.06
232.072	200.06
232.306	209.06
232.541	201.06
232.775	210.06
233.009	232.06
233.243	224.06
233.477	222.06
233.711	203.06
233.945	219.06
234.179	225.06
234.413	226.06
234.647	216.06
234.881	207.06
235.115	220.06
235.349	215.06
235.583	239.06
235.817	225.06
236.051	240.06
236.285	235.06
236.519	244.06
236.753	239.06
236.987	245.06
237.221	240.06
237.455	229.06
237.689	233.06
237.922	241.06
238.156	245.06
238.39	240.06
238.624	268.06
238.858	270.06
239.091	264.06
239.325	261.06
239.559	288.06
239.793	289.06
240.027	282.06
240.26	277.06
240.494	278.06
240.728	270.06
240.961	298.06
241.195	288.06
241.429	307.06
241.662	296.06
241.896	316.06
242.13	350.06
242.363	303.06
242.597	315.06
242.83	321.06
243.064	318.06
243.298	332.06
243.531	332.06
243.765	336.06
243.998	331.06
244.232	324.06
244.465	363.06
244.699	353.06
244.932	344.06
245.166	341.06
245.399	356.06
245.633	367.06
245.866	354.06
246.099	374.06
246.333	352.06
246.566	362.06
246.8	367.06
247.033	363.06
247.266	356.06
247.5	376.06
247.733	375.06
247.966	382.06
248.2	395.06
248.433	414.06
248.666	393.06
248.899	409.06
249.133	403.06
249.366	413.06
249.599	408.06
249.832	408.06
250.066	410.06
250.299	397.06
250.532	405.06
250.765	401.06
250.998	425.06
251.231	435.06
251.465	435.06
251.698	427.06
251.931	428.06
252.164	462.06
252.397	448.06
252.63	469.06
252.863	449.06
253.096	460.06
253.329	468.06
253.562	454.06
253.795	468.06
254.028	457.06
254.261	485.06
254.494	475.06
254.727	453.06
254.96	466.06
255.193	479.06
255.426	460.06
255.659	485.06
255.892	504.06
256.124	477.06
256.357	492.06
256.59	490.06
256.823	486.06
257.056	500.06
257.289	505.06
257.521	494.06
257.754	527.06
257.987	520.06
258.22	509.06
258.452	494.06
258.685	506.06
258.918	515.06
259.151	535.06
259.383	534.06
259.616	530.06
259.849	539.06
260.081	533.06
260.314	547.06
260.547	556.06
260.779	560.06
261.012	523.06
261.244	551.06
261.477	572.06
261.71	536.06
261.942	556.06
262.175	547.06
262.407	561.06
262.64	551.06
262.872	589.06
263.105	574.06
263.337	552.06
263.57	604.06
263.802	593.06
264.035	566.06
264.267	575.06
264.499	591.06
264.732	598.06
264.964	595.06
265.197	590.06
265.429	596.06
265.661	620.06
265.894	612.06
266.126	610.06
266.358	618.06
266.591	642.06
266.823	627.06
267.055	634.06
267.287	629.06
267.52	604.06
267.752	623.06
267.984	645.06
268.216	649.06
268.448	643.06
268.681	658.06
268.913	641.06
269.145	641.06
269.377	648.06
269.609	655.06
269.841	663.06
270.073	657.06
270.306	670.06
270.538	665.06
270.77	653.06
271.002	673.06
271.234	690.06
271.466	667.06
271.698	651.06
271.93	663.06
272.162	684.06
272.394	697.06
272.626	669.06
272.858	692.06
273.09	679.06
273.322	709.06
273.553	697.06
273.785	697.06
274.017	710.06
274.249	762.06
274.481	716.06
274.713	741.06
274.945	730.06
275.176	736.06
275.408	735.06
275.64	716.06
275.872	741.06
276.104	760.06
276.335	747.06
276.567	748.06
276.799	727.06
277.031	769.06
277.262	736.06
277.494	732.06
277.726	758.06
277.957	771.06
278.189	778.06
278.421	770.06
278.652	764.06
278.884	783.06
279.115	794.06
279.347	777.06
279.579	791.06
279.81	804.06
280.042	820.06
280.273	803.06
280.505	807.06
280.736	801.06
280.968	781.06
281.199	831.06
281.431	793.06
281.662	835.06
281.894	847.06
282.125	833.06
282.356	826.06
282.588	856.06
282.819	835.06
283.051	831.06
283.282	834.06
283.513	848.06
283.745	857.06
283.976	855.06
284.207	842.06
284.439	841.06
284.67	879.06
284.901	888.06
285.132	863.06
285.364	857.06
285.595	869.06
285.826	845.06
286.057	867.06
286.288	868.06
286.52	873.06
286.751	900.06
286.982	895.06
287.213	899.06
287.444	893.06
287.675	896.06
287.906	877.06
288.138	915.06
288.369	909.06
288.6	903.06
288.831	899.06
289.062	908.06
289.293	907.06
289.524	918.06
289.755	900.06
289.986	927.06
290.217	896.06
290.448	907.06
290.679	903.06
290.91	941.06
291.141	920.06
291.371	906.06
291.602	930.06
291.833	912.06
292.064	928.06
292.295	930.06
292.526	929.06
292.757	919.06
292.987	909.06
293.218	937.06
293.449	927.06
293.68	956.06
293.91	951.06
294.141	927.06
294.372	926.06
294.603	957.06
294.833	924.06
295.064	947.06
295.295	970.06
295.525	969.06
295.756	947.06
295.987	957.06
296.217	966.06
296.448	940.06
296.679	970.06
296.909	999.06
297.14	978.06
297.37	980.06
297.601	1002.06
297.831	1004.06
298.062	1004.06
298.292	1011.06
298.523	1006.06
298.753	1031.06
298.984	1013.06
299.214	997.06
299.445	1005.06
299.675	1036.06
299.905	1022.06
300.136	1012.06
300.366	1008.06
300.597	1040.06
300.827	1029.06
301.057	1032.06
301.288	1073.06
301.518	1055.06
301.748	1078.06
301.979	1058.06
302.209	1049.06
302.439	1077.06
302.669	1087.06
302.9	1063.06
303.13	1051.06
303.36	1091.06
303.59	1057.06
303.82	1076.06
304.051	1055.06
304.281	1064.06
304.511	1041.06
304.741	1037.06
304.971	1076.06
305.201	1063.06
305.431	1059.06
305.661	1055.06
305.891	1063.06
306.121	1055.06
306.352	1047.06
306.582	1023.06
306.812	1020.06
307.042	1041.06
307.272	1056.06
307.502	1040.06
307.731	1032.06
307.961	1033.06
308.191	1081.06
308.421	1034.06
308.651	1034.06
308.881	1020.06
309.111	1040.06
309.341	1046.06
309.571	1047.06
309.8	1052.06
310.03	1069.06
310.26	1058.06
310.49	1061.06
310.72	1077.06
310.949	1089.06
311.179	1113.06
311.409	1036.06
311.639	1051.06
311.868	1091.06
312.098	1100.06
312.328	1081.06
312.557	1084.06
312.787	1090.06
313.017	1112.06
313.246	1116.06
313.476	1128.06
313.706	1131.06
313.935	1151.06
314.165	1135.06
314.394	1151.06
314.624	1156.06
314.853	1145.06
315.083	1114.06
315.312	1147.06
315.542	1168.06
315.771	1112.06
316.001	1148.06
316.23	1123.06
316.46	1127.06
316.689	1121.06
316.919	1139.06
317.148	1125.06
317.377	1099.06
317.607	1100.06
317.836	1071.06
318.065	1137.06
318.295	1147.06
318.524	1104.06
318.753	1133.06
318.983	1134.06
319.212	1089.06
319.441	1123.06
319.67	1126.06
319.9	1108.06
320.129	1149.06
320.358	1140.06
320.587	1120.06
320.816	1147.06
321.046	1132.06
321.275	1137.06
321.504	1137.06
321.733	1125.06
321.962	1122.06
322.191	1156.06
322.42	1152.06
322.649	1128.06
322.878	1120.06
323.108	1174.06
323.337	1156.06
323.566	1157.06
323.795	1163.06
324.024	1177.06
324.253	1157.06
324.482	1177.06
324.71	1171.06
324.939	1220.06
325.168	1192.06
325.397	1172.06
325.626	1206.06
325.855	1215.06
326.084	1228.06
326.313	1232.06
326.542	1225.06
326.77	1228.06
326.999	1214.06
327.228	1218.06
327.457	1209.06
327.686	1207.06
327.914	1225.06
328.143	1218.06
328.372	1226.06
328.6	1243.06
328.829	1203.06
329.058	1196.06
329.287	1244.06
329.515	1234.06
329.744	1250.06
329.972	1258.06
330.201	1256.06
330.43	1248.06
330.658	1293.06
330.887	1273.06
331.115	1296.06
331.344	1316.06
331.572	1309.06
331.801	1311.06
332.03	1369.06
332.258	1373.06
332.486	1412.06
332.715	1424.06
332.943	1461.06
333.172	1507.06
333.4	1562.06
333.629	1604.06
333.857	1625.06
334.085	1610.06
334.314	1578.06
334.542	1580.06
334.771	1553.06
334.999	1563.06
335.227	1561.06
335.455	1533.06
335.684	1501.06
335.912	1499.06
336.14	1528.06
336.369	1487.06
336.597	1479.06
336.825	1463.06
337.053	1474.06
337.281	1449.06
337.51	1409.06
337.738	1433.06
337.966	1354.06
338.194	1372.06
338.422	1346.06
338.65	1357.06
338.878	1368.06
339.106	1351.06
339.334	1361.06
339.562	1344.06
339.79	1297.06
340.018	1311.06
340.246	1299.06
340.474	1313.06
340.702	1273.06
340.93	1289.06
341.158	1329.06
341.386	1296.06
341.614	1293.06
341.842	1285.06
342.07	1281.06
342.298	1285.06
342.526	1284.06
342.754	1300.06
342.981	1284.06
343.209	1308.06
343.437	1384.06
343.665	1408.06
343.893	1507.06
344.12	1545.06
344.348	1479.06
344.576	1433.06
344.804	1412.06
345.031	1365.06
345.259	1336.06
345.487	1329.06
345.714	1306.06
345.942	1303.06
346.17	1288.06
346.397	1275.06
346.625	1199.06
346.853	1248.06
347.08	1268.06
347.308	1263.06
347.535	1265.06
347.763	1242.06
347.99	1244.06
348.218	1215.06
348.445	1205.06
348.673	1221.06
348.9	1226.06
349.128	1243.06
349.355	1213.06
349.583	1230.06
349.81	1242.06
350.037	1224.06
350.265	1201.06
350.492	1228.06
350.72	1183.06
350.947	1193.06
351.174	1203.06
351.402	1167.06
351.629	1189.06
351.856	1160.06
352.083	1207.06
352.311	1193.06
352.538	1213.06
352.765	1189.06
352.992	1194.06
353.22	1188.06
353.447	1179.06
353.674	1211.06
353.901	1201.06
354.128	1187.06
354.355	1166.06
354.583	1175.06
354.81	1179.06
355.037	1190.06
355.264	1203.06
355.491	1194.06
355.718	1195.06
355.945	1216.06
356.172	1215.06
356.399	1221.06
356.626	1198.06
356.853	1234.06
357.08	1190.06
357.307	1222.06
357.534	1185.06
357.761	1205.06
357.988	1188.06
358.215	1203.06
358.441	1207.06
358.668	1189.06
358.895	1204.06
359.122	1218.06
359.349	1195.06
359.576	1218.06
359.802	1184.06
360.029	1169.06
360.256	1187.06
360.483	1209.06
360.709	1205.06
360.936	1216.06
361.163	1224.06
361.39	1208.06
361.616	1191.06
361.843	1180.06
362.07	1192.06
362.296	1210.06
362.523	1201.06
362.749	1185.06
362.976	1199.06
363.203	1206.06
363.429	1200.06
363.656	1201.06
363.882	1204.06
364.109	1201.06
364.335	1185.06
364.562	1160.06
364.788	1187.06
365.015	1211.06
365.241	1201.06
365.468	1183.06
365.694	1164.06
365.92	1194.06
366.147	1180.06
366.373	1181.06
366.599	1211.06
366.826	1195.06
367.052	1200.06
367.278	1220.06
367.505	1244.06
367.731	1201.06
367.957	1220.06
368.184	1202.06
368.41	1208.06
368.636	1228.06
368.862	1238.06
369.089	1220.06
369.315	1240.06
369.541	1245.06
369.767	1213.06
369.993	1250.06
370.219	1271.06
370.445	1256.06
370.672	1225.06
370.898	1253.06
371.124	1249.06
371.35	1323.06
371.576	1323.06
371.802	1335.06
372.028	1320.06
372.254	1314.06
372.48	1345.06
372.706	1322.06
372.932	1347.06
373.158	1348.06
373.384	1348.06
373.61	1332.06
373.835	1302.06
374.061	1290.06
374.287	1332.06
374.513	1306.06
374.739	1348.06
374.965	1405.06
375.191	1445.06
375.416	1416.06
375.642	1392.06
375.868	1366.06
376.094	1329.06
376.319	1335.06
376.545	1332.06
376.771	1315.06
376.997	1303.06
377.222	1309.06
377.448	1282.06
377.674	1321.06
377.899	1274.06
378.125	1285.06
378.35	1266.06
378.576	1288.06
378.802	1277.06
379.027	1297.06
379.253	1317.06
379.478	1256.06
379.704	1271.06
379.929	1288.06
380.155	1288.06
380.38	1328.06
380.606	1306.06
380.831	1294.06
381.057	1288.06
381.282	1286.06
381.507	1305.06
381.733	1328.06
381.958	1329.06
382.184	1333.06
382.409	1349.06
382.634	1356.06
382.86	1382.06
383.085	1364.06
383.31	1383.06
383.535	1434.06
383.761	1378.06
383.986	1432.06
384.211	1447.06
384.436	1451.06
384.662	1506.06
384.887	1529.06
385.112	1503.06
385.337	1547.06
385.562	1537.06
385.787	1564.06
386.013	1580.06
386.238	1578.06
386.463	1599.06
386.688	1590.06
386.913	1544.06
387.138	1539.06
387.363	1578.06
387.588	1553.06
387.813	1505.06
388.038	1534.06
388.263	1555.06
388.488	1517.06
388.713	1574.06
388.938	1547.06
389.163	1514.06
389.387	1558.06
389.612	1520.06
389.837	1581.06
390.062	1555.06
390.287	1556.06
390.512	1560.06
390.736	1560.06
390.961	1585.06
391.186	1594.06
391.411	1655.06
391.636	1625.06
391.86	1699.06
392.085	1731.06
392.31	1716.06
392.534	1722.06
392.759	1654.06
392.984	1678.06
393.208	1659.06
393.433	1729.06
393.658	1791.06
393.882	1676.06
394.107	1677.06
394.331	1622.06
394.556	1628.06
394.78	1722.06
395.005	1652.06
395.229	1657.06
395.454	1708.06
395.678	1749.06
395.903	1777.06
396.127	1736.06
396.352	1727.06
396.576	1725.06
396.801	1685.06
397.025	1742.06
397.249	1746.06
397.474	1723.06
397.698	1744.06
397.922	1766.06
398.147	1762.06
398.371	1803.06
398.595	1863.06
398.82	1897.06
399.044	2080.06
399.268	2212.06
399.492	2515.06
399.717	2679.06
399.941	2735.06
400.165	2534.06
400.389	2315.06
400.613	2149.06
400.837	2055.06
401.062	2008.06
401.286	1949.06
401.51	1974.06
401.734	1927.06
401.958	1940.06
402.182	1970.06
402.406	1955.06
402.63	1955.06
402.854	1996.06
403.078	2021.06
403.302	2048.06
403.526	2105.06
403.75	2112.06
403.974	2134.06
404.198	2127.06
404.422	2110.06
404.645	2118.06
404.869	2084.06
405.093	2118.06
405.317	2081.06
405.541	2110.06
405.765	2114.06
405.988	2076.06
406.212	2101.06
406.436	2131.06
406.66	2128.06
406.883	2196.06
407.107	2351.06
407.331	2352.06
407.555	2433.06
407.778	2419.06
408.002	2431.06
408.226	2364.06
408.449	2307.06
408.673	2192.06
408.896	2141.06
409.12	2181.06
409.344	2193.06
409.567	2144.06
409.791	2148.06
410.014	2143.06
410.238	2105.06
410.461	2106.06
410.685	2059.06
410.908	2080.06
411.132	2025.06
411.355	2004.06
411.578	2022.06
411.802	2023.06
412.025	1975.06
412.249	2003.06
412.472	1999.06
412.695	1974.06
412.919	1950.06
413.142	1956.06
413.365	1975.06
413.589	1965.06
413.812	1909.06
414.035	1901.06
414.258	1876.06
414.482	1919.06
414.705	1961.06
414.928	1922.06
415.151	1975.06
415.374	1921.06
415.597	1861.06
415.821	1919.06
416.044	1875.06
416.267	1876.06
416.49	1868.06
416.713	1834.06
416.936	1847.06
417.159	1851.06
417.382	1854.06
417.605	1837.06
417.828	1859.06
418.051	1882.06
418.274	1879.06
418.497	1851.06
418.72	1884.06
418.943	1866.06
419.166	2001.06
419.389	2149.06
419.611	2085.06
419.834	2048.06
420.057	1980.06
420.28	1900.06
420.503	1834.06
420.726	1880.06
420.948	1859.06
421.171	1891.06
421.394	1875.06
421.617	1822.06
421.839	1858.06
422.062	1868.06
422.285	1824.06
422.507	1932.06
422.73	1893.06
422.953	1947.06
423.175	1890.06
423.398	1929.06
423.621	1934.06
423.843	1925.06
424.066	1948.06
424.288	1924.06
424.511	1943.06
424.733	1921.06
424.956	1862.06
425.178	1898.06
425.401	1897.06
425.623	1854.06
425.846	1825.06
426.068	1809.06
426.291	1767.06
426.513	1784.06
426.735	1764.06
426.958	1741.06
427.18	1708.06
427.402	1798.06
427.625	1764.06
427.847	1723.06
428.069	1692.06
428.292	1699.06
428.514	1659.06
428.736	1693.06
428.958	1693.06
429.181	1667.06
429.403	1652.06
429.625	1667.06
429.847	1656.06
430.069	1628.06
430.292	1690.06
430.514	1690.06
430.736	1672.06
430.958	1689.06
431.18	1639.06
431.402	1689.06
431.624	1685.06
431.846	1703.06
432.068	1688.06
432.29	1686.06
432.512	1677.06
432.734	1727.06
432.956	1701.06
433.178	1719.06
433.4	1734.06
433.622	1739.06
433.844	1740.06
434.066	1739.06
434.287	1769.06
434.509	1811.06
434.731	1862.06
434.953	1860.06
435.175	1879.06
435.397	1861.06
435.618	1815.06
435.84	1768.06
436.062	1733.06
436.284	1719.06
436.505	1673.06
436.727	1740.06
436.949	1706.06
437.17	1732.06
437.392	1701.06
437.614	1671.06
437.835	1622.06
438.057	1627.06
438.278	1602.06
438.5	1615.06
438.721	1624.06
438.943	1643.06
439.165	1591.06
439.386	1650.06
439.608	1652.06
439.829	1634.06
440.05	1644.06
440.272	1661.06
440.493	1719.06
440.715	1690.06
440.936	1736.06
441.158	1711.06
441.379	1786.06
441.6	1876.06
441.822	1874.06
442.043	1836.06
442.264	1828.06
442.486	1791.06
442.707	1825.06
442.928	1795.06
443.149	1816.06
443.371	1771.06
443.592	1845.06
443.813	1817.06
444.034	1832.06
444.255	1889.06
444.476	1972.06
444.698	2055.06
444.919	2096.06
445.14	2136.06
445.361	1981.06
445.582	1883.06
445.803	1861.06
446.024	1811.06
446.245	1758.06
446.466	1715.06
446.687	1694.06
446.908	1644.06
447.129	1604.06
447.35	1605.06
447.571	1602.06
447.792	1590.06
448.013	1589.06
448.234	1535.06
448.455	1538.06
448.675	1549.06
448.896	1568.06
449.117	1478.06
449.338	1498.06
449.559	1537.06
449.779	1533.06
450	1482.06
450.221	1500.06
450.442	1508.06
450.662	1504.06
450.883	1524.06
451.104	1541.06
451.324	1547.06
451.545	1492.06
451.766	1545.06
451.986	1489.06
452.207	1489.06
452.428	1493.06
452.648	1481.06
452.869	1425.06
453.089	1442.06
453.31	1509.06
453.53	1433.06
453.751	1443.06
453.971	1457.06
454.192	1466.06
454.412	1445.06
454.633	1449.06
454.853	1432.06
455.073	1414.06
455.294	1428.06
455.514	1417.06
455.734	1404.06
455.955	1357.06
456.175	1398.06
456.395	1399.06
456.616	1425.06
456.836	1451.06
457.056	1399.06
457.276	1406.06
457.497	1440.06
457.717	1415.06
457.937	1442.06
458.157	1463.06
458.377	1484.06
458.598	1516.06
458.818	1546.06
459.038	1565.06
459.258	1627.06
459.478	1702.06
459.698	1727.06
459.918	1791.06
460.138	1799.06
460.358	1873.06
460.578	1921.06
460.798	1919.06
461.018	1963.06
461.238	1932.06
461.458	1936.06
461.678	1963.06
461.898	1910.06
462.118	1885.06
462.338	2084.06
462.558	2085.06
462.777	2190.06
462.997	2329.06
463.217	2440.06
463.437	2471.06
463.657	2338.06
463.876	2198.06
464.096	2197.06
464.316	2204.06
464.536	2179.06
464.755	2135.06
464.975	2040.06
465.195	2005.06
465.414	1922.06
465.634	1760.06
465.854	1711.06
466.073	1679.06
466.293	1671.06
466.512	1643.06
466.732	1612.06
466.951	1617.06
467.171	1601.06
467.391	1601.06
467.61	1594.06
467.829	1601.06
468.049	1579.06
468.268	1519.06
468.488	1551.06
468.707	1493.06
468.927	1521.06
469.146	1557.06
469.365	1563.06
469.585	1573.06
469.804	1604.06
470.023	1594.06
470.243	1608.06
470.462	1656.06
470.681	1633.06
470.901	1647.06
471.12	1643.06
471.339	1567.06
471.558	1577.06
471.777	1560.06
471.997	1537.06
472.216	1576.06
472.435	1498.06
472.654	1493.06
472.873	1543.06
473.092	1514.06
473.311	1540.06
473.53	1516.06
473.749	1503.06
473.968	1505.06
474.187	1514.06
474.406	1494.06
474.625	1495.06
474.844	1516.06
475.063	1535.06
475.282	1538.06
475.501	1522.06
475.72	1558.06
475.939	1564.06
476.158	1577.06
476.377	1593.06
476.596	1591.06
476.814	1603.06
477.033	1579.06
477.252	1625.06
477.471	1669.06
477.69	1701.06
477.908	1727.06
478.127	1796.06
478.346	1851.06
478.564	1879.06
478.783	1860.06
479.002	1898.06
479.22	1905.06
479.439	1935.06
479.658	1909.06
479.876	1898.06
480.095	1955.06
480.313	1978.06
480.532	2015.06
480.751	2003.06
480.969	1972.06
481.188	1921.06
481.406	1905.06
481.624	1868.06
481.843	1811.06
482.061	1855.06
482.28	1823.06
482.498	1844.06
482.717	1798.06
482.935	1823.06
483.153	1840.06
483.372	1824.06
483.59	1856.06
483.808	1860.06
484.027	1848.06
484.245	1895.06
484.463	1908.06
484.681	1921.06
484.9	1918.06
485.118	1950.06
485.336	1939.06
485.554	1957.06
485.772	1946.06
485.99	1993.06
486.209	1958.06
486.427	1995.06
486.645	1946.06
486.863	1987.06
487.081	1961.06
487.299	1941.06
487.517	1926.06
487.735	1941.06
487.953	1973.06
488.171	1943.06
488.389	1933.06
488.607	1927.06
488.825	1905.06
489.043	1847.06
489.261	1874.06
489.479	1884.06
489.696	1913.06
489.914	1929.06
490.132	1914.06
490.35	1894.06
490.568	1929.06
490.786	1910.06
491.003	1879.06
491.221	1908.06
491.439	1900.06
491.657	1890.06
491.874	1873.06
492.092	1913.06
492.31	1895.06
492.527	1864.06
492.745	1965.06
492.963	1929.06
493.18	1859.06
493.398	1914.06
493.615	1923.06
493.833	1937.06
494.05	1948.06
494.268	1958.06
494.485	1923.06
494.703	1952.06
494.92	1927.06
495.138	1933.06
495.355	1955.06
495.573	2016.06
495.79	1972.06
496.008	2023.06
496.225	2003.06
496.442	2026.06
496.66	2016.06
496.877	2076.06
497.094	2079.06
497.312	2141.06
497.529	2138.06
497.746	2156.06
497.963	2279.06
498.181	2403.06
498.398	2419.06
498.615	2599.06
498.832	2706.06
499.049	2858.06
499.267	3109.06
499.484	3344.06
499.701	3687.06
499.918	3970.06
500.135	4491.06
500.352	4812.06
500.569	5048.06
500.786	4998.06
501.003	4711.06
501.22	4323.06
501.437	3932.06
501.654	3564.06
501.871	3347.06
502.088	3012.06
502.305	2874.06
502.522	2680.06
502.739	2603.06
502.956	2449.06
503.172	2362.06
503.389	2321.06
503.606	2257.06
503.823	2178.06
504.04	2146.06
504.256	2189.06
504.473	2244.06
504.69	2217.06
504.907	2186.06
505.123	2081.06
505.34	1999.06
505.557	1909.06
505.773	1839.06
505.99	1791.06
506.207	1789.06
506.423	1771.06
506.64	1757.06
506.856	1715.06
507.073	1697.06
507.289	1680.06
507.506	1659.06
507.722	1681.06
507.939	1644.06
508.155	1620.06
508.372	1623.06
508.588	1585.06
508.805	1589.06
509.021	1569.06
509.238	1567.06
509.454	1513.06
509.67	1569.06
509.887	1552.06
510.103	1537.06
510.319	1506.06
510.536	1540.06
510.752	1502.06
510.968	1506.06
511.184	1506.06
511.401	1533.06
511.617	1500.06
511.833	1515.06
512.049	1497.06
512.265	1535.06
512.481	1499.06
512.698	1528.06
512.914	1514.06
513.13	1506.06
513.346	1476.06
513.562	1500.06
513.778	1515.06
513.994	1535.06
514.21	1499.06
514.426	1521.06
514.642	1523.06
514.858	1555.06
515.074	1539.06
515.29	1598.06
515.506	1596.06
515.721	1612.06
515.937	1634.06
516.153	1617.06
516.369	1657.06
516.585	1703.06
516.801	1749.06
517.016	1826.06
517.232	1848.06
517.448	1948.06
517.664	2019.06
517.879	2010.06
518.095	1999.06
518.311	1984.06
518.527	1868.06
518.742	1864.06
518.958	1750.06
519.173	1771.06
519.389	1655.06
519.605	1627.06
519.82	1601.06
520.036	1620.06
520.251	1571.06
520.467	1539.06
520.682	1510.06
520.898	1513.06
521.113	1469.06
521.329	1493.06
521.544	1452.06
521.76	1468.06
521.975	1432.06
522.19	1441.06
522.406	1414.06
522.621	1421.06
522.836	1425.06
523.052	1404.06
523.267	1401.06
523.482	1405.06
523.698	1382.06
523.913	1381.06
524.128	1388.06
524.343	1360.06
524.559	1351.06
524.774	1371.06
524.989	1339.06
525.204	1347.06
525.419	1339.06
525.634	1333.06
525.849	1360.06
526.064	1339.06
526.28	1357.06
526.495	1346.06
526.71	1343.06
526.925	1347.06
527.14	1325.06
527.355	1356.06
527.57	1320.06
527.785	1285.06
527.999	1321.06
528.214	1350.06
528.429	1299.06
528.644	1347.06
528.859	1293.06
529.074	1308.06
529.289	1328.06
529.503	1338.06
529.718	1338.06
529.933	1338.06
530.148	1320.06
530.363	1314.06
530.577	1293.06
530.792	1308.06
531.007	1324.06
531.221	1301.06
531.436	1339.06
531.651	1319.06
531.865	1314.06
532.08	1349.06
532.295	1332.06
532.509	1285.06
532.724	1303.06
532.938	1308.06
533.153	1335.06
533.367	1307.06
533.582	1295.06
533.796	1292.06
534.011	1331.06
534.225	1303.06
534.44	1277.06
534.654	1270.06
534.868	1297.06
535.083	1274.06
535.297	1266.06
535.511	1262.06
535.726	1223.06
535.94	1223.06
536.154	1245.06
536.369	1236.06
536.583	1249.06
536.797	1238.06
537.011	1212.06
537.225	1212.06
537.44	1191.06
537.654	1240.06
537.868	1226.06
538.082	1217.06
538.296	1208.06
538.51	1203.06
538.724	1201.06
538.938	1150.06
539.153	1182.06
539.367	1191.06
539.581	1158.06
539.795	1182.06
540.009	1171.06
540.222	1153.06
540.436	1171.06
540.65	1145.06
540.864	1151.06
541.078	1135.06
541.292	1187.06
541.506	1186.06
541.72	1152.06
541.934	1158.06
542.147	1180.06
542.361	1176.06
542.575	1136.06
542.789	1166.06
543.002	1131.06
543.216	1133.06
543.43	1158.06
543.644	1131.06
543.857	1156.06
544.071	1163.06
544.285	1165.06
544.498	1148.06
544.712	1154.06
544.925	1190.06
545.139	1149.06
545.352	1153.06
545.566	1178.06
545.779	1182.06
545.993	1174.06
546.206	1179.06
546.42	1155.06
546.633	1168.06
546.847	1175.06
547.06	1185.06
547.274	1180.06
547.487	1163.06
547.7	1190.06
547.914	1185.06
548.127	1186.06
548.34	1177.06
548.554	1195.06
548.767	1172.06
548.98	1205.06
549.193	1189.06
549.407	1183.06
549.62	1185.06
549.833	1208.06
550.046	1207.06
550.259	1171.06
550.473	1148.06
550.686	1155.06
550.899	1162.06
551.112	1158.06
551.325	1153.06
551.538	1146.06
551.751	1167.06
551.964	1158.06
552.177	1184.06
552.39	1207.06
552.603	1225.06
552.816	1263.06
553.029	1275.06
553.242	1256.06
553.455	1251.06
553.667	1252.06
553.88	1251.06
554.093	1223.06
554.306	1233.06
554.519	1212.06
554.732	1195.06
554.944	1128.06
555.157	1121.06
555.37	1116.06
555.583	1075.06
555.795	1113.06
556.008	1076.06
556.221	1039.06
556.433	1037.06
556.646	1061.06
556.859	1011.06
557.071	1005.06
557.284	1021.06
557.496	1041.06
557.709	1024.06
557.921	994.06
558.134	994.06
558.346	999.06
558.559	998.06
558.771	977.06
558.984	978.06
559.196	975.06
559.409	981.06
559.621	998.06
559.833	992.06
560.046	946.06
560.258	972.06
560.47	975.06
560.683	972.06
560.895	975.06
561.107	973.06
561.32	973.06
561.532	985.06
561.744	983.06
561.956	949.06
562.168	965.06
562.381	979.06
562.593	959.06
562.805	984.06
563.017	959.06
563.229	971.06
563.441	987.06
563.653	978.06
563.865	988.06
564.077	1029.06
564.289	1039.06
564.501	1011.06
564.713	1028.06
564.925	1023.06
565.137	1063.06
565.349	1101.06
565.561	1121.06
565.773	1163.06
565.985	1208.06
566.197	1271.06
566.408	1315.06
566.62	1428.06
566.832	1519.06
567.044	1547.06
567.255	1529.06
567.467	1588.06
567.679	1690.06
567.891	1743.06
568.102	1735.06
568.314	1650.06
568.526	1542.06
568.737	1412.06
568.949	1339.06
569.161	1226.06
569.372	1165.06
569.584	1085.06
569.795	1075.06
570.007	1009.06
570.218	1009.06
570.43	1035.06
570.641	1014.06
570.853	987.06
571.064	992.06
571.276	1003.06
571.487	966.06
571.698	956.06
571.91	920.06
572.121	923.06
572.333	871.06
572.544	855.06
572.755	868.06
572.966	861.06
573.178	845.06
573.389	824.06
573.6	805.06
573.811	798.06
574.023	799.06
574.234	824.06
574.445	785.06
574.656	781.06
574.867	798.06
575.078	800.06
575.289	759.06
575.501	759.06
575.712	759.06
575.923	754.06
576.134	759.06
576.345	755.06
576.556	767.06
576.767	733.06
576.978	734.06
577.188	736.06
577.399	715.06
577.61	727.06
577.821	740.06
578.032	712.06
578.243	713.06
578.454	711.06
578.665	697.06
578.875	698.06
579.086	691.06
579.297	725.06
579.508	709.06
579.718	687.06
579.929	695.06
580.14	684.06
580.35	681.06
580.561	671.06
580.772	667.06
580.982	671.06
581.193	660.06
581.403	673.06
581.614	650.06
581.825	671.06
582.035	661.06
582.246	667.06
582.456	656.06
582.667	657.06
582.877	670.06
583.087	654.06
583.298	656.06
583.508	657.06
583.719	647.06
583.929	648.06
584.139	635.06
584.35	661.06
584.56	644.06
584.77	649.06
584.981	654.06
585.191	647.06
585.401	601.06
585.611	641.06
585.821	647.06
586.032	654.06
586.242	644.06
586.452	607.06
586.662	625.06
586.872	604.06
587.082	611.06
587.292	630.06
587.502	619.06
587.713	634.06
587.923	614.06
588.133	622.06
588.343	624.06
588.553	614.06
588.762	618.06
588.972	596.06
589.182	663.06
589.392	672.06
589.602	617.06
589.812	635.06
590.022	620.06
590.232	627.06
590.441	618.06
590.651	649.06
590.861	630.06
591.071	648.06
591.281	644.06
591.49	652.06
591.7	662.06
591.91	646.06
592.119	664.06
592.329	695.06
592.539	717.06
592.748	731.06
592.958	750.06
593.167	761.06
593.377	754.06
593.587	768.06
593.796	784.06
594.006	774.06
594.215	799.06
594.424	775.06
594.634	779.06
594.843	733.06
595.053	703.06
595.262	668.06
595.472	691.06
595.681	635.06
595.89	645.06
596.1	639.06
596.309	639.06
596.518	617.06
596.727	577.06
596.937	600.06
597.146	584.06
597.355	571.06
597.564	591.06
597.774	579.06
597.983	547.06
598.192	552.06
598.401	546.06
598.61	562.06
598.819	539.06
599.028	523.06
599.237	530.06
599.446	527.06
599.655	540.06
599.864	530.06
600.073	537.06
600.282	497.06
600.491	503.06
600.7	499.06
600.909	524.06
601.118	501.06
601.327	528.06
601.536	507.06
601.745	489.06
601.953	529.06
602.162	502.06
602.371	490.06
602.58	484.06
602.789	511.06
602.997	503.06
603.206	489.06
603.415	482.06
603.623	499.06
603.832	499.06
604.041	465.06
604.249	487.06
604.458	475.06
604.666	486.06
604.875	481.06
605.084	470.06
605.292	464.06
605.501	463.06
605.709	472.06
605.918	484.06
606.126	473.06
606.334	460.06
606.543	484.06
606.751	458.06
606.96	460.06
607.168	470.06
607.376	467.06
607.585	477.06
607.793	465.06
608.001	476.06
608.21	465.06
608.418	457.06
608.626	455.06
608.834	448.06
609.043	481.06
609.251	451.06
609.459	468.06
609.667	449.06
609.875	467.06
610.083	444.06
610.291	472.06
610.499	434.06
610.707	442.06
610.916	450.06
611.124	440.06
611.332	453.06
611.54	449.06
611.748	442.06
611.955	434.06
612.163	415.06
612.371	444.06
612.579	442.06
612.787	448.06
612.995	424.06
613.203	434.06
613.411	440.06
613.618	436.06
613.826	428.06
614.034	437.06
614.242	436.06
614.449	425.06
614.657	421.06
614.865	413.06
615.072	437.06
615.28	425.06
615.488	432.06
615.695	423.06
615.903	413.06
616.111	445.06
616.318	467.06
616.526	450.06
616.733	453.06
616.941	428.06
617.148	431.06
617.356	437.06
617.563	421.06
617.771	443.06
617.978	425.06
618.185	421.06
618.393	424.06
618.6	419.06
618.807	431.06
619.015	442.06
619.222	416.06
619.429	411.06
619.637	414.06
619.844	431.06
620.051	413.06
620.258	395.06
620.466	419.06
620.673	389.06
620.88	389.06
621.087	407.06
621.294	403.06
621.501	402.06
621.708	397.06
621.915	407.06
622.122	399.06
622.329	411.06
622.536	402.06
622.743	400.06
622.95	400.06
623.157	385.06
623.364	393.06
623.571	381.06
623.778	382.06
623.985	393.06
624.192	385.06
624.399	359.06
624.606	369.06
624.812	385.06
625.019	372.06
625.226	379.06
625.433	364.06
625.639	387.06
625.846	364.06
626.053	387.06
626.259	373.06
626.466	366.06
626.673	377.06
626.879	376.06
627.086	355.06
627.293	357.06
627.499	378.06
627.706	383.06
627.912	349.06
628.119	337.06
628.325	340.06
628.532	355.06
628.738	348.06
628.945	367.06
629.151	375.06
629.357	353.06
629.564	357.06
629.77	348.06
629.976	340.06
630.183	347.06
630.389	332.06
630.595	341.06
630.802	343.06
631.008	328.06
631.214	322.06
631.42	329.06
631.627	327.06
631.833	315.06
632.039	338.06
632.245	327.06
632.451	347.06
632.657	322.06
632.863	335.06
633.069	325.06
633.275	327.06
633.481	312.06
633.688	298.06
633.893	310.06
634.099	308.06
634.305	319.06
634.511	311.06
634.717	324.06
634.923	321.06
635.129	304.06
635.335	324.06
635.541	325.06
635.747	330.06
635.952	317.06
636.158	315.06
636.364	316.06
636.57	327.06
636.775	298.06
636.981	319.06
637.187	302.06
637.392	314.06
637.598	284.06
637.804	295.06
638.009	305.06
638.215	299.06
638.421	308.06
638.626	317.06
638.832	295.06
639.037	300.06
639.243	316.06
639.448	308.06
639.654	285.06
639.859	292.06
640.065	298.06
640.27	299.06
640.475	290.06
640.681	289.06
640.886	289.06
641.091	294.06
641.297	301.06
641.502	293.06
641.707	279.06
641.913	291.06
642.118	280.06
642.323	282.06
642.528	278.06
642.733	277.06
642.939	290.06
643.144	289.06
643.349	281.06
643.554	269.06
643.759	291.06
643.964	294.06
644.169	281.06
644.374	283.06
644.579	277.06
644.784	270.06
644.989	295.06
645.194	294.06
645.399	300.06
645.604	295.06
645.809	302.06
646.014	312.06
646.219	287.06
646.423	287.06
646.628	272.06
646.833	289.06
647.038	300.06
647.243	316.06
647.447	284.06
647.652	290.06
647.857	296.06
648.062	313.06
648.266	297.06
648.471	310.06
648.676	328.06
648.88	311.06
649.085	308.06
649.289	304.06
649.494	294.06
649.698	286.06
649.903	289.06
650.107	294.06
650.312	283.06
650.516	284.06
650.721	287.06
650.925	279.06
651.13	311.06
651.334	274.06
651.539	273.06
651.743	290.06
651.947	292.06
652.152	283.06
652.356	268.06
652.56	267.06
652.764	269.06
652.969	274.06
653.173	268.06
653.377	269.06
653.581	249.06
653.785	270.06
653.99	267.06
654.194	276.06
654.398	262.06
654.602	298.06
654.806	269.06
655.01	288.06
655.214	275.06
655.418	285.06
655.622	296.06
655.826	315.06
656.03	352.06
656.234	348.06
656.438	364.06
656.642	351.06
656.846	328.06
657.049	286.06
657.253	275.06
657.457	241.06
657.661	238.06
657.865	217.06
658.068	218.06
658.272	167.06
658.476	190.06
658.68	170.06
658.883	179.06
659.087	161.06
659.291	155.06
659.494	124.06
659.698	141.06
659.901	142.06
660.105	123.06
660.309	126.06
660.512	126.06
660.716	128.06
660.919	114.06
661.123	114.06
661.326	106.06
661.53	113.06
661.733	101.06
661.936	96.06
662.14	92.06
662.343	85.06
662.546	96.06
662.75	87.06
662.953	89.06
663.156	105.06
663.36	96.06
663.563	85.06
663.766	91.06
663.969	80.06
664.173	91.06
664.376	88.06
664.579	65.06
664.782	87.06
664.985	75.06
665.188	85.06
665.391	82.06
665.594	79.06
665.797	86.06
666	88.06
666.203	77.06
666.406	70.06
666.609	73.06
666.812	73.06
667.015	86.06
667.218	85.06
667.421	75.06
667.624	80.06
667.827	87.06
668.03	79.06
668.232	77.06
668.435	85.06
668.638	75.06
668.841	81.06
669.043	85.06
669.246	79.06
669.449	74.06
669.651	92.06
669.854	83.06
670.057	69.06
670.259	86.06
670.462	85.06
670.665	88.06
670.867	78.06
671.07	83.06
671.272	75.06
671.475	96.06
671.677	76.06
671.88	85.06
672.082	84.06
672.284	88.06
672.487	75.06
672.689	86.06
672.892	89.06
