Data from NiCl2@0.125M.TitratingCurve.Agarose3%dH2O.NegLispCup.LampEnergy10.LIBS07252019_HRD10591_18-30-12-574.txt Node
Date: Thu Jul 25 18:30:12 EDT 2019
User: cochatt
Spectrometer: HR+D1059
Trigger mode: 1
Integration Time (sec): 1.000000E-1
Scans to average: 1
Electric dark correction enabled: true
Nonlinearity correction enabled: false
Boxcar width: 0
XAxis mode: Wavelengths
Number of Pixels in Spectrum: 2048
>>>>>Begin Spectral Data<<<<<
223.165	-19.62
223.4	-19.62
223.635	-19.62
223.869	-14.62
224.104	-9.62
224.338	-14.62
224.573	-9.62
224.808	-11.62
225.042	-10.62
225.277	-1.62
225.511	1.38
225.746	3.38
225.98	22.38
226.215	3.38
226.449	11.38
226.683	19.38
226.918	6.38
227.152	24.38
227.387	34.38
227.621	29.38
227.856	43.38
228.09	53.38
228.324	54.38
228.559	58.38
228.793	76.38
229.027	87.38
229.262	113.38
229.496	103.38
229.73	123.38
229.964	137.38
230.199	131.38
230.433	123.38
230.667	139.38
230.901	150.38
231.136	144.38
231.37	134.38
231.604	151.38
231.838	165.38
232.072	163.38
232.306	144.38
232.541	143.38
232.775	136.38
233.009	165.38
233.243	157.38
233.477	139.38
233.711	151.38
233.945	153.38
234.179	153.38
234.413	155.38
234.647	143.38
234.881	159.38
235.115	152.38
235.349	169.38
235.583	149.38
235.817	175.38
236.051	170.38
236.285	160.38
236.519	157.38
236.753	158.38
236.987	162.38
237.221	167.38
237.455	173.38
237.689	169.38
237.922	155.38
238.156	157.38
238.39	164.38
238.624	178.38
238.858	171.38
239.091	173.38
239.325	181.38
239.559	166.38
239.793	183.38
240.027	186.38
240.26	173.38
240.494	180.38
240.728	175.38
240.961	179.38
241.195	209.38
241.429	192.38
241.662	170.38
241.896	181.38
242.13	193.38
242.363	215.38
242.597	198.38
242.83	209.38
243.064	196.38
243.298	183.38
243.531	215.38
243.765	210.38
243.998	209.38
244.232	235.38
244.465	218.38
244.699	218.38
244.932	248.38
245.166	232.38
245.399	227.38
245.633	240.38
245.866	218.38
246.099	221.38
246.333	235.38
246.566	215.38
246.8	244.38
247.033	233.38
247.266	246.38
247.5	233.38
247.733	230.38
247.966	251.38
248.2	255.38
248.433	250.38
248.666	251.38
248.899	257.38
249.133	259.38
249.366	274.38
249.599	263.38
249.832	264.38
250.066	251.38
250.299	267.38
250.532	262.38
250.765	251.38
250.998	282.38
251.231	268.38
251.465	265.38
251.698	250.38
251.931	268.38
252.164	289.38
252.397	267.38
252.63	280.38
252.863	277.38
253.096	272.38
253.329	277.38
253.562	276.38
253.795	270.38
254.028	298.38
254.261	302.38
254.494	281.38
254.727	291.38
254.96	299.38
255.193	282.38
255.426	286.38
255.659	310.38
255.892	294.38
256.124	290.38
256.357	291.38
256.59	289.38
256.823	310.38
257.056	306.38
257.289	321.38
257.521	329.38
257.754	331.38
257.987	319.38
258.22	318.38
258.452	305.38
258.685	315.38
258.918	329.38
259.151	333.38
259.383	309.38
259.616	306.38
259.849	336.38
260.081	317.38
260.314	321.38
260.547	317.38
260.779	325.38
261.012	332.38
261.244	339.38
261.477	344.38
261.71	348.38
261.942	323.38
262.175	329.38
262.407	344.38
262.64	341.38
262.872	329.38
263.105	347.38
263.337	354.38
263.57	351.38
263.802	355.38
264.035	343.38
264.267	363.38
264.499	340.38
264.732	329.38
264.964	379.38
265.197	369.38
265.429	358.38
265.661	380.38
265.894	371.38
266.126	350.38
266.358	381.38
266.591	354.38
266.823	369.38
267.055	365.38
267.287	375.38
267.52	362.38
267.752	369.38
267.984	389.38
268.216	378.38
268.448	385.38
268.681	381.38
268.913	389.38
269.145	387.38
269.377	365.38
269.609	393.38
269.841	401.38
270.073	389.38
270.306	372.38
270.538	402.38
270.77	389.38
271.002	381.38
271.234	392.38
271.466	397.38
271.698	399.38
271.93	411.38
272.162	394.38
272.394	394.38
272.626	404.38
272.858	415.38
273.09	398.38
273.322	408.38
273.553	399.38
273.785	407.38
274.017	410.38
274.249	427.38
274.481	418.38
274.713	428.38
274.945	422.38
275.176	423.38
275.408	417.38
275.64	442.38
275.872	426.38
276.104	413.38
276.335	402.38
276.567	406.38
276.799	446.38
277.031	428.38
277.262	449.38
277.494	451.38
277.726	424.38
277.957	430.38
278.189	453.38
278.421	447.38
278.652	448.38
278.884	449.38
279.115	445.38
279.347	462.38
279.579	463.38
279.81	445.38
280.042	449.38
280.273	476.38
280.505	479.38
280.736	464.38
280.968	474.38
281.199	468.38
281.431	492.38
281.662	476.38
281.894	486.38
282.125	477.38
282.356	487.38
282.588	484.38
282.819	469.38
283.051	484.38
283.282	483.38
283.513	498.38
283.745	488.38
283.976	464.38
284.207	493.38
284.439	498.38
284.67	503.38
284.901	508.38
285.132	531.38
285.364	479.38
285.595	488.38
285.826	500.38
286.057	513.38
286.288	508.38
286.52	509.38
286.751	529.38
286.982	485.38
287.213	513.38
287.444	526.38
287.675	532.38
287.906	523.38
288.138	524.38
288.369	535.38
288.6	540.38
288.831	541.38
289.062	531.38
289.293	537.38
289.524	537.38
289.755	545.38
289.986	525.38
290.217	526.38
290.448	548.38
290.679	555.38
290.91	519.38
291.141	554.38
291.371	550.38
291.602	534.38
291.833	550.38
292.064	585.38
292.295	538.38
292.526	560.38
292.757	534.38
292.987	540.38
293.218	547.38
293.449	567.38
293.68	538.38
293.91	549.38
294.141	545.38
294.372	533.38
294.603	565.38
294.833	555.38
295.064	558.38
295.295	551.38
295.525	545.38
295.756	570.38
295.987	546.38
296.217	579.38
296.448	556.38
296.679	574.38
296.909	561.38
297.14	553.38
297.37	595.38
297.601	598.38
297.831	599.38
298.062	588.38
298.292	600.38
298.523	618.38
298.753	631.38
298.984	615.38
299.214	603.38
299.445	599.38
299.675	626.38
299.905	608.38
300.136	603.38
300.366	598.38
300.597	604.38
300.827	629.38
301.057	622.38
301.288	631.38
301.518	645.38
301.748	651.38
301.979	628.38
302.209	629.38
302.439	617.38
302.669	597.38
302.9	616.38
303.13	598.38
303.36	618.38
303.59	623.38
303.82	610.38
304.051	619.38
304.281	628.38
304.511	621.38
304.741	611.38
304.971	616.38
305.201	627.38
305.431	598.38
305.661	605.38
305.891	601.38
306.121	604.38
306.352	585.38
306.582	606.38
306.812	596.38
307.042	590.38
307.272	591.38
307.502	593.38
307.731	589.38
307.961	594.38
308.191	628.38
308.421	599.38
308.651	607.38
308.881	578.38
309.111	602.38
309.341	605.38
309.571	614.38
309.8	608.38
310.03	591.38
310.26	598.38
310.49	581.38
310.72	592.38
310.949	605.38
311.179	611.38
311.409	589.38
311.639	610.38
311.868	605.38
312.098	614.38
312.328	616.38
312.557	633.38
312.787	628.38
313.017	632.38
313.246	637.38
313.476	621.38
313.706	631.38
313.935	641.38
314.165	649.38
314.394	665.38
314.624	644.38
314.853	649.38
315.083	663.38
315.312	647.38
315.542	636.38
315.771	627.38
316.001	629.38
316.23	621.38
316.46	639.38
316.689	625.38
316.919	622.38
317.148	604.38
317.377	618.38
317.607	606.38
317.836	626.38
318.065	625.38
318.295	631.38
318.524	632.38
318.753	602.38
318.983	609.38
319.212	620.38
319.441	640.38
319.67	630.38
319.9	635.38
320.129	618.38
320.358	646.38
320.587	619.38
320.816	641.38
321.046	633.38
321.275	633.38
321.504	638.38
321.733	636.38
321.962	625.38
322.191	643.38
322.42	629.38
322.649	635.38
322.878	635.38
323.108	623.38
323.337	633.38
323.566	635.38
323.795	643.38
324.024	658.38
324.253	654.38
324.482	641.38
324.71	639.38
324.939	651.38
325.168	661.38
325.397	648.38
325.626	686.38
325.855	651.38
326.084	674.38
326.313	691.38
326.542	705.38
326.77	715.38
326.999	689.38
327.228	671.38
327.457	695.38
327.686	678.38
327.914	675.38
328.143	701.38
328.372	698.38
328.6	670.38
328.829	675.38
329.058	673.38
329.287	673.38
329.515	670.38
329.744	658.38
329.972	674.38
330.201	683.38
330.43	698.38
330.658	708.38
330.887	715.38
331.115	717.38
331.344	697.38
331.572	723.38
331.801	755.38
332.03	749.38
332.258	762.38
332.486	773.38
332.715	789.38
332.943	826.38
333.172	853.38
333.4	903.38
333.629	945.38
333.857	937.38
334.085	917.38
334.314	884.38
334.542	868.38
334.771	870.38
334.999	833.38
335.227	858.38
335.455	856.38
335.684	863.38
335.912	832.38
336.14	846.38
336.369	820.38
336.597	841.38
336.825	817.38
337.053	821.38
337.281	807.38
337.51	794.38
337.738	801.38
337.966	781.38
338.194	725.38
338.422	756.38
338.65	737.38
338.878	742.38
339.106	736.38
339.334	746.38
339.562	738.38
339.79	711.38
340.018	703.38
340.246	719.38
340.474	714.38
340.702	709.38
340.93	730.38
341.158	716.38
341.386	729.38
341.614	723.38
341.842	733.38
342.07	714.38
342.298	716.38
342.526	706.38
342.754	719.38
342.981	689.38
343.209	717.38
343.437	747.38
343.665	819.38
343.893	890.38
344.12	927.38
344.348	884.38
344.576	797.38
344.804	783.38
345.031	715.38
345.259	721.38
345.487	727.38
345.714	732.38
345.942	699.38
346.17	714.38
346.397	684.38
346.625	736.38
346.853	698.38
347.08	693.38
347.308	723.38
347.535	722.38
347.763	729.38
347.99	701.38
348.218	713.38
348.445	733.38
348.673	694.38
348.9	718.38
349.128	675.38
349.355	692.38
349.583	677.38
349.81	659.38
350.037	689.38
350.265	674.38
350.492	667.38
350.72	669.38
350.947	650.38
351.174	662.38
351.402	659.38
351.629	679.38
351.856	696.38
352.083	648.38
352.311	679.38
352.538	649.38
352.765	657.38
352.992	671.38
353.22	653.38
353.447	661.38
353.674	662.38
353.901	692.38
354.128	659.38
354.355	671.38
354.583	665.38
354.81	675.38
355.037	667.38
355.264	675.38
355.491	666.38
355.718	652.38
355.945	666.38
356.172	679.38
356.399	660.38
356.626	692.38
356.853	694.38
357.08	690.38
357.307	657.38
357.534	665.38
357.761	662.38
357.988	678.38
358.215	673.38
358.441	667.38
358.668	651.38
358.895	658.38
359.122	677.38
359.349	662.38
359.576	653.38
359.802	651.38
360.029	653.38
360.256	639.38
360.483	677.38
360.709	660.38
360.936	672.38
361.163	687.38
361.39	680.38
361.616	680.38
361.843	659.38
362.07	693.38
362.296	659.38
362.523	688.38
362.749	669.38
362.976	672.38
363.203	673.38
363.429	634.38
363.656	661.38
363.882	664.38
364.109	662.38
364.335	655.38
364.562	659.38
364.788	667.38
365.015	659.38
365.241	646.38
365.468	662.38
365.694	652.38
365.92	660.38
366.147	653.38
366.373	673.38
366.599	683.38
366.826	661.38
367.052	657.38
367.278	653.38
367.505	659.38
367.731	678.38
367.957	670.38
368.184	675.38
368.41	672.38
368.636	678.38
368.862	697.38
369.089	670.38
369.315	717.38
369.541	677.38
369.767	711.38
369.993	670.38
370.219	696.38
370.445	717.38
370.672	719.38
370.898	724.38
371.124	705.38
371.35	739.38
371.576	714.38
371.802	731.38
372.028	709.38
372.254	718.38
372.48	740.38
372.706	733.38
372.932	752.38
373.158	773.38
373.384	779.38
373.61	730.38
373.835	714.38
374.061	734.38
374.287	777.38
374.513	746.38
374.739	784.38
374.965	789.38
375.191	811.38
375.416	821.38
375.642	791.38
375.868	778.38
376.094	761.38
376.319	762.38
376.545	750.38
376.771	722.38
376.997	727.38
377.222	733.38
377.448	718.38
377.674	729.38
377.899	725.38
378.125	723.38
378.35	709.38
378.576	713.38
378.802	714.38
379.027	716.38
379.253	727.38
379.478	721.38
379.704	701.38
379.929	725.38
380.155	712.38
380.38	697.38
380.606	709.38
380.831	718.38
381.057	731.38
381.282	726.38
381.507	740.38
381.733	742.38
381.958	732.38
382.184	743.38
382.409	737.38
382.634	750.38
382.86	742.38
383.085	760.38
383.31	761.38
383.535	813.38
383.761	820.38
383.986	817.38
384.211	837.38
384.436	841.38
384.662	900.38
384.887	857.38
385.112	887.38
385.337	883.38
385.562	894.38
385.787	900.38
386.013	874.38
386.238	885.38
386.463	917.38
386.688	899.38
386.913	872.38
387.138	894.38
387.363	873.38
387.588	863.38
387.813	857.38
388.038	847.38
388.263	858.38
388.488	894.38
388.713	889.38
388.938	859.38
389.163	853.38
389.387	840.38
389.612	840.38
389.837	847.38
390.062	842.38
390.287	842.38
390.512	868.38
390.736	853.38
390.961	884.38
391.186	893.38
391.411	924.38
391.636	956.38
391.86	979.38
392.085	975.38
392.31	998.38
392.534	977.38
392.759	935.38
392.984	913.38
393.208	937.38
393.433	927.38
393.658	945.38
393.882	937.38
394.107	909.38
394.331	893.38
394.556	917.38
394.78	899.38
395.005	935.38
395.229	967.38
395.454	960.38
395.678	987.38
395.903	990.38
396.127	968.38
396.352	931.38
396.576	942.38
396.801	898.38
397.025	925.38
397.249	929.38
397.474	955.38
397.698	969.38
397.922	938.38
398.147	964.38
398.371	995.38
398.595	985.38
398.82	1036.38
399.044	1121.38
399.268	1254.38
399.492	1476.38
399.717	1703.38
399.941	1708.38
400.165	1509.38
400.389	1345.38
400.613	1219.38
400.837	1132.38
401.062	1113.38
401.286	1101.38
401.51	1083.38
401.734	1071.38
401.958	1091.38
402.182	1101.38
402.406	1112.38
402.63	1140.38
402.854	1198.38
403.078	1175.38
403.302	1213.38
403.526	1232.38
403.75	1273.38
403.974	1297.38
404.198	1273.38
404.422	1317.38
404.645	1321.38
404.869	1270.38
405.093	1274.38
405.317	1238.38
405.541	1215.38
405.765	1215.38
405.988	1206.38
406.212	1196.38
406.436	1186.38
406.66	1246.38
406.883	1246.38
407.107	1322.38
407.331	1350.38
407.555	1434.38
407.778	1418.38
408.002	1419.38
408.226	1382.38
408.449	1362.38
408.673	1260.38
408.896	1274.38
409.12	1242.38
409.344	1260.38
409.567	1270.38
409.791	1316.38
410.014	1257.38
410.238	1272.38
410.461	1210.38
410.685	1220.38
410.908	1194.38
411.132	1196.38
411.355	1185.38
411.578	1143.38
411.802	1142.38
412.025	1159.38
412.249	1159.38
412.472	1140.38
412.695	1115.38
412.919	1091.38
413.142	1095.38
413.365	1105.38
413.589	1080.38
413.812	1131.38
414.035	1098.38
414.258	1091.38
414.482	1092.38
414.705	1102.38
414.928	1123.38
415.151	1117.38
415.374	1118.38
415.597	1093.38
415.821	1087.38
416.044	1081.38
416.267	1067.38
416.49	1054.38
416.713	1083.38
416.936	1085.38
417.159	1063.38
417.382	1063.38
417.605	1073.38
417.828	1087.38
418.051	1113.38
418.274	1092.38
418.497	1071.38
418.72	1118.38
418.943	1127.38
419.166	1187.38
419.389	1287.38
419.611	1273.38
419.834	1208.38
420.057	1133.38
420.28	1122.38
420.503	1077.38
420.726	1068.38
420.948	1085.38
421.171	1057.38
421.394	1074.38
421.617	1092.38
421.839	1094.38
422.062	1131.38
422.285	1097.38
422.507	1113.38
422.73	1132.38
422.953	1113.38
423.175	1140.38
423.398	1159.38
423.621	1145.38
423.843	1186.38
424.066	1167.38
424.288	1174.38
424.511	1191.38
424.733	1146.38
424.956	1128.38
425.178	1101.38
425.401	1101.38
425.623	1103.38
425.846	1072.38
426.068	1051.38
426.291	1068.38
426.513	1047.38
426.735	1003.38
426.958	1049.38
427.18	1005.38
427.402	983.38
427.625	993.38
427.847	997.38
428.069	969.38
428.292	991.38
428.514	980.38
428.736	950.38
428.958	1014.38
429.181	978.38
429.403	961.38
429.625	942.38
429.847	987.38
430.069	956.38
430.292	964.38
430.514	950.38
430.736	967.38
430.958	991.38
431.18	972.38
431.402	974.38
431.624	995.38
431.846	973.38
432.068	964.38
432.29	1025.38
432.512	971.38
432.734	984.38
432.956	987.38
433.178	991.38
433.4	971.38
433.622	995.38
433.844	1001.38
434.066	995.38
434.287	1006.38
434.509	1047.38
434.731	1077.38
434.953	1107.38
435.175	1124.38
435.397	1110.38
435.618	1040.38
435.84	1006.38
436.062	1025.38
436.284	972.38
436.505	998.38
436.727	1021.38
436.949	998.38
437.17	1000.38
437.392	991.38
437.614	985.38
437.835	934.38
438.057	960.38
438.278	927.38
438.5	934.38
438.721	929.38
438.943	967.38
439.165	941.38
439.386	968.38
439.608	949.38
439.829	974.38
440.05	990.38
440.272	989.38
440.493	994.38
440.715	1033.38
440.936	1015.38
441.158	1041.38
441.379	1045.38
441.6	1121.38
441.822	1149.38
442.043	1130.38
442.264	1101.38
442.486	1074.38
442.707	1078.38
442.928	1092.38
443.149	1074.38
443.371	1106.38
443.592	1105.38
443.813	1078.38
444.034	1162.38
444.255	1163.38
444.476	1206.38
444.698	1295.38
444.919	1323.38
445.14	1436.38
445.361	1265.38
445.582	1164.38
445.803	1107.38
446.024	1064.38
446.245	1046.38
446.466	1036.38
446.687	1005.38
446.908	1027.38
447.129	978.38
447.35	969.38
447.571	966.38
447.792	936.38
448.013	929.38
448.234	943.38
448.455	936.38
448.675	909.38
448.896	938.38
449.117	923.38
449.338	897.38
449.559	921.38
449.779	876.38
450	897.38
450.221	901.38
450.442	924.38
450.662	925.38
450.883	939.38
451.104	951.38
451.324	950.38
451.545	959.38
451.766	950.38
451.986	901.38
452.207	921.38
452.428	926.38
452.648	910.38
452.869	889.38
453.089	905.38
453.31	928.38
453.53	915.38
453.751	894.38
453.971	884.38
454.192	919.38
454.412	865.38
454.633	833.38
454.853	843.38
455.073	875.38
455.294	869.38
455.514	860.38
455.734	860.38
455.955	846.38
456.175	857.38
456.395	829.38
456.616	817.38
456.836	842.38
457.056	877.38
457.276	829.38
457.497	862.38
457.717	848.38
457.937	850.38
458.157	865.38
458.377	880.38
458.598	878.38
458.818	885.38
459.038	926.38
459.258	959.38
459.478	1007.38
459.698	1031.38
459.918	1030.38
460.138	1078.38
460.358	1142.38
460.578	1169.38
460.798	1143.38
461.018	1189.38
461.238	1165.38
461.458	1137.38
461.678	1163.38
461.898	1188.38
462.118	1179.38
462.338	1234.38
462.558	1273.38
462.777	1333.38
462.997	1419.38
463.217	1599.38
463.437	1649.38
463.657	1483.38
463.876	1422.38
464.096	1369.38
464.316	1365.38
464.536	1384.38
464.755	1362.38
464.975	1288.38
465.195	1249.38
465.414	1162.38
465.634	1093.38
465.854	1065.38
466.073	1011.38
466.293	1015.38
466.512	952.38
466.732	963.38
466.951	979.38
467.171	951.38
467.391	970.38
467.61	962.38
467.829	947.38
468.049	913.38
468.268	933.38
468.488	923.38
468.707	928.38
468.927	909.38
469.146	932.38
469.365	902.38
469.585	918.38
469.804	962.38
470.023	967.38
470.243	968.38
470.462	971.38
470.681	946.38
470.901	1002.38
471.12	969.38
471.339	968.38
471.558	915.38
471.777	930.38
471.997	895.38
472.216	901.38
472.435	923.38
472.654	897.38
472.873	886.38
473.092	895.38
473.311	893.38
473.53	908.38
473.749	875.38
473.968	892.38
474.187	880.38
474.406	870.38
474.625	896.38
474.844	909.38
475.063	893.38
475.282	884.38
475.501	885.38
475.72	890.38
475.939	885.38
476.158	891.38
476.377	917.38
476.596	941.38
476.814	940.38
477.033	920.38
477.252	955.38
477.471	978.38
477.69	1020.38
477.908	993.38
478.127	1039.38
478.346	1085.38
478.564	1095.38
478.783	1098.38
479.002	1144.38
479.22	1113.38
479.439	1104.38
479.658	1100.38
479.876	1104.38
480.095	1116.38
480.313	1193.38
480.532	1230.38
480.751	1201.38
480.969	1165.38
481.188	1125.38
481.406	1076.38
481.624	1040.38
481.843	1043.38
482.061	1005.38
482.28	1038.38
482.498	1029.38
482.717	1034.38
482.935	1035.38
483.153	1031.38
483.372	1023.38
483.59	1039.38
483.808	1002.38
484.027	1009.38
484.245	1005.38
484.463	1043.38
484.681	1050.38
484.9	1042.38
485.118	1061.38
485.336	1064.38
485.554	1094.38
485.772	1137.38
485.99	1101.38
486.209	1121.38
486.427	1078.38
486.645	1094.38
486.863	1089.38
487.081	1071.38
487.299	1092.38
487.517	1089.38
487.735	1087.38
487.953	1060.38
488.171	1068.38
488.389	1059.38
488.607	1046.38
488.825	1086.38
489.043	1027.38
489.261	1055.38
489.479	1080.38
489.696	1092.38
489.914	1027.38
490.132	1096.38
490.35	1058.38
490.568	1079.38
490.786	1081.38
491.003	1057.38
491.221	1091.38
491.439	1094.38
491.657	1080.38
491.874	1085.38
492.092	1095.38
492.31	1101.38
492.527	1083.38
492.745	1079.38
492.963	1062.38
493.18	1107.38
493.398	1089.38
493.615	1132.38
493.833	1097.38
494.05	1145.38
494.268	1139.38
494.485	1143.38
494.703	1124.38
494.92	1131.38
495.138	1131.38
495.355	1143.38
495.573	1141.38
495.79	1128.38
496.008	1149.38
496.225	1145.38
496.442	1150.38
496.66	1171.38
496.877	1171.38
497.094	1193.38
497.312	1211.38
497.529	1247.38
497.746	1284.38
497.963	1301.38
498.181	1343.38
498.398	1395.38
498.615	1496.38
498.832	1599.38
499.049	1747.38
499.267	1878.38
499.484	2054.38
499.701	2274.38
499.918	2477.38
500.135	2920.38
500.352	3367.38
500.569	3605.38
500.786	3534.38
501.003	3261.38
501.22	2907.38
501.437	2563.38
501.654	2210.38
501.871	2001.38
502.088	1808.38
502.305	1695.38
502.522	1583.38
502.739	1533.38
502.956	1469.38
503.172	1397.38
503.389	1356.38
503.606	1302.38
503.823	1274.38
504.04	1300.38
504.256	1317.38
504.473	1309.38
504.69	1354.38
504.907	1321.38
505.123	1238.38
505.34	1193.38
505.557	1137.38
505.773	1105.38
505.99	1099.38
506.207	1068.38
506.423	1041.38
506.64	1038.38
506.856	1024.38
507.073	1005.38
507.289	993.38
507.506	995.38
507.722	988.38
507.939	979.38
508.155	954.38
508.372	968.38
508.588	926.38
508.805	951.38
509.021	949.38
509.238	940.38
509.454	930.38
509.67	916.38
509.887	933.38
510.103	909.38
510.319	935.38
510.536	915.38
510.752	912.38
510.968	917.38
511.184	899.38
511.401	921.38
511.617	934.38
511.833	915.38
512.049	910.38
512.265	935.38
512.481	930.38
512.698	871.38
512.914	898.38
513.13	923.38
513.346	907.38
513.562	925.38
513.778	919.38
513.994	927.38
514.21	910.38
514.426	909.38
514.642	932.38
514.858	928.38
515.074	934.38
515.29	939.38
515.506	933.38
515.721	956.38
515.937	983.38
516.153	979.38
516.369	1032.38
516.585	1034.38
516.801	1067.38
517.016	1109.38
517.232	1160.38
517.448	1228.38
517.664	1289.38
517.879	1313.38
518.095	1306.38
518.311	1261.38
518.527	1191.38
518.742	1131.38
518.958	1119.38
519.173	1049.38
519.389	1038.38
519.605	979.38
519.82	1013.38
520.036	965.38
520.251	947.38
520.467	942.38
520.682	921.38
520.898	892.38
521.113	933.38
521.329	903.38
521.544	916.38
521.76	910.38
521.975	871.38
522.19	863.38
522.406	894.38
522.621	891.38
522.836	892.38
523.052	847.38
523.267	857.38
523.482	877.38
523.698	850.38
523.913	839.38
524.128	855.38
524.343	850.38
524.559	855.38
524.774	839.38
524.989	845.38
525.204	841.38
525.419	835.38
525.634	840.38
525.849	821.38
526.064	832.38
526.28	850.38
526.495	835.38
526.71	840.38
526.925	805.38
527.14	814.38
527.355	835.38
527.57	821.38
527.785	847.38
527.999	824.38
528.214	831.38
528.429	846.38
528.644	812.38
528.859	850.38
529.074	838.38
529.289	847.38
529.503	812.38
529.718	841.38
529.933	811.38
530.148	815.38
530.363	810.38
530.577	812.38
530.792	821.38
531.007	837.38
531.221	819.38
531.436	836.38
531.651	841.38
531.865	829.38
532.08	821.38
532.295	827.38
532.509	844.38
532.724	818.38
532.938	822.38
533.153	845.38
533.367	821.38
533.582	868.38
533.796	831.38
534.011	846.38
534.225	822.38
534.44	821.38
534.654	803.38
534.868	797.38
535.083	813.38
535.297	780.38
535.511	796.38
535.726	829.38
535.94	822.38
536.154	806.38
536.369	794.38
536.583	762.38
536.797	759.38
537.011	772.38
537.225	757.38
537.44	767.38
537.654	809.38
537.868	766.38
538.082	742.38
538.296	755.38
538.51	758.38
538.724	762.38
538.938	746.38
539.153	737.38
539.367	759.38
539.581	749.38
539.795	731.38
540.009	715.38
540.222	746.38
540.436	733.38
540.65	748.38
540.864	733.38
541.078	741.38
541.292	741.38
541.506	745.38
541.72	739.38
541.934	724.38
542.147	742.38
542.361	745.38
542.575	734.38
542.789	726.38
543.002	734.38
543.216	725.38
543.43	727.38
543.644	726.38
543.857	713.38
544.071	753.38
544.285	726.38
544.498	734.38
544.712	750.38
544.925	735.38
545.139	714.38
545.352	778.38
545.566	763.38
545.779	772.38
545.993	772.38
546.206	753.38
546.42	738.38
546.633	747.38
546.847	778.38
547.06	753.38
547.274	719.38
547.487	733.38
547.7	737.38
547.914	755.38
548.127	778.38
548.34	775.38
548.554	756.38
548.767	767.38
548.98	750.38
549.193	757.38
549.407	765.38
549.62	760.38
549.833	798.38
550.046	767.38
550.259	761.38
550.473	740.38
550.686	757.38
550.899	730.38
551.112	747.38
551.325	753.38
551.538	739.38
551.751	725.38
551.964	750.38
552.177	748.38
552.39	727.38
552.603	769.38
552.816	773.38
553.029	813.38
553.242	814.38
553.455	835.38
553.667	841.38
553.88	827.38
554.093	821.38
554.306	779.38
554.519	767.38
554.732	768.38
554.944	709.38
555.157	743.38
555.37	718.38
555.583	702.38
555.795	683.38
556.008	681.38
556.221	660.38
556.433	662.38
556.646	690.38
556.859	665.38
557.071	646.38
557.284	649.38
557.496	642.38
557.709	653.38
557.921	631.38
558.134	661.38
558.346	618.38
558.559	623.38
558.771	638.38
558.984	620.38
559.196	647.38
559.409	616.38
559.621	627.38
559.833	637.38
560.046	642.38
560.258	628.38
560.47	631.38
560.683	628.38
560.895	637.38
561.107	619.38
561.32	649.38
561.532	613.38
561.744	632.38
561.956	633.38
562.168	642.38
562.381	606.38
562.593	622.38
562.805	628.38
563.017	634.38
563.229	640.38
563.441	639.38
563.653	620.38
563.865	639.38
564.077	637.38
564.289	655.38
564.501	662.38
564.713	676.38
564.925	677.38
565.137	673.38
565.349	678.38
565.561	728.38
565.773	720.38
565.985	796.38
566.197	817.38
566.408	873.38
566.62	941.38
566.832	1029.38
567.044	1047.38
567.255	1064.38
567.467	1094.38
567.679	1126.38
567.891	1219.38
568.102	1241.38
568.314	1201.38
568.526	1075.38
568.737	977.38
568.949	894.38
569.161	789.38
569.372	744.38
569.584	722.38
569.795	669.38
570.007	658.38
570.218	642.38
570.43	623.38
570.641	631.38
570.853	641.38
571.064	677.38
571.276	648.38
571.487	621.38
571.698	609.38
571.91	597.38
572.121	582.38
572.333	599.38
572.544	591.38
572.755	548.38
572.966	561.38
573.178	553.38
573.389	540.38
573.6	529.38
573.811	522.38
574.023	537.38
574.234	511.38
574.445	547.38
574.656	560.38
574.867	515.38
575.078	530.38
575.289	526.38
575.501	541.38
575.712	491.38
575.923	490.38
576.134	501.38
576.345	517.38
576.556	511.38
576.767	500.38
576.978	483.38
577.188	501.38
577.399	489.38
577.61	499.38
577.821	485.38
578.032	468.38
578.243	475.38
578.454	471.38
578.665	478.38
578.875	461.38
579.086	467.38
579.297	482.38
579.508	466.38
579.718	448.38
579.929	463.38
580.14	460.38
580.35	481.38
580.561	462.38
580.772	447.38
580.982	434.38
581.193	450.38
581.403	453.38
581.614	447.38
581.825	448.38
582.035	462.38
582.246	449.38
582.456	447.38
582.667	453.38
582.877	456.38
583.087	433.38
583.298	443.38
583.508	436.38
583.719	443.38
583.929	449.38
584.139	427.38
584.35	427.38
584.56	446.38
584.77	429.38
584.981	438.38
585.191	425.38
585.401	411.38
585.611	438.38
585.821	429.38
586.032	442.38
586.242	417.38
586.452	424.38
586.662	421.38
586.872	413.38
587.082	426.38
587.292	416.38
587.502	403.38
587.713	434.38
587.923	420.38
588.133	423.38
588.343	417.38
588.553	417.38
588.762	421.38
588.972	422.38
589.182	421.38
589.392	410.38
589.602	423.38
589.812	425.38
590.022	426.38
590.232	416.38
590.441	450.38
590.651	435.38
590.861	423.38
591.071	439.38
591.281	449.38
591.49	459.38
591.7	454.38
591.91	482.38
592.119	439.38
592.329	463.38
592.539	471.38
592.748	497.38
592.958	515.38
593.167	531.38
593.377	547.38
593.587	525.38
593.796	541.38
594.006	569.38
594.215	558.38
594.424	567.38
594.634	519.38
594.843	515.38
595.053	495.38
595.262	489.38
595.472	468.38
595.681	446.38
595.89	435.38
596.1	436.38
596.309	401.38
596.518	407.38
596.727	408.38
596.937	401.38
597.146	387.38
597.355	390.38
597.564	391.38
597.774	390.38
597.983	363.38
598.192	379.38
598.401	375.38
598.61	395.38
598.819	382.38
599.028	363.38
599.237	365.38
599.446	365.38
599.655	351.38
599.864	377.38
600.073	351.38
600.282	362.38
600.491	340.38
600.7	363.38
600.909	371.38
601.118	358.38
601.327	358.38
601.536	341.38
601.745	336.38
601.953	342.38
602.162	351.38
602.371	348.38
602.58	356.38
602.789	341.38
602.997	348.38
603.206	337.38
603.415	345.38
603.623	341.38
603.832	347.38
604.041	341.38
604.249	340.38
604.458	354.38
604.666	345.38
604.875	321.38
605.084	331.38
605.292	330.38
605.501	314.38
605.709	334.38
605.918	354.38
606.126	317.38
606.334	330.38
606.543	307.38
606.751	315.38
606.96	310.38
607.168	326.38
607.376	311.38
607.585	341.38
607.793	348.38
608.001	329.38
608.21	339.38
608.418	327.38
608.626	324.38
608.834	322.38
609.043	330.38
609.251	330.38
609.459	309.38
609.667	313.38
609.875	302.38
610.083	317.38
610.291	334.38
610.499	311.38
610.707	307.38
610.916	330.38
611.124	322.38
611.332	333.38
611.54	302.38
611.748	302.38
611.955	305.38
612.163	299.38
612.371	319.38
612.579	296.38
612.787	301.38
612.995	321.38
613.203	324.38
613.411	300.38
613.618	305.38
613.826	315.38
614.034	319.38
614.242	300.38
614.449	308.38
614.657	318.38
614.865	308.38
615.072	300.38
615.28	305.38
615.488	321.38
615.695	288.38
615.903	309.38
616.111	327.38
616.318	287.38
616.526	305.38
616.733	314.38
616.941	309.38
617.148	305.38
617.356	300.38
617.563	307.38
617.771	311.38
617.978	314.38
618.185	297.38
618.393	290.38
618.6	326.38
618.807	316.38
619.015	302.38
619.222	307.38
619.429	301.38
619.637	295.38
619.844	303.38
620.051	310.38
620.258	300.38
620.466	307.38
620.673	285.38
620.88	270.38
621.087	284.38
621.294	281.38
621.501	282.38
621.708	270.38
621.915	301.38
622.122	289.38
622.329	314.38
622.536	291.38
622.743	288.38
622.95	287.38
623.157	286.38
623.364	271.38
623.571	279.38
623.778	286.38
623.985	270.38
624.192	262.38
624.399	267.38
624.606	281.38
624.812	272.38
625.019	281.38
625.226	266.38
625.433	280.38
625.639	266.38
625.846	266.38
626.053	281.38
626.259	277.38
626.466	278.38
626.673	256.38
626.879	284.38
627.086	269.38
627.293	257.38
627.499	265.38
627.706	251.38
627.912	257.38
628.119	265.38
628.325	260.38
628.532	261.38
628.738	268.38
628.945	237.38
629.151	249.38
629.357	251.38
629.564	238.38
629.77	241.38
629.976	238.38
630.183	247.38
630.389	235.38
630.595	253.38
630.802	245.38
631.008	230.38
631.214	230.38
631.42	238.38
631.627	252.38
631.833	237.38
632.039	249.38
632.245	238.38
632.451	238.38
632.657	240.38
632.863	241.38
633.069	223.38
633.275	250.38
633.481	233.38
633.688	234.38
633.893	238.38
634.099	229.38
634.305	235.38
634.511	223.38
634.717	233.38
634.923	235.38
635.129	236.38
635.335	237.38
635.541	221.38
635.747	235.38
635.952	246.38
636.158	229.38
636.364	215.38
636.57	227.38
636.775	221.38
636.981	233.38
637.187	225.38
637.392	222.38
637.598	232.38
637.804	212.38
638.009	226.38
638.215	241.38
638.421	237.38
638.626	215.38
638.832	224.38
639.037	210.38
639.243	217.38
639.448	202.38
639.654	216.38
639.859	219.38
640.065	196.38
640.27	217.38
640.475	218.38
640.681	202.38
640.886	233.38
641.091	216.38
641.297	226.38
641.502	205.38
641.707	215.38
641.913	217.38
642.118	233.38
642.323	212.38
642.528	197.38
642.733	188.38
642.939	200.38
643.144	205.38
643.349	195.38
643.554	204.38
643.759	189.38
643.964	198.38
644.169	209.38
644.374	212.38
644.579	209.38
644.784	205.38
644.989	204.38
645.194	202.38
645.399	207.38
645.604	201.38
645.809	206.38
646.014	193.38
646.219	190.38
646.423	211.38
646.628	191.38
646.833	198.38
647.038	210.38
647.243	204.38
647.447	211.38
647.652	209.38
647.857	224.38
648.062	216.38
648.266	236.38
648.471	231.38
648.676	223.38
648.88	214.38
649.085	217.38
649.289	208.38
649.494	196.38
649.698	210.38
649.903	190.38
650.107	217.38
650.312	210.38
650.516	193.38
650.721	206.38
650.925	177.38
651.13	199.38
651.334	179.38
651.539	188.38
651.743	193.38
651.947	184.38
652.152	179.38
652.356	181.38
652.56	182.38
652.764	167.38
652.969	164.38
653.173	171.38
653.377	172.38
653.581	167.38
653.785	163.38
653.99	166.38
654.194	167.38
654.398	150.38
654.602	174.38
654.806	162.38
655.01	161.38
655.214	158.38
655.418	159.38
655.622	150.38
655.826	159.38
656.03	162.38
656.234	158.38
656.438	154.38
656.642	154.38
656.846	143.38
657.049	136.38
657.253	129.38
657.457	143.38
657.661	146.38
657.865	124.38
658.068	122.38
658.272	128.38
658.476	115.38
658.68	111.38
658.883	115.38
659.087	108.38
659.291	114.38
659.494	103.38
659.698	95.38
659.901	102.38
660.105	115.38
660.309	105.38
660.512	106.38
660.716	118.38
660.919	104.38
661.123	95.38
661.326	108.38
661.53	97.38
661.733	96.38
661.936	97.38
662.14	77.38
662.343	89.38
662.546	93.38
662.75	76.38
662.953	79.38
663.156	79.38
663.36	87.38
663.563	82.38
663.766	81.38
663.969	77.38
664.173	95.38
664.376	84.38
664.579	90.38
664.782	81.38
664.985	87.38
665.188	87.38
665.391	82.38
665.594	77.38
665.797	69.38
666	84.38
666.203	89.38
666.406	83.38
666.609	86.38
666.812	99.38
667.015	87.38
667.218	67.38
667.421	93.38
667.624	87.38
667.827	76.38
668.03	90.38
668.232	93.38
668.435	87.38
668.638	76.38
668.841	89.38
669.043	82.38
669.246	89.38
669.449	89.38
669.651	94.38
669.854	106.38
670.057	79.38
670.259	92.38
670.462	86.38
670.665	89.38
670.867	78.38
671.07	84.38
671.272	86.38
671.475	95.38
671.677	96.38
671.88	83.38
672.082	85.38
672.284	83.38
672.487	87.38
672.689	94.38
672.892	84.38
