Data from NiCl2@0.125M.TitratingCurve.Agarose3%dH2O.NegLispCup.LampEnergy10.LIBS07252019_HRD10591_18-28-02-575.txt Node
Date: Thu Jul 25 18:28:02 EDT 2019
User: cochatt
Spectrometer: HR+D1059
Trigger mode: 1
Integration Time (sec): 1.000000E-1
Scans to average: 1
Electric dark correction enabled: true
Nonlinearity correction enabled: false
Boxcar width: 0
XAxis mode: Wavelengths
Number of Pixels in Spectrum: 2048
>>>>>Begin Spectral Data<<<<<
223.165	-18.12
223.4	-18.12
223.635	-18.12
223.869	-19.12
224.104	-13.12
224.338	-11.12
224.573	-11.12
224.808	-21.12
225.042	3.88
225.277	-11.12
225.511	-6.12
225.746	11.88
225.98	12.88
226.215	8.88
226.449	28.88
226.683	4.88
226.918	15.88
227.152	23.88
227.387	42.88
227.621	33.88
227.856	46.88
228.09	42.88
228.324	58.88
228.559	42.88
228.793	74.88
229.027	91.88
229.262	97.88
229.496	115.88
229.73	120.88
229.964	120.88
230.199	117.88
230.433	128.88
230.667	118.88
230.901	146.88
231.136	120.88
231.37	137.88
231.604	144.88
231.838	128.88
232.072	148.88
232.306	148.88
232.541	129.88
232.775	142.88
233.009	164.88
233.243	143.88
233.477	146.88
233.711	131.88
233.945	120.88
234.179	149.88
234.413	135.88
234.647	127.88
234.881	133.88
235.115	138.88
235.349	147.88
235.583	138.88
235.817	156.88
236.051	146.88
236.285	136.88
236.519	150.88
236.753	142.88
236.987	158.88
237.221	140.88
237.455	141.88
237.689	147.88
237.922	154.88
238.156	158.88
238.39	143.88
238.624	138.88
238.858	150.88
239.091	182.88
239.325	165.88
239.559	168.88
239.793	140.88
240.027	176.88
240.26	161.88
240.494	170.88
240.728	168.88
240.961	175.88
241.195	162.88
241.429	170.88
241.662	174.88
241.896	174.88
242.13	179.88
242.363	180.88
242.597	154.88
242.83	192.88
243.064	176.88
243.298	178.88
243.531	187.88
243.765	189.88
243.998	163.88
244.232	190.88
244.465	180.88
244.699	201.88
244.932	204.88
245.166	189.88
245.399	177.88
245.633	193.88
245.866	199.88
246.099	217.88
246.333	199.88
246.566	194.88
246.8	195.88
247.033	189.88
247.266	213.88
247.5	189.88
247.733	199.88
247.966	211.88
248.2	208.88
248.433	210.88
248.666	205.88
248.899	217.88
249.133	208.88
249.366	225.88
249.599	218.88
249.832	220.88
250.066	222.88
250.299	231.88
250.532	231.88
250.765	214.88
250.998	222.88
251.231	232.88
251.465	245.88
251.698	252.88
251.931	245.88
252.164	238.88
252.397	250.88
252.63	244.88
252.863	238.88
253.096	253.88
253.329	242.88
253.562	237.88
253.795	236.88
254.028	250.88
254.261	256.88
254.494	251.88
254.727	245.88
254.96	234.88
255.193	251.88
255.426	254.88
255.659	261.88
255.892	255.88
256.124	257.88
256.357	245.88
256.59	236.88
256.823	248.88
257.056	237.88
257.289	262.88
257.521	274.88
257.754	268.88
257.987	280.88
258.22	285.88
258.452	268.88
258.685	253.88
258.918	272.88
259.151	278.88
259.383	281.88
259.616	272.88
259.849	275.88
260.081	286.88
260.314	291.88
260.547	278.88
260.779	264.88
261.012	279.88
261.244	298.88
261.477	306.88
261.71	302.88
261.942	308.88
262.175	294.88
262.407	313.88
262.64	284.88
262.872	305.88
263.105	296.88
263.337	296.88
263.57	315.88
263.802	306.88
264.035	311.88
264.267	306.88
264.499	282.88
264.732	298.88
264.964	310.88
265.197	309.88
265.429	323.88
265.661	299.88
265.894	334.88
266.126	299.88
266.358	307.88
266.591	311.88
266.823	326.88
267.055	314.88
267.287	308.88
267.52	317.88
267.752	331.88
267.984	336.88
268.216	330.88
268.448	327.88
268.681	349.88
268.913	342.88
269.145	335.88
269.377	312.88
269.609	330.88
269.841	333.88
270.073	332.88
270.306	333.88
270.538	322.88
270.77	324.88
271.002	356.88
271.234	337.88
271.466	339.88
271.698	338.88
271.93	351.88
272.162	358.88
272.394	355.88
272.626	360.88
272.858	358.88
273.09	342.88
273.322	341.88
273.553	353.88
273.785	354.88
274.017	370.88
274.249	347.88
274.481	359.88
274.713	363.88
274.945	353.88
275.176	384.88
275.408	380.88
275.64	372.88
275.872	370.88
276.104	375.88
276.335	363.88
276.567	374.88
276.799	373.88
277.031	376.88
277.262	373.88
277.494	366.88
277.726	382.88
277.957	380.88
278.189	401.88
278.421	394.88
278.652	374.88
278.884	404.88
279.115	398.88
279.347	394.88
279.579	386.88
279.81	400.88
280.042	381.88
280.273	392.88
280.505	416.88
280.736	408.88
280.968	409.88
281.199	422.88
281.431	400.88
281.662	417.88
281.894	408.88
282.125	413.88
282.356	416.88
282.588	436.88
282.819	427.88
283.051	429.88
283.282	411.88
283.513	426.88
283.745	427.88
283.976	420.88
284.207	413.88
284.439	440.88
284.67	435.88
284.901	442.88
285.132	436.88
285.364	425.88
285.595	432.88
285.826	450.88
286.057	409.88
286.288	442.88
286.52	427.88
286.751	443.88
286.982	439.88
287.213	441.88
287.444	461.88
287.675	435.88
287.906	458.88
288.138	445.88
288.369	446.88
288.6	459.88
288.831	444.88
289.062	473.88
289.293	441.88
289.524	435.88
289.755	452.88
289.986	462.88
290.217	475.88
290.448	452.88
290.679	469.88
290.91	476.88
291.141	436.88
291.371	454.88
291.602	468.88
291.833	461.88
292.064	460.88
292.295	470.88
292.526	482.88
292.757	470.88
292.987	466.88
293.218	460.88
293.449	483.88
293.68	480.88
293.91	478.88
294.141	490.88
294.372	450.88
294.603	444.88
294.833	461.88
295.064	467.88
295.295	470.88
295.525	487.88
295.756	469.88
295.987	479.88
296.217	492.88
296.448	487.88
296.679	476.88
296.909	494.88
297.14	491.88
297.37	502.88
297.601	522.88
297.831	477.88
298.062	499.88
298.292	509.88
298.523	513.88
298.753	540.88
298.984	521.88
299.214	516.88
299.445	493.88
299.675	497.88
299.905	500.88
300.136	498.88
300.366	520.88
300.597	516.88
300.827	534.88
301.057	534.88
301.288	534.88
301.518	507.88
301.748	530.88
301.979	540.88
302.209	538.88
302.439	539.88
302.669	520.88
302.9	558.88
303.13	512.88
303.36	526.88
303.59	525.88
303.82	535.88
304.051	536.88
304.281	533.88
304.511	537.88
304.741	526.88
304.971	546.88
305.201	527.88
305.431	530.88
305.661	524.88
305.891	534.88
306.121	533.88
306.352	539.88
306.582	535.88
306.812	534.88
307.042	550.88
307.272	500.88
307.502	482.88
307.731	510.88
307.961	542.88
308.191	487.88
308.421	534.88
308.651	504.88
308.881	523.88
309.111	534.88
309.341	505.88
309.571	499.88
309.8	553.88
310.03	534.88
310.26	536.88
310.49	535.88
310.72	543.88
310.949	533.88
311.179	545.88
311.409	521.88
311.639	528.88
311.868	532.88
312.098	526.88
312.328	512.88
312.557	552.88
312.787	557.88
313.017	525.88
313.246	554.88
313.476	549.88
313.706	550.88
313.935	564.88
314.165	549.88
314.394	568.88
314.624	564.88
314.853	540.88
315.083	563.88
315.312	551.88
315.542	557.88
315.771	576.88
316.001	554.88
316.23	542.88
316.46	554.88
316.689	550.88
316.919	554.88
317.148	564.88
317.377	548.88
317.607	563.88
317.836	533.88
318.065	547.88
318.295	533.88
318.524	548.88
318.753	563.88
318.983	560.88
319.212	544.88
319.441	553.88
319.67	538.88
319.9	548.88
320.129	544.88
320.358	556.88
320.587	556.88
320.816	563.88
321.046	548.88
321.275	563.88
321.504	544.88
321.733	558.88
321.962	570.88
322.191	580.88
322.42	564.88
322.649	558.88
322.878	564.88
323.108	553.88
323.337	546.88
323.566	560.88
323.795	544.88
324.024	564.88
324.253	574.88
324.482	572.88
324.71	537.88
324.939	594.88
325.168	562.88
325.397	571.88
325.626	582.88
325.855	620.88
326.084	582.88
326.313	596.88
326.542	583.88
326.77	618.88
326.999	602.88
327.228	584.88
327.457	574.88
327.686	594.88
327.914	599.88
328.143	595.88
328.372	596.88
328.6	594.88
328.829	598.88
329.058	598.88
329.287	587.88
329.515	620.88
329.744	622.88
329.972	608.88
330.201	616.88
330.43	600.88
330.658	606.88
330.887	640.88
331.115	632.88
331.344	642.88
331.572	638.88
331.801	644.88
332.03	637.88
332.258	673.88
332.486	670.88
332.715	716.88
332.943	740.88
333.172	753.88
333.4	766.88
333.629	767.88
333.857	795.88
334.085	813.88
334.314	801.88
334.542	787.88
334.771	786.88
334.999	770.88
335.227	742.88
335.455	758.88
335.684	733.88
335.912	747.88
336.14	703.88
336.369	727.88
336.597	718.88
336.825	698.88
337.053	720.88
337.281	706.88
337.51	729.88
337.738	699.88
337.966	690.88
338.194	664.88
338.422	669.88
338.65	654.88
338.878	672.88
339.106	678.88
339.334	653.88
339.562	677.88
339.79	654.88
340.018	621.88
340.246	637.88
340.474	615.88
340.702	608.88
340.93	640.88
341.158	635.88
341.386	660.88
341.614	653.88
341.842	650.88
342.07	613.88
342.298	646.88
342.526	636.88
342.754	615.88
342.981	624.88
343.209	666.88
343.437	646.88
343.665	698.88
343.893	735.88
344.12	757.88
344.348	784.88
344.576	732.88
344.804	692.88
345.031	671.88
345.259	662.88
345.487	637.88
345.714	638.88
345.942	661.88
346.17	637.88
346.397	627.88
346.625	611.88
346.853	610.88
347.08	598.88
347.308	597.88
347.535	625.88
347.763	614.88
347.99	608.88
348.218	634.88
348.445	610.88
348.673	609.88
348.9	617.88
349.128	625.88
349.355	624.88
349.583	601.88
349.81	613.88
350.037	591.88
350.265	581.88
350.492	597.88
350.72	578.88
350.947	577.88
351.174	596.88
351.402	608.88
351.629	611.88
351.856	586.88
352.083	590.88
352.311	594.88
352.538	604.88
352.765	617.88
352.992	596.88
353.22	585.88
353.447	565.88
353.674	586.88
353.901	580.88
354.128	590.88
354.355	588.88
354.583	600.88
354.81	631.88
355.037	588.88
355.264	589.88
355.491	576.88
355.718	592.88
355.945	590.88
356.172	618.88
356.399	593.88
356.626	619.88
356.853	605.88
357.08	601.88
357.307	605.88
357.534	626.88
357.761	580.88
357.988	596.88
358.215	576.88
358.441	596.88
358.668	594.88
358.895	591.88
359.122	606.88
359.349	604.88
359.576	589.88
359.802	593.88
360.029	597.88
360.256	602.88
360.483	584.88
360.709	577.88
360.936	608.88
361.163	613.88
361.39	594.88
361.616	621.88
361.843	603.88
362.07	624.88
362.296	616.88
362.523	589.88
362.749	589.88
362.976	608.88
363.203	594.88
363.429	564.88
363.656	586.88
363.882	627.88
364.109	610.88
364.335	594.88
364.562	601.88
364.788	610.88
365.015	589.88
365.241	582.88
365.468	590.88
365.694	598.88
365.92	606.88
366.147	600.88
366.373	585.88
366.599	596.88
366.826	578.88
367.052	590.88
367.278	601.88
367.505	606.88
367.731	602.88
367.957	600.88
368.184	596.88
368.41	593.88
368.636	594.88
368.862	604.88
369.089	596.88
369.315	612.88
369.541	589.88
369.767	628.88
369.993	630.88
370.219	604.88
370.445	622.88
370.672	616.88
370.898	628.88
371.124	625.88
371.35	629.88
371.576	642.88
371.802	647.88
372.028	642.88
372.254	652.88
372.48	659.88
372.706	663.88
372.932	651.88
373.158	647.88
373.384	654.88
373.61	644.88
373.835	662.88
374.061	643.88
374.287	631.88
374.513	635.88
374.739	662.88
374.965	712.88
375.191	698.88
375.416	699.88
375.642	696.88
375.868	681.88
376.094	668.88
376.319	658.88
376.545	656.88
376.771	634.88
376.997	658.88
377.222	635.88
377.448	658.88
377.674	644.88
377.899	646.88
378.125	647.88
378.35	648.88
378.576	633.88
378.802	632.88
379.027	636.88
379.253	630.88
379.478	642.88
379.704	635.88
379.929	630.88
380.155	619.88
380.38	640.88
380.606	644.88
380.831	646.88
381.057	644.88
381.282	645.88
381.507	651.88
381.733	636.88
381.958	648.88
382.184	666.88
382.409	663.88
382.634	668.88
382.86	668.88
383.085	665.88
383.31	694.88
383.535	703.88
383.761	720.88
383.986	702.88
384.211	730.88
384.436	761.88
384.662	756.88
384.887	750.88
385.112	751.88
385.337	776.88
385.562	773.88
385.787	774.88
386.013	770.88
386.238	791.88
386.463	791.88
386.688	779.88
386.913	802.88
387.138	756.88
387.363	777.88
387.588	743.88
387.813	769.88
388.038	753.88
388.263	799.88
388.488	766.88
388.713	753.88
388.938	757.88
389.163	736.88
389.387	736.88
389.612	747.88
389.837	766.88
390.062	740.88
390.287	754.88
390.512	762.88
390.736	769.88
390.961	736.88
391.186	786.88
391.411	802.88
391.636	805.88
391.86	833.88
392.085	888.88
392.31	880.88
392.534	810.88
392.759	826.88
392.984	811.88
393.208	816.88
393.433	840.88
393.658	839.88
393.882	817.88
394.107	821.88
394.331	829.88
394.556	813.88
394.78	826.88
395.005	840.88
395.229	839.88
395.454	844.88
395.678	865.88
395.903	862.88
396.127	868.88
396.352	832.88
396.576	836.88
396.801	829.88
397.025	849.88
397.249	862.88
397.474	888.88
397.698	872.88
397.922	894.88
398.147	878.88
398.371	900.88
398.595	920.88
398.82	973.88
399.044	1045.88
399.268	1162.88
399.492	1263.88
399.717	1384.88
399.941	1408.88
400.165	1326.88
400.389	1214.88
400.613	1146.88
400.837	1057.88
401.062	1030.88
401.286	997.88
401.51	965.88
401.734	988.88
401.958	997.88
402.182	997.88
402.406	1013.88
402.63	1035.88
402.854	1026.88
403.078	1049.88
403.302	1026.88
403.526	1034.88
403.75	1068.88
403.974	1081.88
404.198	1074.88
404.422	1080.88
404.645	1110.88
404.869	1077.88
405.093	1061.88
405.317	1061.88
405.541	1094.88
405.765	1100.88
405.988	1075.88
406.212	1094.88
406.436	1053.88
406.66	1112.88
406.883	1096.88
407.107	1139.88
407.331	1193.88
407.555	1287.88
407.778	1242.88
408.002	1220.88
408.226	1172.88
408.449	1150.88
408.673	1124.88
408.896	1105.88
409.12	1074.88
409.344	1092.88
409.567	1054.88
409.791	1144.88
410.014	1078.88
410.238	1036.88
410.461	1084.88
410.685	1056.88
410.908	1007.88
411.132	1034.88
411.355	964.88
411.578	996.88
411.802	1016.88
412.025	1011.88
412.249	1028.88
412.472	1061.88
412.695	990.88
412.919	991.88
413.142	973.88
413.365	1010.88
413.589	947.88
413.812	980.88
414.035	960.88
414.258	961.88
414.482	957.88
414.705	980.88
414.928	980.88
415.151	977.88
415.374	972.88
415.597	965.88
415.821	967.88
416.044	973.88
416.267	954.88
416.49	928.88
416.713	921.88
416.936	951.88
417.159	970.88
417.382	967.88
417.605	937.88
417.828	968.88
418.051	973.88
418.274	977.88
418.497	946.88
418.72	1000.88
418.943	962.88
419.166	1023.88
419.389	1107.88
419.611	1111.88
419.834	1035.88
420.057	1009.88
420.28	989.88
420.503	951.88
420.726	941.88
420.948	952.88
421.171	942.88
421.394	967.88
421.617	940.88
421.839	986.88
422.062	966.88
422.285	938.88
422.507	973.88
422.73	972.88
422.953	965.88
423.175	984.88
423.398	1012.88
423.621	971.88
423.843	1022.88
424.066	1016.88
424.288	985.88
424.511	995.88
424.733	970.88
424.956	968.88
425.178	991.88
425.401	966.88
425.623	968.88
425.846	924.88
426.068	939.88
426.291	928.88
426.513	929.88
426.735	921.88
426.958	911.88
427.18	894.88
427.402	895.88
427.625	887.88
427.847	909.88
428.069	893.88
428.292	909.88
428.514	869.88
428.736	860.88
428.958	878.88
429.181	841.88
429.403	880.88
429.625	878.88
429.847	864.88
430.069	863.88
430.292	883.88
430.514	850.88
430.736	862.88
430.958	846.88
431.18	847.88
431.402	890.88
431.624	884.88
431.846	857.88
432.068	880.88
432.29	932.88
432.512	885.88
432.734	854.88
432.956	884.88
433.178	886.88
433.4	881.88
433.622	868.88
433.844	896.88
434.066	914.88
434.287	891.88
434.509	948.88
434.731	974.88
434.953	956.88
435.175	987.88
435.397	981.88
435.618	940.88
435.84	916.88
436.062	896.88
436.284	893.88
436.505	882.88
436.727	889.88
436.949	901.88
437.17	891.88
437.392	884.88
437.614	862.88
437.835	826.88
438.057	844.88
438.278	859.88
438.5	823.88
438.721	842.88
438.943	874.88
439.165	845.88
439.386	869.88
439.608	852.88
439.829	866.88
440.05	886.88
440.272	880.88
440.493	872.88
440.715	914.88
440.936	893.88
441.158	931.88
441.379	937.88
441.6	989.88
441.822	1004.88
442.043	974.88
442.264	980.88
442.486	965.88
442.707	948.88
442.928	952.88
443.149	972.88
443.371	987.88
443.592	985.88
443.813	978.88
444.034	1001.88
444.255	1002.88
444.476	1062.88
444.698	1086.88
444.919	1158.88
445.14	1244.88
445.361	1121.88
445.582	1044.88
445.803	957.88
446.024	965.88
446.245	929.88
446.466	896.88
446.687	916.88
446.908	890.88
447.129	877.88
447.35	878.88
447.571	868.88
447.792	857.88
448.013	840.88
448.234	838.88
448.455	820.88
448.675	845.88
448.896	820.88
449.117	804.88
449.338	817.88
449.559	802.88
449.779	796.88
450	802.88
450.221	821.88
450.442	817.88
450.662	811.88
450.883	809.88
451.104	822.88
451.324	811.88
451.545	816.88
451.766	854.88
451.986	795.88
452.207	822.88
452.428	789.88
452.648	807.88
452.869	760.88
453.089	782.88
453.31	823.88
453.53	788.88
453.751	774.88
453.971	771.88
454.192	758.88
454.412	771.88
454.633	757.88
454.853	762.88
455.073	778.88
455.294	778.88
455.514	785.88
455.734	778.88
455.955	756.88
456.175	772.88
456.395	781.88
456.616	747.88
456.836	757.88
457.056	774.88
457.276	739.88
457.497	794.88
457.717	745.88
457.937	769.88
458.157	769.88
458.377	798.88
458.598	786.88
458.818	820.88
459.038	841.88
459.258	852.88
459.478	889.88
459.698	923.88
459.918	954.88
460.138	981.88
460.358	1004.88
460.578	1053.88
460.798	1051.88
461.018	1057.88
461.238	1055.88
461.458	1076.88
461.678	1042.88
461.898	1062.88
462.118	1071.88
462.338	1103.88
462.558	1161.88
462.777	1204.88
462.997	1308.88
463.217	1337.88
463.437	1368.88
463.657	1300.88
463.876	1250.88
464.096	1240.88
464.316	1208.88
464.536	1239.88
464.755	1170.88
464.975	1147.88
465.195	1109.88
465.414	1034.88
465.634	979.88
465.854	936.88
466.073	950.88
466.293	913.88
466.512	890.88
466.732	870.88
466.951	856.88
467.171	876.88
467.391	863.88
467.61	876.88
467.829	866.88
468.049	866.88
468.268	831.88
468.488	830.88
468.707	849.88
468.927	839.88
469.146	823.88
469.365	840.88
469.585	842.88
469.804	855.88
470.023	877.88
470.243	867.88
470.462	869.88
470.681	894.88
470.901	891.88
471.12	884.88
471.339	884.88
471.558	852.88
471.777	867.88
471.997	858.88
472.216	842.88
472.435	852.88
472.654	826.88
472.873	802.88
473.092	820.88
473.311	832.88
473.53	825.88
473.749	811.88
473.968	786.88
474.187	812.88
474.406	801.88
474.625	818.88
474.844	820.88
475.063	807.88
475.282	790.88
475.501	828.88
475.72	836.88
475.939	825.88
476.158	865.88
476.377	853.88
476.596	847.88
476.814	850.88
477.033	855.88
477.252	896.88
477.471	892.88
477.69	924.88
477.908	936.88
478.127	947.88
478.346	961.88
478.564	1001.88
478.783	1008.88
479.002	1016.88
479.22	1028.88
479.439	1004.88
479.658	996.88
479.876	1024.88
480.095	1000.88
480.313	1060.88
480.532	1060.88
480.751	1073.88
480.969	1027.88
481.188	1022.88
481.406	964.88
481.624	957.88
481.843	946.88
482.061	930.88
482.28	950.88
482.498	940.88
482.717	935.88
482.935	936.88
483.153	935.88
483.372	929.88
483.59	915.88
483.808	945.88
484.027	964.88
484.245	947.88
484.463	979.88
484.681	973.88
484.9	951.88
485.118	981.88
485.336	971.88
485.554	966.88
485.772	1003.88
485.99	982.88
486.209	999.88
486.427	992.88
486.645	973.88
486.863	989.88
487.081	950.88
487.299	973.88
487.517	971.88
487.735	976.88
487.953	987.88
488.171	966.88
488.389	956.88
488.607	955.88
488.825	946.88
489.043	934.88
489.261	956.88
489.479	996.88
489.696	982.88
489.914	1001.88
490.132	963.88
490.35	997.88
490.568	986.88
490.786	987.88
491.003	996.88
491.221	1010.88
491.439	996.88
491.657	1012.88
491.874	989.88
492.092	1007.88
492.31	1028.88
492.527	1026.88
492.745	1017.88
492.963	1013.88
493.18	1030.88
493.398	1004.88
493.615	1003.88
493.833	1036.88
494.05	1069.88
494.268	1042.88
494.485	1017.88
494.703	1030.88
494.92	1075.88
495.138	1072.88
495.355	1035.88
495.573	1047.88
495.79	1026.88
496.008	1048.88
496.225	1059.88
496.442	1087.88
496.66	1056.88
496.877	1088.88
497.094	1117.88
497.312	1117.88
497.529	1140.88
497.746	1158.88
497.963	1209.88
498.181	1294.88
498.398	1346.88
498.615	1359.88
498.832	1440.88
499.049	1542.88
499.267	1709.88
499.484	1875.88
499.701	2025.88
499.918	2224.88
500.135	2493.88
500.352	2670.88
500.569	2818.88
500.786	2779.88
501.003	2665.88
501.22	2474.88
501.437	2185.88
501.654	1983.88
501.871	1841.88
502.088	1707.88
502.305	1612.88
502.522	1485.88
502.739	1435.88
502.956	1372.88
503.172	1302.88
503.389	1234.88
503.606	1203.88
503.823	1190.88
504.04	1208.88
504.256	1221.88
504.473	1204.88
504.69	1181.88
504.907	1172.88
505.123	1128.88
505.34	1073.88
505.557	1042.88
505.773	1018.88
505.99	981.88
506.207	987.88
506.423	934.88
506.64	946.88
506.856	938.88
507.073	909.88
507.289	914.88
507.506	921.88
507.722	903.88
507.939	901.88
508.155	877.88
508.372	885.88
508.588	851.88
508.805	874.88
509.021	859.88
509.238	854.88
509.454	844.88
509.67	832.88
509.887	823.88
510.103	828.88
510.319	829.88
510.536	833.88
510.752	812.88
510.968	820.88
511.184	792.88
511.401	810.88
511.617	838.88
511.833	826.88
512.049	812.88
512.265	809.88
512.481	842.88
512.698	810.88
512.914	841.88
513.13	812.88
513.346	850.88
513.562	814.88
513.778	834.88
513.994	829.88
514.21	852.88
514.426	816.88
514.642	804.88
514.858	848.88
515.074	856.88
515.29	836.88
515.506	873.88
515.721	854.88
515.937	892.88
516.153	889.88
516.369	897.88
516.585	923.88
516.801	949.88
517.016	1027.88
517.232	1051.88
517.448	1095.88
517.664	1106.88
517.879	1099.88
518.095	1069.88
518.311	1073.88
518.527	1035.88
518.742	1008.88
518.958	980.88
519.173	936.88
519.389	954.88
519.605	908.88
519.82	899.88
520.036	880.88
520.251	848.88
520.467	832.88
520.682	851.88
520.898	854.88
521.113	811.88
521.329	800.88
521.544	821.88
521.76	824.88
521.975	814.88
522.19	800.88
522.406	794.88
522.621	798.88
522.836	772.88
523.052	764.88
523.267	782.88
523.482	786.88
523.698	778.88
523.913	774.88
524.128	773.88
524.343	764.88
524.559	763.88
524.774	747.88
524.989	790.88
525.204	757.88
525.419	784.88
525.634	753.88
525.849	766.88
526.064	745.88
526.28	748.88
526.495	752.88
526.71	753.88
526.925	738.88
527.14	754.88
527.355	747.88
527.57	730.88
527.785	748.88
527.999	753.88
528.214	763.88
528.429	743.88
528.644	748.88
528.859	740.88
529.074	770.88
529.289	753.88
529.503	754.88
529.718	738.88
529.933	748.88
530.148	747.88
530.363	744.88
530.577	750.88
530.792	745.88
531.007	749.88
531.221	752.88
531.436	745.88
531.651	748.88
531.865	742.88
532.08	743.88
532.295	762.88
532.509	747.88
532.724	708.88
532.938	739.88
533.153	744.88
533.367	753.88
533.582	718.88
533.796	712.88
534.011	740.88
534.225	742.88
534.44	743.88
534.654	734.88
534.868	754.88
535.083	744.88
535.297	729.88
535.511	729.88
535.726	723.88
535.94	729.88
536.154	730.88
536.369	724.88
536.583	701.88
536.797	705.88
537.011	709.88
537.225	679.88
537.44	716.88
537.654	694.88
537.868	689.88
538.082	675.88
538.296	672.88
538.51	679.88
538.724	708.88
538.938	696.88
539.153	686.88
539.367	704.88
539.581	690.88
539.795	678.88
540.009	672.88
540.222	674.88
540.436	684.88
540.65	678.88
540.864	682.88
541.078	673.88
541.292	669.88
541.506	676.88
541.72	676.88
541.934	683.88
542.147	699.88
542.361	669.88
542.575	696.88
542.789	658.88
543.002	660.88
543.216	672.88
543.43	655.88
543.644	658.88
543.857	672.88
544.071	684.88
544.285	685.88
544.498	676.88
544.712	671.88
544.925	695.88
545.139	678.88
545.352	676.88
545.566	664.88
545.779	685.88
545.993	703.88
546.206	702.88
546.42	697.88
546.633	696.88
546.847	695.88
547.06	692.88
547.274	660.88
547.487	691.88
547.7	700.88
547.914	689.88
548.127	696.88
548.34	698.88
548.554	705.88
548.767	698.88
548.98	729.88
549.193	688.88
549.407	721.88
549.62	697.88
549.833	716.88
550.046	720.88
550.259	698.88
550.473	686.88
550.686	707.88
550.899	696.88
551.112	701.88
551.325	658.88
551.538	688.88
551.751	673.88
551.964	675.88
552.177	696.88
552.39	684.88
552.603	707.88
552.816	741.88
553.029	736.88
553.242	735.88
553.455	732.88
553.667	717.88
553.88	766.88
554.093	722.88
554.306	726.88
554.519	692.88
554.732	692.88
554.944	698.88
555.157	662.88
555.37	677.88
555.583	651.88
555.795	630.88
556.008	626.88
556.221	633.88
556.433	602.88
556.646	620.88
556.859	614.88
557.071	605.88
557.284	625.88
557.496	614.88
557.709	605.88
557.921	586.88
558.134	572.88
558.346	608.88
558.559	592.88
558.771	596.88
558.984	577.88
559.196	565.88
559.409	570.88
559.621	580.88
559.833	586.88
560.046	586.88
560.258	579.88
560.47	592.88
560.683	566.88
560.895	569.88
561.107	576.88
561.32	555.88
561.532	577.88
561.744	566.88
561.956	602.88
562.168	571.88
562.381	596.88
562.593	572.88
562.805	583.88
563.017	573.88
563.229	591.88
563.441	597.88
563.653	604.88
563.865	585.88
564.077	605.88
564.289	604.88
564.501	602.88
564.713	635.88
564.925	642.88
565.137	656.88
565.349	675.88
565.561	664.88
565.773	717.88
565.985	726.88
566.197	760.88
566.408	804.88
566.62	858.88
566.832	916.88
567.044	940.88
567.255	970.88
567.467	942.88
567.679	1014.88
567.891	1058.88
568.102	1050.88
568.314	998.88
568.526	915.88
568.737	828.88
568.949	818.88
569.161	757.88
569.372	722.88
569.584	666.88
569.795	656.88
570.007	650.88
570.218	618.88
570.43	604.88
570.641	622.88
570.853	609.88
571.064	597.88
571.276	580.88
571.487	574.88
571.698	589.88
571.91	537.88
572.121	560.88
572.333	532.88
572.544	521.88
572.755	516.88
572.966	517.88
573.178	504.88
573.389	500.88
573.6	518.88
573.811	486.88
574.023	489.88
574.234	483.88
574.445	478.88
574.656	496.88
574.867	493.88
575.078	466.88
575.289	468.88
575.501	462.88
575.712	472.88
575.923	464.88
576.134	465.88
576.345	451.88
576.556	467.88
576.767	474.88
576.978	472.88
577.188	461.88
577.399	472.88
577.61	442.88
577.821	439.88
578.032	461.88
578.243	438.88
578.454	434.88
578.665	445.88
578.875	414.88
579.086	433.88
579.297	438.88
579.508	448.88
579.718	442.88
579.929	432.88
580.14	436.88
580.35	445.88
580.561	439.88
580.772	410.88
580.982	420.88
581.193	432.88
581.403	400.88
581.614	428.88
581.825	410.88
582.035	386.88
582.246	418.88
582.456	413.88
582.667	405.88
582.877	406.88
583.087	396.88
583.298	403.88
583.508	402.88
583.719	421.88
583.929	418.88
584.139	419.88
584.35	372.88
584.56	396.88
584.77	412.88
584.981	396.88
585.191	398.88
585.401	393.88
585.611	409.88
585.821	385.88
586.032	372.88
586.242	408.88
586.452	393.88
586.662	402.88
586.872	404.88
587.082	407.88
587.292	395.88
587.502	393.88
587.713	391.88
587.923	385.88
588.133	392.88
588.343	390.88
588.553	386.88
588.762	391.88
588.972	396.88
589.182	418.88
589.392	438.88
589.602	394.88
589.812	404.88
590.022	402.88
590.232	393.88
590.441	396.88
590.651	406.88
590.861	394.88
591.071	414.88
591.281	398.88
591.49	416.88
591.7	411.88
591.91	435.88
592.119	434.88
592.329	433.88
592.539	453.88
592.748	452.88
592.958	457.88
593.167	478.88
593.377	481.88
593.587	489.88
593.796	475.88
594.006	490.88
594.215	485.88
594.424	503.88
594.634	478.88
594.843	449.88
595.053	450.88
595.262	428.88
595.472	412.88
595.681	421.88
595.89	412.88
596.1	402.88
596.309	396.88
596.518	375.88
596.727	381.88
596.937	381.88
597.146	368.88
597.355	354.88
597.564	380.88
597.774	368.88
597.983	350.88
598.192	356.88
598.401	361.88
598.61	343.88
598.819	339.88
599.028	322.88
599.237	351.88
599.446	329.88
599.655	352.88
599.864	346.88
600.073	351.88
600.282	333.88
600.491	334.88
600.7	332.88
600.909	329.88
601.118	344.88
601.327	336.88
601.536	347.88
601.745	326.88
601.953	329.88
602.162	341.88
602.371	331.88
602.58	330.88
602.789	329.88
602.997	325.88
603.206	322.88
603.415	313.88
603.623	321.88
603.832	312.88
604.041	314.88
604.249	310.88
604.458	321.88
604.666	307.88
604.875	314.88
605.084	300.88
605.292	336.88
605.501	308.88
605.709	298.88
605.918	302.88
606.126	332.88
606.334	314.88
606.543	299.88
606.751	302.88
606.96	312.88
607.168	312.88
607.376	300.88
607.585	315.88
607.793	294.88
608.001	308.88
608.21	309.88
608.418	295.88
608.626	296.88
608.834	302.88
609.043	321.88
609.251	294.88
609.459	306.88
609.667	302.88
609.875	310.88
610.083	300.88
610.291	304.88
610.499	291.88
610.707	294.88
610.916	299.88
611.124	309.88
611.332	313.88
611.54	308.88
611.748	291.88
611.955	302.88
612.163	302.88
612.371	314.88
612.579	294.88
612.787	303.88
612.995	305.88
613.203	292.88
613.411	297.88
613.618	295.88
613.826	309.88
614.034	304.88
614.242	287.88
614.449	286.88
614.657	304.88
614.865	276.88
615.072	279.88
615.28	289.88
615.488	289.88
615.695	292.88
615.903	302.88
616.111	284.88
616.318	304.88
616.526	291.88
616.733	306.88
616.941	296.88
617.148	285.88
617.356	290.88
617.563	293.88
617.771	301.88
617.978	289.88
618.185	284.88
618.393	285.88
618.6	289.88
618.807	273.88
619.015	297.88
619.222	268.88
619.429	269.88
619.637	262.88
619.844	283.88
620.051	276.88
620.258	282.88
620.466	277.88
620.673	264.88
620.88	250.88
621.087	273.88
621.294	250.88
621.501	290.88
621.708	289.88
621.915	272.88
622.122	275.88
622.329	280.88
622.536	270.88
622.743	265.88
622.95	276.88
623.157	248.88
623.364	253.88
623.571	251.88
623.778	267.88
623.985	274.88
624.192	266.88
624.399	243.88
624.606	269.88
624.812	258.88
625.019	247.88
625.226	257.88
625.433	257.88
625.639	252.88
625.846	254.88
626.053	261.88
626.259	265.88
626.466	253.88
626.673	254.88
626.879	244.88
627.086	236.88
627.293	244.88
627.499	238.88
627.706	261.88
627.912	254.88
628.119	220.88
628.325	255.88
628.532	260.88
628.738	260.88
628.945	228.88
629.151	244.88
629.357	240.88
629.564	262.88
629.77	237.88
629.976	229.88
630.183	221.88
630.389	237.88
630.595	242.88
630.802	245.88
631.008	218.88
631.214	229.88
631.42	229.88
631.627	259.88
631.833	227.88
632.039	221.88
632.245	225.88
632.451	208.88
632.657	210.88
632.863	210.88
633.069	221.88
633.275	217.88
633.481	215.88
633.688	216.88
633.893	222.88
634.099	227.88
634.305	218.88
634.511	243.88
634.717	238.88
634.923	221.88
635.129	214.88
635.335	217.88
635.541	218.88
635.747	220.88
635.952	217.88
636.158	229.88
636.364	220.88
636.57	217.88
636.775	222.88
636.981	215.88
637.187	209.88
637.392	212.88
637.598	211.88
637.804	217.88
638.009	219.88
638.215	242.88
638.421	212.88
638.626	207.88
638.832	210.88
639.037	214.88
639.243	194.88
639.448	207.88
639.654	204.88
639.859	187.88
640.065	213.88
640.27	211.88
640.475	204.88
640.681	199.88
640.886	205.88
641.091	200.88
641.297	202.88
641.502	224.88
641.707	204.88
641.913	194.88
642.118	194.88
642.323	193.88
642.528	212.88
642.733	218.88
642.939	210.88
643.144	210.88
643.349	195.88
643.554	190.88
643.759	205.88
643.964	206.88
644.169	208.88
644.374	194.88
644.579	202.88
644.784	191.88
644.989	186.88
645.194	183.88
645.399	197.88
645.604	200.88
645.809	194.88
646.014	201.88
646.219	212.88
646.423	210.88
646.628	205.88
646.833	221.88
647.038	195.88
647.243	205.88
647.447	194.88
647.652	203.88
647.857	205.88
648.062	193.88
648.266	219.88
648.471	206.88
648.676	220.88
648.88	217.88
649.085	205.88
649.289	196.88
649.494	208.88
649.698	222.88
649.903	188.88
650.107	208.88
650.312	181.88
650.516	176.88
650.721	178.88
650.925	162.88
651.13	181.88
651.334	190.88
651.539	177.88
651.743	178.88
651.947	192.88
652.152	197.88
652.356	186.88
652.56	188.88
652.764	171.88
652.969	170.88
653.173	173.88
653.377	180.88
653.581	176.88
653.785	176.88
653.99	161.88
654.194	160.88
654.398	167.88
654.602	164.88
654.806	148.88
655.01	169.88
655.214	167.88
655.418	162.88
655.622	173.88
655.826	161.88
656.03	173.88
656.234	153.88
656.438	176.88
656.642	162.88
656.846	155.88
657.049	158.88
657.253	156.88
657.457	132.88
657.661	135.88
657.865	131.88
658.068	114.88
658.272	124.88
658.476	108.88
658.68	118.88
658.883	113.88
659.087	111.88
659.291	111.88
659.494	109.88
659.698	110.88
659.901	116.88
660.105	105.88
660.309	105.88
660.512	104.88
660.716	104.88
660.919	106.88
661.123	94.88
661.326	88.88
661.53	77.88
661.733	90.88
661.936	93.88
662.14	100.88
662.343	89.88
662.546	95.88
662.75	77.88
662.953	86.88
663.156	72.88
663.36	87.88
663.563	72.88
663.766	75.88
663.969	79.88
664.173	86.88
664.376	83.88
664.579	79.88
664.782	90.88
664.985	81.88
665.188	86.88
665.391	92.88
665.594	87.88
665.797	79.88
666	77.88
666.203	75.88
666.406	75.88
666.609	82.88
666.812	82.88
667.015	93.88
667.218	92.88
667.421	77.88
667.624	77.88
667.827	75.88
668.03	72.88
668.232	82.88
668.435	71.88
668.638	75.88
668.841	91.88
669.043	76.88
669.246	94.88
669.449	90.88
669.651	88.88
669.854	77.88
670.057	88.88
670.259	81.88
670.462	91.88
670.665	83.88
670.867	75.88
671.07	79.88
671.272	78.88
671.475	77.88
671.677	103.88
671.88	83.88
672.082	78.88
672.284	89.88
672.487	78.88
672.689	84.88
672.892	66.88
