Data from NiCl2@0.0625M.TitratingCurve.Agarose3%dH2O.NegLispCup.LampEnergy10.LIBS07252019_HRD10591_18-34-26-576.txt Node
Date: Thu Jul 25 18:34:26 EDT 2019
User: cochatt
Spectrometer: HR+D1059
Trigger mode: 1
Integration Time (sec): 1.000000E-1
Scans to average: 1
Electric dark correction enabled: true
Nonlinearity correction enabled: false
Boxcar width: 0
XAxis mode: Wavelengths
Number of Pixels in Spectrum: 2048
>>>>>Begin Spectral Data<<<<<
223.165	-20.38
223.4	-20.38
223.635	-20.38
223.869	-25.38
224.104	-8.38
224.338	-11.38
224.573	-8.38
224.808	-20.38
225.042	-12.38
225.277	-7.38
225.511	-4.38
225.746	4.62
225.98	7.62
226.215	17.62
226.449	16.62
226.683	25.62
226.918	21.62
227.152	24.62
227.387	32.62
227.621	26.62
227.856	49.62
228.09	55.62
228.324	51.62
228.559	54.62
228.793	71.62
229.027	137.62
229.262	140.62
229.496	139.62
229.73	146.62
229.964	161.62
230.199	145.62
230.433	162.62
230.667	169.62
230.901	162.62
231.136	179.62
231.37	174.62
231.604	191.62
231.838	169.62
232.072	171.62
232.306	197.62
232.541	184.62
232.775	191.62
233.009	203.62
233.243	193.62
233.477	186.62
233.711	179.62
233.945	198.62
234.179	196.62
234.413	201.62
234.647	184.62
234.881	194.62
235.115	189.62
235.349	207.62
235.583	199.62
235.817	201.62
236.051	203.62
236.285	209.62
236.519	195.62
236.753	208.62
236.987	215.62
237.221	207.62
237.455	216.62
237.689	217.62
237.922	227.62
238.156	228.62
238.39	233.62
238.624	244.62
238.858	224.62
239.091	248.62
239.325	230.62
239.559	234.62
239.793	256.62
240.027	260.62
240.26	250.62
240.494	249.62
240.728	246.62
240.961	260.62
241.195	283.62
241.429	273.62
241.662	278.62
241.896	258.62
242.13	289.62
242.363	268.62
242.597	268.62
242.83	285.62
243.064	279.62
243.298	290.62
243.531	307.62
243.765	303.62
243.998	300.62
244.232	295.62
244.465	289.62
244.699	292.62
244.932	313.62
245.166	313.62
245.399	311.62
245.633	319.62
245.866	317.62
246.099	304.62
246.333	313.62
246.566	328.62
246.8	327.62
247.033	340.62
247.266	311.62
247.5	333.62
247.733	326.62
247.966	345.62
248.2	332.62
248.433	351.62
248.666	335.62
248.899	352.62
249.133	354.62
249.366	373.62
249.599	367.62
249.832	364.62
250.066	375.62
250.299	336.62
250.532	377.62
250.765	385.62
250.998	368.62
251.231	377.62
251.465	389.62
251.698	380.62
251.931	370.62
252.164	398.62
252.397	375.62
252.63	403.62
252.863	403.62
253.096	391.62
253.329	402.62
253.562	403.62
253.795	397.62
254.028	403.62
254.261	396.62
254.494	406.62
254.727	424.62
254.96	424.62
255.193	413.62
255.426	442.62
255.659	445.62
255.892	426.62
256.124	429.62
256.357	428.62
256.59	437.62
256.823	440.62
257.056	440.62
257.289	438.62
257.521	427.62
257.754	445.62
257.987	457.62
258.22	450.62
258.452	447.62
258.685	461.62
258.918	437.62
259.151	467.62
259.383	472.62
259.616	455.62
259.849	474.62
260.081	483.62
260.314	487.62
260.547	462.62
260.779	473.62
261.012	489.62
261.244	464.62
261.477	467.62
261.71	492.62
261.942	502.62
262.175	492.62
262.407	481.62
262.64	485.62
262.872	527.62
263.105	515.62
263.337	505.62
263.57	501.62
263.802	516.62
264.035	524.62
264.267	497.62
264.499	512.62
264.732	490.62
264.964	509.62
265.197	529.62
265.429	529.62
265.661	492.62
265.894	535.62
266.126	530.62
266.358	541.62
266.591	524.62
266.823	539.62
267.055	561.62
267.287	542.62
267.52	564.62
267.752	535.62
267.984	559.62
268.216	548.62
268.448	550.62
268.681	549.62
268.913	544.62
269.145	594.62
269.377	571.62
269.609	560.62
269.841	576.62
270.073	600.62
270.306	571.62
270.538	573.62
270.77	578.62
271.002	586.62
271.234	572.62
271.466	583.62
271.698	568.62
271.93	577.62
272.162	603.62
272.394	579.62
272.626	588.62
272.858	602.62
273.09	616.62
273.322	617.62
273.553	598.62
273.785	632.62
274.017	598.62
274.249	612.62
274.481	620.62
274.713	614.62
274.945	637.62
275.176	627.62
275.408	635.62
275.64	637.62
275.872	644.62
276.104	654.62
276.335	675.62
276.567	646.62
276.799	645.62
277.031	657.62
277.262	655.62
277.494	655.62
277.726	658.62
277.957	671.62
278.189	689.62
278.421	637.62
278.652	647.62
278.884	690.62
279.115	703.62
279.347	682.62
279.579	684.62
279.81	680.62
280.042	672.62
280.273	689.62
280.505	689.62
280.736	711.62
280.968	696.62
281.199	707.62
281.431	724.62
281.662	714.62
281.894	703.62
282.125	696.62
282.356	749.62
282.588	722.62
282.819	746.62
283.051	730.62
283.282	734.62
283.513	719.62
283.745	737.62
283.976	727.62
284.207	733.62
284.439	760.62
284.67	733.62
284.901	732.62
285.132	769.62
285.364	749.62
285.595	771.62
285.826	753.62
286.057	755.62
286.288	761.62
286.52	744.62
286.751	782.62
286.982	761.62
287.213	771.62
287.444	812.62
287.675	771.62
287.906	783.62
288.138	779.62
288.369	793.62
288.6	782.62
288.831	809.62
289.062	784.62
289.293	787.62
289.524	809.62
289.755	762.62
289.986	769.62
290.217	804.62
290.448	821.62
290.679	785.62
290.91	771.62
291.141	808.62
291.371	812.62
291.602	816.62
291.833	793.62
292.064	826.62
292.295	804.62
292.526	812.62
292.757	816.62
292.987	805.62
293.218	803.62
293.449	819.62
293.68	808.62
293.91	801.62
294.141	812.62
294.372	807.62
294.603	831.62
294.833	828.62
295.064	827.62
295.295	812.62
295.525	856.62
295.756	828.62
295.987	853.62
296.217	836.62
296.448	814.62
296.679	828.62
296.909	845.62
297.14	859.62
297.37	867.62
297.601	880.62
297.831	887.62
298.062	869.62
298.292	873.62
298.523	905.62
298.753	903.62
298.984	879.62
299.214	872.62
299.445	863.62
299.675	881.62
299.905	893.62
300.136	873.62
300.366	895.62
300.597	899.62
300.827	905.62
301.057	883.62
301.288	908.62
301.518	903.62
301.748	913.62
301.979	935.62
302.209	917.62
302.439	923.62
302.669	937.62
302.9	938.62
303.13	899.62
303.36	933.62
303.59	909.62
303.82	933.62
304.051	949.62
304.281	961.62
304.511	970.62
304.741	927.62
304.971	933.62
305.201	924.62
305.431	938.62
305.661	935.62
305.891	905.62
306.121	917.62
306.352	934.62
306.582	907.62
306.812	908.62
307.042	924.62
307.272	943.62
307.502	890.62
307.731	923.62
307.961	915.62
308.191	931.62
308.421	919.62
308.651	928.62
308.881	877.62
309.111	905.62
309.341	919.62
309.571	917.62
309.8	949.62
310.03	949.62
310.26	938.62
310.49	910.62
310.72	929.62
310.949	928.62
311.179	913.62
311.409	903.62
311.639	945.62
311.868	937.62
312.098	945.62
312.328	987.62
312.557	969.62
312.787	960.62
313.017	965.62
313.246	977.62
313.476	969.62
313.706	993.62
313.935	978.62
314.165	1000.62
314.394	977.62
314.624	996.62
314.853	960.62
315.083	976.62
315.312	987.62
315.542	1009.62
315.771	1011.62
316.001	989.62
316.23	953.62
316.46	969.62
316.689	979.62
316.919	950.62
317.148	973.62
317.377	954.62
317.607	980.62
317.836	966.62
318.065	973.62
318.295	972.62
318.524	992.62
318.753	961.62
318.983	938.62
319.212	969.62
319.441	975.62
319.67	955.62
319.9	1000.62
320.129	995.62
320.358	978.62
320.587	948.62
320.816	976.62
321.046	974.62
321.275	951.62
321.504	996.62
321.733	989.62
321.962	985.62
322.191	989.62
322.42	999.62
322.649	984.62
322.878	1008.62
323.108	1011.62
323.337	961.62
323.566	1003.62
323.795	1027.62
324.024	1007.62
324.253	999.62
324.482	1003.62
324.71	1002.62
324.939	1045.62
325.168	1010.62
325.397	1033.62
325.626	1039.62
325.855	1035.62
326.084	1043.62
326.313	1078.62
326.542	1076.62
326.77	1085.62
326.999	1078.62
327.228	1045.62
327.457	1036.62
327.686	1053.62
327.914	1083.62
328.143	1052.62
328.372	1069.62
328.6	1091.62
328.829	1045.62
329.058	1067.62
329.287	1077.62
329.515	1081.62
329.744	1045.62
329.972	1097.62
330.201	1075.62
330.43	1109.62
330.658	1108.62
330.887	1089.62
331.115	1116.62
331.344	1131.62
331.572	1099.62
331.801	1115.62
332.03	1145.62
332.258	1180.62
332.486	1151.62
332.715	1238.62
332.943	1249.62
333.172	1305.62
333.4	1348.62
333.629	1359.62
333.857	1383.62
334.085	1378.62
334.314	1365.62
334.542	1349.62
334.771	1352.62
334.999	1336.62
335.227	1344.62
335.455	1311.62
335.684	1326.62
335.912	1319.62
336.14	1345.62
336.369	1332.62
336.597	1295.62
336.825	1292.62
337.053	1269.62
337.281	1267.62
337.51	1224.62
337.738	1206.62
337.966	1196.62
338.194	1187.62
338.422	1179.62
338.65	1165.62
338.878	1173.62
339.106	1186.62
339.334	1176.62
339.562	1167.62
339.79	1144.62
340.018	1152.62
340.246	1113.62
340.474	1134.62
340.702	1107.62
340.93	1145.62
341.158	1137.62
341.386	1147.62
341.614	1129.62
341.842	1124.62
342.07	1125.62
342.298	1142.62
342.526	1119.62
342.754	1122.62
342.981	1137.62
343.209	1156.62
343.437	1161.62
343.665	1239.62
343.893	1277.62
344.12	1337.62
344.348	1335.62
344.576	1240.62
344.804	1228.62
345.031	1166.62
345.259	1163.62
345.487	1115.62
345.714	1128.62
345.942	1131.62
346.17	1121.62
346.397	1099.62
346.625	1089.62
346.853	1064.62
347.08	1083.62
347.308	1075.62
347.535	1091.62
347.763	1089.62
347.99	1060.62
348.218	1060.62
348.445	1069.62
348.673	1076.62
348.9	1047.62
349.128	1065.62
349.355	1073.62
349.583	1047.62
349.81	1051.62
350.037	1042.62
350.265	1051.62
350.492	1040.62
350.72	1063.62
350.947	1068.62
351.174	1017.62
351.402	1073.62
351.629	1023.62
351.856	1043.62
352.083	1064.62
352.311	1005.62
352.538	1035.62
352.765	1049.62
352.992	1009.62
353.22	1035.62
353.447	1029.62
353.674	994.62
353.901	1019.62
354.128	1009.62
354.355	1011.62
354.583	1031.62
354.81	1026.62
355.037	1048.62
355.264	1038.62
355.491	1060.62
355.718	1059.62
355.945	1036.62
356.172	1018.62
356.399	1024.62
356.626	1037.62
356.853	1071.62
357.08	1073.62
357.307	1066.62
357.534	1068.62
357.761	1060.62
357.988	1010.62
358.215	1002.62
358.441	1009.62
358.668	1031.62
358.895	1063.62
359.122	1057.62
359.349	1064.62
359.576	1031.62
359.802	1031.62
360.029	1042.62
360.256	1046.62
360.483	1081.62
360.709	1049.62
360.936	1058.62
361.163	1061.62
361.39	1027.62
361.616	1041.62
361.843	1061.62
362.07	1055.62
362.296	1038.62
362.523	1012.62
362.749	1047.62
362.976	1047.62
363.203	1044.62
363.429	1025.62
363.656	1037.62
363.882	1044.62
364.109	1029.62
364.335	1028.62
364.562	1041.62
364.788	1027.62
365.015	1067.62
365.241	1039.62
365.468	1036.62
365.694	1032.62
365.92	1029.62
366.147	1015.62
366.373	1051.62
366.599	1030.62
366.826	1033.62
367.052	1056.62
367.278	1029.62
367.505	1058.62
367.731	1041.62
367.957	1020.62
368.184	1052.62
368.41	1044.62
368.636	1074.62
368.862	1084.62
369.089	1078.62
369.315	1073.62
369.541	1097.62
369.767	1066.62
369.993	1101.62
370.219	1071.62
370.445	1091.62
370.672	1076.62
370.898	1109.62
371.124	1125.62
371.35	1130.62
371.576	1108.62
371.802	1142.62
372.028	1111.62
372.254	1117.62
372.48	1155.62
372.706	1164.62
372.932	1191.62
373.158	1171.62
373.384	1129.62
373.61	1128.62
373.835	1149.62
374.061	1145.62
374.287	1162.62
374.513	1122.62
374.739	1215.62
374.965	1205.62
375.191	1240.62
375.416	1259.62
375.642	1207.62
375.868	1202.62
376.094	1186.62
376.319	1158.62
376.545	1168.62
376.771	1144.62
376.997	1123.62
377.222	1137.62
377.448	1142.62
377.674	1137.62
377.899	1133.62
378.125	1121.62
378.35	1103.62
378.576	1108.62
378.802	1128.62
379.027	1145.62
379.253	1140.62
379.478	1089.62
379.704	1110.62
379.929	1112.62
380.155	1112.62
380.38	1127.62
380.606	1109.62
380.831	1076.62
381.057	1136.62
381.282	1109.62
381.507	1122.62
381.733	1142.62
381.958	1134.62
382.184	1138.62
382.409	1142.62
382.634	1168.62
382.86	1158.62
383.085	1183.62
383.31	1202.62
383.535	1226.62
383.761	1200.62
383.986	1203.62
384.211	1221.62
384.436	1288.62
384.662	1302.62
384.887	1303.62
385.112	1322.62
385.337	1328.62
385.562	1303.62
385.787	1362.62
386.013	1359.62
386.238	1337.62
386.463	1314.62
386.688	1327.62
386.913	1324.62
387.138	1323.62
387.363	1341.62
387.588	1311.62
387.813	1313.62
388.038	1337.62
388.263	1341.62
388.488	1341.62
388.713	1348.62
388.938	1350.62
389.163	1314.62
389.387	1329.62
389.612	1338.62
389.837	1301.62
390.062	1318.62
390.287	1357.62
390.512	1371.62
390.736	1304.62
390.961	1368.62
391.186	1375.62
391.411	1431.62
391.636	1442.62
391.86	1455.62
392.085	1498.62
392.31	1473.62
392.534	1474.62
392.759	1427.62
392.984	1446.62
393.208	1412.62
393.433	1420.62
393.658	1416.62
393.882	1434.62
394.107	1415.62
394.331	1457.62
394.556	1389.62
394.78	1417.62
395.005	1440.62
395.229	1447.62
395.454	1468.62
395.678	1447.62
395.903	1502.62
396.127	1480.62
396.352	1468.62
396.576	1418.62
396.801	1431.62
397.025	1451.62
397.249	1506.62
397.474	1490.62
397.698	1520.62
397.922	1563.62
398.147	1515.62
398.371	1540.62
398.595	1589.62
398.82	1638.62
399.044	1741.62
399.268	1883.62
399.492	2077.62
399.717	2309.62
399.941	2281.62
400.165	2144.62
400.389	2001.62
400.613	1873.62
400.837	1774.62
401.062	1752.62
401.286	1692.62
401.51	1641.62
401.734	1693.62
401.958	1718.62
402.182	1683.62
402.406	1705.62
402.63	1718.62
402.854	1704.62
403.078	1711.62
403.302	1787.62
403.526	1747.62
403.75	1772.62
403.974	1816.62
404.198	1828.62
404.422	1822.62
404.645	1779.62
404.869	1799.62
405.093	1804.62
405.317	1778.62
405.541	1808.62
405.765	1806.62
405.988	1786.62
406.212	1816.62
406.436	1818.62
406.66	1878.62
406.883	1889.62
407.107	1982.62
407.331	2039.62
407.555	2119.62
407.778	2033.62
408.002	2072.62
408.226	2058.62
408.449	2000.62
408.673	1915.62
408.896	1885.62
409.12	1871.62
409.344	1912.62
409.567	1866.62
409.791	1862.62
410.014	1843.62
410.238	1852.62
410.461	1819.62
410.685	1816.62
410.908	1786.62
411.132	1768.62
411.355	1769.62
411.578	1763.62
411.802	1723.62
412.025	1771.62
412.249	1759.62
412.472	1734.62
412.695	1720.62
412.919	1668.62
413.142	1689.62
413.365	1680.62
413.589	1724.62
413.812	1641.62
414.035	1662.62
414.258	1649.62
414.482	1663.62
414.705	1662.62
414.928	1679.62
415.151	1654.62
415.374	1692.62
415.597	1638.62
415.821	1615.62
416.044	1616.62
416.267	1563.62
416.49	1603.62
416.713	1600.62
416.936	1607.62
417.159	1606.62
417.382	1572.62
417.605	1588.62
417.828	1564.62
418.051	1605.62
418.274	1623.62
418.497	1609.62
418.72	1603.62
418.943	1633.62
419.166	1752.62
419.389	1834.62
419.611	1818.62
419.834	1762.62
420.057	1695.62
420.28	1631.62
420.503	1583.62
420.726	1576.62
420.948	1589.62
421.171	1596.62
421.394	1586.62
421.617	1574.62
421.839	1635.62
422.062	1617.62
422.285	1582.62
422.507	1658.62
422.73	1603.62
422.953	1619.62
423.175	1653.62
423.398	1694.62
423.621	1636.62
423.843	1674.62
424.066	1699.62
424.288	1663.62
424.511	1628.62
424.733	1642.62
424.956	1604.62
425.178	1635.62
425.401	1593.62
425.623	1598.62
425.846	1533.62
426.068	1553.62
426.291	1528.62
426.513	1535.62
426.735	1517.62
426.958	1552.62
427.18	1482.62
427.402	1497.62
427.625	1510.62
427.847	1472.62
428.069	1497.62
428.292	1504.62
428.514	1463.62
428.736	1452.62
428.958	1489.62
429.181	1435.62
429.403	1446.62
429.625	1434.62
429.847	1429.62
430.069	1425.62
430.292	1404.62
430.514	1391.62
430.736	1433.62
430.958	1438.62
431.18	1422.62
431.402	1457.62
431.624	1481.62
431.846	1482.62
432.068	1508.62
432.29	1509.62
432.512	1466.62
432.734	1486.62
432.956	1472.62
433.178	1517.62
433.4	1487.62
433.622	1466.62
433.844	1524.62
434.066	1524.62
434.287	1498.62
434.509	1550.62
434.731	1585.62
434.953	1636.62
435.175	1639.62
435.397	1628.62
435.618	1580.62
435.84	1485.62
436.062	1478.62
436.284	1503.62
436.505	1446.62
436.727	1458.62
436.949	1486.62
437.17	1461.62
437.392	1438.62
437.614	1431.62
437.835	1407.62
438.057	1396.62
438.278	1407.62
438.5	1431.62
438.721	1410.62
438.943	1432.62
439.165	1383.62
439.386	1411.62
439.608	1388.62
439.829	1435.62
440.05	1401.62
440.272	1470.62
440.493	1443.62
440.715	1433.62
440.936	1478.62
441.158	1511.62
441.379	1525.62
441.6	1590.62
441.822	1615.62
442.043	1592.62
442.264	1546.62
442.486	1571.62
442.707	1565.62
442.928	1556.62
443.149	1574.62
443.371	1551.62
443.592	1561.62
443.813	1576.62
444.034	1600.62
444.255	1620.62
444.476	1699.62
444.698	1752.62
444.919	1809.62
445.14	1895.62
445.361	1747.62
445.582	1635.62
445.803	1581.62
446.024	1497.62
446.245	1526.62
446.466	1494.62
446.687	1449.62
446.908	1475.62
447.129	1408.62
447.35	1379.62
447.571	1379.62
447.792	1355.62
448.013	1367.62
448.234	1316.62
448.455	1321.62
448.675	1319.62
448.896	1309.62
449.117	1278.62
449.338	1305.62
449.559	1291.62
449.779	1300.62
450	1327.62
450.221	1325.62
450.442	1314.62
450.662	1307.62
450.883	1299.62
451.104	1323.62
451.324	1305.62
451.545	1303.62
451.766	1314.62
451.986	1271.62
452.207	1295.62
452.428	1294.62
452.648	1300.62
452.869	1256.62
453.089	1266.62
453.31	1291.62
453.53	1247.62
453.751	1258.62
453.971	1239.62
454.192	1245.62
454.412	1245.62
454.633	1236.62
454.853	1248.62
455.073	1229.62
455.294	1215.62
455.514	1257.62
455.734	1208.62
455.955	1224.62
456.175	1235.62
456.395	1187.62
456.616	1215.62
456.836	1215.62
457.056	1242.62
457.276	1181.62
457.497	1234.62
457.717	1207.62
457.937	1226.62
458.157	1258.62
458.377	1283.62
458.598	1317.62
458.818	1341.62
459.038	1359.62
459.258	1374.62
459.478	1457.62
459.698	1469.62
459.918	1489.62
460.138	1571.62
460.358	1602.62
460.578	1599.62
460.798	1649.62
461.018	1640.62
461.238	1626.62
461.458	1636.62
461.678	1623.62
461.898	1659.62
462.118	1669.62
462.338	1711.62
462.558	1804.62
462.777	1867.62
462.997	1909.62
463.217	2056.62
463.437	2089.62
463.657	2015.62
463.876	1927.62
464.096	1914.62
464.316	1906.62
464.536	1839.62
464.755	1832.62
464.975	1767.62
465.195	1691.62
465.414	1639.62
465.634	1537.62
465.854	1496.62
466.073	1476.62
466.293	1442.62
466.512	1444.62
466.732	1415.62
466.951	1389.62
467.171	1372.62
467.391	1404.62
467.61	1369.62
467.829	1358.62
468.049	1345.62
468.268	1300.62
468.488	1328.62
468.707	1311.62
468.927	1325.62
469.146	1340.62
469.365	1363.62
469.585	1356.62
469.804	1387.62
470.023	1415.62
470.243	1403.62
470.462	1398.62
470.681	1429.62
470.901	1397.62
471.12	1388.62
471.339	1400.62
471.558	1331.62
471.777	1363.62
471.997	1363.62
472.216	1339.62
472.435	1327.62
472.654	1315.62
472.873	1278.62
473.092	1313.62
473.311	1303.62
473.53	1295.62
473.749	1317.62
473.968	1315.62
474.187	1283.62
474.406	1280.62
474.625	1322.62
474.844	1311.62
475.063	1308.62
475.282	1339.62
475.501	1322.62
475.72	1330.62
475.939	1355.62
476.158	1346.62
476.377	1375.62
476.596	1391.62
476.814	1385.62
477.033	1383.62
477.252	1416.62
477.471	1437.62
477.69	1484.62
477.908	1486.62
478.127	1527.62
478.346	1537.62
478.564	1578.62
478.783	1602.62
479.002	1627.62
479.22	1673.62
479.439	1641.62
479.658	1633.62
479.876	1655.62
480.095	1696.62
480.313	1743.62
480.532	1742.62
480.751	1743.62
480.969	1691.62
481.188	1644.62
481.406	1643.62
481.624	1634.62
481.843	1587.62
482.061	1599.62
482.28	1579.62
482.498	1558.62
482.717	1620.62
482.935	1605.62
483.153	1625.62
483.372	1624.62
483.59	1564.62
483.808	1632.62
484.027	1605.62
484.245	1677.62
484.463	1702.62
484.681	1677.62
484.9	1730.62
485.118	1718.62
485.336	1733.62
485.554	1707.62
485.772	1743.62
485.99	1769.62
486.209	1720.62
486.427	1747.62
486.645	1730.62
486.863	1752.62
487.081	1727.62
487.299	1726.62
487.517	1714.62
487.735	1691.62
487.953	1734.62
488.171	1698.62
488.389	1666.62
488.607	1632.62
488.825	1693.62
489.043	1635.62
489.261	1623.62
489.479	1677.62
489.696	1667.62
489.914	1632.62
490.132	1673.62
490.35	1665.62
490.568	1623.62
490.786	1657.62
491.003	1666.62
491.221	1655.62
491.439	1638.62
491.657	1649.62
491.874	1661.62
492.092	1653.62
492.31	1635.62
492.527	1621.62
492.745	1664.62
492.963	1651.62
493.18	1642.62
493.398	1672.62
493.615	1687.62
493.833	1652.62
494.05	1683.62
494.268	1652.62
494.485	1695.62
494.703	1667.62
494.92	1697.62
495.138	1675.62
495.355	1708.62
495.573	1668.62
495.79	1695.62
496.008	1682.62
496.225	1742.62
496.442	1749.62
496.66	1716.62
496.877	1755.62
497.094	1779.62
497.312	1819.62
497.529	1827.62
497.746	1928.62
497.963	1973.62
498.181	2047.62
498.398	2115.62
498.615	2264.62
498.832	2266.62
499.049	2468.62
499.267	2675.62
499.484	2868.62
499.701	3107.62
499.918	3336.62
500.135	3766.62
500.352	4049.62
500.569	4175.62
500.786	4194.62
501.003	3995.62
501.22	3715.62
501.437	3363.62
501.654	3060.62
501.871	2802.62
502.088	2639.62
502.305	2424.62
502.522	2347.62
502.739	2209.62
502.956	2146.62
503.172	2060.62
503.389	1992.62
503.606	1897.62
503.823	1880.62
504.04	1884.62
504.256	1884.62
504.473	1869.62
504.69	1888.62
504.907	1866.62
505.123	1745.62
505.34	1727.62
505.557	1633.62
505.773	1633.62
505.99	1561.62
506.207	1554.62
506.423	1509.62
506.64	1494.62
506.856	1484.62
507.073	1483.62
507.289	1451.62
507.506	1440.62
507.722	1429.62
507.939	1427.62
508.155	1420.62
508.372	1416.62
508.588	1386.62
508.805	1393.62
509.021	1379.62
509.238	1375.62
509.454	1344.62
509.67	1337.62
509.887	1329.62
510.103	1339.62
510.319	1322.62
510.536	1312.62
510.752	1339.62
510.968	1297.62
511.184	1285.62
511.401	1335.62
511.617	1299.62
511.833	1295.62
512.049	1310.62
512.265	1279.62
512.481	1291.62
512.698	1273.62
512.914	1285.62
513.13	1307.62
513.346	1288.62
513.562	1335.62
513.778	1313.62
513.994	1346.62
514.21	1285.62
514.426	1321.62
514.642	1299.62
514.858	1346.62
515.074	1357.62
515.29	1340.62
515.506	1351.62
515.721	1393.62
515.937	1388.62
516.153	1417.62
516.369	1459.62
516.585	1477.62
516.801	1521.62
517.016	1551.62
517.232	1600.62
517.448	1665.62
517.664	1702.62
517.879	1752.62
518.095	1705.62
518.311	1740.62
518.527	1610.62
518.742	1589.62
518.958	1556.62
519.173	1500.62
519.389	1438.62
519.605	1386.62
519.82	1384.62
520.036	1353.62
520.251	1335.62
520.467	1344.62
520.682	1332.62
520.898	1298.62
521.113	1277.62
521.329	1267.62
521.544	1263.62
521.76	1251.62
521.975	1253.62
522.19	1211.62
522.406	1201.62
522.621	1226.62
522.836	1226.62
523.052	1204.62
523.267	1205.62
523.482	1202.62
523.698	1196.62
523.913	1173.62
524.128	1184.62
524.343	1207.62
524.559	1155.62
524.774	1187.62
524.989	1188.62
525.204	1190.62
525.419	1175.62
525.634	1158.62
525.849	1149.62
526.064	1165.62
526.28	1185.62
526.495	1146.62
526.71	1139.62
526.925	1156.62
527.14	1144.62
527.355	1157.62
527.57	1152.62
527.785	1159.62
527.999	1154.62
528.214	1145.62
528.429	1183.62
528.644	1162.62
528.859	1128.62
529.074	1131.62
529.289	1138.62
529.503	1163.62
529.718	1138.62
529.933	1138.62
530.148	1144.62
530.363	1176.62
530.577	1151.62
530.792	1178.62
531.007	1137.62
531.221	1131.62
531.436	1112.62
531.651	1145.62
531.865	1135.62
532.08	1143.62
532.295	1122.62
532.509	1130.62
532.724	1139.62
532.938	1133.62
533.153	1128.62
533.367	1132.62
533.582	1122.62
533.796	1113.62
534.011	1133.62
534.225	1114.62
534.44	1095.62
534.654	1092.62
534.868	1103.62
535.083	1081.62
535.297	1123.62
535.511	1124.62
535.726	1086.62
535.94	1087.62
536.154	1076.62
536.369	1080.62
536.583	1090.62
536.797	1045.62
537.011	1063.62
537.225	1073.62
537.44	1047.62
537.654	1029.62
537.868	1063.62
538.082	1033.62
538.296	1045.62
538.51	1045.62
538.724	1057.62
538.938	1001.62
539.153	1005.62
539.367	1039.62
539.581	1015.62
539.795	1055.62
540.009	1009.62
540.222	1023.62
540.436	1039.62
540.65	1029.62
540.864	1015.62
541.078	1035.62
541.292	1005.62
541.506	1018.62
541.72	995.62
541.934	1017.62
542.147	1009.62
542.361	1016.62
542.575	978.62
542.789	1008.62
543.002	991.62
543.216	983.62
543.43	1002.62
543.644	994.62
543.857	998.62
544.071	1011.62
544.285	1023.62
544.498	1008.62
544.712	981.62
544.925	1017.62
545.139	1036.62
545.352	1018.62
545.566	1002.62
545.779	1020.62
545.993	1034.62
546.206	1030.62
546.42	1026.62
546.633	1000.62
546.847	1043.62
547.06	1028.62
547.274	1017.62
547.487	1001.62
547.7	1036.62
547.914	1034.62
548.127	1029.62
548.34	988.62
548.554	1004.62
548.767	1033.62
548.98	1034.62
549.193	1022.62
549.407	1039.62
549.62	1093.62
549.833	1068.62
550.046	1043.62
550.259	1025.62
550.473	960.62
550.686	1019.62
550.899	1008.62
551.112	1003.62
551.325	996.62
551.538	1048.62
551.751	1013.62
551.964	1028.62
552.177	1003.62
552.39	1019.62
552.603	1059.62
552.816	1077.62
553.029	1067.62
553.242	1082.62
553.455	1097.62
553.667	1087.62
553.88	1061.62
554.093	1050.62
554.306	1047.62
554.519	1024.62
554.732	986.62
554.944	995.62
555.157	978.62
555.37	969.62
555.583	988.62
555.795	937.62
556.008	928.62
556.221	899.62
556.433	921.62
556.646	907.62
556.859	890.62
557.071	912.62
557.284	893.62
557.496	888.62
557.709	889.62
557.921	892.62
558.134	846.62
558.346	860.62
558.559	880.62
558.771	847.62
558.984	885.62
559.196	847.62
559.409	849.62
559.621	855.62
559.833	853.62
560.046	861.62
560.258	853.62
560.47	845.62
560.683	870.62
560.895	836.62
561.107	832.62
561.32	851.62
561.532	859.62
561.744	834.62
561.956	860.62
562.168	848.62
562.381	842.62
562.593	826.62
562.805	844.62
563.017	833.62
563.229	835.62
563.441	842.62
563.653	848.62
563.865	875.62
564.077	873.62
564.289	867.62
564.501	902.62
564.713	909.62
564.925	903.62
565.137	921.62
565.349	968.62
565.561	987.62
565.773	999.62
565.985	1008.62
566.197	1049.62
566.408	1111.62
566.62	1202.62
566.832	1283.62
567.044	1340.62
567.255	1309.62
567.467	1341.62
567.679	1391.62
567.891	1446.62
568.102	1463.62
568.314	1439.62
568.526	1301.62
568.737	1175.62
568.949	1124.62
569.161	1057.62
569.372	988.62
569.584	977.62
569.795	953.62
570.007	875.62
570.218	865.62
570.43	869.62
570.641	852.62
570.853	860.62
571.064	898.62
571.276	847.62
571.487	835.62
571.698	811.62
571.91	780.62
572.121	763.62
572.333	777.62
572.544	748.62
572.755	738.62
572.966	723.62
573.178	732.62
573.389	719.62
573.6	697.62
573.811	693.62
574.023	694.62
574.234	685.62
574.445	705.62
574.656	711.62
574.867	681.62
575.078	668.62
575.289	680.62
575.501	683.62
575.712	667.62
575.923	679.62
576.134	676.62
576.345	611.62
576.556	647.62
576.767	643.62
576.978	654.62
577.188	649.62
577.399	647.62
577.61	624.62
577.821	624.62
578.032	630.62
578.243	626.62
578.454	634.62
578.665	619.62
578.875	593.62
579.086	607.62
579.297	622.62
579.508	612.62
579.718	611.62
579.929	615.62
580.14	595.62
580.35	595.62
580.561	589.62
580.772	597.62
580.982	617.62
581.193	583.62
581.403	577.62
581.614	595.62
581.825	588.62
582.035	577.62
582.246	589.62
582.456	577.62
582.667	571.62
582.877	567.62
583.087	593.62
583.298	571.62
583.508	581.62
583.719	582.62
583.929	559.62
584.139	581.62
584.35	567.62
584.56	562.62
584.77	555.62
584.981	559.62
585.191	541.62
585.401	536.62
585.611	542.62
585.821	544.62
586.032	551.62
586.242	584.62
586.452	553.62
586.662	538.62
586.872	565.62
587.082	538.62
587.292	523.62
587.502	560.62
587.713	545.62
587.923	546.62
588.133	534.62
588.343	546.62
588.553	555.62
588.762	559.62
588.972	544.62
589.182	539.62
589.392	593.62
589.602	566.62
589.812	581.62
590.022	547.62
590.232	549.62
590.441	577.62
590.651	541.62
590.861	577.62
591.071	585.62
591.281	588.62
591.49	589.62
591.7	585.62
591.91	596.62
592.119	580.62
592.329	600.62
592.539	606.62
592.748	600.62
592.958	645.62
593.167	651.62
593.377	663.62
593.587	637.62
593.796	657.62
594.006	668.62
594.215	669.62
594.424	670.62
594.634	662.62
594.843	647.62
595.053	605.62
595.262	611.62
595.472	597.62
595.681	581.62
595.89	544.62
596.1	556.62
596.309	547.62
596.518	525.62
596.727	513.62
596.937	515.62
597.146	495.62
597.355	503.62
597.564	498.62
597.774	499.62
597.983	479.62
598.192	470.62
598.401	491.62
598.61	469.62
598.819	479.62
599.028	472.62
599.237	470.62
599.446	468.62
599.655	475.62
599.864	460.62
600.073	460.62
600.282	460.62
600.491	439.62
600.7	455.62
600.909	465.62
601.118	472.62
601.327	445.62
601.536	452.62
601.745	444.62
601.953	456.62
602.162	448.62
602.371	474.62
602.58	423.62
602.789	447.62
602.997	452.62
603.206	435.62
603.415	431.62
603.623	435.62
603.832	437.62
604.041	444.62
604.249	411.62
604.458	439.62
604.666	430.62
604.875	422.62
605.084	450.62
605.292	404.62
605.501	419.62
605.709	431.62
605.918	416.62
606.126	432.62
606.334	419.62
606.543	424.62
606.751	420.62
606.96	435.62
607.168	415.62
607.376	402.62
607.585	399.62
607.793	421.62
608.001	406.62
608.21	415.62
608.418	392.62
608.626	412.62
608.834	396.62
609.043	381.62
609.251	398.62
609.459	395.62
609.667	391.62
609.875	380.62
610.083	393.62
610.291	396.62
610.499	415.62
610.707	409.62
610.916	382.62
611.124	404.62
611.332	390.62
611.54	378.62
611.748	391.62
611.955	411.62
612.163	393.62
612.371	398.62
612.579	386.62
612.787	385.62
612.995	397.62
613.203	379.62
613.411	387.62
613.618	372.62
613.826	392.62
614.034	377.62
614.242	397.62
614.449	397.62
614.657	375.62
614.865	374.62
615.072	386.62
615.28	397.62
615.488	369.62
615.695	397.62
615.903	387.62
616.111	410.62
616.318	380.62
616.526	402.62
616.733	412.62
616.941	386.62
617.148	379.62
617.356	379.62
617.563	381.62
617.771	385.62
617.978	399.62
618.185	375.62
618.393	375.62
618.6	386.62
618.807	373.62
619.015	377.62
619.222	360.62
619.429	382.62
619.637	373.62
619.844	385.62
620.051	381.62
620.258	347.62
620.466	372.62
620.673	343.62
620.88	340.62
621.087	362.62
621.294	376.62
621.501	354.62
621.708	346.62
621.915	362.62
622.122	353.62
622.329	360.62
622.536	352.62
622.743	334.62
622.95	346.62
623.157	343.62
623.364	344.62
623.571	345.62
623.778	345.62
623.985	354.62
624.192	354.62
624.399	343.62
624.606	328.62
624.812	338.62
625.019	330.62
625.226	344.62
625.433	324.62
625.639	320.62
625.846	325.62
626.053	320.62
626.259	309.62
626.466	332.62
626.673	319.62
626.879	326.62
627.086	339.62
627.293	315.62
627.499	292.62
627.706	301.62
627.912	301.62
628.119	332.62
628.325	320.62
628.532	322.62
628.738	323.62
628.945	315.62
629.151	331.62
629.357	306.62
629.564	295.62
629.77	321.62
629.976	298.62
630.183	289.62
630.389	300.62
630.595	303.62
630.802	303.62
631.008	292.62
631.214	311.62
631.42	300.62
631.627	293.62
631.833	307.62
632.039	303.62
632.245	287.62
632.451	313.62
632.657	317.62
632.863	311.62
633.069	280.62
633.275	284.62
633.481	262.62
633.688	292.62
633.893	295.62
634.099	297.62
634.305	310.62
634.511	293.62
634.717	286.62
634.923	275.62
635.129	277.62
635.335	283.62
635.541	287.62
635.747	284.62
635.952	279.62
636.158	268.62
636.364	278.62
636.57	279.62
636.775	265.62
636.981	283.62
637.187	266.62
637.392	279.62
637.598	279.62
637.804	282.62
638.009	261.62
638.215	267.62
638.421	277.62
638.626	259.62
638.832	272.62
639.037	273.62
639.243	283.62
639.448	271.62
639.654	257.62
639.859	264.62
640.065	262.62
640.27	274.62
640.475	250.62
640.681	279.62
640.886	257.62
641.091	265.62
641.297	258.62
641.502	244.62
641.707	244.62
641.913	265.62
642.118	269.62
642.323	258.62
642.528	254.62
642.733	259.62
642.939	252.62
643.144	257.62
643.349	261.62
643.554	253.62
643.759	266.62
643.964	255.62
644.169	268.62
644.374	265.62
644.579	243.62
644.784	259.62
644.989	267.62
645.194	251.62
645.399	264.62
645.604	262.62
645.809	269.62
646.014	266.62
646.219	279.62
646.423	265.62
646.628	257.62
646.833	255.62
647.038	257.62
647.243	268.62
647.447	276.62
647.652	258.62
647.857	268.62
648.062	290.62
648.266	284.62
648.471	283.62
648.676	277.62
648.88	278.62
649.085	265.62
649.289	269.62
649.494	275.62
649.698	259.62
649.903	270.62
650.107	267.62
650.312	277.62
650.516	259.62
650.721	270.62
650.925	251.62
651.13	273.62
651.334	259.62
651.539	277.62
651.743	245.62
651.947	247.62
652.152	255.62
652.356	254.62
652.56	274.62
652.764	241.62
652.969	239.62
653.173	258.62
653.377	255.62
653.581	240.62
653.785	249.62
653.99	257.62
654.194	252.62
654.398	251.62
654.602	263.62
654.806	271.62
655.01	272.62
655.214	263.62
655.418	271.62
655.622	290.62
655.826	291.62
656.03	326.62
656.234	328.62
656.438	371.62
656.642	361.62
656.846	352.62
657.049	317.62
657.253	291.62
657.457	260.62
657.661	242.62
657.865	218.62
658.068	189.62
658.272	181.62
658.476	173.62
658.68	183.62
658.883	151.62
659.087	125.62
659.291	139.62
659.494	132.62
659.698	116.62
659.901	127.62
660.105	111.62
660.309	109.62
660.512	131.62
660.716	106.62
660.919	89.62
661.123	111.62
661.326	101.62
661.53	96.62
661.733	104.62
661.936	97.62
662.14	84.62
662.343	90.62
662.546	101.62
662.75	100.62
662.953	105.62
663.156	84.62
663.36	92.62
663.563	97.62
663.766	81.62
663.969	86.62
664.173	88.62
664.376	77.62
664.579	76.62
664.782	88.62
664.985	82.62
665.188	74.62
665.391	86.62
665.594	70.62
665.797	76.62
666	74.62
666.203	87.62
666.406	78.62
666.609	84.62
666.812	85.62
667.015	72.62
667.218	81.62
667.421	91.62
667.624	87.62
667.827	94.62
668.03	84.62
668.232	73.62
668.435	69.62
668.638	79.62
668.841	81.62
669.043	88.62
669.246	78.62
669.449	79.62
669.651	73.62
669.854	76.62
670.057	73.62
670.259	78.62
670.462	88.62
670.665	82.62
670.867	86.62
671.07	81.62
671.272	82.62
671.475	80.62
671.677	82.62
671.88	81.62
672.082	72.62
672.284	87.62
672.487	76.62
672.689	96.62
672.892	77.62
