Data from NiCl2@0.125M.TitratingCurve.Agarose3%dH2O.NegLispCup.LampEnergy10.LIBS07252019_HRD10591_18-28-36-574.txt Node
Date: Thu Jul 25 18:28:36 EDT 2019
User: cochatt
Spectrometer: HR+D1059
Trigger mode: 1
Integration Time (sec): 1.000000E-1
Scans to average: 1
Electric dark correction enabled: true
Nonlinearity correction enabled: false
Boxcar width: 0
XAxis mode: Wavelengths
Number of Pixels in Spectrum: 2048
>>>>>Begin Spectral Data<<<<<
223.165	-22.38
223.4	-22.38
223.635	-22.38
223.869	-21.38
224.104	-11.38
224.338	-13.38
224.573	-30.38
224.808	-16.38
225.042	-5.38
225.277	6.62
225.511	-1.38
225.746	5.62
225.98	-0.38
226.215	14.62
226.449	10.62
226.683	21.62
226.918	30.62
227.152	32.62
227.387	32.62
227.621	31.62
227.856	49.62
228.09	59.62
228.324	51.62
228.559	44.62
228.793	68.62
229.027	104.62
229.262	109.62
229.496	115.62
229.73	139.62
229.964	125.62
230.199	124.62
230.433	135.62
230.667	132.62
230.901	147.62
231.136	143.62
231.37	133.62
231.604	151.62
231.838	167.62
232.072	156.62
232.306	136.62
232.541	153.62
232.775	145.62
233.009	150.62
233.243	150.62
233.477	161.62
233.711	154.62
233.945	146.62
234.179	158.62
234.413	146.62
234.647	158.62
234.881	160.62
235.115	155.62
235.349	173.62
235.583	162.62
235.817	169.62
236.051	164.62
236.285	171.62
236.519	162.62
236.753	161.62
236.987	172.62
237.221	162.62
237.455	166.62
237.689	182.62
237.922	170.62
238.156	160.62
238.39	178.62
238.624	181.62
238.858	172.62
239.091	189.62
239.325	192.62
239.559	182.62
239.793	189.62
240.027	196.62
240.26	173.62
240.494	177.62
240.728	199.62
240.961	196.62
241.195	203.62
241.429	189.62
241.662	186.62
241.896	216.62
242.13	200.62
242.363	202.62
242.597	202.62
242.83	221.62
243.064	226.62
243.298	218.62
243.531	199.62
243.765	202.62
243.998	227.62
244.232	243.62
244.465	214.62
244.699	230.62
244.932	245.62
245.166	230.62
245.399	249.62
245.633	240.62
245.866	233.62
246.099	227.62
246.333	226.62
246.566	227.62
246.8	245.62
247.033	243.62
247.266	255.62
247.5	251.62
247.733	251.62
247.966	241.62
248.2	250.62
248.433	257.62
248.666	270.62
248.899	266.62
249.133	253.62
249.366	251.62
249.599	255.62
249.832	275.62
250.066	265.62
250.299	249.62
250.532	267.62
250.765	267.62
250.998	274.62
251.231	288.62
251.465	283.62
251.698	288.62
251.931	274.62
252.164	283.62
252.397	286.62
252.63	291.62
252.863	289.62
253.096	287.62
253.329	300.62
253.562	311.62
253.795	291.62
254.028	294.62
254.261	293.62
254.494	300.62
254.727	317.62
254.96	309.62
255.193	306.62
255.426	293.62
255.659	294.62
255.892	312.62
256.124	318.62
256.357	295.62
256.59	316.62
256.823	304.62
257.056	320.62
257.289	300.62
257.521	338.62
257.754	327.62
257.987	313.62
258.22	321.62
258.452	322.62
258.685	339.62
258.918	326.62
259.151	324.62
259.383	325.62
259.616	318.62
259.849	347.62
260.081	336.62
260.314	332.62
260.547	324.62
260.779	349.62
261.012	369.62
261.244	360.62
261.477	348.62
261.71	336.62
261.942	332.62
262.175	350.62
262.407	344.62
262.64	355.62
262.872	339.62
263.105	355.62
263.337	355.62
263.57	369.62
263.802	340.62
264.035	356.62
264.267	389.62
264.499	361.62
264.732	362.62
264.964	375.62
265.197	363.62
265.429	393.62
265.661	362.62
265.894	379.62
266.126	384.62
266.358	375.62
266.591	373.62
266.823	391.62
267.055	387.62
267.287	392.62
267.52	384.62
267.752	406.62
267.984	404.62
268.216	415.62
268.448	382.62
268.681	372.62
268.913	398.62
269.145	393.62
269.377	387.62
269.609	404.62
269.841	401.62
270.073	418.62
270.306	402.62
270.538	410.62
270.77	392.62
271.002	418.62
271.234	418.62
271.466	402.62
271.698	413.62
271.93	406.62
272.162	428.62
272.394	417.62
272.626	429.62
272.858	396.62
273.09	412.62
273.322	441.62
273.553	435.62
273.785	436.62
274.017	429.62
274.249	422.62
274.481	422.62
274.713	418.62
274.945	445.62
275.176	450.62
275.408	452.62
275.64	455.62
275.872	450.62
276.104	449.62
276.335	437.62
276.567	439.62
276.799	450.62
277.031	483.62
277.262	455.62
277.494	458.62
277.726	452.62
277.957	453.62
278.189	452.62
278.421	446.62
278.652	460.62
278.884	459.62
279.115	470.62
279.347	482.62
279.579	481.62
279.81	484.62
280.042	474.62
280.273	486.62
280.505	472.62
280.736	495.62
280.968	496.62
281.199	483.62
281.431	490.62
281.662	496.62
281.894	482.62
282.125	500.62
282.356	496.62
282.588	509.62
282.819	516.62
283.051	507.62
283.282	509.62
283.513	480.62
283.745	498.62
283.976	499.62
284.207	505.62
284.439	522.62
284.67	509.62
284.901	537.62
285.132	522.62
285.364	531.62
285.595	539.62
285.826	512.62
286.057	522.62
286.288	521.62
286.52	521.62
286.751	529.62
286.982	542.62
287.213	538.62
287.444	542.62
287.675	543.62
287.906	554.62
288.138	528.62
288.369	557.62
288.6	524.62
288.831	580.62
289.062	545.62
289.293	549.62
289.524	544.62
289.755	550.62
289.986	526.62
290.217	549.62
290.448	566.62
290.679	571.62
290.91	565.62
291.141	552.62
291.371	562.62
291.602	574.62
291.833	571.62
292.064	565.62
292.295	561.62
292.526	572.62
292.757	568.62
292.987	550.62
293.218	549.62
293.449	557.62
293.68	587.62
293.91	559.62
294.141	561.62
294.372	574.62
294.603	570.62
294.833	576.62
295.064	567.62
295.295	573.62
295.525	566.62
295.756	576.62
295.987	574.62
296.217	589.62
296.448	587.62
296.679	590.62
296.909	610.62
297.14	589.62
297.37	626.62
297.601	614.62
297.831	634.62
298.062	598.62
298.292	612.62
298.523	635.62
298.753	630.62
298.984	636.62
299.214	611.62
299.445	611.62
299.675	593.62
299.905	623.62
300.136	624.62
300.366	617.62
300.597	605.62
300.827	631.62
301.057	636.62
301.288	639.62
301.518	650.62
301.748	641.62
301.979	657.62
302.209	650.62
302.439	644.62
302.669	624.62
302.9	655.62
303.13	620.62
303.36	642.62
303.59	652.62
303.82	621.62
304.051	632.62
304.281	656.62
304.511	623.62
304.741	619.62
304.971	642.62
305.201	650.62
305.431	645.62
305.661	638.62
305.891	615.62
306.121	626.62
306.352	620.62
306.582	625.62
306.812	596.62
307.042	628.62
307.272	616.62
307.502	597.62
307.731	627.62
307.961	643.62
308.191	637.62
308.421	620.62
308.651	625.62
308.881	612.62
309.111	611.62
309.341	605.62
309.571	622.62
309.8	616.62
310.03	631.62
310.26	641.62
310.49	626.62
310.72	631.62
310.949	610.62
311.179	628.62
311.409	637.62
311.639	647.62
311.868	653.62
312.098	674.62
312.328	640.62
312.557	655.62
312.787	628.62
313.017	630.62
313.246	661.62
313.476	645.62
313.706	652.62
313.935	677.62
314.165	691.62
314.394	680.62
314.624	661.62
314.853	688.62
315.083	692.62
315.312	668.62
315.542	639.62
315.771	666.62
316.001	658.62
316.23	650.62
316.46	633.62
316.689	665.62
316.919	672.62
317.148	661.62
317.377	666.62
317.607	663.62
317.836	664.62
318.065	665.62
318.295	645.62
318.524	652.62
318.753	626.62
318.983	663.62
319.212	640.62
319.441	656.62
319.67	646.62
319.9	636.62
320.129	648.62
320.358	649.62
320.587	677.62
320.816	663.62
321.046	640.62
321.275	662.62
321.504	643.62
321.733	642.62
321.962	682.62
322.191	660.62
322.42	681.62
322.649	670.62
322.878	670.62
323.108	665.62
323.337	648.62
323.566	654.62
323.795	660.62
324.024	683.62
324.253	686.62
324.482	667.62
324.71	664.62
324.939	683.62
325.168	665.62
325.397	667.62
325.626	703.62
325.855	701.62
326.084	723.62
326.313	723.62
326.542	728.62
326.77	730.62
326.999	706.62
327.228	692.62
327.457	690.62
327.686	710.62
327.914	742.62
328.143	722.62
328.372	719.62
328.6	731.62
328.829	722.62
329.058	696.62
329.287	738.62
329.515	756.62
329.744	724.62
329.972	715.62
330.201	713.62
330.43	737.62
330.658	718.62
330.887	749.62
331.115	754.62
331.344	754.62
331.572	760.62
331.801	793.62
332.03	770.62
332.258	820.62
332.486	819.62
332.715	830.62
332.943	867.62
333.172	920.62
333.4	968.62
333.629	941.62
333.857	991.62
334.085	971.62
334.314	976.62
334.542	928.62
334.771	896.62
334.999	893.62
335.227	912.62
335.455	918.62
335.684	917.62
335.912	898.62
336.14	876.62
336.369	877.62
336.597	887.62
336.825	850.62
337.053	861.62
337.281	845.62
337.51	836.62
337.738	808.62
337.966	794.62
338.194	811.62
338.422	771.62
338.65	793.62
338.878	782.62
339.106	784.62
339.334	770.62
339.562	755.62
339.79	743.62
340.018	721.62
340.246	719.62
340.474	738.62
340.702	742.62
340.93	756.62
341.158	755.62
341.386	742.62
341.614	777.62
341.842	744.62
342.07	741.62
342.298	754.62
342.526	724.62
342.754	755.62
342.981	752.62
343.209	774.62
343.437	788.62
343.665	831.62
343.893	895.62
344.12	913.62
344.348	914.62
344.576	853.62
344.804	811.62
345.031	794.62
345.259	758.62
345.487	769.62
345.714	723.62
345.942	734.62
346.17	730.62
346.397	748.62
346.625	749.62
346.853	722.62
347.08	749.62
347.308	758.62
347.535	736.62
347.763	746.62
347.99	732.62
348.218	765.62
348.445	746.62
348.673	734.62
348.9	721.62
349.128	745.62
349.355	703.62
349.583	708.62
349.81	736.62
350.037	712.62
350.265	712.62
350.492	704.62
350.72	723.62
350.947	704.62
351.174	677.62
351.402	704.62
351.629	692.62
351.856	698.62
352.083	685.62
352.311	710.62
352.538	707.62
352.765	709.62
352.992	691.62
353.22	693.62
353.447	677.62
353.674	688.62
353.901	677.62
354.128	690.62
354.355	688.62
354.583	672.62
354.81	686.62
355.037	711.62
355.264	710.62
355.491	674.62
355.718	712.62
355.945	701.62
356.172	712.62
356.399	714.62
356.626	722.62
356.853	692.62
357.08	699.62
357.307	710.62
357.534	679.62
357.761	698.62
357.988	717.62
358.215	695.62
358.441	675.62
358.668	701.62
358.895	696.62
359.122	706.62
359.349	683.62
359.576	706.62
359.802	720.62
360.029	684.62
360.256	707.62
360.483	704.62
360.709	669.62
360.936	711.62
361.163	697.62
361.39	690.62
361.616	723.62
361.843	701.62
362.07	690.62
362.296	726.62
362.523	712.62
362.749	733.62
362.976	684.62
363.203	704.62
363.429	680.62
363.656	717.62
363.882	688.62
364.109	692.62
364.335	711.62
364.562	708.62
364.788	683.62
365.015	700.62
365.241	691.62
365.468	696.62
365.694	693.62
365.92	677.62
366.147	679.62
366.373	704.62
366.599	671.62
366.826	716.62
367.052	694.62
367.278	692.62
367.505	689.62
367.731	693.62
367.957	710.62
368.184	705.62
368.41	712.62
368.636	701.62
368.862	707.62
369.089	713.62
369.315	729.62
369.541	702.62
369.767	730.62
369.993	742.62
370.219	721.62
370.445	727.62
370.672	736.62
370.898	764.62
371.124	761.62
371.35	753.62
371.576	776.62
371.802	726.62
372.028	728.62
372.254	770.62
372.48	782.62
372.706	778.62
372.932	797.62
373.158	817.62
373.384	789.62
373.61	779.62
373.835	785.62
374.061	732.62
374.287	755.62
374.513	785.62
374.739	809.62
374.965	834.62
375.191	855.62
375.416	855.62
375.642	821.62
375.868	795.62
376.094	794.62
376.319	773.62
376.545	768.62
376.771	749.62
376.997	747.62
377.222	766.62
377.448	772.62
377.674	777.62
377.899	753.62
378.125	740.62
378.35	745.62
378.576	734.62
378.802	752.62
379.027	758.62
379.253	752.62
379.478	740.62
379.704	755.62
379.929	776.62
380.155	770.62
380.38	740.62
380.606	761.62
380.831	757.62
381.057	778.62
381.282	771.62
381.507	763.62
381.733	763.62
381.958	779.62
382.184	793.62
382.409	813.62
382.634	788.62
382.86	783.62
383.085	824.62
383.31	830.62
383.535	852.62
383.761	874.62
383.986	854.62
384.211	868.62
384.436	888.62
384.662	884.62
384.887	902.62
385.112	912.62
385.337	944.62
385.562	914.62
385.787	910.62
386.013	931.62
386.238	932.62
386.463	928.62
386.688	929.62
386.913	913.62
387.138	941.62
387.363	933.62
387.588	935.62
387.813	900.62
388.038	900.62
388.263	924.62
388.488	947.62
388.713	943.62
388.938	901.62
389.163	897.62
389.387	917.62
389.612	908.62
389.837	883.62
390.062	893.62
390.287	865.62
390.512	906.62
390.736	898.62
390.961	936.62
391.186	947.62
391.411	978.62
391.636	998.62
391.86	1008.62
392.085	1051.62
392.31	1000.62
392.534	995.62
392.759	991.62
392.984	951.62
393.208	967.62
393.433	997.62
393.658	981.62
393.882	957.62
394.107	997.62
394.331	966.62
394.556	978.62
394.78	994.62
395.005	1000.62
395.229	997.62
395.454	982.62
395.678	1024.62
395.903	996.62
396.127	1028.62
396.352	973.62
396.576	985.62
396.801	1010.62
397.025	994.62
397.249	1004.62
397.474	1038.62
397.698	1038.62
397.922	1039.62
398.147	1017.62
398.371	1054.62
398.595	1046.62
398.82	1126.62
399.044	1224.62
399.268	1319.62
399.492	1511.62
399.717	1755.62
399.941	1783.62
400.165	1587.62
400.389	1427.62
400.613	1312.62
400.837	1255.62
401.062	1152.62
401.286	1156.62
401.51	1177.62
401.734	1142.62
401.958	1171.62
402.182	1186.62
402.406	1184.62
402.63	1205.62
402.854	1238.62
403.078	1285.62
403.302	1296.62
403.526	1283.62
403.75	1315.62
403.974	1315.62
404.198	1342.62
404.422	1313.62
404.645	1365.62
404.869	1293.62
405.093	1301.62
405.317	1284.62
405.541	1281.62
405.765	1284.62
405.988	1244.62
406.212	1252.62
406.436	1273.62
406.66	1282.62
406.883	1300.62
407.107	1403.62
407.331	1461.62
407.555	1497.62
407.778	1482.62
408.002	1450.62
408.226	1437.62
408.449	1388.62
408.673	1351.62
408.896	1317.62
409.12	1307.62
409.344	1326.62
409.567	1325.62
409.791	1308.62
410.014	1305.62
410.238	1304.62
410.461	1319.62
410.685	1269.62
410.908	1248.62
411.132	1232.62
411.355	1217.62
411.578	1220.62
411.802	1197.62
412.025	1204.62
412.249	1212.62
412.472	1237.62
412.695	1172.62
412.919	1120.62
413.142	1137.62
413.365	1152.62
413.589	1144.62
413.812	1144.62
414.035	1159.62
414.258	1178.62
414.482	1153.62
414.705	1210.62
414.928	1177.62
415.151	1194.62
415.374	1178.62
415.597	1153.62
415.821	1143.62
416.044	1130.62
416.267	1113.62
416.49	1140.62
416.713	1123.62
416.936	1136.62
417.159	1136.62
417.382	1110.62
417.605	1133.62
417.828	1133.62
418.051	1146.62
418.274	1152.62
418.497	1166.62
418.72	1189.62
418.943	1167.62
419.166	1260.62
419.389	1339.62
419.611	1324.62
419.834	1270.62
420.057	1183.62
420.28	1176.62
420.503	1166.62
420.726	1117.62
420.948	1142.62
421.171	1158.62
421.394	1141.62
421.617	1137.62
421.839	1121.62
422.062	1140.62
422.285	1137.62
422.507	1187.62
422.73	1187.62
422.953	1171.62
423.175	1201.62
423.398	1221.62
423.621	1168.62
423.843	1182.62
424.066	1227.62
424.288	1190.62
424.511	1168.62
424.733	1213.62
424.956	1169.62
425.178	1212.62
425.401	1176.62
425.623	1146.62
425.846	1136.62
426.068	1105.62
426.291	1141.62
426.513	1096.62
426.735	1039.62
426.958	1075.62
427.18	1050.62
427.402	1062.62
427.625	1030.62
427.847	1042.62
428.069	1046.62
428.292	1032.62
428.514	1002.62
428.736	1013.62
428.958	1034.62
429.181	1028.62
429.403	1022.62
429.625	975.62
429.847	980.62
430.069	1017.62
430.292	994.62
430.514	999.62
430.736	1018.62
430.958	1010.62
431.18	1003.62
431.402	1024.62
431.624	1017.62
431.846	1016.62
432.068	1051.62
432.29	1043.62
432.512	996.62
432.734	1026.62
432.956	1025.62
433.178	1028.62
433.4	1061.62
433.622	1024.62
433.844	1050.62
434.066	1055.62
434.287	1056.62
434.509	1109.62
434.731	1137.62
434.953	1161.62
435.175	1193.62
435.397	1169.62
435.618	1096.62
435.84	1065.62
436.062	1049.62
436.284	1038.62
436.505	1014.62
436.727	1036.62
436.949	1009.62
437.17	1044.62
437.392	1003.62
437.614	1026.62
437.835	965.62
438.057	989.62
438.278	996.62
438.5	999.62
438.721	987.62
438.943	1001.62
439.165	1018.62
439.386	985.62
439.608	1032.62
439.829	1024.62
440.05	1034.62
440.272	1051.62
440.493	1084.62
440.715	1062.62
440.936	1065.62
441.158	1071.62
441.379	1111.62
441.6	1149.62
441.822	1186.62
442.043	1170.62
442.264	1139.62
442.486	1126.62
442.707	1149.62
442.928	1143.62
443.149	1117.62
443.371	1109.62
443.592	1152.62
443.813	1170.62
444.034	1163.62
444.255	1216.62
444.476	1290.62
444.698	1347.62
444.919	1374.62
445.14	1498.62
445.361	1339.62
445.582	1221.62
445.803	1180.62
446.024	1128.62
446.245	1107.62
446.466	1080.62
446.687	1049.62
446.908	1039.62
447.129	1045.62
447.35	1002.62
447.571	984.62
447.792	973.62
448.013	979.62
448.234	960.62
448.455	966.62
448.675	962.62
448.896	968.62
449.117	955.62
449.338	966.62
449.559	955.62
449.779	959.62
450	948.62
450.221	961.62
450.442	973.62
450.662	934.62
450.883	942.62
451.104	968.62
451.324	961.62
451.545	973.62
451.766	985.62
451.986	983.62
452.207	981.62
452.428	959.62
452.648	939.62
452.869	908.62
453.089	903.62
453.31	945.62
453.53	936.62
453.751	935.62
453.971	929.62
454.192	931.62
454.412	936.62
454.633	909.62
454.853	909.62
455.073	882.62
455.294	918.62
455.514	899.62
455.734	886.62
455.955	877.62
456.175	876.62
456.395	870.62
456.616	875.62
456.836	912.62
457.056	888.62
457.276	902.62
457.497	903.62
457.717	874.62
457.937	918.62
458.157	913.62
458.377	903.62
458.598	948.62
458.818	946.62
459.038	985.62
459.258	1013.62
459.478	1036.62
459.698	1063.62
459.918	1092.62
460.138	1121.62
460.358	1230.62
460.578	1244.62
460.798	1250.62
461.018	1266.62
461.238	1231.62
461.458	1181.62
461.678	1172.62
461.898	1243.62
462.118	1255.62
462.338	1305.62
462.558	1317.62
462.777	1358.62
462.997	1506.62
463.217	1635.62
463.437	1653.62
463.657	1577.62
463.876	1494.62
464.096	1478.62
464.316	1437.62
464.536	1447.62
464.755	1394.62
464.975	1345.62
465.195	1277.62
465.414	1224.62
465.634	1126.62
465.854	1080.62
466.073	1082.62
466.293	1059.62
466.512	999.62
466.732	1014.62
466.951	1016.62
467.171	1026.62
467.391	996.62
467.61	993.62
467.829	994.62
468.049	1024.62
468.268	959.62
468.488	969.62
468.707	965.62
468.927	976.62
469.146	960.62
469.365	970.62
469.585	974.62
469.804	1002.62
470.023	1015.62
470.243	1024.62
470.462	1023.62
470.681	1025.62
470.901	1031.62
471.12	1009.62
471.339	1000.62
471.558	993.62
471.777	972.62
471.997	955.62
472.216	961.62
472.435	965.62
472.654	922.62
472.873	953.62
473.092	924.62
473.311	912.62
473.53	927.62
473.749	941.62
473.968	936.62
474.187	949.62
474.406	921.62
474.625	924.62
474.844	947.62
475.063	924.62
475.282	979.62
475.501	927.62
475.72	947.62
475.939	966.62
476.158	966.62
476.377	971.62
476.596	978.62
476.814	1000.62
477.033	1032.62
477.252	1013.62
477.471	1046.62
477.69	1056.62
477.908	1085.62
478.127	1084.62
478.346	1111.62
478.564	1136.62
478.783	1174.62
479.002	1180.62
479.22	1178.62
479.439	1187.62
479.658	1154.62
479.876	1156.62
480.095	1192.62
480.313	1217.62
480.532	1262.62
480.751	1257.62
480.969	1200.62
481.188	1177.62
481.406	1144.62
481.624	1103.62
481.843	1117.62
482.061	1079.62
482.28	1090.62
482.498	1067.62
482.717	1093.62
482.935	1054.62
483.153	1084.62
483.372	1058.62
483.59	1068.62
483.808	1088.62
484.027	1091.62
484.245	1084.62
484.463	1075.62
484.681	1105.62
484.9	1117.62
485.118	1102.62
485.336	1112.62
485.554	1130.62
485.772	1124.62
485.99	1121.62
486.209	1165.62
486.427	1163.62
486.645	1152.62
486.863	1159.62
487.081	1143.62
487.299	1140.62
487.517	1109.62
487.735	1141.62
487.953	1120.62
488.171	1103.62
488.389	1084.62
488.607	1124.62
488.825	1078.62
489.043	1115.62
489.261	1112.62
489.479	1120.62
489.696	1127.62
489.914	1137.62
490.132	1117.62
490.35	1123.62
490.568	1147.62
490.786	1146.62
491.003	1147.62
491.221	1124.62
491.439	1130.62
491.657	1149.62
491.874	1130.62
492.092	1135.62
492.31	1158.62
492.527	1149.62
492.745	1152.62
492.963	1157.62
493.18	1173.62
493.398	1179.62
493.615	1180.62
493.833	1176.62
494.05	1161.62
494.268	1191.62
494.485	1176.62
494.703	1185.62
494.92	1210.62
495.138	1223.62
495.355	1189.62
495.573	1197.62
495.79	1190.62
496.008	1226.62
496.225	1217.62
496.442	1217.62
496.66	1237.62
496.877	1202.62
497.094	1249.62
497.312	1288.62
497.529	1305.62
497.746	1336.62
497.963	1411.62
498.181	1423.62
498.398	1501.62
498.615	1591.62
498.832	1665.62
499.049	1820.62
499.267	1961.62
499.484	2138.62
499.701	2397.62
499.918	2651.62
500.135	3008.62
500.352	3320.62
500.569	3573.62
500.786	3584.62
501.003	3364.62
501.22	2984.62
501.437	2649.62
501.654	2362.62
501.871	2126.62
502.088	1944.62
502.305	1821.62
502.522	1736.62
502.739	1665.62
502.956	1555.62
503.172	1490.62
503.389	1443.62
503.606	1379.62
503.823	1368.62
504.04	1374.62
504.256	1366.62
504.473	1417.62
504.69	1416.62
504.907	1414.62
505.123	1332.62
505.34	1210.62
505.557	1205.62
505.773	1174.62
505.99	1147.62
506.207	1121.62
506.423	1114.62
506.64	1093.62
506.856	1053.62
507.073	1075.62
507.289	1075.62
507.506	1076.62
507.722	1046.62
507.939	1025.62
508.155	1043.62
508.372	1013.62
508.588	1021.62
508.805	1024.62
509.021	969.62
509.238	994.62
509.454	970.62
509.67	979.62
509.887	1000.62
510.103	961.62
510.319	957.62
510.536	956.62
510.752	961.62
510.968	964.62
511.184	968.62
511.401	973.62
511.617	984.62
511.833	960.62
512.049	939.62
512.265	957.62
512.481	969.62
512.698	988.62
512.914	948.62
513.13	945.62
513.346	991.62
513.562	942.62
513.778	952.62
513.994	977.62
514.21	968.62
514.426	970.62
514.642	1000.62
514.858	993.62
515.074	977.62
515.29	1009.62
515.506	1021.62
515.721	1036.62
515.937	1045.62
516.153	1025.62
516.369	1057.62
516.585	1109.62
516.801	1137.62
517.016	1135.62
517.232	1256.62
517.448	1291.62
517.664	1318.62
517.879	1345.62
518.095	1344.62
518.311	1308.62
518.527	1278.62
518.742	1238.62
518.958	1202.62
519.173	1099.62
519.389	1107.62
519.605	1040.62
519.82	1012.62
520.036	1033.62
520.251	1019.62
520.467	997.62
520.682	960.62
520.898	962.62
521.113	933.62
521.329	953.62
521.544	934.62
521.76	934.62
521.975	923.62
522.19	923.62
522.406	912.62
522.621	940.62
522.836	902.62
523.052	889.62
523.267	923.62
523.482	912.62
523.698	904.62
523.913	892.62
524.128	855.62
524.343	903.62
524.559	868.62
524.774	874.62
524.989	902.62
525.204	873.62
525.419	878.62
525.634	870.62
525.849	880.62
526.064	885.62
526.28	894.62
526.495	884.62
526.71	853.62
526.925	865.62
527.14	874.62
527.355	881.62
527.57	871.62
527.785	873.62
527.999	861.62
528.214	863.62
528.429	875.62
528.644	888.62
528.859	888.62
529.074	880.62
529.289	866.62
529.503	878.62
529.718	881.62
529.933	856.62
530.148	865.62
530.363	856.62
530.577	857.62
530.792	868.62
531.007	858.62
531.221	884.62
531.436	854.62
531.651	884.62
531.865	898.62
532.08	874.62
532.295	887.62
532.509	858.62
532.724	867.62
532.938	889.62
533.153	869.62
533.367	884.62
533.582	859.62
533.796	886.62
534.011	892.62
534.225	892.62
534.44	862.62
534.654	832.62
534.868	859.62
535.083	858.62
535.297	875.62
535.511	837.62
535.726	830.62
535.94	853.62
536.154	812.62
536.369	818.62
536.583	826.62
536.797	793.62
537.011	818.62
537.225	806.62
537.44	820.62
537.654	807.62
537.868	808.62
538.082	821.62
538.296	782.62
538.51	796.62
538.724	809.62
538.938	809.62
539.153	796.62
539.367	784.62
539.581	782.62
539.795	780.62
540.009	781.62
540.222	781.62
540.436	797.62
540.65	777.62
540.864	802.62
541.078	793.62
541.292	794.62
541.506	787.62
541.72	786.62
541.934	796.62
542.147	782.62
542.361	780.62
542.575	764.62
542.789	771.62
543.002	749.62
543.216	777.62
543.43	768.62
543.644	752.62
543.857	761.62
544.071	798.62
544.285	801.62
544.498	782.62
544.712	769.62
544.925	781.62
545.139	814.62
545.352	788.62
545.566	773.62
545.779	786.62
545.993	816.62
546.206	818.62
546.42	835.62
546.633	813.62
546.847	795.62
547.06	792.62
547.274	763.62
547.487	803.62
547.7	816.62
547.914	800.62
548.127	805.62
548.34	808.62
548.554	813.62
548.767	796.62
548.98	799.62
549.193	814.62
549.407	858.62
549.62	810.62
549.833	803.62
550.046	805.62
550.259	829.62
550.473	795.62
550.686	767.62
550.899	808.62
551.112	792.62
551.325	783.62
551.538	786.62
551.751	772.62
551.964	788.62
552.177	790.62
552.39	766.62
552.603	844.62
552.816	844.62
553.029	852.62
553.242	897.62
553.455	885.62
553.667	862.62
553.88	844.62
554.093	813.62
554.306	835.62
554.519	812.62
554.732	822.62
554.944	803.62
555.157	784.62
555.37	786.62
555.583	723.62
555.795	741.62
556.008	728.62
556.221	728.62
556.433	720.62
556.646	738.62
556.859	740.62
557.071	686.62
557.284	692.62
557.496	675.62
557.709	702.62
557.921	706.62
558.134	696.62
558.346	674.62
558.559	694.62
558.771	676.62
558.984	666.62
559.196	645.62
559.409	648.62
559.621	680.62
559.833	657.62
560.046	671.62
560.258	678.62
560.47	652.62
560.683	644.62
560.895	637.62
561.107	610.62
561.32	661.62
561.532	656.62
561.744	653.62
561.956	664.62
562.168	658.62
562.381	644.62
562.593	650.62
562.805	664.62
563.017	678.62
563.229	638.62
563.441	668.62
563.653	683.62
563.865	669.62
564.077	685.62
564.289	714.62
564.501	674.62
564.713	699.62
564.925	713.62
565.137	741.62
565.349	748.62
565.561	765.62
565.773	795.62
565.985	794.62
566.197	859.62
566.408	921.62
566.62	1016.62
566.832	1082.62
567.044	1110.62
567.255	1097.62
567.467	1147.62
567.679	1169.62
567.891	1289.62
568.102	1267.62
568.314	1208.62
568.526	1128.62
568.737	1005.62
568.949	925.62
569.161	856.62
569.372	804.62
569.584	759.62
569.795	722.62
570.007	706.62
570.218	686.62
570.43	667.62
570.641	683.62
570.853	682.62
571.064	700.62
571.276	677.62
571.487	672.62
571.698	661.62
571.91	624.62
572.121	598.62
572.333	591.62
572.544	589.62
572.755	574.62
572.966	578.62
573.178	570.62
573.389	578.62
573.6	564.62
573.811	558.62
574.023	560.62
574.234	555.62
574.445	552.62
574.656	556.62
574.867	527.62
575.078	573.62
575.289	541.62
575.501	537.62
575.712	526.62
575.923	528.62
576.134	532.62
576.345	541.62
576.556	543.62
576.767	534.62
576.978	537.62
577.188	505.62
577.399	500.62
577.61	527.62
577.821	507.62
578.032	513.62
578.243	496.62
578.454	508.62
578.665	492.62
578.875	483.62
579.086	486.62
579.297	486.62
579.508	492.62
579.718	500.62
579.929	482.62
580.14	497.62
580.35	497.62
580.561	484.62
580.772	496.62
580.982	472.62
581.193	485.62
581.403	482.62
581.614	473.62
581.825	442.62
582.035	465.62
582.246	480.62
582.456	486.62
582.667	464.62
582.877	470.62
583.087	456.62
583.298	461.62
583.508	462.62
583.719	466.62
583.929	479.62
584.139	465.62
584.35	449.62
584.56	451.62
584.77	434.62
584.981	443.62
585.191	442.62
585.401	448.62
585.611	446.62
585.821	454.62
586.032	458.62
586.242	442.62
586.452	469.62
586.662	453.62
586.872	454.62
587.082	443.62
587.292	447.62
587.502	442.62
587.713	439.62
587.923	460.62
588.133	441.62
588.343	448.62
588.553	442.62
588.762	422.62
588.972	436.62
589.182	469.62
589.392	439.62
589.602	435.62
589.812	439.62
590.022	468.62
590.232	454.62
590.441	435.62
590.651	456.62
590.861	457.62
591.071	459.62
591.281	468.62
591.49	471.62
591.7	470.62
591.91	482.62
592.119	479.62
592.329	507.62
592.539	517.62
592.748	524.62
592.958	526.62
593.167	552.62
593.377	563.62
593.587	565.62
593.796	566.62
594.006	538.62
594.215	574.62
594.424	569.62
594.634	570.62
594.843	526.62
595.053	516.62
595.262	505.62
595.472	485.62
595.681	491.62
595.89	457.62
596.1	457.62
596.309	452.62
596.518	425.62
596.727	402.62
596.937	429.62
597.146	418.62
597.355	417.62
597.564	406.62
597.774	411.62
597.983	408.62
598.192	376.62
598.401	409.62
598.61	401.62
598.819	397.62
599.028	379.62
599.237	395.62
599.446	384.62
599.655	409.62
599.864	370.62
600.073	378.62
600.282	391.62
600.491	378.62
600.7	361.62
600.909	392.62
601.118	394.62
601.327	376.62
601.536	370.62
601.745	374.62
601.953	373.62
602.162	394.62
602.371	372.62
602.58	354.62
602.789	365.62
602.997	375.62
603.206	363.62
603.415	362.62
603.623	349.62
603.832	374.62
604.041	344.62
604.249	354.62
604.458	360.62
604.666	353.62
604.875	353.62
605.084	358.62
605.292	358.62
605.501	338.62
605.709	345.62
605.918	346.62
606.126	341.62
606.334	333.62
606.543	350.62
606.751	340.62
606.96	359.62
607.168	333.62
607.376	345.62
607.585	334.62
607.793	341.62
608.001	327.62
608.21	339.62
608.418	343.62
608.626	345.62
608.834	361.62
609.043	353.62
609.251	356.62
609.459	326.62
609.667	345.62
609.875	345.62
610.083	331.62
610.291	339.62
610.499	335.62
610.707	333.62
610.916	336.62
611.124	334.62
611.332	337.62
611.54	332.62
611.748	338.62
611.955	320.62
612.163	332.62
612.371	324.62
612.579	329.62
612.787	340.62
612.995	326.62
613.203	339.62
613.411	320.62
613.618	321.62
613.826	316.62
614.034	338.62
614.242	321.62
614.449	337.62
614.657	329.62
614.865	328.62
615.072	297.62
615.28	317.62
615.488	339.62
615.695	320.62
615.903	312.62
616.111	328.62
616.318	315.62
616.526	309.62
616.733	321.62
616.941	334.62
617.148	317.62
617.356	332.62
617.563	312.62
617.771	305.62
617.978	324.62
618.185	307.62
618.393	320.62
618.6	311.62
618.807	311.62
619.015	326.62
619.222	310.62
619.429	318.62
619.637	297.62
619.844	322.62
620.051	314.62
620.258	315.62
620.466	291.62
620.673	290.62
620.88	290.62
621.087	293.62
621.294	313.62
621.501	296.62
621.708	289.62
621.915	301.62
622.122	292.62
622.329	289.62
622.536	300.62
622.743	307.62
622.95	296.62
623.157	297.62
623.364	271.62
623.571	285.62
623.778	299.62
623.985	277.62
624.192	297.62
624.399	286.62
624.606	280.62
624.812	298.62
625.019	289.62
625.226	282.62
625.433	278.62
625.639	270.62
625.846	280.62
626.053	290.62
626.259	260.62
626.466	269.62
626.673	300.62
626.879	274.62
627.086	281.62
627.293	264.62
627.499	264.62
627.706	291.62
627.912	244.62
628.119	286.62
628.325	280.62
628.532	287.62
628.738	243.62
628.945	267.62
629.151	259.62
629.357	259.62
629.564	273.62
629.77	260.62
629.976	256.62
630.183	259.62
630.389	261.62
630.595	262.62
630.802	248.62
631.008	251.62
631.214	245.62
631.42	258.62
631.627	269.62
631.833	247.62
632.039	264.62
632.245	256.62
632.451	257.62
632.657	256.62
632.863	242.62
633.069	243.62
633.275	246.62
633.481	256.62
633.688	245.62
633.893	242.62
634.099	252.62
634.305	254.62
634.511	246.62
634.717	228.62
634.923	228.62
635.129	230.62
635.335	255.62
635.541	228.62
635.747	235.62
635.952	241.62
636.158	233.62
636.364	233.62
636.57	222.62
636.775	240.62
636.981	223.62
637.187	223.62
637.392	230.62
637.598	236.62
637.804	219.62
638.009	222.62
638.215	237.62
638.421	222.62
638.626	204.62
638.832	228.62
639.037	220.62
639.243	217.62
639.448	222.62
639.654	205.62
639.859	221.62
640.065	243.62
640.27	220.62
640.475	209.62
640.681	218.62
640.886	220.62
641.091	227.62
641.297	224.62
641.502	221.62
641.707	230.62
641.913	217.62
642.118	222.62
642.323	219.62
642.528	215.62
642.733	232.62
642.939	216.62
643.144	218.62
643.349	233.62
643.554	225.62
643.759	220.62
643.964	195.62
644.169	200.62
644.374	201.62
644.579	206.62
644.784	206.62
644.989	209.62
645.194	202.62
645.399	215.62
645.604	199.62
645.809	237.62
646.014	221.62
646.219	216.62
646.423	205.62
646.628	214.62
646.833	230.62
647.038	213.62
647.243	198.62
647.447	207.62
647.652	218.62
647.857	203.62
648.062	224.62
648.266	222.62
648.471	207.62
648.676	235.62
648.88	241.62
649.085	203.62
649.289	202.62
649.494	226.62
649.698	201.62
649.903	217.62
650.107	214.62
650.312	192.62
650.516	198.62
650.721	204.62
650.925	204.62
651.13	190.62
651.334	193.62
651.539	162.62
651.743	199.62
651.947	178.62
652.152	183.62
652.356	188.62
652.56	176.62
652.764	172.62
652.969	188.62
653.173	189.62
653.377	165.62
653.581	173.62
653.785	169.62
653.99	183.62
654.194	165.62
654.398	171.62
654.602	167.62
654.806	158.62
655.01	166.62
655.214	138.62
655.418	157.62
655.622	137.62
655.826	170.62
656.03	160.62
656.234	160.62
656.438	157.62
656.642	160.62
656.846	148.62
657.049	153.62
657.253	137.62
657.457	145.62
657.661	139.62
657.865	128.62
658.068	119.62
658.272	127.62
658.476	120.62
658.68	127.62
658.883	123.62
659.087	128.62
659.291	114.62
659.494	111.62
659.698	108.62
659.901	115.62
660.105	105.62
660.309	105.62
660.512	103.62
660.716	90.62
660.919	89.62
661.123	93.62
661.326	96.62
661.53	92.62
661.733	82.62
661.936	98.62
662.14	69.62
662.343	88.62
662.546	97.62
662.75	98.62
662.953	83.62
663.156	77.62
663.36	78.62
663.563	89.62
663.766	92.62
663.969	84.62
664.173	92.62
664.376	75.62
664.579	88.62
664.782	86.62
664.985	80.62
665.188	74.62
665.391	73.62
665.594	73.62
665.797	89.62
666	79.62
666.203	75.62
666.406	74.62
666.609	89.62
666.812	77.62
667.015	85.62
667.218	98.62
667.421	78.62
667.624	84.62
667.827	89.62
668.03	93.62
668.232	80.62
668.435	75.62
668.638	83.62
668.841	82.62
669.043	101.62
669.246	71.62
669.449	93.62
669.651	85.62
669.854	74.62
670.057	90.62
670.259	82.62
670.462	77.62
670.665	96.62
670.867	89.62
671.07	83.62
671.272	95.62
671.475	73.62
671.677	68.62
671.88	84.62
672.082	83.62
672.284	83.62
672.487	80.62
672.689	76.62
672.892	86.62
