Data from NiCl2@0.5M.TitratingCurve.Agarose3%dH2O.NegLispCup.LampEnergy10.LIBS07252019_HRD10591_18-19-14-571.txt Node
Date: Thu Jul 25 18:19:14 EDT 2019
User: cochatt
Spectrometer: HR+D1059
Trigger mode: 1
Integration Time (sec): 1.000000E-1
Scans to average: 1
Electric dark correction enabled: true
Nonlinearity correction enabled: false
Boxcar width: 0
XAxis mode: Wavelengths
Number of Pixels in Spectrum: 2048
>>>>>Begin Spectral Data<<<<<
223.165	-26.56
223.4	-26.56
223.635	-26.56
223.869	-29.56
224.104	-0.56
224.338	-9.56
224.573	-23.56
224.808	-18.56
225.042	0.44
225.277	-1.56
225.511	-9.56
225.746	8.44
225.98	-5.56
226.215	15.44
226.449	23.44
226.683	8.44
226.918	39.44
227.152	29.44
227.387	37.44
227.621	23.44
227.856	53.44
228.09	41.44
228.324	53.44
228.559	54.44
228.793	67.44
229.027	108.44
229.262	125.44
229.496	112.44
229.73	124.44
229.964	151.44
230.199	138.44
230.433	144.44
230.667	140.44
230.901	159.44
231.136	155.44
231.37	172.44
231.604	157.44
231.838	140.44
232.072	166.44
232.306	161.44
232.541	157.44
232.775	188.44
233.009	156.44
233.243	160.44
233.477	152.44
233.711	156.44
233.945	155.44
234.179	166.44
234.413	179.44
234.647	165.44
234.881	171.44
235.115	181.44
235.349	177.44
235.583	185.44
235.817	166.44
236.051	184.44
236.285	177.44
236.519	176.44
236.753	153.44
236.987	173.44
237.221	165.44
237.455	168.44
237.689	189.44
237.922	182.44
238.156	191.44
238.39	192.44
238.624	181.44
238.858	191.44
239.091	180.44
239.325	197.44
239.559	205.44
239.793	223.44
240.027	205.44
240.26	198.44
240.494	195.44
240.728	218.44
240.961	197.44
241.195	208.44
241.429	221.44
241.662	218.44
241.896	225.44
242.13	240.44
242.363	224.44
242.597	214.44
242.83	239.44
243.064	219.44
243.298	232.44
243.531	238.44
243.765	224.44
243.998	234.44
244.232	256.44
244.465	219.44
244.699	250.44
244.932	243.44
245.166	253.44
245.399	236.44
245.633	256.44
245.866	247.44
246.099	245.44
246.333	254.44
246.566	269.44
246.8	260.44
247.033	254.44
247.266	254.44
247.5	277.44
247.733	276.44
247.966	261.44
248.2	248.44
248.433	265.44
248.666	282.44
248.899	269.44
249.133	275.44
249.366	290.44
249.599	277.44
249.832	300.44
250.066	284.44
250.299	264.44
250.532	299.44
250.765	289.44
250.998	273.44
251.231	308.44
251.465	317.44
251.698	307.44
251.931	300.44
252.164	314.44
252.397	315.44
252.63	306.44
252.863	314.44
253.096	316.44
253.329	301.44
253.562	316.44
253.795	314.44
254.028	325.44
254.261	324.44
254.494	343.44
254.727	333.44
254.96	333.44
255.193	329.44
255.426	340.44
255.659	313.44
255.892	334.44
256.124	344.44
256.357	363.44
256.59	312.44
256.823	352.44
257.056	334.44
257.289	364.44
257.521	360.44
257.754	372.44
257.987	365.44
258.22	360.44
258.452	359.44
258.685	370.44
258.918	370.44
259.151	350.44
259.383	374.44
259.616	364.44
259.849	375.44
260.081	358.44
260.314	363.44
260.547	377.44
260.779	380.44
261.012	388.44
261.244	386.44
261.477	381.44
261.71	360.44
261.942	398.44
262.175	404.44
262.407	395.44
262.64	398.44
262.872	393.44
263.105	403.44
263.337	406.44
263.57	409.44
263.802	408.44
264.035	402.44
264.267	416.44
264.499	390.44
264.732	413.44
264.964	406.44
265.197	423.44
265.429	417.44
265.661	399.44
265.894	426.44
266.126	429.44
266.358	433.44
266.591	437.44
266.823	446.44
267.055	436.44
267.287	436.44
267.52	433.44
267.752	411.44
267.984	429.44
268.216	436.44
268.448	438.44
268.681	449.44
268.913	445.44
269.145	466.44
269.377	437.44
269.609	448.44
269.841	453.44
270.073	447.44
270.306	462.44
270.538	451.44
270.77	454.44
271.002	460.44
271.234	462.44
271.466	469.44
271.698	464.44
271.93	468.44
272.162	489.44
272.394	463.44
272.626	482.44
272.858	483.44
273.09	469.44
273.322	477.44
273.553	482.44
273.785	479.44
274.017	493.44
274.249	479.44
274.481	474.44
274.713	510.44
274.945	475.44
275.176	470.44
275.408	490.44
275.64	512.44
275.872	506.44
276.104	517.44
276.335	510.44
276.567	494.44
276.799	510.44
277.031	523.44
277.262	534.44
277.494	522.44
277.726	516.44
277.957	545.44
278.189	506.44
278.421	544.44
278.652	514.44
278.884	534.44
279.115	540.44
279.347	538.44
279.579	542.44
279.81	543.44
280.042	542.44
280.273	549.44
280.505	552.44
280.736	562.44
280.968	563.44
281.199	576.44
281.431	562.44
281.662	555.44
281.894	581.44
282.125	570.44
282.356	558.44
282.588	561.44
282.819	573.44
283.051	594.44
283.282	556.44
283.513	580.44
283.745	572.44
283.976	581.44
284.207	586.44
284.439	592.44
284.67	598.44
284.901	613.44
285.132	601.44
285.364	612.44
285.595	615.44
285.826	609.44
286.057	600.44
286.288	613.44
286.52	600.44
286.751	618.44
286.982	613.44
287.213	600.44
287.444	621.44
287.675	604.44
287.906	601.44
288.138	611.44
288.369	640.44
288.6	644.44
288.831	622.44
289.062	642.44
289.293	651.44
289.524	642.44
289.755	629.44
289.986	626.44
290.217	644.44
290.448	626.44
290.679	652.44
290.91	640.44
291.141	637.44
291.371	655.44
291.602	638.44
291.833	644.44
292.064	649.44
292.295	655.44
292.526	658.44
292.757	634.44
292.987	646.44
293.218	646.44
293.449	661.44
293.68	661.44
293.91	645.44
294.141	652.44
294.372	667.44
294.603	662.44
294.833	664.44
295.064	626.44
295.295	642.44
295.525	666.44
295.756	653.44
295.987	655.44
296.217	665.44
296.448	680.44
296.679	678.44
296.909	668.44
297.14	666.44
297.37	709.44
297.601	692.44
297.831	712.44
298.062	682.44
298.292	712.44
298.523	731.44
298.753	728.44
298.984	720.44
299.214	697.44
299.445	720.44
299.675	715.44
299.905	705.44
300.136	697.44
300.366	721.44
300.597	723.44
300.827	747.44
301.057	743.44
301.288	752.44
301.518	753.44
301.748	763.44
301.979	719.44
302.209	750.44
302.439	738.44
302.669	724.44
302.9	732.44
303.13	757.44
303.36	750.44
303.59	740.44
303.82	769.44
304.051	760.44
304.281	744.44
304.511	749.44
304.741	718.44
304.971	723.44
305.201	733.44
305.431	771.44
305.661	770.44
305.891	764.44
306.121	753.44
306.352	749.44
306.582	736.44
306.812	744.44
307.042	738.44
307.272	769.44
307.502	728.44
307.731	743.44
307.961	749.44
308.191	737.44
308.421	733.44
308.651	761.44
308.881	752.44
309.111	729.44
309.341	728.44
309.571	727.44
309.8	756.44
310.03	743.44
310.26	781.44
310.49	769.44
310.72	739.44
310.949	739.44
311.179	756.44
311.409	758.44
311.639	754.44
311.868	749.44
312.098	768.44
312.328	803.44
312.557	798.44
312.787	785.44
313.017	757.44
313.246	791.44
313.476	790.44
313.706	801.44
313.935	785.44
314.165	790.44
314.394	796.44
314.624	801.44
314.853	794.44
315.083	807.44
315.312	825.44
315.542	807.44
315.771	801.44
316.001	806.44
316.23	828.44
316.46	805.44
316.689	770.44
316.919	793.44
317.148	790.44
317.377	798.44
317.607	799.44
317.836	793.44
318.065	786.44
318.295	800.44
318.524	785.44
318.753	791.44
318.983	762.44
319.212	780.44
319.441	793.44
319.67	791.44
319.9	777.44
320.129	821.44
320.358	810.44
320.587	798.44
320.816	825.44
321.046	816.44
321.275	796.44
321.504	805.44
321.733	786.44
321.962	828.44
322.191	790.44
322.42	819.44
322.649	827.44
322.878	820.44
323.108	786.44
323.337	845.44
323.566	861.44
323.795	829.44
324.024	834.44
324.253	834.44
324.482	846.44
324.71	845.44
324.939	823.44
325.168	865.44
325.397	868.44
325.626	851.44
325.855	834.44
326.084	887.44
326.313	875.44
326.542	858.44
326.77	887.44
326.999	844.44
327.228	867.44
327.457	859.44
327.686	896.44
327.914	862.44
328.143	885.44
328.372	871.44
328.6	888.44
328.829	861.44
329.058	861.44
329.287	901.44
329.515	878.44
329.744	877.44
329.972	908.44
330.201	896.44
330.43	890.44
330.658	888.44
330.887	899.44
331.115	905.44
331.344	921.44
331.572	902.44
331.801	952.44
332.03	936.44
332.258	959.44
332.486	957.44
332.715	978.44
332.943	1062.44
333.172	1076.44
333.4	1096.44
333.629	1133.44
333.857	1130.44
334.085	1097.44
334.314	1077.44
334.542	1099.44
334.771	1065.44
334.999	1052.44
335.227	1063.44
335.455	1083.44
335.684	1083.44
335.912	1091.44
336.14	1076.44
336.369	1036.44
336.597	1070.44
336.825	1060.44
337.053	1048.44
337.281	1044.44
337.51	1012.44
337.738	977.44
337.966	1018.44
338.194	1000.44
338.422	980.44
338.65	955.44
338.878	952.44
339.106	980.44
339.334	971.44
339.562	961.44
339.79	926.44
340.018	960.44
340.246	948.44
340.474	897.44
340.702	914.44
340.93	920.44
341.158	951.44
341.386	963.44
341.614	946.44
341.842	953.44
342.07	948.44
342.298	910.44
342.526	922.44
342.754	922.44
342.981	907.44
343.209	961.44
343.437	970.44
343.665	1025.44
343.893	1056.44
344.12	1090.44
344.348	1035.44
344.576	1028.44
344.804	1017.44
345.031	1002.44
345.259	954.44
345.487	967.44
345.714	928.44
345.942	936.44
346.17	958.44
346.397	893.44
346.625	890.44
346.853	916.44
347.08	878.44
347.308	878.44
347.535	913.44
347.763	909.44
347.99	865.44
348.218	877.44
348.445	910.44
348.673	882.44
348.9	856.44
349.128	883.44
349.355	888.44
349.583	907.44
349.81	890.44
350.037	865.44
350.265	876.44
350.492	865.44
350.72	860.44
350.947	846.44
351.174	885.44
351.402	862.44
351.629	850.44
351.856	852.44
352.083	859.44
352.311	867.44
352.538	900.44
352.765	891.44
352.992	854.44
353.22	830.44
353.447	802.44
353.674	843.44
353.901	845.44
354.128	837.44
354.355	846.44
354.583	849.44
354.81	852.44
355.037	841.44
355.264	806.44
355.491	812.44
355.718	857.44
355.945	820.44
356.172	818.44
356.399	867.44
356.626	871.44
356.853	867.44
357.08	838.44
357.307	860.44
357.534	866.44
357.761	859.44
357.988	844.44
358.215	856.44
358.441	854.44
358.668	836.44
358.895	865.44
359.122	806.44
359.349	828.44
359.576	848.44
359.802	832.44
360.029	840.44
360.256	850.44
360.483	840.44
360.709	830.44
360.936	844.44
361.163	818.44
361.39	847.44
361.616	860.44
361.843	840.44
362.07	894.44
362.296	884.44
362.523	817.44
362.749	819.44
362.976	813.44
363.203	837.44
363.429	834.44
363.656	839.44
363.882	842.44
364.109	798.44
364.335	826.44
364.562	828.44
364.788	823.44
365.015	840.44
365.241	819.44
365.468	830.44
365.694	842.44
365.92	833.44
366.147	830.44
366.373	838.44
366.599	860.44
366.826	820.44
367.052	823.44
367.278	851.44
367.505	857.44
367.731	860.44
367.957	839.44
368.184	837.44
368.41	850.44
368.636	816.44
368.862	858.44
369.089	824.44
369.315	867.44
369.541	856.44
369.767	875.44
369.993	833.44
370.219	874.44
370.445	894.44
370.672	890.44
370.898	893.44
371.124	877.44
371.35	892.44
371.576	874.44
371.802	896.44
372.028	887.44
372.254	893.44
372.48	886.44
372.706	909.44
372.932	907.44
373.158	941.44
373.384	912.44
373.61	924.44
373.835	896.44
374.061	846.44
374.287	877.44
374.513	890.44
374.739	914.44
374.965	940.44
375.191	955.44
375.416	942.44
375.642	933.44
375.868	921.44
376.094	886.44
376.319	890.44
376.545	893.44
376.771	900.44
376.997	888.44
377.222	895.44
377.448	871.44
377.674	892.44
377.899	844.44
378.125	867.44
378.35	865.44
378.576	872.44
378.802	849.44
379.027	859.44
379.253	878.44
379.478	869.44
379.704	852.44
379.929	875.44
380.155	870.44
380.38	860.44
380.606	862.44
380.831	861.44
381.057	867.44
381.282	858.44
381.507	865.44
381.733	849.44
381.958	871.44
382.184	893.44
382.409	894.44
382.634	912.44
382.86	879.44
383.085	937.44
383.31	922.44
383.535	927.44
383.761	944.44
383.986	952.44
384.211	958.44
384.436	970.44
384.662	997.44
384.887	969.44
385.112	988.44
385.337	1013.44
385.562	1027.44
385.787	1046.44
386.013	1008.44
386.238	1040.44
386.463	1035.44
386.688	1046.44
386.913	1049.44
387.138	1005.44
387.363	1014.44
387.588	1005.44
387.813	1027.44
388.038	1032.44
388.263	1046.44
388.488	1018.44
388.713	1045.44
388.938	1047.44
389.163	1018.44
389.387	1032.44
389.612	996.44
389.837	1021.44
390.062	1007.44
390.287	1015.44
390.512	1004.44
390.736	1008.44
390.961	1030.44
391.186	1045.44
391.411	1102.44
391.636	1092.44
391.86	1138.44
392.085	1160.44
392.31	1127.44
392.534	1129.44
392.759	1126.44
392.984	1078.44
393.208	1101.44
393.433	1099.44
393.658	1093.44
393.882	1097.44
394.107	1095.44
394.331	1101.44
394.556	1100.44
394.78	1115.44
395.005	1082.44
395.229	1121.44
395.454	1133.44
395.678	1152.44
395.903	1158.44
396.127	1158.44
396.352	1141.44
396.576	1120.44
396.801	1112.44
397.025	1129.44
397.249	1110.44
397.474	1165.44
397.698	1151.44
397.922	1185.44
398.147	1165.44
398.371	1209.44
398.595	1242.44
398.82	1270.44
399.044	1355.44
399.268	1444.44
399.492	1604.44
399.717	1782.44
399.941	1766.44
400.165	1652.44
400.389	1505.44
400.613	1443.44
400.837	1349.44
401.062	1307.44
401.286	1314.44
401.51	1312.44
401.734	1267.44
401.958	1321.44
402.182	1339.44
402.406	1292.44
402.63	1311.44
402.854	1359.44
403.078	1326.44
403.302	1367.44
403.526	1362.44
403.75	1368.44
403.974	1393.44
404.198	1412.44
404.422	1412.44
404.645	1403.44
404.869	1409.44
405.093	1388.44
405.317	1365.44
405.541	1370.44
405.765	1400.44
405.988	1406.44
406.212	1431.44
406.436	1406.44
406.66	1439.44
406.883	1463.44
407.107	1487.44
407.331	1533.44
407.555	1588.44
407.778	1579.44
408.002	1539.44
408.226	1552.44
408.449	1531.44
408.673	1469.44
408.896	1450.44
409.12	1436.44
409.344	1474.44
409.567	1435.44
409.791	1444.44
410.014	1448.44
410.238	1399.44
410.461	1420.44
410.685	1387.44
410.908	1372.44
411.132	1389.44
411.355	1358.44
411.578	1336.44
411.802	1320.44
412.025	1343.44
412.249	1362.44
412.472	1314.44
412.695	1309.44
412.919	1305.44
413.142	1306.44
413.365	1318.44
413.589	1324.44
413.812	1297.44
414.035	1284.44
414.258	1287.44
414.482	1316.44
414.705	1304.44
414.928	1273.44
415.151	1316.44
415.374	1293.44
415.597	1292.44
415.821	1269.44
416.044	1236.44
416.267	1265.44
416.49	1244.44
416.713	1255.44
416.936	1254.44
417.159	1296.44
417.382	1278.44
417.605	1231.44
417.828	1267.44
418.051	1256.44
418.274	1268.44
418.497	1294.44
418.72	1261.44
418.943	1310.44
419.166	1381.44
419.389	1497.44
419.611	1423.44
419.834	1396.44
420.057	1351.44
420.28	1300.44
420.503	1259.44
420.726	1294.44
420.948	1232.44
421.171	1270.44
421.394	1285.44
421.617	1268.44
421.839	1302.44
422.062	1283.44
422.285	1284.44
422.507	1281.44
422.73	1325.44
422.953	1306.44
423.175	1333.44
423.398	1333.44
423.621	1321.44
423.843	1371.44
424.066	1360.44
424.288	1328.44
424.511	1319.44
424.733	1303.44
424.956	1307.44
425.178	1328.44
425.401	1271.44
425.623	1308.44
425.846	1245.44
426.068	1328.44
426.291	1252.44
426.513	1215.44
426.735	1237.44
426.958	1230.44
427.18	1204.44
427.402	1193.44
427.625	1191.44
427.847	1198.44
428.069	1206.44
428.292	1191.44
428.514	1167.44
428.736	1172.44
428.958	1220.44
429.181	1171.44
429.403	1165.44
429.625	1139.44
429.847	1197.44
430.069	1193.44
430.292	1158.44
430.514	1143.44
430.736	1135.44
430.958	1183.44
431.18	1153.44
431.402	1157.44
431.624	1124.44
431.846	1192.44
432.068	1207.44
432.29	1225.44
432.512	1178.44
432.734	1192.44
432.956	1180.44
433.178	1210.44
433.4	1219.44
433.622	1221.44
433.844	1227.44
434.066	1245.44
434.287	1256.44
434.509	1241.44
434.731	1289.44
434.953	1280.44
435.175	1323.44
435.397	1293.44
435.618	1235.44
435.84	1187.44
436.062	1208.44
436.284	1234.44
436.505	1230.44
436.727	1197.44
436.949	1174.44
437.17	1206.44
437.392	1185.44
437.614	1172.44
437.835	1136.44
438.057	1166.44
438.278	1140.44
438.5	1139.44
438.721	1137.44
438.943	1153.44
439.165	1179.44
439.386	1138.44
439.608	1180.44
439.829	1197.44
440.05	1161.44
440.272	1206.44
440.493	1228.44
440.715	1233.44
440.936	1257.44
441.158	1242.44
441.379	1284.44
441.6	1307.44
441.822	1310.44
442.043	1400.44
442.264	1340.44
442.486	1279.44
442.707	1302.44
442.928	1268.44
443.149	1311.44
443.371	1304.44
443.592	1330.44
443.813	1354.44
444.034	1300.44
444.255	1366.44
444.476	1401.44
444.698	1462.44
444.919	1488.44
445.14	1591.44
445.361	1465.44
445.582	1375.44
445.803	1335.44
446.024	1244.44
446.245	1297.44
446.466	1231.44
446.687	1204.44
446.908	1225.44
447.129	1204.44
447.35	1198.44
447.571	1176.44
447.792	1128.44
448.013	1152.44
448.234	1132.44
448.455	1140.44
448.675	1141.44
448.896	1147.44
449.117	1112.44
449.338	1125.44
449.559	1125.44
449.779	1108.44
450	1095.44
450.221	1112.44
450.442	1121.44
450.662	1098.44
450.883	1120.44
451.104	1143.44
451.324	1140.44
451.545	1133.44
451.766	1146.44
451.986	1128.44
452.207	1120.44
452.428	1102.44
452.648	1106.44
452.869	1067.44
453.089	1081.44
453.31	1117.44
453.53	1079.44
453.751	1061.44
453.971	1082.44
454.192	1075.44
454.412	1034.44
454.633	1057.44
454.853	1052.44
455.073	1010.44
455.294	1063.44
455.514	1035.44
455.734	1066.44
455.955	1063.44
456.175	1052.44
456.395	1032.44
456.616	1038.44
456.836	1079.44
457.056	1058.44
457.276	1049.44
457.497	1093.44
457.717	1052.44
457.937	1080.44
458.157	1068.44
458.377	1063.44
458.598	1106.44
458.818	1120.44
459.038	1153.44
459.258	1189.44
459.478	1254.44
459.698	1228.44
459.918	1274.44
460.138	1337.44
460.358	1369.44
460.578	1396.44
460.798	1430.44
461.018	1429.44
461.238	1402.44
461.458	1381.44
461.678	1376.44
461.898	1428.44
462.118	1450.44
462.338	1499.44
462.558	1525.44
462.777	1546.44
462.997	1685.44
463.217	1779.44
463.437	1773.44
463.657	1672.44
463.876	1576.44
464.096	1609.44
464.316	1610.44
464.536	1592.44
464.755	1539.44
464.975	1466.44
465.195	1428.44
465.414	1394.44
465.634	1306.44
465.854	1285.44
466.073	1247.44
466.293	1249.44
466.512	1281.44
466.732	1211.44
466.951	1225.44
467.171	1215.44
467.391	1216.44
467.61	1190.44
467.829	1176.44
468.049	1173.44
468.268	1125.44
468.488	1143.44
468.707	1162.44
468.927	1148.44
469.146	1139.44
469.365	1162.44
469.585	1142.44
469.804	1181.44
470.023	1176.44
470.243	1180.44
470.462	1187.44
470.681	1197.44
470.901	1228.44
471.12	1190.44
471.339	1181.44
471.558	1184.44
471.777	1166.44
471.997	1148.44
472.216	1141.44
472.435	1131.44
472.654	1129.44
472.873	1136.44
473.092	1130.44
473.311	1106.44
473.53	1121.44
473.749	1131.44
473.968	1121.44
474.187	1130.44
474.406	1103.44
474.625	1152.44
474.844	1159.44
475.063	1158.44
475.282	1141.44
475.501	1156.44
475.72	1162.44
475.939	1174.44
476.158	1180.44
476.377	1213.44
476.596	1213.44
476.814	1206.44
477.033	1227.44
477.252	1245.44
477.471	1231.44
477.69	1269.44
477.908	1305.44
478.127	1322.44
478.346	1312.44
478.564	1330.44
478.783	1353.44
479.002	1383.44
479.22	1425.44
479.439	1374.44
479.658	1379.44
479.876	1389.44
480.095	1443.44
480.313	1430.44
480.532	1482.44
480.751	1456.44
480.969	1414.44
481.188	1369.44
481.406	1342.44
481.624	1346.44
481.843	1326.44
482.061	1310.44
482.28	1315.44
482.498	1325.44
482.717	1344.44
482.935	1316.44
483.153	1301.44
483.372	1325.44
483.59	1322.44
483.808	1354.44
484.027	1284.44
484.245	1303.44
484.463	1303.44
484.681	1332.44
484.9	1348.44
485.118	1348.44
485.336	1345.44
485.554	1330.44
485.772	1334.44
485.99	1334.44
486.209	1356.44
486.427	1377.44
486.645	1378.44
486.863	1357.44
487.081	1367.44
487.299	1386.44
487.517	1362.44
487.735	1363.44
487.953	1380.44
488.171	1368.44
488.389	1346.44
488.607	1347.44
488.825	1374.44
489.043	1338.44
489.261	1344.44
489.479	1366.44
489.696	1385.44
489.914	1386.44
490.132	1341.44
490.35	1398.44
490.568	1392.44
490.786	1395.44
491.003	1382.44
491.221	1412.44
491.439	1384.44
491.657	1400.44
491.874	1420.44
492.092	1416.44
492.31	1421.44
492.527	1434.44
492.745	1440.44
492.963	1410.44
493.18	1445.44
493.398	1435.44
493.615	1438.44
493.833	1456.44
494.05	1468.44
494.268	1477.44
494.485	1476.44
494.703	1460.44
494.92	1492.44
495.138	1460.44
495.355	1504.44
495.573	1469.44
495.79	1507.44
496.008	1514.44
496.225	1548.44
496.442	1534.44
496.66	1566.44
496.877	1562.44
497.094	1541.44
497.312	1598.44
497.529	1616.44
497.746	1666.44
497.963	1700.44
498.181	1740.44
498.398	1823.44
498.615	1950.44
498.832	2082.44
499.049	2207.44
499.267	2330.44
499.484	2495.44
499.701	2681.44
499.918	2898.44
500.135	3209.44
500.352	3485.44
500.569	3592.44
500.786	3593.44
501.003	3380.44
501.22	3145.44
501.437	2880.44
501.654	2564.44
501.871	2400.44
502.088	2285.44
502.305	2142.44
502.522	2066.44
502.739	1989.44
502.956	1932.44
503.172	1802.44
503.389	1736.44
503.606	1689.44
503.823	1700.44
504.04	1652.44
504.256	1616.44
504.473	1676.44
504.69	1672.44
504.907	1633.44
505.123	1544.44
505.34	1523.44
505.557	1485.44
505.773	1454.44
505.99	1428.44
506.207	1400.44
506.423	1360.44
506.64	1335.44
506.856	1352.44
507.073	1315.44
507.289	1318.44
507.506	1316.44
507.722	1285.44
507.939	1269.44
508.155	1249.44
508.372	1256.44
508.588	1238.44
508.805	1208.44
509.021	1193.44
509.238	1254.44
509.454	1205.44
509.67	1179.44
509.887	1206.44
510.103	1155.44
510.319	1209.44
510.536	1183.44
510.752	1155.44
510.968	1166.44
511.184	1172.44
511.401	1177.44
511.617	1147.44
511.833	1144.44
512.049	1158.44
512.265	1160.44
512.481	1156.44
512.698	1156.44
512.914	1150.44
513.13	1146.44
513.346	1168.44
513.562	1180.44
513.778	1174.44
513.994	1174.44
514.21	1168.44
514.426	1218.44
514.642	1166.44
514.858	1186.44
515.074	1205.44
515.29	1202.44
515.506	1191.44
515.721	1253.44
515.937	1245.44
516.153	1284.44
516.369	1268.44
516.585	1304.44
516.801	1350.44
517.016	1382.44
517.232	1464.44
517.448	1451.44
517.664	1499.44
517.879	1529.44
518.095	1488.44
518.311	1454.44
518.527	1423.44
518.742	1391.44
518.958	1347.44
519.173	1308.44
519.389	1267.44
519.605	1318.44
519.82	1256.44
520.036	1241.44
520.251	1177.44
520.467	1187.44
520.682	1144.44
520.898	1147.44
521.113	1125.44
521.329	1152.44
521.544	1117.44
521.76	1111.44
521.975	1117.44
522.19	1090.44
522.406	1082.44
522.621	1090.44
522.836	1094.44
523.052	1092.44
523.267	1081.44
523.482	1090.44
523.698	1057.44
523.913	1062.44
524.128	1077.44
524.343	1076.44
524.559	1037.44
524.774	1084.44
524.989	1064.44
525.204	1034.44
525.419	1063.44
525.634	1061.44
525.849	1058.44
526.064	1063.44
526.28	1058.44
526.495	1017.44
526.71	1047.44
526.925	1045.44
527.14	1035.44
527.355	1047.44
527.57	1009.44
527.785	1020.44
527.999	1042.44
528.214	1026.44
528.429	1037.44
528.644	1041.44
528.859	1050.44
529.074	1028.44
529.289	1061.44
529.503	1048.44
529.718	1022.44
529.933	1032.44
530.148	1032.44
530.363	1021.44
530.577	1012.44
530.792	1020.44
531.007	1001.44
531.221	1047.44
531.436	1015.44
531.651	1026.44
531.865	1036.44
532.08	1030.44
532.295	1042.44
532.509	1022.44
532.724	1011.44
532.938	1024.44
533.153	1022.44
533.367	1001.44
533.582	1012.44
533.796	1010.44
534.011	989.44
534.225	1000.44
534.44	997.44
534.654	993.44
534.868	970.44
535.083	987.44
535.297	966.44
535.511	985.44
535.726	972.44
535.94	974.44
536.154	934.44
536.369	962.44
536.583	961.44
536.797	944.44
537.011	978.44
537.225	974.44
537.44	956.44
537.654	964.44
537.868	946.44
538.082	940.44
538.296	907.44
538.51	949.44
538.724	965.44
538.938	926.44
539.153	932.44
539.367	930.44
539.581	920.44
539.795	933.44
540.009	925.44
540.222	918.44
540.436	900.44
540.65	925.44
540.864	928.44
541.078	924.44
541.292	912.44
541.506	941.44
541.72	933.44
541.934	938.44
542.147	920.44
542.361	932.44
542.575	933.44
542.789	929.44
543.002	900.44
543.216	898.44
543.43	906.44
543.644	904.44
543.857	908.44
544.071	907.44
544.285	916.44
544.498	914.44
544.712	929.44
544.925	908.44
545.139	957.44
545.352	909.44
545.566	936.44
545.779	944.44
545.993	941.44
546.206	947.44
546.42	906.44
546.633	957.44
546.847	964.44
547.06	953.44
547.274	955.44
547.487	938.44
547.7	944.44
547.914	955.44
548.127	941.44
548.34	907.44
548.554	921.44
548.767	953.44
548.98	965.44
549.193	933.44
549.407	945.44
549.62	987.44
549.833	933.44
550.046	944.44
550.259	970.44
550.473	905.44
550.686	925.44
550.899	916.44
551.112	932.44
551.325	946.44
551.538	916.44
551.751	907.44
551.964	937.44
552.177	909.44
552.39	954.44
552.603	937.44
552.816	966.44
553.029	982.44
553.242	983.44
553.455	988.44
553.667	982.44
553.88	982.44
554.093	947.44
554.306	933.44
554.519	935.44
554.732	930.44
554.944	915.44
555.157	894.44
555.37	893.44
555.583	842.44
555.795	866.44
556.008	842.44
556.221	827.44
556.433	836.44
556.646	830.44
556.859	829.44
557.071	808.44
557.284	797.44
557.496	805.44
557.709	797.44
557.921	780.44
558.134	788.44
558.346	791.44
558.559	772.44
558.771	802.44
558.984	798.44
559.196	767.44
559.409	772.44
559.621	761.44
559.833	791.44
560.046	759.44
560.258	780.44
560.47	774.44
560.683	764.44
560.895	763.44
561.107	782.44
561.32	778.44
561.532	760.44
561.744	767.44
561.956	775.44
562.168	764.44
562.381	796.44
562.593	757.44
562.805	777.44
563.017	779.44
563.229	764.44
563.441	782.44
563.653	783.44
563.865	772.44
564.077	791.44
564.289	791.44
564.501	785.44
564.713	831.44
564.925	864.44
565.137	832.44
565.349	865.44
565.561	892.44
565.773	898.44
565.985	938.44
566.197	990.44
566.408	1047.44
566.62	1062.44
566.832	1138.44
567.044	1122.44
567.255	1122.44
567.467	1172.44
567.679	1212.44
567.891	1272.44
568.102	1257.44
568.314	1241.44
568.526	1138.44
568.737	1041.44
568.949	1001.44
569.161	940.44
569.372	898.44
569.584	862.44
569.795	856.44
570.007	828.44
570.218	772.44
570.43	794.44
570.641	767.44
570.853	785.44
571.064	792.44
571.276	782.44
571.487	747.44
571.698	740.44
571.91	700.44
572.121	685.44
572.333	694.44
572.544	694.44
572.755	650.44
572.966	660.44
573.178	641.44
573.389	662.44
573.6	667.44
573.811	621.44
574.023	605.44
574.234	639.44
574.445	650.44
574.656	627.44
574.867	620.44
575.078	624.44
575.289	635.44
575.501	620.44
575.712	577.44
575.923	604.44
576.134	578.44
576.345	613.44
576.556	596.44
576.767	586.44
576.978	566.44
577.188	595.44
577.399	579.44
577.61	566.44
577.821	583.44
578.032	565.44
578.243	562.44
578.454	540.44
578.665	542.44
578.875	550.44
579.086	552.44
579.297	540.44
579.508	543.44
579.718	548.44
579.929	549.44
580.14	518.44
580.35	507.44
580.561	541.44
580.772	522.44
580.982	517.44
581.193	535.44
581.403	518.44
581.614	549.44
581.825	534.44
582.035	517.44
582.246	542.44
582.456	540.44
582.667	512.44
582.877	526.44
583.087	511.44
583.298	513.44
583.508	522.44
583.719	532.44
583.929	529.44
584.139	515.44
584.35	491.44
584.56	501.44
584.77	514.44
584.981	491.44
585.191	490.44
585.401	489.44
585.611	512.44
585.821	474.44
586.032	502.44
586.242	502.44
586.452	494.44
586.662	496.44
586.872	496.44
587.082	493.44
587.292	477.44
587.502	485.44
587.713	485.44
587.923	511.44
588.133	496.44
588.343	505.44
588.553	506.44
588.762	504.44
588.972	497.44
589.182	548.44
589.392	539.44
589.602	499.44
589.812	537.44
590.022	522.44
590.232	501.44
590.441	491.44
590.651	481.44
590.861	508.44
591.071	508.44
591.281	515.44
591.49	517.44
591.7	513.44
591.91	510.44
592.119	527.44
592.329	543.44
592.539	568.44
592.748	563.44
592.958	561.44
593.167	580.44
593.377	567.44
593.587	601.44
593.796	593.44
594.006	561.44
594.215	596.44
594.424	595.44
594.634	566.44
594.843	548.44
595.053	542.44
595.262	525.44
595.472	529.44
595.681	515.44
595.89	517.44
596.1	469.44
596.309	482.44
596.518	483.44
596.727	472.44
596.937	486.44
597.146	455.44
597.355	453.44
597.564	432.44
597.774	436.44
597.983	448.44
598.192	428.44
598.401	426.44
598.61	434.44
598.819	420.44
599.028	414.44
599.237	435.44
599.446	444.44
599.655	432.44
599.864	416.44
600.073	408.44
600.282	413.44
600.491	428.44
600.7	434.44
600.909	411.44
601.118	400.44
601.327	405.44
601.536	409.44
601.745	406.44
601.953	392.44
602.162	410.44
602.371	378.44
602.58	404.44
602.789	410.44
602.997	417.44
603.206	391.44
603.415	388.44
603.623	372.44
603.832	385.44
604.041	377.44
604.249	397.44
604.458	377.44
604.666	385.44
604.875	390.44
605.084	369.44
605.292	378.44
605.501	370.44
605.709	366.44
605.918	368.44
606.126	365.44
606.334	372.44
606.543	374.44
606.751	365.44
606.96	368.44
607.168	390.44
607.376	371.44
607.585	372.44
607.793	377.44
608.001	374.44
608.21	345.44
608.418	363.44
608.626	340.44
608.834	356.44
609.043	377.44
609.251	369.44
609.459	349.44
609.667	360.44
609.875	360.44
610.083	376.44
610.291	354.44
610.499	368.44
610.707	349.44
610.916	356.44
611.124	376.44
611.332	341.44
611.54	358.44
611.748	363.44
611.955	357.44
612.163	354.44
612.371	357.44
612.579	371.44
612.787	349.44
612.995	358.44
613.203	372.44
613.411	336.44
613.618	336.44
613.826	356.44
614.034	332.44
614.242	347.44
614.449	343.44
614.657	351.44
614.865	325.44
615.072	349.44
615.28	360.44
615.488	347.44
615.695	339.44
615.903	354.44
616.111	349.44
616.318	352.44
616.526	337.44
616.733	337.44
616.941	346.44
617.148	339.44
617.356	347.44
617.563	344.44
617.771	352.44
617.978	327.44
618.185	334.44
618.393	321.44
618.6	339.44
618.807	346.44
619.015	344.44
619.222	336.44
619.429	340.44
619.637	337.44
619.844	337.44
620.051	325.44
620.258	308.44
620.466	312.44
620.673	316.44
620.88	316.44
621.087	309.44
621.294	328.44
621.501	300.44
621.708	315.44
621.915	315.44
622.122	324.44
622.329	302.44
622.536	330.44
622.743	309.44
622.95	317.44
623.157	313.44
623.364	308.44
623.571	310.44
623.778	305.44
623.985	309.44
624.192	290.44
624.399	313.44
624.606	317.44
624.812	312.44
625.019	312.44
625.226	300.44
625.433	291.44
625.639	289.44
625.846	307.44
626.053	288.44
626.259	304.44
626.466	294.44
626.673	274.44
626.879	287.44
627.086	299.44
627.293	286.44
627.499	287.44
627.706	289.44
627.912	269.44
628.119	274.44
628.325	280.44
628.532	273.44
628.738	273.44
628.945	290.44
629.151	278.44
629.357	282.44
629.564	296.44
629.77	276.44
629.976	281.44
630.183	263.44
630.389	287.44
630.595	283.44
630.802	275.44
631.008	281.44
631.214	262.44
631.42	274.44
631.627	269.44
631.833	258.44
632.039	260.44
632.245	260.44
632.451	266.44
632.657	266.44
632.863	261.44
633.069	273.44
633.275	259.44
633.481	249.44
633.688	254.44
633.893	262.44
634.099	265.44
634.305	276.44
634.511	267.44
634.717	252.44
634.923	249.44
635.129	251.44
635.335	248.44
635.541	254.44
635.747	244.44
635.952	240.44
636.158	249.44
636.364	232.44
636.57	269.44
636.775	250.44
636.981	251.44
637.187	244.44
637.392	235.44
637.598	261.44
637.804	247.44
638.009	250.44
638.215	251.44
638.421	234.44
638.626	238.44
638.832	216.44
639.037	242.44
639.243	260.44
639.448	242.44
639.654	240.44
639.859	224.44
640.065	236.44
640.27	218.44
640.475	241.44
640.681	248.44
640.886	236.44
641.091	219.44
641.297	234.44
641.502	242.44
641.707	218.44
641.913	234.44
642.118	227.44
642.323	221.44
642.528	233.44
642.733	215.44
642.939	225.44
643.144	217.44
643.349	216.44
643.554	212.44
643.759	236.44
643.964	226.44
644.169	226.44
644.374	219.44
644.579	212.44
644.784	228.44
644.989	208.44
645.194	225.44
645.399	219.44
645.604	237.44
645.809	222.44
646.014	221.44
646.219	217.44
646.423	214.44
646.628	224.44
646.833	220.44
647.038	224.44
647.243	226.44
647.447	236.44
647.652	234.44
647.857	233.44
648.062	233.44
648.266	229.44
648.471	229.44
648.676	228.44
648.88	224.44
649.085	219.44
649.289	212.44
649.494	230.44
649.698	224.44
649.903	212.44
650.107	215.44
650.312	211.44
650.516	213.44
650.721	214.44
650.925	209.44
651.13	196.44
651.334	193.44
651.539	205.44
651.743	201.44
651.947	221.44
652.152	186.44
652.356	181.44
652.56	188.44
652.764	194.44
652.969	196.44
653.173	191.44
653.377	180.44
653.581	174.44
653.785	181.44
653.99	172.44
654.194	152.44
654.398	180.44
654.602	166.44
654.806	180.44
655.01	172.44
655.214	178.44
655.418	166.44
655.622	170.44
655.826	174.44
656.03	166.44
656.234	171.44
656.438	138.44
656.642	154.44
656.846	165.44
657.049	177.44
657.253	157.44
657.457	139.44
657.661	132.44
657.865	137.44
658.068	130.44
658.272	125.44
658.476	137.44
658.68	117.44
658.883	108.44
659.087	126.44
659.291	116.44
659.494	107.44
659.698	112.44
659.901	118.44
660.105	116.44
660.309	105.44
660.512	109.44
660.716	102.44
660.919	100.44
661.123	99.44
661.326	117.44
661.53	92.44
661.733	103.44
661.936	88.44
662.14	93.44
662.343	78.44
662.546	84.44
662.75	86.44
662.953	95.44
663.156	84.44
663.36	71.44
663.563	84.44
663.766	85.44
663.969	74.44
664.173	82.44
664.376	83.44
664.579	82.44
664.782	96.44
664.985	78.44
665.188	91.44
665.391	83.44
665.594	82.44
665.797	78.44
666	101.44
666.203	86.44
666.406	74.44
666.609	92.44
666.812	84.44
667.015	85.44
667.218	81.44
667.421	61.44
667.624	89.44
667.827	88.44
668.03	82.44
668.232	81.44
668.435	86.44
668.638	80.44
668.841	81.44
669.043	86.44
669.246	81.44
669.449	82.44
669.651	82.44
669.854	70.44
670.057	88.44
670.259	77.44
670.462	80.44
670.665	76.44
670.867	77.44
671.07	72.44
671.272	73.44
671.475	78.44
671.677	84.44
671.88	71.44
672.082	82.44
672.284	82.44
672.487	71.44
672.689	82.44
672.892	85.44
