Data from NiCl2@0.5M.TitratingCurve.Agarose3%dH2O.NegLispCup.LampEnergy10.LIBS07252019_HRD10591_18-19-00-571.txt Node
Date: Thu Jul 25 18:19:00 EDT 2019
User: cochatt
Spectrometer: HR+D1059
Trigger mode: 1
Integration Time (sec): 1.000000E-1
Scans to average: 1
Electric dark correction enabled: true
Nonlinearity correction enabled: false
Boxcar width: 0
XAxis mode: Wavelengths
Number of Pixels in Spectrum: 2048
>>>>>Begin Spectral Data<<<<<
223.165	-21.25
223.4	-21.25
223.635	-21.25
223.869	-3.25
224.104	-26.25
224.338	-28.25
224.573	-36.25
224.808	-13.25
225.042	4.75
225.277	-0.25
225.511	-1.25
225.746	8.75
225.98	1.75
226.215	2.75
226.449	19.75
226.683	30.75
226.918	23.75
227.152	37.75
227.387	34.75
227.621	41.75
227.856	32.75
228.09	43.75
228.324	54.75
228.559	57.75
228.793	84.75
229.027	94.75
229.262	119.75
229.496	110.75
229.73	128.75
229.964	153.75
230.199	162.75
230.433	150.75
230.667	141.75
230.901	161.75
231.136	144.75
231.37	143.75
231.604	151.75
231.838	162.75
232.072	169.75
232.306	166.75
232.541	162.75
232.775	155.75
233.009	128.75
233.243	161.75
233.477	152.75
233.711	166.75
233.945	147.75
234.179	158.75
234.413	152.75
234.647	159.75
234.881	150.75
235.115	161.75
235.349	158.75
235.583	169.75
235.817	146.75
236.051	155.75
236.285	139.75
236.519	147.75
236.753	167.75
236.987	153.75
237.221	167.75
237.455	168.75
237.689	165.75
237.922	176.75
238.156	177.75
238.39	164.75
238.624	174.75
238.858	159.75
239.091	177.75
239.325	178.75
239.559	184.75
239.793	192.75
240.027	198.75
240.26	177.75
240.494	164.75
240.728	186.75
240.961	190.75
241.195	185.75
241.429	172.75
241.662	194.75
241.896	202.75
242.13	230.75
242.363	211.75
242.597	186.75
242.83	203.75
243.064	185.75
243.298	215.75
243.531	206.75
243.765	210.75
243.998	218.75
244.232	220.75
244.465	234.75
244.699	225.75
244.932	222.75
245.166	211.75
245.399	212.75
245.633	227.75
245.866	220.75
246.099	210.75
246.333	237.75
246.566	242.75
246.8	234.75
247.033	209.75
247.266	226.75
247.5	241.75
247.733	230.75
247.966	240.75
248.2	244.75
248.433	238.75
248.666	238.75
248.899	258.75
249.133	247.75
249.366	241.75
249.599	242.75
249.832	254.75
250.066	258.75
250.299	252.75
250.532	262.75
250.765	254.75
250.998	282.75
251.231	269.75
251.465	293.75
251.698	274.75
251.931	268.75
252.164	260.75
252.397	283.75
252.63	280.75
252.863	274.75
253.096	285.75
253.329	298.75
253.562	278.75
253.795	298.75
254.028	288.75
254.261	299.75
254.494	289.75
254.727	295.75
254.96	277.75
255.193	281.75
255.426	299.75
255.659	305.75
255.892	294.75
256.124	302.75
256.357	312.75
256.59	294.75
256.823	305.75
257.056	292.75
257.289	314.75
257.521	326.75
257.754	322.75
257.987	312.75
258.22	325.75
258.452	302.75
258.685	310.75
258.918	327.75
259.151	311.75
259.383	327.75
259.616	321.75
259.849	324.75
260.081	330.75
260.314	317.75
260.547	337.75
260.779	318.75
261.012	330.75
261.244	329.75
261.477	346.75
261.71	341.75
261.942	339.75
262.175	339.75
262.407	343.75
262.64	343.75
262.872	339.75
263.105	336.75
263.337	367.75
263.57	355.75
263.802	343.75
264.035	366.75
264.267	339.75
264.499	368.75
264.732	354.75
264.964	341.75
265.197	353.75
265.429	359.75
265.661	366.75
265.894	354.75
266.126	357.75
266.358	367.75
266.591	382.75
266.823	376.75
267.055	382.75
267.287	388.75
267.52	374.75
267.752	386.75
267.984	374.75
268.216	385.75
268.448	390.75
268.681	392.75
268.913	391.75
269.145	388.75
269.377	370.75
269.609	370.75
269.841	410.75
270.073	407.75
270.306	402.75
270.538	387.75
270.77	388.75
271.002	412.75
271.234	397.75
271.466	400.75
271.698	416.75
271.93	412.75
272.162	430.75
272.394	390.75
272.626	419.75
272.858	422.75
273.09	442.75
273.322	424.75
273.553	431.75
273.785	423.75
274.017	442.75
274.249	450.75
274.481	439.75
274.713	444.75
274.945	420.75
275.176	424.75
275.408	438.75
275.64	434.75
275.872	440.75
276.104	447.75
276.335	442.75
276.567	460.75
276.799	449.75
277.031	467.75
277.262	457.75
277.494	458.75
277.726	444.75
277.957	458.75
278.189	437.75
278.421	465.75
278.652	463.75
278.884	468.75
279.115	455.75
279.347	477.75
279.579	465.75
279.81	476.75
280.042	489.75
280.273	475.75
280.505	484.75
280.736	470.75
280.968	470.75
281.199	498.75
281.431	483.75
281.662	514.75
281.894	490.75
282.125	503.75
282.356	510.75
282.588	498.75
282.819	505.75
283.051	489.75
283.282	477.75
283.513	515.75
283.745	509.75
283.976	510.75
284.207	518.75
284.439	493.75
284.67	524.75
284.901	512.75
285.132	510.75
285.364	497.75
285.595	513.75
285.826	513.75
286.057	536.75
286.288	530.75
286.52	538.75
286.751	528.75
286.982	542.75
287.213	546.75
287.444	540.75
287.675	522.75
287.906	535.75
288.138	527.75
288.369	549.75
288.6	532.75
288.831	535.75
289.062	538.75
289.293	549.75
289.524	532.75
289.755	530.75
289.986	543.75
290.217	529.75
290.448	531.75
290.679	536.75
290.91	577.75
291.141	544.75
291.371	553.75
291.602	550.75
291.833	561.75
292.064	564.75
292.295	550.75
292.526	546.75
292.757	561.75
292.987	552.75
293.218	524.75
293.449	574.75
293.68	574.75
293.91	545.75
294.141	550.75
294.372	553.75
294.603	543.75
294.833	577.75
295.064	564.75
295.295	572.75
295.525	571.75
295.756	578.75
295.987	564.75
296.217	597.75
296.448	591.75
296.679	586.75
296.909	569.75
297.14	563.75
297.37	581.75
297.601	612.75
297.831	575.75
298.062	595.75
298.292	595.75
298.523	596.75
298.753	615.75
298.984	622.75
299.214	618.75
299.445	637.75
299.675	615.75
299.905	617.75
300.136	612.75
300.366	629.75
300.597	644.75
300.827	628.75
301.057	640.75
301.288	665.75
301.518	641.75
301.748	619.75
301.979	649.75
302.209	622.75
302.439	631.75
302.669	653.75
302.9	622.75
303.13	604.75
303.36	637.75
303.59	646.75
303.82	632.75
304.051	656.75
304.281	643.75
304.511	632.75
304.741	632.75
304.971	647.75
305.201	652.75
305.431	675.75
305.661	690.75
305.891	666.75
306.121	635.75
306.352	642.75
306.582	640.75
306.812	639.75
307.042	619.75
307.272	642.75
307.502	640.75
307.731	659.75
307.961	651.75
308.191	641.75
308.421	651.75
308.651	648.75
308.881	652.75
309.111	630.75
309.341	633.75
309.571	651.75
309.8	647.75
310.03	679.75
310.26	697.75
310.49	684.75
310.72	656.75
310.949	668.75
311.179	634.75
311.409	654.75
311.639	665.75
311.868	660.75
312.098	651.75
312.328	678.75
312.557	667.75
312.787	647.75
313.017	671.75
313.246	659.75
313.476	686.75
313.706	718.75
313.935	695.75
314.165	684.75
314.394	688.75
314.624	671.75
314.853	654.75
315.083	688.75
315.312	696.75
315.542	681.75
315.771	694.75
316.001	679.75
316.23	702.75
316.46	691.75
316.689	676.75
316.919	664.75
317.148	682.75
317.377	679.75
317.607	664.75
317.836	672.75
318.065	710.75
318.295	688.75
318.524	695.75
318.753	690.75
318.983	704.75
319.212	692.75
319.441	659.75
319.67	678.75
319.9	688.75
320.129	705.75
320.358	703.75
320.587	694.75
320.816	712.75
321.046	693.75
321.275	698.75
321.504	708.75
321.733	699.75
321.962	725.75
322.191	694.75
322.42	714.75
322.649	716.75
322.878	732.75
323.108	710.75
323.337	734.75
323.566	726.75
323.795	712.75
324.024	715.75
324.253	706.75
324.482	694.75
324.71	719.75
324.939	725.75
325.168	728.75
325.397	736.75
325.626	739.75
325.855	759.75
326.084	751.75
326.313	752.75
326.542	786.75
326.77	764.75
326.999	746.75
327.228	753.75
327.457	750.75
327.686	754.75
327.914	759.75
328.143	754.75
328.372	742.75
328.6	768.75
328.829	734.75
329.058	745.75
329.287	755.75
329.515	791.75
329.744	766.75
329.972	773.75
330.201	763.75
330.43	775.75
330.658	766.75
330.887	791.75
331.115	762.75
331.344	776.75
331.572	810.75
331.801	810.75
332.03	795.75
332.258	826.75
332.486	833.75
332.715	839.75
332.943	852.75
333.172	845.75
333.4	894.75
333.629	880.75
333.857	893.75
334.085	895.75
334.314	895.75
334.542	898.75
334.771	890.75
334.999	891.75
335.227	883.75
335.455	889.75
335.684	870.75
335.912	888.75
336.14	894.75
336.369	892.75
336.597	895.75
336.825	925.75
337.053	921.75
337.281	915.75
337.51	890.75
337.738	888.75
337.966	897.75
338.194	894.75
338.422	882.75
338.65	842.75
338.878	800.75
339.106	854.75
339.334	872.75
339.562	847.75
339.79	830.75
340.018	832.75
340.246	780.75
340.474	798.75
340.702	806.75
340.93	798.75
341.158	807.75
341.386	836.75
341.614	900.75
341.842	861.75
342.07	807.75
342.298	788.75
342.526	776.75
342.754	806.75
342.981	807.75
343.209	805.75
343.437	871.75
343.665	852.75
343.893	844.75
344.12	891.75
344.348	867.75
344.576	885.75
344.804	868.75
345.031	835.75
345.259	805.75
345.487	807.75
345.714	805.75
345.942	838.75
346.17	861.75
346.397	828.75
346.625	805.75
346.853	792.75
347.08	742.75
347.308	770.75
347.535	809.75
347.763	784.75
347.99	754.75
348.218	776.75
348.445	766.75
348.673	767.75
348.9	787.75
349.128	794.75
349.355	791.75
349.583	816.75
349.81	783.75
350.037	757.75
350.265	749.75
350.492	745.75
350.72	730.75
350.947	742.75
351.174	757.75
351.402	779.75
351.629	794.75
351.856	787.75
352.083	744.75
352.311	759.75
352.538	797.75
352.765	833.75
352.992	770.75
353.22	729.75
353.447	702.75
353.674	723.75
353.901	725.75
354.128	713.75
354.355	720.75
354.583	723.75
354.81	746.75
355.037	708.75
355.264	729.75
355.491	743.75
355.718	748.75
355.945	717.75
356.172	733.75
356.399	736.75
356.626	759.75
356.853	784.75
357.08	744.75
357.307	741.75
357.534	724.75
357.761	718.75
357.988	735.75
358.215	729.75
358.441	724.75
358.668	719.75
358.895	738.75
359.122	720.75
359.349	723.75
359.576	717.75
359.802	735.75
360.029	726.75
360.256	722.75
360.483	730.75
360.709	724.75
360.936	745.75
361.163	747.75
361.39	727.75
361.616	736.75
361.843	730.75
362.07	791.75
362.296	771.75
362.523	733.75
362.749	730.75
362.976	704.75
363.203	710.75
363.429	721.75
363.656	714.75
363.882	712.75
364.109	702.75
364.335	714.75
364.562	723.75
364.788	717.75
365.015	728.75
365.241	704.75
365.468	705.75
365.694	702.75
365.92	714.75
366.147	725.75
366.373	712.75
366.599	740.75
366.826	718.75
367.052	700.75
367.278	726.75
367.505	711.75
367.731	692.75
367.957	710.75
368.184	728.75
368.41	716.75
368.636	717.75
368.862	737.75
369.089	720.75
369.315	740.75
369.541	739.75
369.767	736.75
369.993	714.75
370.219	708.75
370.445	752.75
370.672	739.75
370.898	752.75
371.124	750.75
371.35	788.75
371.576	779.75
371.802	751.75
372.028	779.75
372.254	774.75
372.48	800.75
372.706	769.75
372.932	762.75
373.158	791.75
373.384	779.75
373.61	727.75
373.835	770.75
374.061	774.75
374.287	780.75
374.513	752.75
374.739	808.75
374.965	794.75
375.191	784.75
375.416	794.75
375.642	774.75
375.868	762.75
376.094	774.75
376.319	801.75
376.545	760.75
376.771	747.75
376.997	733.75
377.222	748.75
377.448	737.75
377.674	762.75
377.899	729.75
378.125	731.75
378.35	757.75
378.576	745.75
378.802	743.75
379.027	729.75
379.253	722.75
379.478	729.75
379.704	756.75
379.929	735.75
380.155	730.75
380.38	751.75
380.606	745.75
380.831	762.75
381.057	770.75
381.282	744.75
381.507	730.75
381.733	733.75
381.958	756.75
382.184	776.75
382.409	775.75
382.634	757.75
382.86	777.75
383.085	785.75
383.31	750.75
383.535	784.75
383.761	794.75
383.986	793.75
384.211	807.75
384.436	810.75
384.662	826.75
384.887	809.75
385.112	842.75
385.337	835.75
385.562	840.75
385.787	855.75
386.013	860.75
386.238	873.75
386.463	849.75
386.688	855.75
386.913	865.75
387.138	825.75
387.363	845.75
387.588	838.75
387.813	860.75
388.038	848.75
388.263	846.75
388.488	881.75
388.713	842.75
388.938	846.75
389.163	860.75
389.387	847.75
389.612	845.75
389.837	841.75
390.062	841.75
390.287	852.75
390.512	833.75
390.736	890.75
390.961	856.75
391.186	877.75
391.411	894.75
391.636	886.75
391.86	911.75
392.085	910.75
392.31	894.75
392.534	945.75
392.759	890.75
392.984	924.75
393.208	916.75
393.433	899.75
393.658	905.75
393.882	902.75
394.107	887.75
394.331	881.75
394.556	906.75
394.78	893.75
395.005	917.75
395.229	917.75
395.454	944.75
395.678	948.75
395.903	927.75
396.127	938.75
396.352	915.75
396.576	898.75
396.801	919.75
397.025	928.75
397.249	952.75
397.474	963.75
397.698	976.75
397.922	975.75
398.147	955.75
398.371	965.75
398.595	1003.75
398.82	1018.75
399.044	1072.75
399.268	1145.75
399.492	1187.75
399.717	1260.75
399.941	1248.75
400.165	1241.75
400.389	1178.75
400.613	1106.75
400.837	1102.75
401.062	1083.75
401.286	1076.75
401.51	1040.75
401.734	1072.75
401.958	1047.75
402.182	1029.75
402.406	1028.75
402.63	1011.75
402.854	1049.75
403.078	1075.75
403.302	1059.75
403.526	1080.75
403.75	1088.75
403.974	1073.75
404.198	1061.75
404.422	1078.75
404.645	1074.75
404.869	1082.75
405.093	1091.75
405.317	1063.75
405.541	1094.75
405.765	1066.75
405.988	1090.75
406.212	1104.75
406.436	1124.75
406.66	1142.75
406.883	1127.75
407.107	1184.75
407.331	1186.75
407.555	1242.75
407.778	1232.75
408.002	1226.75
408.226	1202.75
408.449	1198.75
408.673	1200.75
408.896	1152.75
409.12	1166.75
409.344	1169.75
409.567	1122.75
409.791	1161.75
410.014	1141.75
410.238	1114.75
410.461	1142.75
410.685	1142.75
410.908	1119.75
411.132	1095.75
411.355	1067.75
411.578	1076.75
411.802	1107.75
412.025	1099.75
412.249	1077.75
412.472	1087.75
412.695	1063.75
412.919	1055.75
413.142	1043.75
413.365	1051.75
413.589	1057.75
413.812	1071.75
414.035	1074.75
414.258	1048.75
414.482	1042.75
414.705	1070.75
414.928	1073.75
415.151	1066.75
415.374	1054.75
415.597	1060.75
415.821	1028.75
416.044	1013.75
416.267	1030.75
416.49	1004.75
416.713	998.75
416.936	1011.75
417.159	1022.75
417.382	1022.75
417.605	1025.75
417.828	1043.75
418.051	1026.75
418.274	1035.75
418.497	1041.75
418.72	1038.75
418.943	1052.75
419.166	1052.75
419.389	1173.75
419.611	1129.75
419.834	1097.75
420.057	1062.75
420.28	1040.75
420.503	1024.75
420.726	1029.75
420.948	1036.75
421.171	1015.75
421.394	1060.75
421.617	993.75
421.839	999.75
422.062	1025.75
422.285	1008.75
422.507	1050.75
422.73	1007.75
422.953	1051.75
423.175	1065.75
423.398	1072.75
423.621	1037.75
423.843	1056.75
424.066	1029.75
424.288	1056.75
424.511	1056.75
424.733	1023.75
424.956	1040.75
425.178	1018.75
425.401	1028.75
425.623	1049.75
425.846	1015.75
426.068	1015.75
426.291	1000.75
426.513	971.75
426.735	1026.75
426.958	995.75
427.18	999.75
427.402	1006.75
427.625	1007.75
427.847	980.75
428.069	963.75
428.292	999.75
428.514	1009.75
428.736	980.75
428.958	1010.75
429.181	992.75
429.403	985.75
429.625	972.75
429.847	977.75
430.069	983.75
430.292	987.75
430.514	1010.75
430.736	985.75
430.958	981.75
431.18	968.75
431.402	998.75
431.624	962.75
431.846	1007.75
432.068	998.75
432.29	1014.75
432.512	953.75
432.734	999.75
432.956	1020.75
433.178	987.75
433.4	1038.75
433.622	1026.75
433.844	1039.75
434.066	1035.75
434.287	1059.75
434.509	1042.75
434.731	1051.75
434.953	1044.75
435.175	1054.75
435.397	1062.75
435.618	1028.75
435.84	1038.75
436.062	1006.75
436.284	1003.75
436.505	988.75
436.727	994.75
436.949	1007.75
437.17	1022.75
437.392	995.75
437.614	984.75
437.835	963.75
438.057	984.75
438.278	953.75
438.5	979.75
438.721	957.75
438.943	998.75
439.165	957.75
439.386	971.75
439.608	998.75
439.829	980.75
440.05	992.75
440.272	1011.75
440.493	1009.75
440.715	1002.75
440.936	1021.75
441.158	1030.75
441.379	1029.75
441.6	1069.75
441.822	1088.75
442.043	1060.75
442.264	1068.75
442.486	1055.75
442.707	1048.75
442.928	1048.75
443.149	1062.75
443.371	1074.75
443.592	1109.75
443.813	1095.75
444.034	1100.75
444.255	1108.75
444.476	1146.75
444.698	1197.75
444.919	1181.75
445.14	1255.75
445.361	1184.75
445.582	1124.75
445.803	1076.75
446.024	1025.75
446.245	1063.75
446.466	1020.75
446.687	1026.75
446.908	1016.75
447.129	987.75
447.35	973.75
447.571	990.75
447.792	956.75
448.013	960.75
448.234	960.75
448.455	956.75
448.675	980.75
448.896	950.75
449.117	913.75
449.338	951.75
449.559	950.75
449.779	938.75
450	920.75
450.221	934.75
450.442	951.75
450.662	952.75
450.883	931.75
451.104	951.75
451.324	952.75
451.545	934.75
451.766	938.75
451.986	922.75
452.207	931.75
452.428	903.75
452.648	913.75
452.869	905.75
453.089	895.75
453.31	918.75
453.53	931.75
453.751	912.75
453.971	916.75
454.192	875.75
454.412	937.75
454.633	892.75
454.853	909.75
455.073	907.75
455.294	922.75
455.514	889.75
455.734	895.75
455.955	898.75
456.175	904.75
456.395	899.75
456.616	866.75
456.836	882.75
457.056	902.75
457.276	894.75
457.497	934.75
457.717	915.75
457.937	902.75
458.157	955.75
458.377	934.75
458.598	940.75
458.818	937.75
459.038	962.75
459.258	982.75
459.478	1018.75
459.698	1090.75
459.918	1110.75
460.138	1116.75
460.358	1114.75
460.578	1112.75
460.798	1182.75
461.018	1196.75
461.238	1135.75
461.458	1101.75
461.678	1130.75
461.898	1144.75
462.118	1154.75
462.338	1219.75
462.558	1236.75
462.777	1258.75
462.997	1337.75
463.217	1383.75
463.437	1390.75
463.657	1324.75
463.876	1300.75
464.096	1278.75
464.316	1263.75
464.536	1248.75
464.755	1230.75
464.975	1187.75
465.195	1158.75
465.414	1134.75
465.634	1110.75
465.854	1083.75
466.073	1044.75
466.293	1042.75
466.512	1017.75
466.732	998.75
466.951	1005.75
467.171	1034.75
467.391	1043.75
467.61	988.75
467.829	999.75
468.049	980.75
468.268	978.75
468.488	968.75
468.707	961.75
468.927	981.75
469.146	982.75
469.365	1018.75
469.585	964.75
469.804	996.75
470.023	987.75
470.243	976.75
470.462	966.75
470.681	984.75
470.901	1035.75
471.12	1005.75
471.339	990.75
471.558	998.75
471.777	987.75
471.997	997.75
472.216	988.75
472.435	952.75
472.654	963.75
472.873	921.75
473.092	957.75
473.311	958.75
473.53	946.75
473.749	982.75
473.968	955.75
474.187	953.75
474.406	957.75
474.625	954.75
474.844	964.75
475.063	991.75
475.282	1010.75
475.501	992.75
475.72	1016.75
475.939	985.75
476.158	1001.75
476.377	1021.75
476.596	995.75
476.814	1014.75
477.033	1020.75
477.252	1052.75
477.471	1082.75
477.69	1068.75
477.908	1076.75
478.127	1131.75
478.346	1120.75
478.564	1130.75
478.783	1155.75
479.002	1147.75
479.22	1193.75
479.439	1179.75
479.658	1176.75
479.876	1173.75
480.095	1171.75
480.313	1194.75
480.532	1210.75
480.751	1178.75
480.969	1163.75
481.188	1187.75
481.406	1154.75
481.624	1146.75
481.843	1119.75
482.061	1113.75
482.28	1126.75
482.498	1122.75
482.717	1124.75
482.935	1132.75
483.153	1121.75
483.372	1150.75
483.59	1170.75
483.808	1176.75
484.027	1157.75
484.245	1143.75
484.463	1168.75
484.681	1206.75
484.9	1179.75
485.118	1152.75
485.336	1182.75
485.554	1162.75
485.772	1194.75
485.99	1168.75
486.209	1169.75
486.427	1165.75
486.645	1169.75
486.863	1206.75
487.081	1216.75
487.299	1186.75
487.517	1160.75
487.735	1212.75
487.953	1185.75
488.171	1184.75
488.389	1157.75
488.607	1161.75
488.825	1135.75
489.043	1154.75
489.261	1154.75
489.479	1158.75
489.696	1190.75
489.914	1198.75
490.132	1182.75
490.35	1183.75
490.568	1209.75
490.786	1210.75
491.003	1199.75
491.221	1231.75
491.439	1202.75
491.657	1187.75
491.874	1223.75
492.092	1243.75
492.31	1259.75
492.527	1246.75
492.745	1233.75
492.963	1254.75
493.18	1247.75
493.398	1246.75
493.615	1245.75
493.833	1241.75
494.05	1251.75
494.268	1242.75
494.485	1240.75
494.703	1231.75
494.92	1295.75
495.138	1294.75
495.355	1247.75
495.573	1246.75
495.79	1252.75
496.008	1304.75
496.225	1345.75
496.442	1328.75
496.66	1362.75
496.877	1398.75
497.094	1383.75
497.312	1376.75
497.529	1428.75
497.746	1408.75
497.963	1472.75
498.181	1507.75
498.398	1566.75
498.615	1611.75
498.832	1686.75
499.049	1770.75
499.267	1845.75
499.484	1935.75
499.701	2029.75
499.918	2145.75
500.135	2308.75
500.352	2389.75
500.569	2480.75
500.786	2455.75
501.003	2390.75
501.22	2308.75
501.437	2114.75
501.654	2016.75
501.871	1940.75
502.088	1838.75
502.305	1764.75
502.522	1703.75
502.739	1639.75
502.956	1563.75
503.172	1504.75
503.389	1458.75
503.606	1408.75
503.823	1402.75
504.04	1411.75
504.256	1383.75
504.473	1384.75
504.69	1350.75
504.907	1351.75
505.123	1329.75
505.34	1271.75
505.557	1241.75
505.773	1226.75
505.99	1219.75
506.207	1186.75
506.423	1174.75
506.64	1172.75
506.856	1117.75
507.073	1142.75
507.289	1129.75
507.506	1098.75
507.722	1115.75
507.939	1090.75
508.155	1090.75
508.372	1095.75
508.588	1079.75
508.805	1052.75
509.021	1042.75
509.238	1079.75
509.454	1052.75
509.67	1024.75
509.887	1049.75
510.103	1046.75
510.319	1034.75
510.536	1030.75
510.752	1027.75
510.968	1008.75
511.184	1024.75
511.401	992.75
511.617	1020.75
511.833	1034.75
512.049	990.75
512.265	1024.75
512.481	1010.75
512.698	1038.75
512.914	1003.75
513.13	999.75
513.346	995.75
513.562	1004.75
513.778	1003.75
513.994	1020.75
514.21	1043.75
514.426	1036.75
514.642	1018.75
514.858	1035.75
515.074	1040.75
515.29	1067.75
515.506	1021.75
515.721	1052.75
515.937	1044.75
516.153	1051.75
516.369	1083.75
516.585	1061.75
516.801	1116.75
517.016	1149.75
517.232	1165.75
517.448	1200.75
517.664	1209.75
517.879	1203.75
518.095	1201.75
518.311	1194.75
518.527	1135.75
518.742	1152.75
518.958	1091.75
519.173	1111.75
519.389	1094.75
519.605	1042.75
519.82	1036.75
520.036	1029.75
520.251	1023.75
520.467	1011.75
520.682	998.75
520.898	1001.75
521.113	986.75
521.329	994.75
521.544	935.75
521.76	952.75
521.975	929.75
522.19	938.75
522.406	918.75
522.621	927.75
522.836	950.75
523.052	943.75
523.267	932.75
523.482	927.75
523.698	926.75
523.913	924.75
524.128	939.75
524.343	931.75
524.559	907.75
524.774	924.75
524.989	919.75
525.204	923.75
525.419	909.75
525.634	902.75
525.849	904.75
526.064	935.75
526.28	873.75
526.495	896.75
526.71	887.75
526.925	901.75
527.14	896.75
527.355	876.75
527.57	890.75
527.785	881.75
527.999	884.75
528.214	898.75
528.429	893.75
528.644	903.75
528.859	902.75
529.074	903.75
529.289	906.75
529.503	890.75
529.718	891.75
529.933	889.75
530.148	881.75
530.363	867.75
530.577	866.75
530.792	848.75
531.007	865.75
531.221	875.75
531.436	867.75
531.651	866.75
531.865	867.75
532.08	901.75
532.295	876.75
532.509	862.75
532.724	869.75
532.938	870.75
533.153	862.75
533.367	859.75
533.582	873.75
533.796	869.75
534.011	831.75
534.225	872.75
534.44	849.75
534.654	843.75
534.868	856.75
535.083	808.75
535.297	820.75
535.511	806.75
535.726	840.75
535.94	836.75
536.154	826.75
536.369	830.75
536.583	815.75
536.797	818.75
537.011	819.75
537.225	818.75
537.44	798.75
537.654	831.75
537.868	820.75
538.082	811.75
538.296	801.75
538.51	809.75
538.724	810.75
538.938	794.75
539.153	814.75
539.367	810.75
539.581	798.75
539.795	811.75
540.009	775.75
540.222	790.75
540.436	826.75
540.65	793.75
540.864	796.75
541.078	773.75
541.292	824.75
541.506	815.75
541.72	815.75
541.934	812.75
542.147	798.75
542.361	802.75
542.575	798.75
542.789	787.75
543.002	788.75
543.216	757.75
543.43	818.75
543.644	796.75
543.857	793.75
544.071	767.75
544.285	809.75
544.498	776.75
544.712	773.75
544.925	795.75
545.139	802.75
545.352	798.75
545.566	818.75
545.779	835.75
545.993	820.75
546.206	808.75
546.42	809.75
546.633	815.75
546.847	810.75
547.06	818.75
547.274	819.75
547.487	790.75
547.7	803.75
547.914	806.75
548.127	830.75
548.34	810.75
548.554	802.75
548.767	812.75
548.98	797.75
549.193	816.75
549.407	808.75
549.62	799.75
549.833	824.75
550.046	836.75
550.259	798.75
550.473	767.75
550.686	786.75
550.899	772.75
551.112	782.75
551.325	815.75
551.538	790.75
551.751	804.75
551.964	786.75
552.177	756.75
552.39	785.75
552.603	798.75
552.816	831.75
553.029	838.75
553.242	832.75
553.455	809.75
553.667	825.75
553.88	808.75
554.093	802.75
554.306	793.75
554.519	794.75
554.732	774.75
554.944	763.75
555.157	764.75
555.37	764.75
555.583	732.75
555.795	735.75
556.008	709.75
556.221	715.75
556.433	727.75
556.646	705.75
556.859	705.75
557.071	708.75
557.284	705.75
557.496	696.75
557.709	710.75
557.921	711.75
558.134	667.75
558.346	697.75
558.559	665.75
558.771	681.75
558.984	674.75
559.196	664.75
559.409	686.75
559.621	677.75
559.833	675.75
560.046	665.75
560.258	668.75
560.47	655.75
560.683	658.75
560.895	692.75
561.107	653.75
561.32	667.75
561.532	673.75
561.744	676.75
561.956	688.75
562.168	684.75
562.381	646.75
562.593	667.75
562.805	697.75
563.017	648.75
563.229	677.75
563.441	673.75
563.653	658.75
563.865	683.75
564.077	676.75
564.289	674.75
564.501	699.75
564.713	695.75
564.925	709.75
565.137	731.75
565.349	720.75
565.561	730.75
565.773	762.75
565.985	791.75
566.197	806.75
566.408	826.75
566.62	860.75
566.832	872.75
567.044	880.75
567.255	902.75
567.467	905.75
567.679	913.75
567.891	946.75
568.102	950.75
568.314	901.75
568.526	866.75
568.737	838.75
568.949	793.75
569.161	763.75
569.372	725.75
569.584	696.75
569.795	676.75
570.007	706.75
570.218	656.75
570.43	672.75
570.641	651.75
570.853	630.75
571.064	635.75
571.276	635.75
571.487	607.75
571.698	620.75
571.91	602.75
572.121	600.75
572.333	590.75
572.544	564.75
572.755	538.75
572.966	562.75
573.178	551.75
573.389	556.75
573.6	549.75
573.811	546.75
574.023	533.75
574.234	534.75
574.445	562.75
574.656	547.75
574.867	537.75
575.078	514.75
575.289	538.75
575.501	506.75
575.712	523.75
575.923	533.75
576.134	523.75
576.345	517.75
576.556	522.75
576.767	515.75
576.978	492.75
577.188	495.75
577.399	489.75
577.61	500.75
577.821	476.75
578.032	496.75
578.243	478.75
578.454	496.75
578.665	489.75
578.875	475.75
579.086	466.75
579.297	475.75
579.508	483.75
579.718	484.75
579.929	486.75
580.14	478.75
580.35	467.75
580.561	458.75
580.772	466.75
580.982	463.75
581.193	478.75
581.403	448.75
581.614	484.75
581.825	453.75
582.035	440.75
582.246	469.75
582.456	449.75
582.667	464.75
582.877	436.75
583.087	449.75
583.298	441.75
583.508	446.75
583.719	431.75
583.929	470.75
584.139	451.75
584.35	446.75
584.56	435.75
584.77	444.75
584.981	444.75
585.191	434.75
585.401	442.75
585.611	425.75
585.821	426.75
586.032	434.75
586.242	440.75
586.452	434.75
586.662	434.75
586.872	418.75
587.082	441.75
587.292	430.75
587.502	431.75
587.713	441.75
587.923	419.75
588.133	427.75
588.343	433.75
588.553	416.75
588.762	417.75
588.972	419.75
589.182	489.75
589.392	480.75
589.602	450.75
589.812	488.75
590.022	466.75
590.232	418.75
590.441	444.75
590.651	427.75
590.861	417.75
591.071	435.75
591.281	443.75
591.49	454.75
591.7	466.75
591.91	459.75
592.119	459.75
592.329	430.75
592.539	448.75
592.748	453.75
592.958	470.75
593.167	473.75
593.377	479.75
593.587	469.75
593.796	464.75
594.006	480.75
594.215	464.75
594.424	475.75
594.634	458.75
594.843	449.75
595.053	440.75
595.262	454.75
595.472	439.75
595.681	440.75
595.89	406.75
596.1	412.75
596.309	433.75
596.518	420.75
596.727	400.75
596.937	393.75
597.146	399.75
597.355	383.75
597.564	387.75
597.774	376.75
597.983	377.75
598.192	376.75
598.401	370.75
598.61	378.75
598.819	370.75
599.028	375.75
599.237	374.75
599.446	358.75
599.655	366.75
599.864	373.75
600.073	363.75
600.282	358.75
600.491	357.75
600.7	352.75
600.909	364.75
601.118	353.75
601.327	354.75
601.536	347.75
601.745	377.75
601.953	354.75
602.162	362.75
602.371	355.75
602.58	332.75
602.789	347.75
602.997	337.75
603.206	339.75
603.415	336.75
603.623	341.75
603.832	336.75
604.041	331.75
604.249	329.75
604.458	327.75
604.666	361.75
604.875	337.75
605.084	327.75
605.292	328.75
605.501	336.75
605.709	352.75
605.918	326.75
606.126	336.75
606.334	326.75
606.543	338.75
606.751	331.75
606.96	323.75
607.168	323.75
607.376	310.75
607.585	318.75
607.793	330.75
608.001	322.75
608.21	302.75
608.418	325.75
608.626	327.75
608.834	315.75
609.043	318.75
609.251	311.75
609.459	304.75
609.667	313.75
609.875	308.75
610.083	320.75
610.291	326.75
610.499	320.75
610.707	322.75
610.916	312.75
611.124	301.75
611.332	321.75
611.54	323.75
611.748	313.75
611.955	321.75
612.163	304.75
612.371	307.75
612.579	296.75
612.787	300.75
612.995	327.75
613.203	311.75
613.411	317.75
613.618	300.75
613.826	314.75
614.034	310.75
614.242	309.75
614.449	298.75
614.657	303.75
614.865	318.75
615.072	315.75
615.28	295.75
615.488	312.75
615.695	304.75
615.903	292.75
616.111	304.75
616.318	304.75
616.526	303.75
616.733	289.75
616.941	306.75
617.148	304.75
617.356	304.75
617.563	313.75
617.771	306.75
617.978	298.75
618.185	306.75
618.393	284.75
618.6	315.75
618.807	302.75
619.015	326.75
619.222	287.75
619.429	283.75
619.637	294.75
619.844	292.75
620.051	278.75
620.258	295.75
620.466	291.75
620.673	281.75
620.88	292.75
621.087	281.75
621.294	288.75
621.501	280.75
621.708	279.75
621.915	254.75
622.122	282.75
622.329	284.75
622.536	290.75
622.743	276.75
622.95	285.75
623.157	276.75
623.364	276.75
623.571	277.75
623.778	274.75
623.985	283.75
624.192	268.75
624.399	276.75
624.606	279.75
624.812	278.75
625.019	272.75
625.226	291.75
625.433	256.75
625.639	245.75
625.846	261.75
626.053	258.75
626.259	247.75
626.466	267.75
626.673	263.75
626.879	256.75
627.086	242.75
627.293	240.75
627.499	257.75
627.706	240.75
627.912	249.75
628.119	251.75
628.325	251.75
628.532	246.75
628.738	249.75
628.945	245.75
629.151	262.75
629.357	244.75
629.564	254.75
629.77	248.75
629.976	246.75
630.183	236.75
630.389	252.75
630.595	251.75
630.802	232.75
631.008	239.75
631.214	233.75
631.42	232.75
631.627	243.75
631.833	231.75
632.039	218.75
632.245	227.75
632.451	226.75
632.657	229.75
632.863	231.75
633.069	217.75
633.275	239.75
633.481	214.75
633.688	246.75
633.893	218.75
634.099	224.75
634.305	222.75
634.511	214.75
634.717	221.75
634.923	226.75
635.129	218.75
635.335	221.75
635.541	220.75
635.747	213.75
635.952	218.75
636.158	222.75
636.364	223.75
636.57	232.75
636.775	204.75
636.981	228.75
637.187	214.75
637.392	229.75
637.598	229.75
637.804	228.75
638.009	214.75
638.215	197.75
638.421	227.75
638.626	217.75
638.832	213.75
639.037	216.75
639.243	224.75
639.448	220.75
639.654	223.75
639.859	211.75
640.065	217.75
640.27	219.75
640.475	219.75
640.681	210.75
640.886	210.75
641.091	212.75
641.297	221.75
641.502	217.75
641.707	201.75
641.913	201.75
642.118	219.75
642.323	204.75
642.528	211.75
642.733	213.75
642.939	226.75
643.144	212.75
643.349	215.75
643.554	221.75
643.759	202.75
643.964	203.75
644.169	201.75
644.374	196.75
644.579	197.75
644.784	222.75
644.989	216.75
645.194	224.75
645.399	201.75
645.604	187.75
645.809	199.75
646.014	204.75
646.219	215.75
646.423	197.75
646.628	201.75
646.833	196.75
647.038	210.75
647.243	218.75
647.447	198.75
647.652	214.75
647.857	219.75
648.062	202.75
648.266	205.75
648.471	200.75
648.676	209.75
648.88	206.75
649.085	213.75
649.289	201.75
649.494	184.75
649.698	189.75
649.903	208.75
650.107	207.75
650.312	199.75
650.516	190.75
650.721	210.75
650.925	190.75
651.13	184.75
651.334	200.75
651.539	190.75
651.743	186.75
651.947	183.75
652.152	202.75
652.356	202.75
652.56	181.75
652.764	152.75
652.969	162.75
653.173	185.75
653.377	161.75
653.581	182.75
653.785	165.75
653.99	169.75
654.194	150.75
654.398	163.75
654.602	166.75
654.806	169.75
655.01	152.75
655.214	177.75
655.418	173.75
655.622	165.75
655.826	154.75
656.03	163.75
656.234	158.75
656.438	169.75
656.642	147.75
656.846	152.75
657.049	138.75
657.253	158.75
657.457	136.75
657.661	130.75
657.865	145.75
658.068	132.75
658.272	151.75
658.476	140.75
658.68	119.75
658.883	116.75
659.087	119.75
659.291	122.75
659.494	116.75
659.698	94.75
659.901	100.75
660.105	111.75
660.309	99.75
660.512	95.75
660.716	92.75
660.919	96.75
661.123	102.75
661.326	92.75
661.53	96.75
661.733	98.75
661.936	114.75
662.14	91.75
662.343	84.75
662.546	80.75
662.75	80.75
662.953	93.75
663.156	82.75
663.36	86.75
663.563	74.75
663.766	87.75
663.969	75.75
664.173	80.75
664.376	76.75
664.579	80.75
664.782	74.75
664.985	87.75
665.188	80.75
665.391	88.75
665.594	81.75
665.797	73.75
666	72.75
666.203	82.75
666.406	81.75
666.609	73.75
666.812	88.75
667.015	88.75
667.218	73.75
667.421	96.75
667.624	76.75
667.827	70.75
668.03	70.75
668.232	97.75
668.435	73.75
668.638	86.75
668.841	87.75
669.043	78.75
669.246	92.75
669.449	72.75
669.651	91.75
669.854	99.75
670.057	91.75
670.259	91.75
670.462	93.75
670.665	59.75
670.867	81.75
671.07	84.75
671.272	75.75
671.475	73.75
671.677	88.75
671.88	82.75
672.082	71.75
672.284	89.75
672.487	89.75
672.689	78.75
672.892	85.75
