Data from NiCl2@0.5M.TitratingCurve.Agarose3%dH2O.NegLispCup.LampEnergy10.LIBS07252019_HRD10591_18-19-53-571.txt Node
Date: Thu Jul 25 18:19:53 EDT 2019
User: cochatt
Spectrometer: HR+D1059
Trigger mode: 1
Integration Time (sec): 1.000000E-1
Scans to average: 1
Electric dark correction enabled: true
Nonlinearity correction enabled: false
Boxcar width: 0
XAxis mode: Wavelengths
Number of Pixels in Spectrum: 2048
>>>>>Begin Spectral Data<<<<<
223.165	-12.25
223.4	-12.25
223.635	-12.25
223.869	-11.25
224.104	-20.25
224.338	-22.25
224.573	-12.25
224.808	-11.25
225.042	-20.25
225.277	-0.25
225.511	-9.25
225.746	12.75
225.98	-13.25
226.215	12.75
226.449	19.75
226.683	20.75
226.918	20.75
227.152	45.75
227.387	27.75
227.621	42.75
227.856	39.75
228.09	56.75
228.324	49.75
228.559	48.75
228.793	67.75
229.027	105.75
229.262	92.75
229.496	90.75
229.73	112.75
229.964	123.75
230.199	124.75
230.433	132.75
230.667	126.75
230.901	133.75
231.136	115.75
231.37	115.75
231.604	130.75
231.838	137.75
232.072	146.75
232.306	124.75
232.541	133.75
232.775	132.75
233.009	128.75
233.243	143.75
233.477	135.75
233.711	131.75
233.945	140.75
234.179	142.75
234.413	125.75
234.647	135.75
234.881	145.75
235.115	141.75
235.349	134.75
235.583	126.75
235.817	136.75
236.051	126.75
236.285	140.75
236.519	149.75
236.753	150.75
236.987	141.75
237.221	144.75
237.455	150.75
237.689	135.75
237.922	158.75
238.156	146.75
238.39	142.75
238.624	136.75
238.858	155.75
239.091	142.75
239.325	154.75
239.559	137.75
239.793	162.75
240.027	149.75
240.26	142.75
240.494	158.75
240.728	164.75
240.961	142.75
241.195	157.75
241.429	154.75
241.662	162.75
241.896	167.75
242.13	175.75
242.363	172.75
242.597	166.75
242.83	166.75
243.064	189.75
243.298	168.75
243.531	185.75
243.765	170.75
243.998	182.75
244.232	188.75
244.465	183.75
244.699	178.75
244.932	193.75
245.166	192.75
245.399	183.75
245.633	186.75
245.866	176.75
246.099	185.75
246.333	184.75
246.566	193.75
246.8	205.75
247.033	179.75
247.266	205.75
247.5	186.75
247.733	181.75
247.966	194.75
248.2	189.75
248.433	195.75
248.666	201.75
248.899	204.75
249.133	206.75
249.366	212.75
249.599	197.75
249.832	209.75
250.066	190.75
250.299	217.75
250.532	206.75
250.765	208.75
250.998	220.75
251.231	233.75
251.465	222.75
251.698	230.75
251.931	216.75
252.164	213.75
252.397	211.75
252.63	232.75
252.863	220.75
253.096	232.75
253.329	241.75
253.562	233.75
253.795	235.75
254.028	231.75
254.261	233.75
254.494	243.75
254.727	229.75
254.96	233.75
255.193	228.75
255.426	232.75
255.659	245.75
255.892	252.75
256.124	251.75
256.357	252.75
256.59	229.75
256.823	260.75
257.056	246.75
257.289	244.75
257.521	268.75
257.754	261.75
257.987	241.75
258.22	268.75
258.452	260.75
258.685	260.75
258.918	245.75
259.151	258.75
259.383	272.75
259.616	270.75
259.849	265.75
260.081	278.75
260.314	250.75
260.547	268.75
260.779	269.75
261.012	263.75
261.244	268.75
261.477	283.75
261.71	276.75
261.942	252.75
262.175	266.75
262.407	282.75
262.64	272.75
262.872	274.75
263.105	284.75
263.337	277.75
263.57	277.75
263.802	281.75
264.035	294.75
264.267	284.75
264.499	284.75
264.732	285.75
264.964	278.75
265.197	271.75
265.429	281.75
265.661	289.75
265.894	309.75
266.126	310.75
266.358	300.75
266.591	312.75
266.823	309.75
267.055	301.75
267.287	290.75
267.52	292.75
267.752	305.75
267.984	302.75
268.216	297.75
268.448	313.75
268.681	312.75
268.913	310.75
269.145	307.75
269.377	317.75
269.609	320.75
269.841	317.75
270.073	320.75
270.306	325.75
270.538	315.75
270.77	301.75
271.002	291.75
271.234	308.75
271.466	337.75
271.698	324.75
271.93	329.75
272.162	336.75
272.394	330.75
272.626	310.75
272.858	314.75
273.09	333.75
273.322	326.75
273.553	324.75
273.785	341.75
274.017	334.75
274.249	335.75
274.481	332.75
274.713	349.75
274.945	328.75
275.176	346.75
275.408	345.75
275.64	355.75
275.872	353.75
276.104	351.75
276.335	348.75
276.567	356.75
276.799	331.75
277.031	361.75
277.262	353.75
277.494	357.75
277.726	360.75
277.957	376.75
278.189	374.75
278.421	362.75
278.652	359.75
278.884	344.75
279.115	365.75
279.347	362.75
279.579	382.75
279.81	383.75
280.042	374.75
280.273	390.75
280.505	377.75
280.736	405.75
280.968	388.75
281.199	376.75
281.431	381.75
281.662	387.75
281.894	374.75
282.125	392.75
282.356	406.75
282.588	374.75
282.819	394.75
283.051	390.75
283.282	377.75
283.513	398.75
283.745	402.75
283.976	407.75
284.207	406.75
284.439	406.75
284.67	388.75
284.901	434.75
285.132	415.75
285.364	390.75
285.595	401.75
285.826	400.75
286.057	422.75
286.288	422.75
286.52	393.75
286.751	405.75
286.982	424.75
287.213	419.75
287.444	409.75
287.675	406.75
287.906	423.75
288.138	408.75
288.369	427.75
288.6	410.75
288.831	422.75
289.062	406.75
289.293	426.75
289.524	442.75
289.755	429.75
289.986	448.75
290.217	411.75
290.448	476.75
290.679	440.75
290.91	426.75
291.141	416.75
291.371	432.75
291.602	409.75
291.833	436.75
292.064	441.75
292.295	426.75
292.526	437.75
292.757	424.75
292.987	428.75
293.218	451.75
293.449	458.75
293.68	427.75
293.91	440.75
294.141	429.75
294.372	440.75
294.603	444.75
294.833	427.75
295.064	452.75
295.295	460.75
295.525	443.75
295.756	456.75
295.987	434.75
296.217	472.75
296.448	462.75
296.679	454.75
296.909	454.75
297.14	460.75
297.37	448.75
297.601	471.75
297.831	461.75
298.062	482.75
298.292	494.75
298.523	473.75
298.753	472.75
298.984	484.75
299.214	479.75
299.445	475.75
299.675	491.75
299.905	485.75
300.136	489.75
300.366	486.75
300.597	525.75
300.827	506.75
301.057	500.75
301.288	507.75
301.518	513.75
301.748	523.75
301.979	512.75
302.209	518.75
302.439	518.75
302.669	511.75
302.9	513.75
303.13	480.75
303.36	487.75
303.59	510.75
303.82	515.75
304.051	494.75
304.281	506.75
304.511	499.75
304.741	504.75
304.971	507.75
305.201	503.75
305.431	512.75
305.661	521.75
305.891	513.75
306.121	513.75
306.352	489.75
306.582	523.75
306.812	501.75
307.042	501.75
307.272	526.75
307.502	482.75
307.731	510.75
307.961	504.75
308.191	515.75
308.421	509.75
308.651	514.75
308.881	495.75
309.111	492.75
309.341	538.75
309.571	516.75
309.8	503.75
310.03	510.75
310.26	527.75
310.49	510.75
310.72	522.75
310.949	520.75
311.179	529.75
311.409	521.75
311.639	507.75
311.868	515.75
312.098	529.75
312.328	521.75
312.557	539.75
312.787	519.75
313.017	540.75
313.246	557.75
313.476	551.75
313.706	543.75
313.935	558.75
314.165	551.75
314.394	553.75
314.624	532.75
314.853	543.75
315.083	546.75
315.312	549.75
315.542	547.75
315.771	553.75
316.001	522.75
316.23	525.75
316.46	538.75
316.689	551.75
316.919	554.75
317.148	564.75
317.377	571.75
317.607	541.75
317.836	532.75
318.065	538.75
318.295	534.75
318.524	512.75
318.753	520.75
318.983	525.75
319.212	566.75
319.441	538.75
319.67	524.75
319.9	552.75
320.129	552.75
320.358	559.75
320.587	570.75
320.816	526.75
321.046	554.75
321.275	540.75
321.504	550.75
321.733	562.75
321.962	560.75
322.191	566.75
322.42	552.75
322.649	561.75
322.878	536.75
323.108	558.75
323.337	538.75
323.566	560.75
323.795	556.75
324.024	554.75
324.253	558.75
324.482	548.75
324.71	573.75
324.939	574.75
325.168	565.75
325.397	557.75
325.626	583.75
325.855	596.75
326.084	600.75
326.313	603.75
326.542	586.75
326.77	618.75
326.999	598.75
327.228	605.75
327.457	589.75
327.686	586.75
327.914	602.75
328.143	589.75
328.372	574.75
328.6	588.75
328.829	599.75
329.058	585.75
329.287	605.75
329.515	611.75
329.744	592.75
329.972	591.75
330.201	588.75
330.43	596.75
330.658	599.75
330.887	617.75
331.115	611.75
331.344	630.75
331.572	632.75
331.801	621.75
332.03	664.75
332.258	640.75
332.486	644.75
332.715	674.75
332.943	693.75
333.172	715.75
333.4	732.75
333.629	743.75
333.857	772.75
334.085	724.75
334.314	726.75
334.542	745.75
334.771	721.75
334.999	707.75
335.227	704.75
335.455	701.75
335.684	709.75
335.912	703.75
336.14	697.75
336.369	697.75
336.597	716.75
336.825	725.75
337.053	702.75
337.281	699.75
337.51	678.75
337.738	692.75
337.966	685.75
338.194	696.75
338.422	678.75
338.65	654.75
338.878	642.75
339.106	654.75
339.334	665.75
339.562	638.75
339.79	624.75
340.018	638.75
340.246	620.75
340.474	633.75
340.702	619.75
340.93	624.75
341.158	636.75
341.386	665.75
341.614	645.75
341.842	626.75
342.07	618.75
342.298	617.75
342.526	640.75
342.754	621.75
342.981	611.75
343.209	632.75
343.437	674.75
343.665	705.75
343.893	708.75
344.12	722.75
344.348	711.75
344.576	688.75
344.804	703.75
345.031	646.75
345.259	641.75
345.487	654.75
345.714	656.75
345.942	668.75
346.17	642.75
346.397	647.75
346.625	634.75
346.853	609.75
347.08	592.75
347.308	597.75
347.535	609.75
347.763	613.75
347.99	614.75
348.218	616.75
348.445	578.75
348.673	602.75
348.9	594.75
349.128	600.75
349.355	611.75
349.583	605.75
349.81	582.75
350.037	615.75
350.265	560.75
350.492	573.75
350.72	573.75
350.947	582.75
351.174	610.75
351.402	607.75
351.629	599.75
351.856	574.75
352.083	587.75
352.311	610.75
352.538	605.75
352.765	624.75
352.992	582.75
353.22	572.75
353.447	572.75
353.674	563.75
353.901	570.75
354.128	581.75
354.355	554.75
354.583	578.75
354.81	578.75
355.037	561.75
355.264	577.75
355.491	581.75
355.718	565.75
355.945	569.75
356.172	560.75
356.399	586.75
356.626	573.75
356.853	592.75
357.08	579.75
357.307	586.75
357.534	584.75
357.761	588.75
357.988	584.75
358.215	560.75
358.441	566.75
358.668	564.75
358.895	578.75
359.122	582.75
359.349	569.75
359.576	571.75
359.802	582.75
360.029	582.75
360.256	574.75
360.483	564.75
360.709	568.75
360.936	570.75
361.163	606.75
361.39	587.75
361.616	588.75
361.843	598.75
362.07	633.75
362.296	602.75
362.523	561.75
362.749	557.75
362.976	556.75
363.203	580.75
363.429	550.75
363.656	550.75
363.882	579.75
364.109	571.75
364.335	569.75
364.562	590.75
364.788	556.75
365.015	568.75
365.241	561.75
365.468	572.75
365.694	579.75
365.92	555.75
366.147	562.75
366.373	549.75
366.599	566.75
366.826	576.75
367.052	568.75
367.278	566.75
367.505	588.75
367.731	576.75
367.957	590.75
368.184	588.75
368.41	558.75
368.636	578.75
368.862	579.75
369.089	542.75
369.315	566.75
369.541	578.75
369.767	591.75
369.993	596.75
370.219	579.75
370.445	599.75
370.672	576.75
370.898	580.75
371.124	601.75
371.35	595.75
371.576	594.75
371.802	584.75
372.028	601.75
372.254	600.75
372.48	616.75
372.706	628.75
372.932	651.75
373.158	610.75
373.384	631.75
373.61	613.75
373.835	599.75
374.061	616.75
374.287	604.75
374.513	629.75
374.739	632.75
374.965	639.75
375.191	647.75
375.416	657.75
375.642	630.75
375.868	629.75
376.094	605.75
376.319	634.75
376.545	618.75
376.771	610.75
376.997	605.75
377.222	612.75
377.448	596.75
377.674	593.75
377.899	585.75
378.125	577.75
378.35	607.75
378.576	599.75
378.802	588.75
379.027	594.75
379.253	583.75
379.478	587.75
379.704	570.75
379.929	586.75
380.155	594.75
380.38	594.75
380.606	598.75
380.831	594.75
381.057	588.75
381.282	583.75
381.507	604.75
381.733	602.75
381.958	617.75
382.184	608.75
382.409	612.75
382.634	590.75
382.86	620.75
383.085	602.75
383.31	632.75
383.535	602.75
383.761	630.75
383.986	658.75
384.211	649.75
384.436	673.75
384.662	684.75
384.887	670.75
385.112	699.75
385.337	682.75
385.562	701.75
385.787	706.75
386.013	713.75
386.238	677.75
386.463	689.75
386.688	709.75
386.913	681.75
387.138	676.75
387.363	700.75
387.588	693.75
387.813	712.75
388.038	704.75
388.263	701.75
388.488	698.75
388.713	688.75
388.938	700.75
389.163	707.75
389.387	688.75
389.612	688.75
389.837	696.75
390.062	690.75
390.287	700.75
390.512	694.75
390.736	696.75
390.961	701.75
391.186	723.75
391.411	741.75
391.636	739.75
391.86	744.75
392.085	781.75
392.31	753.75
392.534	722.75
392.759	738.75
392.984	770.75
393.208	741.75
393.433	718.75
393.658	729.75
393.882	741.75
394.107	738.75
394.331	731.75
394.556	740.75
394.78	736.75
395.005	742.75
395.229	772.75
395.454	774.75
395.678	762.75
395.903	797.75
396.127	781.75
396.352	760.75
396.576	740.75
396.801	741.75
397.025	745.75
397.249	792.75
397.474	768.75
397.698	774.75
397.922	796.75
398.147	796.75
398.371	786.75
398.595	851.75
398.82	828.75
399.044	939.75
399.268	982.75
399.492	1112.75
399.717	1136.75
399.941	1159.75
400.165	1086.75
400.389	1026.75
400.613	952.75
400.837	909.75
401.062	893.75
401.286	880.75
401.51	881.75
401.734	856.75
401.958	874.75
402.182	868.75
402.406	881.75
402.63	901.75
402.854	896.75
403.078	882.75
403.302	894.75
403.526	926.75
403.75	933.75
403.974	940.75
404.198	910.75
404.422	970.75
404.645	954.75
404.869	958.75
405.093	906.75
405.317	933.75
405.541	932.75
405.765	927.75
405.988	944.75
406.212	932.75
406.436	941.75
406.66	965.75
406.883	983.75
407.107	993.75
407.331	1053.75
407.555	1088.75
407.778	1060.75
408.002	1047.75
408.226	1027.75
408.449	1038.75
408.673	977.75
408.896	952.75
409.12	998.75
409.344	989.75
409.567	948.75
409.791	970.75
410.014	924.75
410.238	922.75
410.461	950.75
410.685	946.75
410.908	921.75
411.132	919.75
411.355	905.75
411.578	897.75
411.802	922.75
412.025	929.75
412.249	924.75
412.472	907.75
412.695	877.75
412.919	891.75
413.142	884.75
413.365	882.75
413.589	882.75
413.812	868.75
414.035	880.75
414.258	875.75
414.482	886.75
414.705	895.75
414.928	898.75
415.151	877.75
415.374	903.75
415.597	882.75
415.821	862.75
416.044	857.75
416.267	858.75
416.49	858.75
416.713	834.75
416.936	852.75
417.159	864.75
417.382	844.75
417.605	843.75
417.828	828.75
418.051	841.75
418.274	858.75
418.497	851.75
418.72	866.75
418.943	876.75
419.166	948.75
419.389	962.75
419.611	987.75
419.834	950.75
420.057	903.75
420.28	884.75
420.503	861.75
420.726	869.75
420.948	861.75
421.171	875.75
421.394	853.75
421.617	870.75
421.839	872.75
422.062	882.75
422.285	845.75
422.507	884.75
422.73	878.75
422.953	884.75
423.175	882.75
423.398	909.75
423.621	890.75
423.843	925.75
424.066	884.75
424.288	888.75
424.511	894.75
424.733	889.75
424.956	889.75
425.178	874.75
425.401	881.75
425.623	857.75
425.846	860.75
426.068	864.75
426.291	866.75
426.513	840.75
426.735	821.75
426.958	842.75
427.18	805.75
427.402	829.75
427.625	802.75
427.847	809.75
428.069	832.75
428.292	818.75
428.514	822.75
428.736	799.75
428.958	787.75
429.181	769.75
429.403	799.75
429.625	802.75
429.847	803.75
430.069	804.75
430.292	765.75
430.514	786.75
430.736	794.75
430.958	792.75
431.18	789.75
431.402	805.75
431.624	825.75
431.846	813.75
432.068	806.75
432.29	811.75
432.512	794.75
432.734	796.75
432.956	810.75
433.178	860.75
433.4	836.75
433.622	825.75
433.844	808.75
434.066	830.75
434.287	837.75
434.509	854.75
434.731	874.75
434.953	896.75
435.175	873.75
435.397	874.75
435.618	859.75
435.84	844.75
436.062	835.75
436.284	829.75
436.505	827.75
436.727	826.75
436.949	829.75
437.17	822.75
437.392	790.75
437.614	810.75
437.835	797.75
438.057	795.75
438.278	798.75
438.5	748.75
438.721	788.75
438.943	802.75
439.165	805.75
439.386	782.75
439.608	802.75
439.829	807.75
440.05	839.75
440.272	822.75
440.493	813.75
440.715	828.75
440.936	851.75
441.158	861.75
441.379	885.75
441.6	890.75
441.822	887.75
442.043	890.75
442.264	888.75
442.486	888.75
442.707	874.75
442.928	875.75
443.149	911.75
443.371	928.75
443.592	894.75
443.813	933.75
444.034	915.75
444.255	926.75
444.476	958.75
444.698	1009.75
444.919	1013.75
445.14	1120.75
445.361	1035.75
445.582	919.75
445.803	894.75
446.024	869.75
446.245	868.75
446.466	845.75
446.687	845.75
446.908	845.75
447.129	822.75
447.35	792.75
447.571	794.75
447.792	777.75
448.013	792.75
448.234	768.75
448.455	801.75
448.675	779.75
448.896	780.75
449.117	755.75
449.338	756.75
449.559	748.75
449.779	758.75
450	768.75
450.221	757.75
450.442	748.75
450.662	774.75
450.883	772.75
451.104	776.75
451.324	770.75
451.545	790.75
451.766	762.75
451.986	741.75
452.207	742.75
452.428	734.75
452.648	747.75
452.869	736.75
453.089	728.75
453.31	713.75
453.53	728.75
453.751	720.75
453.971	732.75
454.192	740.75
454.412	735.75
454.633	752.75
454.853	735.75
455.073	726.75
455.294	713.75
455.514	750.75
455.734	752.75
455.955	722.75
456.175	729.75
456.395	707.75
456.616	709.75
456.836	737.75
457.056	737.75
457.276	702.75
457.497	743.75
457.717	726.75
457.937	721.75
458.157	741.75
458.377	760.75
458.598	772.75
458.818	741.75
459.038	800.75
459.258	784.75
459.478	814.75
459.698	850.75
459.918	876.75
460.138	894.75
460.358	938.75
460.578	935.75
460.798	953.75
461.018	948.75
461.238	947.75
461.458	974.75
461.678	956.75
461.898	917.75
462.118	953.75
462.338	994.75
462.558	1030.75
462.777	1069.75
462.997	1104.75
463.217	1172.75
463.437	1204.75
463.657	1099.75
463.876	1085.75
464.096	1094.75
464.316	1102.75
464.536	1084.75
464.755	1039.75
464.975	1018.75
465.195	986.75
465.414	940.75
465.634	900.75
465.854	860.75
466.073	858.75
466.293	848.75
466.512	835.75
466.732	822.75
466.951	812.75
467.171	817.75
467.391	808.75
467.61	819.75
467.829	782.75
468.049	828.75
468.268	774.75
468.488	798.75
468.707	798.75
468.927	807.75
469.146	787.75
469.365	803.75
469.585	787.75
469.804	809.75
470.023	808.75
470.243	819.75
470.462	842.75
470.681	820.75
470.901	819.75
471.12	825.75
471.339	808.75
471.558	819.75
471.777	838.75
471.997	779.75
472.216	761.75
472.435	788.75
472.654	747.75
472.873	774.75
473.092	772.75
473.311	771.75
473.53	779.75
473.749	783.75
473.968	762.75
474.187	789.75
474.406	778.75
474.625	794.75
474.844	782.75
475.063	817.75
475.282	792.75
475.501	786.75
475.72	782.75
475.939	805.75
476.158	800.75
476.377	804.75
476.596	842.75
476.814	822.75
477.033	809.75
477.252	842.75
477.471	832.75
477.69	857.75
477.908	893.75
478.127	901.75
478.346	877.75
478.564	927.75
478.783	900.75
479.002	929.75
479.22	947.75
479.439	958.75
479.658	932.75
479.876	945.75
480.095	975.75
480.313	958.75
480.532	998.75
480.751	1009.75
480.969	938.75
481.188	938.75
481.406	925.75
481.624	907.75
481.843	926.75
482.061	921.75
482.28	916.75
482.498	892.75
482.717	895.75
482.935	908.75
483.153	906.75
483.372	894.75
483.59	939.75
483.808	936.75
484.027	919.75
484.245	928.75
484.463	921.75
484.681	916.75
484.9	929.75
485.118	952.75
485.336	936.75
485.554	941.75
485.772	924.75
485.99	940.75
486.209	952.75
486.427	962.75
486.645	953.75
486.863	924.75
487.081	933.75
487.299	938.75
487.517	949.75
487.735	952.75
487.953	954.75
488.171	974.75
488.389	942.75
488.607	958.75
488.825	942.75
489.043	923.75
489.261	911.75
489.479	922.75
489.696	932.75
489.914	942.75
490.132	960.75
490.35	949.75
490.568	961.75
490.786	951.75
491.003	971.75
491.221	952.75
491.439	964.75
491.657	974.75
491.874	998.75
492.092	1020.75
492.31	1000.75
492.527	969.75
492.745	962.75
492.963	984.75
493.18	1000.75
493.398	1005.75
493.615	999.75
493.833	1006.75
494.05	1014.75
494.268	1008.75
494.485	1015.75
494.703	1000.75
494.92	1011.75
495.138	1054.75
495.355	987.75
495.573	1001.75
495.79	1008.75
496.008	1051.75
496.225	1053.75
496.442	1068.75
496.66	1074.75
496.877	1047.75
497.094	1081.75
497.312	1107.75
497.529	1101.75
497.746	1152.75
497.963	1156.75
498.181	1222.75
498.398	1290.75
498.615	1299.75
498.832	1342.75
499.049	1451.75
499.267	1566.75
499.484	1655.75
499.701	1805.75
499.918	1914.75
500.135	2128.75
500.352	2355.75
500.569	2381.75
500.786	2387.75
501.003	2226.75
501.22	2062.75
501.437	1955.75
501.654	1725.75
501.871	1595.75
502.088	1538.75
502.305	1436.75
502.522	1393.75
502.739	1305.75
502.956	1264.75
503.172	1222.75
503.389	1173.75
503.606	1163.75
503.823	1136.75
504.04	1110.75
504.256	1102.75
504.473	1150.75
504.69	1121.75
504.907	1133.75
505.123	1056.75
505.34	1006.75
505.557	970.75
505.773	957.75
505.99	970.75
506.207	937.75
506.423	937.75
506.64	912.75
506.856	893.75
507.073	868.75
507.289	884.75
507.506	877.75
507.722	869.75
507.939	871.75
508.155	840.75
508.372	850.75
508.588	868.75
508.805	809.75
509.021	829.75
509.238	809.75
509.454	817.75
509.67	852.75
509.887	813.75
510.103	801.75
510.319	807.75
510.536	812.75
510.752	776.75
510.968	786.75
511.184	806.75
511.401	820.75
511.617	797.75
511.833	768.75
512.049	821.75
512.265	796.75
512.481	765.75
512.698	776.75
512.914	790.75
513.13	781.75
513.346	804.75
513.562	816.75
513.778	810.75
513.994	779.75
514.21	807.75
514.426	816.75
514.642	802.75
514.858	833.75
515.074	830.75
515.29	820.75
515.506	809.75
515.721	848.75
515.937	812.75
516.153	838.75
516.369	877.75
516.585	893.75
516.801	900.75
517.016	920.75
517.232	972.75
517.448	971.75
517.664	1015.75
517.879	1004.75
518.095	1024.75
518.311	1004.75
518.527	963.75
518.742	947.75
518.958	876.75
519.173	880.75
519.389	866.75
519.605	866.75
519.82	824.75
520.036	828.75
520.251	835.75
520.467	805.75
520.682	782.75
520.898	809.75
521.113	769.75
521.329	755.75
521.544	772.75
521.76	770.75
521.975	786.75
522.19	749.75
522.406	741.75
522.621	760.75
522.836	728.75
523.052	754.75
523.267	757.75
523.482	769.75
523.698	717.75
523.913	695.75
524.128	724.75
524.343	734.75
524.559	747.75
524.774	724.75
524.989	716.75
525.204	737.75
525.419	693.75
525.634	724.75
525.849	718.75
526.064	715.75
526.28	711.75
526.495	707.75
526.71	702.75
526.925	739.75
527.14	704.75
527.355	693.75
527.57	691.75
527.785	721.75
527.999	716.75
528.214	709.75
528.429	748.75
528.644	731.75
528.859	742.75
529.074	712.75
529.289	704.75
529.503	728.75
529.718	706.75
529.933	713.75
530.148	692.75
530.363	712.75
530.577	693.75
530.792	709.75
531.007	708.75
531.221	714.75
531.436	688.75
531.651	701.75
531.865	701.75
532.08	694.75
532.295	695.75
532.509	691.75
532.724	694.75
532.938	684.75
533.153	713.75
533.367	704.75
533.582	700.75
533.796	707.75
534.011	694.75
534.225	685.75
534.44	680.75
534.654	694.75
534.868	678.75
535.083	689.75
535.297	711.75
535.511	716.75
535.726	690.75
535.94	692.75
536.154	678.75
536.369	679.75
536.583	638.75
536.797	660.75
537.011	655.75
537.225	641.75
537.44	654.75
537.654	655.75
537.868	646.75
538.082	635.75
538.296	668.75
538.51	655.75
538.724	651.75
538.938	653.75
539.153	669.75
539.367	629.75
539.581	630.75
539.795	640.75
540.009	626.75
540.222	621.75
540.436	611.75
540.65	638.75
540.864	644.75
541.078	645.75
541.292	658.75
541.506	645.75
541.72	644.75
541.934	660.75
542.147	660.75
542.361	653.75
542.575	642.75
542.789	648.75
543.002	624.75
543.216	616.75
543.43	636.75
543.644	621.75
543.857	627.75
544.071	637.75
544.285	645.75
544.498	652.75
544.712	637.75
544.925	636.75
545.139	663.75
545.352	655.75
545.566	678.75
545.779	641.75
545.993	638.75
546.206	651.75
546.42	644.75
546.633	657.75
546.847	662.75
547.06	659.75
547.274	663.75
547.487	662.75
547.7	665.75
547.914	658.75
548.127	668.75
548.34	649.75
548.554	669.75
548.767	669.75
548.98	657.75
549.193	658.75
549.407	652.75
549.62	642.75
549.833	652.75
550.046	649.75
550.259	643.75
550.473	659.75
550.686	645.75
550.899	657.75
551.112	622.75
551.325	633.75
551.538	643.75
551.751	636.75
551.964	639.75
552.177	636.75
552.39	636.75
552.603	681.75
552.816	659.75
553.029	660.75
553.242	684.75
553.455	697.75
553.667	701.75
553.88	681.75
554.093	662.75
554.306	665.75
554.519	644.75
554.732	635.75
554.944	655.75
555.157	632.75
555.37	635.75
555.583	627.75
555.795	625.75
556.008	586.75
556.221	612.75
556.433	570.75
556.646	583.75
556.859	563.75
557.071	564.75
557.284	588.75
557.496	557.75
557.709	574.75
557.921	570.75
558.134	579.75
558.346	545.75
558.559	548.75
558.771	562.75
558.984	555.75
559.196	548.75
559.409	555.75
559.621	545.75
559.833	556.75
560.046	556.75
560.258	563.75
560.47	564.75
560.683	562.75
560.895	557.75
561.107	553.75
561.32	516.75
561.532	529.75
561.744	540.75
561.956	547.75
562.168	527.75
562.381	559.75
562.593	539.75
562.805	553.75
563.017	553.75
563.229	552.75
563.441	563.75
563.653	538.75
563.865	546.75
564.077	555.75
564.289	553.75
564.501	580.75
564.713	570.75
564.925	577.75
565.137	580.75
565.349	611.75
565.561	604.75
565.773	636.75
565.985	660.75
566.197	677.75
566.408	671.75
566.62	777.75
566.832	772.75
567.044	813.75
567.255	816.75
567.467	824.75
567.679	806.75
567.891	878.75
568.102	875.75
568.314	848.75
568.526	783.75
568.737	747.75
568.949	678.75
569.161	629.75
569.372	610.75
569.584	592.75
569.795	577.75
570.007	570.75
570.218	545.75
570.43	562.75
570.641	553.75
570.853	561.75
571.064	533.75
571.276	518.75
571.487	529.75
571.698	520.75
571.91	494.75
572.121	493.75
572.333	493.75
572.544	484.75
572.755	477.75
572.966	472.75
573.178	472.75
573.389	460.75
573.6	431.75
573.811	419.75
574.023	450.75
574.234	471.75
574.445	429.75
574.656	433.75
574.867	424.75
575.078	458.75
575.289	436.75
575.501	455.75
575.712	422.75
575.923	430.75
576.134	416.75
576.345	434.75
576.556	407.75
576.767	406.75
576.978	398.75
577.188	414.75
577.399	419.75
577.61	399.75
577.821	416.75
578.032	397.75
578.243	401.75
578.454	393.75
578.665	413.75
578.875	392.75
579.086	396.75
579.297	376.75
579.508	393.75
579.718	409.75
579.929	380.75
580.14	379.75
580.35	386.75
580.561	384.75
580.772	386.75
580.982	387.75
581.193	380.75
581.403	388.75
581.614	382.75
581.825	381.75
582.035	385.75
582.246	377.75
582.456	376.75
582.667	385.75
582.877	384.75
583.087	381.75
583.298	368.75
583.508	376.75
583.719	382.75
583.929	356.75
584.139	372.75
584.35	358.75
584.56	365.75
584.77	354.75
584.981	348.75
585.191	360.75
585.401	354.75
585.611	346.75
585.821	352.75
586.032	355.75
586.242	354.75
586.452	361.75
586.662	352.75
586.872	361.75
587.082	364.75
587.292	356.75
587.502	352.75
587.713	362.75
587.923	362.75
588.133	340.75
588.343	348.75
588.553	353.75
588.762	366.75
588.972	377.75
589.182	418.75
589.392	422.75
589.602	366.75
589.812	396.75
590.022	376.75
590.232	354.75
590.441	371.75
590.651	350.75
590.861	355.75
591.071	354.75
591.281	367.75
591.49	362.75
591.7	349.75
591.91	373.75
592.119	350.75
592.329	378.75
592.539	384.75
592.748	411.75
592.958	410.75
593.167	410.75
593.377	429.75
593.587	424.75
593.796	416.75
594.006	406.75
594.215	416.75
594.424	403.75
594.634	418.75
594.843	424.75
595.053	387.75
595.262	379.75
595.472	365.75
595.681	349.75
595.89	359.75
596.1	344.75
596.309	364.75
596.518	363.75
596.727	329.75
596.937	325.75
597.146	333.75
597.355	336.75
597.564	322.75
597.774	324.75
597.983	328.75
598.192	329.75
598.401	319.75
598.61	312.75
598.819	304.75
599.028	305.75
599.237	297.75
599.446	325.75
599.655	301.75
599.864	318.75
600.073	296.75
600.282	306.75
600.491	308.75
600.7	308.75
600.909	302.75
601.118	299.75
601.327	299.75
601.536	297.75
601.745	299.75
601.953	297.75
602.162	316.75
602.371	285.75
602.58	297.75
602.789	299.75
602.997	293.75
603.206	297.75
603.415	277.75
603.623	299.75
603.832	284.75
604.041	297.75
604.249	287.75
604.458	286.75
604.666	288.75
604.875	257.75
605.084	286.75
605.292	313.75
605.501	279.75
605.709	290.75
605.918	285.75
606.126	276.75
606.334	265.75
606.543	288.75
606.751	278.75
606.96	287.75
607.168	270.75
607.376	271.75
607.585	288.75
607.793	292.75
608.001	279.75
608.21	264.75
608.418	274.75
608.626	263.75
608.834	273.75
609.043	286.75
609.251	270.75
609.459	261.75
609.667	262.75
609.875	291.75
610.083	264.75
610.291	270.75
610.499	267.75
610.707	270.75
610.916	243.75
611.124	274.75
611.332	272.75
611.54	266.75
611.748	278.75
611.955	247.75
612.163	269.75
612.371	267.75
612.579	280.75
612.787	264.75
612.995	289.75
613.203	276.75
613.411	258.75
613.618	284.75
613.826	274.75
614.034	275.75
614.242	261.75
614.449	262.75
614.657	266.75
614.865	275.75
615.072	268.75
615.28	265.75
615.488	264.75
615.695	245.75
615.903	270.75
616.111	261.75
616.318	252.75
616.526	263.75
616.733	269.75
616.941	263.75
617.148	259.75
617.356	244.75
617.563	248.75
617.771	256.75
617.978	246.75
618.185	259.75
618.393	272.75
618.6	270.75
618.807	253.75
619.015	253.75
619.222	236.75
619.429	246.75
619.637	245.75
619.844	266.75
620.051	254.75
620.258	232.75
620.466	245.75
620.673	236.75
620.88	234.75
621.087	254.75
621.294	232.75
621.501	256.75
621.708	250.75
621.915	238.75
622.122	245.75
622.329	242.75
622.536	259.75
622.743	248.75
622.95	237.75
623.157	226.75
623.364	232.75
623.571	230.75
623.778	234.75
623.985	235.75
624.192	244.75
624.399	219.75
624.606	233.75
624.812	236.75
625.019	243.75
625.226	228.75
625.433	233.75
625.639	226.75
625.846	215.75
626.053	227.75
626.259	223.75
626.466	217.75
626.673	228.75
626.879	208.75
627.086	229.75
627.293	238.75
627.499	218.75
627.706	204.75
627.912	214.75
628.119	212.75
628.325	218.75
628.532	208.75
628.738	194.75
628.945	210.75
629.151	229.75
629.357	218.75
629.564	216.75
629.77	212.75
629.976	224.75
630.183	208.75
630.389	202.75
630.595	208.75
630.802	208.75
631.008	201.75
631.214	200.75
631.42	226.75
631.627	205.75
631.833	196.75
632.039	204.75
632.245	212.75
632.451	201.75
632.657	200.75
632.863	209.75
633.069	205.75
633.275	193.75
633.481	207.75
633.688	204.75
633.893	194.75
634.099	202.75
634.305	188.75
634.511	185.75
634.717	189.75
634.923	185.75
635.129	192.75
635.335	196.75
635.541	194.75
635.747	205.75
635.952	199.75
636.158	188.75
636.364	189.75
636.57	186.75
636.775	193.75
636.981	192.75
637.187	199.75
637.392	183.75
637.598	182.75
637.804	172.75
638.009	192.75
638.215	186.75
638.421	180.75
638.626	184.75
638.832	189.75
639.037	177.75
639.243	179.75
639.448	192.75
639.654	182.75
639.859	209.75
640.065	196.75
640.27	201.75
640.475	186.75
640.681	170.75
640.886	200.75
641.091	191.75
641.297	198.75
641.502	206.75
641.707	170.75
641.913	188.75
642.118	171.75
642.323	194.75
642.528	188.75
642.733	170.75
642.939	168.75
643.144	171.75
643.349	188.75
643.554	179.75
643.759	184.75
643.964	162.75
644.169	176.75
644.374	179.75
644.579	180.75
644.784	172.75
644.989	172.75
645.194	172.75
645.399	187.75
645.604	190.75
645.809	179.75
646.014	177.75
646.219	180.75
646.423	185.75
646.628	190.75
646.833	193.75
647.038	179.75
647.243	186.75
647.447	189.75
647.652	186.75
647.857	201.75
648.062	182.75
648.266	186.75
648.471	197.75
648.676	194.75
648.88	171.75
649.085	182.75
649.289	176.75
649.494	194.75
649.698	184.75
649.903	186.75
650.107	177.75
650.312	178.75
650.516	164.75
650.721	171.75
650.925	173.75
651.13	163.75
651.334	170.75
651.539	166.75
651.743	167.75
651.947	163.75
652.152	161.75
652.356	183.75
652.56	161.75
652.764	158.75
652.969	146.75
653.173	154.75
653.377	154.75
653.581	166.75
653.785	164.75
653.99	148.75
654.194	147.75
654.398	168.75
654.602	154.75
654.806	140.75
655.01	150.75
655.214	154.75
655.418	159.75
655.622	150.75
655.826	152.75
656.03	163.75
656.234	156.75
656.438	156.75
656.642	157.75
656.846	150.75
657.049	147.75
657.253	157.75
657.457	145.75
657.661	146.75
657.865	117.75
658.068	121.75
658.272	118.75
658.476	109.75
658.68	114.75
658.883	126.75
659.087	116.75
659.291	108.75
659.494	103.75
659.698	113.75
659.901	109.75
660.105	102.75
660.309	102.75
660.512	98.75
660.716	109.75
660.919	108.75
661.123	94.75
661.326	110.75
661.53	101.75
661.733	108.75
661.936	89.75
662.14	91.75
662.343	93.75
662.546	84.75
662.75	71.75
662.953	78.75
663.156	96.75
663.36	94.75
663.563	82.75
663.766	77.75
663.969	80.75
664.173	91.75
664.376	84.75
664.579	95.75
664.782	83.75
664.985	66.75
665.188	89.75
665.391	83.75
665.594	81.75
665.797	76.75
666	86.75
666.203	82.75
666.406	87.75
666.609	88.75
666.812	83.75
667.015	78.75
667.218	72.75
667.421	103.75
667.624	79.75
667.827	84.75
668.03	87.75
668.232	92.75
668.435	79.75
668.638	76.75
668.841	71.75
669.043	79.75
669.246	80.75
669.449	73.75
669.651	84.75
669.854	91.75
670.057	81.75
670.259	89.75
670.462	83.75
670.665	79.75
670.867	99.75
671.07	83.75
671.272	91.75
671.475	80.75
671.677	89.75
671.88	81.75
672.082	99.75
672.284	85.75
672.487	88.75
672.689	82.75
672.892	84.75
