Data from NiCl2@0.125M.TitratingCurve.Agarose3%dH2O.NegLispCup.LampEnergy10.LIBS07252019_HRD10591_18-28-12-574.txt Node
Date: Thu Jul 25 18:28:12 EDT 2019
User: cochatt
Spectrometer: HR+D1059
Trigger mode: 1
Integration Time (sec): 1.000000E-1
Scans to average: 1
Electric dark correction enabled: true
Nonlinearity correction enabled: false
Boxcar width: 0
XAxis mode: Wavelengths
Number of Pixels in Spectrum: 2048
>>>>>Begin Spectral Data<<<<<
223.165	-2.88
223.4	-2.88
223.635	-2.88
223.869	-9.88
224.104	-20.88
224.338	-24.88
224.573	-11.88
224.808	-9.88
225.042	-7.88
225.277	-0.88
225.511	3.12
225.746	-20.88
225.98	15.12
226.215	-0.88
226.449	18.12
226.683	8.12
226.918	29.12
227.152	37.12
227.387	22.12
227.621	48.12
227.856	51.12
228.09	39.12
228.324	51.12
228.559	50.12
228.793	55.12
229.027	122.12
229.262	126.12
229.496	121.12
229.73	130.12
229.964	116.12
230.199	135.12
230.433	130.12
230.667	136.12
230.901	136.12
231.136	136.12
231.37	143.12
231.604	154.12
231.838	154.12
232.072	163.12
232.306	153.12
232.541	167.12
232.775	173.12
233.009	167.12
233.243	172.12
233.477	150.12
233.711	170.12
233.945	164.12
234.179	155.12
234.413	173.12
234.647	166.12
234.881	144.12
235.115	152.12
235.349	167.12
235.583	163.12
235.817	164.12
236.051	174.12
236.285	184.12
236.519	165.12
236.753	172.12
236.987	165.12
237.221	177.12
237.455	182.12
237.689	161.12
237.922	173.12
238.156	182.12
238.39	183.12
238.624	178.12
238.858	177.12
239.091	168.12
239.325	197.12
239.559	199.12
239.793	170.12
240.027	194.12
240.26	201.12
240.494	211.12
240.728	189.12
240.961	193.12
241.195	214.12
241.429	202.12
241.662	202.12
241.896	216.12
242.13	217.12
242.363	222.12
242.597	206.12
242.83	220.12
243.064	221.12
243.298	228.12
243.531	225.12
243.765	221.12
243.998	234.12
244.232	222.12
244.465	235.12
244.699	227.12
244.932	246.12
245.166	226.12
245.399	231.12
245.633	251.12
245.866	259.12
246.099	247.12
246.333	265.12
246.566	247.12
246.8	241.12
247.033	246.12
247.266	259.12
247.5	245.12
247.733	253.12
247.966	234.12
248.2	261.12
248.433	254.12
248.666	250.12
248.899	268.12
249.133	285.12
249.366	265.12
249.599	269.12
249.832	267.12
250.066	284.12
250.299	277.12
250.532	277.12
250.765	286.12
250.998	283.12
251.231	283.12
251.465	285.12
251.698	283.12
251.931	307.12
252.164	279.12
252.397	295.12
252.63	309.12
252.863	306.12
253.096	308.12
253.329	301.12
253.562	301.12
253.795	336.12
254.028	285.12
254.261	313.12
254.494	317.12
254.727	302.12
254.96	318.12
255.193	314.12
255.426	314.12
255.659	302.12
255.892	325.12
256.124	318.12
256.357	314.12
256.59	330.12
256.823	318.12
257.056	324.12
257.289	327.12
257.521	333.12
257.754	325.12
257.987	333.12
258.22	327.12
258.452	325.12
258.685	357.12
258.918	338.12
259.151	354.12
259.383	346.12
259.616	338.12
259.849	375.12
260.081	343.12
260.314	355.12
260.547	369.12
260.779	345.12
261.012	333.12
261.244	377.12
261.477	387.12
261.71	354.12
261.942	362.12
262.175	366.12
262.407	358.12
262.64	364.12
262.872	370.12
263.105	373.12
263.337	379.12
263.57	378.12
263.802	377.12
264.035	390.12
264.267	389.12
264.499	375.12
264.732	395.12
264.964	377.12
265.197	366.12
265.429	407.12
265.661	401.12
265.894	397.12
266.126	392.12
266.358	394.12
266.591	393.12
266.823	416.12
267.055	397.12
267.287	415.12
267.52	370.12
267.752	400.12
267.984	398.12
268.216	441.12
268.448	435.12
268.681	418.12
268.913	385.12
269.145	432.12
269.377	421.12
269.609	414.12
269.841	445.12
270.073	422.12
270.306	395.12
270.538	441.12
270.77	443.12
271.002	423.12
271.234	455.12
271.466	436.12
271.698	448.12
271.93	427.12
272.162	437.12
272.394	429.12
272.626	445.12
272.858	433.12
273.09	461.12
273.322	454.12
273.553	443.12
273.785	447.12
274.017	451.12
274.249	447.12
274.481	479.12
274.713	454.12
274.945	437.12
275.176	461.12
275.408	468.12
275.64	449.12
275.872	477.12
276.104	494.12
276.335	481.12
276.567	480.12
276.799	484.12
277.031	488.12
277.262	480.12
277.494	475.12
277.726	469.12
277.957	458.12
278.189	488.12
278.421	484.12
278.652	508.12
278.884	488.12
279.115	479.12
279.347	510.12
279.579	499.12
279.81	496.12
280.042	504.12
280.273	509.12
280.505	499.12
280.736	482.12
280.968	513.12
281.199	516.12
281.431	501.12
281.662	530.12
281.894	547.12
282.125	536.12
282.356	530.12
282.588	526.12
282.819	527.12
283.051	549.12
283.282	534.12
283.513	525.12
283.745	515.12
283.976	515.12
284.207	532.12
284.439	542.12
284.67	534.12
284.901	553.12
285.132	542.12
285.364	554.12
285.595	571.12
285.826	574.12
286.057	568.12
286.288	556.12
286.52	551.12
286.751	572.12
286.982	579.12
287.213	543.12
287.444	564.12
287.675	581.12
287.906	556.12
288.138	581.12
288.369	577.12
288.6	559.12
288.831	575.12
289.062	585.12
289.293	604.12
289.524	604.12
289.755	600.12
289.986	580.12
290.217	579.12
290.448	602.12
290.679	594.12
290.91	612.12
291.141	572.12
291.371	585.12
291.602	576.12
291.833	609.12
292.064	609.12
292.295	611.12
292.526	601.12
292.757	599.12
292.987	596.12
293.218	568.12
293.449	611.12
293.68	616.12
293.91	589.12
294.141	583.12
294.372	596.12
294.603	606.12
294.833	583.12
295.064	606.12
295.295	610.12
295.525	611.12
295.756	616.12
295.987	601.12
296.217	610.12
296.448	615.12
296.679	623.12
296.909	639.12
297.14	594.12
297.37	632.12
297.601	630.12
297.831	635.12
298.062	630.12
298.292	651.12
298.523	647.12
298.753	663.12
298.984	683.12
299.214	674.12
299.445	650.12
299.675	625.12
299.905	654.12
300.136	638.12
300.366	663.12
300.597	669.12
300.827	673.12
301.057	688.12
301.288	695.12
301.518	680.12
301.748	718.12
301.979	694.12
302.209	688.12
302.439	660.12
302.669	657.12
302.9	655.12
303.13	653.12
303.36	661.12
303.59	661.12
303.82	675.12
304.051	686.12
304.281	673.12
304.511	653.12
304.741	659.12
304.971	657.12
305.201	668.12
305.431	690.12
305.661	669.12
305.891	659.12
306.121	651.12
306.352	649.12
306.582	700.12
306.812	652.12
307.042	662.12
307.272	654.12
307.502	655.12
307.731	656.12
307.961	661.12
308.191	671.12
308.421	643.12
308.651	648.12
308.881	655.12
309.111	650.12
309.341	665.12
309.571	668.12
309.8	645.12
310.03	673.12
310.26	639.12
310.49	670.12
310.72	657.12
310.949	661.12
311.179	670.12
311.409	680.12
311.639	691.12
311.868	668.12
312.098	691.12
312.328	681.12
312.557	675.12
312.787	690.12
313.017	706.12
313.246	679.12
313.476	689.12
313.706	719.12
313.935	717.12
314.165	717.12
314.394	697.12
314.624	698.12
314.853	697.12
315.083	724.12
315.312	715.12
315.542	696.12
315.771	682.12
316.001	677.12
316.23	696.12
316.46	716.12
316.689	701.12
316.919	690.12
317.148	693.12
317.377	708.12
317.607	673.12
317.836	684.12
318.065	661.12
318.295	701.12
318.524	677.12
318.753	691.12
318.983	666.12
319.212	665.12
319.441	689.12
319.67	674.12
319.9	717.12
320.129	662.12
320.358	671.12
320.587	693.12
320.816	701.12
321.046	670.12
321.275	696.12
321.504	691.12
321.733	682.12
321.962	698.12
322.191	687.12
322.42	697.12
322.649	705.12
322.878	705.12
323.108	697.12
323.337	699.12
323.566	693.12
323.795	703.12
324.024	715.12
324.253	735.12
324.482	709.12
324.71	718.12
324.939	723.12
325.168	707.12
325.397	718.12
325.626	719.12
325.855	701.12
326.084	722.12
326.313	771.12
326.542	754.12
326.77	767.12
326.999	744.12
327.228	740.12
327.457	727.12
327.686	741.12
327.914	742.12
328.143	751.12
328.372	756.12
328.6	738.12
328.829	758.12
329.058	747.12
329.287	755.12
329.515	763.12
329.744	781.12
329.972	759.12
330.201	761.12
330.43	786.12
330.658	731.12
330.887	774.12
331.115	779.12
331.344	776.12
331.572	805.12
331.801	833.12
332.03	817.12
332.258	894.12
332.486	867.12
332.715	923.12
332.943	958.12
333.172	972.12
333.4	987.12
333.629	1063.12
333.857	1040.12
334.085	1017.12
334.314	985.12
334.542	980.12
334.771	965.12
334.999	950.12
335.227	961.12
335.455	935.12
335.684	921.12
335.912	918.12
336.14	907.12
336.369	902.12
336.597	930.12
336.825	905.12
337.053	892.12
337.281	905.12
337.51	855.12
337.738	872.12
337.966	843.12
338.194	841.12
338.422	814.12
338.65	820.12
338.878	851.12
339.106	814.12
339.334	809.12
339.562	800.12
339.79	797.12
340.018	802.12
340.246	824.12
340.474	806.12
340.702	764.12
340.93	791.12
341.158	757.12
341.386	805.12
341.614	789.12
341.842	780.12
342.07	802.12
342.298	763.12
342.526	786.12
342.754	758.12
342.981	753.12
343.209	796.12
343.437	823.12
343.665	892.12
343.893	961.12
344.12	1002.12
344.348	954.12
344.576	878.12
344.804	870.12
345.031	830.12
345.259	801.12
345.487	741.12
345.714	812.12
345.942	811.12
346.17	817.12
346.397	798.12
346.625	761.12
346.853	795.12
347.08	741.12
347.308	775.12
347.535	742.12
347.763	781.12
347.99	753.12
348.218	759.12
348.445	792.12
348.673	764.12
348.9	759.12
349.128	769.12
349.355	760.12
349.583	761.12
349.81	732.12
350.037	726.12
350.265	739.12
350.492	731.12
350.72	734.12
350.947	732.12
351.174	735.12
351.402	716.12
351.629	746.12
351.856	743.12
352.083	722.12
352.311	742.12
352.538	761.12
352.765	738.12
352.992	739.12
353.22	740.12
353.447	725.12
353.674	722.12
353.901	717.12
354.128	722.12
354.355	719.12
354.583	731.12
354.81	740.12
355.037	750.12
355.264	761.12
355.491	753.12
355.718	725.12
355.945	743.12
356.172	716.12
356.399	745.12
356.626	738.12
356.853	743.12
357.08	762.12
357.307	742.12
357.534	735.12
357.761	726.12
357.988	725.12
358.215	717.12
358.441	726.12
358.668	740.12
358.895	733.12
359.122	731.12
359.349	727.12
359.576	762.12
359.802	722.12
360.029	714.12
360.256	736.12
360.483	727.12
360.709	737.12
360.936	749.12
361.163	753.12
361.39	737.12
361.616	742.12
361.843	718.12
362.07	766.12
362.296	738.12
362.523	755.12
362.749	755.12
362.976	757.12
363.203	735.12
363.429	722.12
363.656	718.12
363.882	699.12
364.109	707.12
364.335	714.12
364.562	725.12
364.788	725.12
365.015	735.12
365.241	740.12
365.468	754.12
365.694	719.12
365.92	728.12
366.147	730.12
366.373	740.12
366.599	718.12
366.826	724.12
367.052	724.12
367.278	727.12
367.505	727.12
367.731	732.12
367.957	725.12
368.184	745.12
368.41	730.12
368.636	741.12
368.862	763.12
369.089	744.12
369.315	761.12
369.541	734.12
369.767	762.12
369.993	750.12
370.219	795.12
370.445	765.12
370.672	821.12
370.898	795.12
371.124	803.12
371.35	818.12
371.576	807.12
371.802	782.12
372.028	767.12
372.254	823.12
372.48	805.12
372.706	801.12
372.932	842.12
373.158	824.12
373.384	809.12
373.61	821.12
373.835	828.12
374.061	803.12
374.287	847.12
374.513	835.12
374.739	842.12
374.965	870.12
375.191	887.12
375.416	893.12
375.642	876.12
375.868	858.12
376.094	834.12
376.319	817.12
376.545	809.12
376.771	810.12
376.997	786.12
377.222	797.12
377.448	798.12
377.674	804.12
377.899	795.12
378.125	759.12
378.35	790.12
378.576	789.12
378.802	787.12
379.027	771.12
379.253	789.12
379.478	795.12
379.704	777.12
379.929	789.12
380.155	781.12
380.38	778.12
380.606	780.12
380.831	791.12
381.057	805.12
381.282	814.12
381.507	794.12
381.733	820.12
381.958	815.12
382.184	810.12
382.409	822.12
382.634	815.12
382.86	814.12
383.085	843.12
383.31	855.12
383.535	877.12
383.761	892.12
383.986	887.12
384.211	905.12
384.436	943.12
384.662	925.12
384.887	963.12
385.112	960.12
385.337	967.12
385.562	955.12
385.787	970.12
386.013	995.12
386.238	973.12
386.463	933.12
386.688	983.12
386.913	961.12
387.138	964.12
387.363	954.12
387.588	919.12
387.813	960.12
388.038	937.12
388.263	930.12
388.488	948.12
388.713	974.12
388.938	945.12
389.163	933.12
389.387	925.12
389.612	889.12
389.837	940.12
390.062	925.12
390.287	930.12
390.512	921.12
390.736	925.12
390.961	959.12
391.186	999.12
391.411	997.12
391.636	1033.12
391.86	1050.12
392.085	1092.12
392.31	1110.12
392.534	1073.12
392.759	1023.12
392.984	998.12
393.208	1009.12
393.433	996.12
393.658	1051.12
393.882	1009.12
394.107	1029.12
394.331	1050.12
394.556	1039.12
394.78	1030.12
395.005	1048.12
395.229	1035.12
395.454	1078.12
395.678	1061.12
395.903	1083.12
396.127	1051.12
396.352	1015.12
396.576	1014.12
396.801	1029.12
397.025	999.12
397.249	1045.12
397.474	1070.12
397.698	1077.12
397.922	1093.12
398.147	1066.12
398.371	1115.12
398.595	1131.12
398.82	1205.12
399.044	1258.12
399.268	1394.12
399.492	1611.12
399.717	1873.12
399.941	1894.12
400.165	1659.12
400.389	1491.12
400.613	1322.12
400.837	1253.12
401.062	1246.12
401.286	1209.12
401.51	1200.12
401.734	1196.12
401.958	1205.12
402.182	1238.12
402.406	1272.12
402.63	1218.12
402.854	1296.12
403.078	1305.12
403.302	1345.12
403.526	1394.12
403.75	1415.12
403.974	1430.12
404.198	1416.12
404.422	1396.12
404.645	1405.12
404.869	1380.12
405.093	1396.12
405.317	1346.12
405.541	1325.12
405.765	1323.12
405.988	1313.12
406.212	1345.12
406.436	1319.12
406.66	1332.12
406.883	1367.12
407.107	1435.12
407.331	1521.12
407.555	1617.12
407.778	1573.12
408.002	1547.12
408.226	1468.12
408.449	1452.12
408.673	1372.12
408.896	1376.12
409.12	1390.12
409.344	1364.12
409.567	1371.12
409.791	1411.12
410.014	1356.12
410.238	1400.12
410.461	1321.12
410.685	1380.12
410.908	1341.12
411.132	1313.12
411.355	1242.12
411.578	1230.12
411.802	1212.12
412.025	1277.12
412.249	1299.12
412.472	1270.12
412.695	1269.12
412.919	1214.12
413.142	1183.12
413.365	1236.12
413.589	1185.12
413.812	1165.12
414.035	1209.12
414.258	1191.12
414.482	1186.12
414.705	1222.12
414.928	1225.12
415.151	1183.12
415.374	1228.12
415.597	1223.12
415.821	1198.12
416.044	1188.12
416.267	1169.12
416.49	1170.12
416.713	1184.12
416.936	1199.12
417.159	1161.12
417.382	1201.12
417.605	1178.12
417.828	1165.12
418.051	1233.12
418.274	1226.12
418.497	1182.12
418.72	1237.12
418.943	1242.12
419.166	1303.12
419.389	1401.12
419.611	1397.12
419.834	1293.12
420.057	1251.12
420.28	1231.12
420.503	1171.12
420.726	1215.12
420.948	1169.12
421.171	1185.12
421.394	1209.12
421.617	1187.12
421.839	1222.12
422.062	1203.12
422.285	1189.12
422.507	1256.12
422.73	1214.12
422.953	1243.12
423.175	1267.12
423.398	1279.12
423.621	1262.12
423.843	1293.12
424.066	1312.12
424.288	1272.12
424.511	1267.12
424.733	1273.12
424.956	1236.12
425.178	1192.12
425.401	1206.12
425.623	1194.12
425.846	1187.12
426.068	1182.12
426.291	1139.12
426.513	1120.12
426.735	1117.12
426.958	1137.12
427.18	1102.12
427.402	1085.12
427.625	1110.12
427.847	1106.12
428.069	1061.12
428.292	1093.12
428.514	1094.12
428.736	1037.12
428.958	1087.12
429.181	1030.12
429.403	1043.12
429.625	1037.12
429.847	1015.12
430.069	1015.12
430.292	1045.12
430.514	1039.12
430.736	1043.12
430.958	1037.12
431.18	1013.12
431.402	1066.12
431.624	1073.12
431.846	1075.12
432.068	1093.12
432.29	1098.12
432.512	1038.12
432.734	1065.12
432.956	1085.12
433.178	1100.12
433.4	1065.12
433.622	1098.12
433.844	1083.12
434.066	1106.12
434.287	1085.12
434.509	1113.12
434.731	1190.12
434.953	1214.12
435.175	1212.12
435.397	1188.12
435.618	1141.12
435.84	1109.12
436.062	1085.12
436.284	1074.12
436.505	1044.12
436.727	1059.12
436.949	1078.12
437.17	1065.12
437.392	1035.12
437.614	1060.12
437.835	1013.12
438.057	1046.12
438.278	1000.12
438.5	1020.12
438.721	1045.12
438.943	1029.12
439.165	1030.12
439.386	1021.12
439.608	1063.12
439.829	1043.12
440.05	1092.12
440.272	1101.12
440.493	1078.12
440.715	1085.12
440.936	1104.12
441.158	1141.12
441.379	1156.12
441.6	1222.12
441.822	1205.12
442.043	1231.12
442.264	1169.12
442.486	1181.12
442.707	1162.12
442.928	1201.12
443.149	1213.12
443.371	1230.12
443.592	1205.12
443.813	1190.12
444.034	1217.12
444.255	1265.12
444.476	1302.12
444.698	1400.12
444.919	1481.12
445.14	1580.12
445.361	1417.12
445.582	1239.12
445.803	1171.12
446.024	1138.12
446.245	1091.12
446.466	1122.12
446.687	1101.12
446.908	1084.12
447.129	1067.12
447.35	1025.12
447.571	1075.12
447.792	1033.12
448.013	997.12
448.234	990.12
448.455	1033.12
448.675	997.12
448.896	1002.12
449.117	949.12
449.338	1001.12
449.559	987.12
449.779	985.12
450	972.12
450.221	959.12
450.442	977.12
450.662	1010.12
450.883	1005.12
451.104	1021.12
451.324	1016.12
451.545	993.12
451.766	981.12
451.986	1002.12
452.207	993.12
452.428	1009.12
452.648	994.12
452.869	950.12
453.089	969.12
453.31	1009.12
453.53	950.12
453.751	907.12
453.971	941.12
454.192	955.12
454.412	949.12
454.633	937.12
454.853	934.12
455.073	924.12
455.294	933.12
455.514	913.12
455.734	919.12
455.955	931.12
456.175	926.12
456.395	916.12
456.616	913.12
456.836	895.12
457.056	908.12
457.276	918.12
457.497	919.12
457.717	912.12
457.937	916.12
458.157	971.12
458.377	944.12
458.598	961.12
458.818	978.12
459.038	1034.12
459.258	1026.12
459.478	1110.12
459.698	1132.12
459.918	1140.12
460.138	1198.12
460.358	1260.12
460.578	1225.12
460.798	1270.12
461.018	1307.12
461.238	1255.12
461.458	1298.12
461.678	1234.12
461.898	1244.12
462.118	1269.12
462.338	1374.12
462.558	1391.12
462.777	1429.12
462.997	1556.12
463.217	1729.12
463.437	1734.12
463.657	1612.12
463.876	1498.12
464.096	1499.12
464.316	1494.12
464.536	1511.12
464.755	1462.12
464.975	1404.12
465.195	1351.12
465.414	1263.12
465.634	1158.12
465.854	1118.12
466.073	1094.12
466.293	1098.12
466.512	1047.12
466.732	1015.12
466.951	1035.12
467.171	1022.12
467.391	1026.12
467.61	1013.12
467.829	1019.12
468.049	1000.12
468.268	1001.12
468.488	980.12
468.707	952.12
468.927	965.12
469.146	979.12
469.365	1013.12
469.585	1001.12
469.804	1012.12
470.023	1031.12
470.243	1065.12
470.462	1081.12
470.681	1066.12
470.901	1064.12
471.12	1045.12
471.339	993.12
471.558	1004.12
471.777	1010.12
471.997	955.12
472.216	989.12
472.435	958.12
472.654	950.12
472.873	939.12
473.092	940.12
473.311	923.12
473.53	982.12
473.749	949.12
473.968	943.12
474.187	951.12
474.406	926.12
474.625	925.12
474.844	925.12
475.063	948.12
475.282	971.12
475.501	989.12
475.72	954.12
475.939	983.12
476.158	969.12
476.377	1001.12
476.596	981.12
476.814	1012.12
477.033	1046.12
477.252	1043.12
477.471	1036.12
477.69	1059.12
477.908	1118.12
478.127	1147.12
478.346	1157.12
478.564	1158.12
478.783	1205.12
479.002	1212.12
479.22	1226.12
479.439	1188.12
479.658	1168.12
479.876	1209.12
480.095	1225.12
480.313	1253.12
480.532	1311.12
480.751	1285.12
480.969	1269.12
481.188	1173.12
481.406	1170.12
481.624	1104.12
481.843	1121.12
482.061	1099.12
482.28	1087.12
482.498	1119.12
482.717	1090.12
482.935	1086.12
483.153	1094.12
483.372	1126.12
483.59	1100.12
483.808	1132.12
484.027	1101.12
484.245	1106.12
484.463	1122.12
484.681	1142.12
484.9	1113.12
485.118	1123.12
485.336	1109.12
485.554	1196.12
485.772	1177.12
485.99	1161.12
486.209	1198.12
486.427	1180.12
486.645	1155.12
486.863	1193.12
487.081	1187.12
487.299	1154.12
487.517	1166.12
487.735	1185.12
487.953	1193.12
488.171	1189.12
488.389	1152.12
488.607	1144.12
488.825	1151.12
489.043	1138.12
489.261	1146.12
489.479	1153.12
489.696	1156.12
489.914	1123.12
490.132	1150.12
490.35	1147.12
490.568	1159.12
490.786	1174.12
491.003	1171.12
491.221	1181.12
491.439	1166.12
491.657	1180.12
491.874	1150.12
492.092	1165.12
492.31	1163.12
492.527	1215.12
492.745	1180.12
492.963	1193.12
493.18	1186.12
493.398	1176.12
493.615	1198.12
493.833	1173.12
494.05	1191.12
494.268	1212.12
494.485	1237.12
494.703	1208.12
494.92	1229.12
495.138	1223.12
495.355	1222.12
495.573	1246.12
495.79	1242.12
496.008	1221.12
496.225	1254.12
496.442	1251.12
496.66	1285.12
496.877	1277.12
497.094	1295.12
497.312	1286.12
497.529	1332.12
497.746	1380.12
497.963	1406.12
498.181	1494.12
498.398	1495.12
498.615	1585.12
498.832	1729.12
499.049	1777.12
499.267	2025.12
499.484	2221.12
499.701	2406.12
499.918	2709.12
500.135	3105.12
500.352	3646.12
500.569	3842.12
500.786	3763.12
501.003	3544.12
501.22	3084.12
501.437	2743.12
501.654	2364.12
501.871	2140.12
502.088	1973.12
502.305	1864.12
502.522	1771.12
502.739	1677.12
502.956	1583.12
503.172	1518.12
503.389	1445.12
503.606	1391.12
503.823	1373.12
504.04	1369.12
504.256	1378.12
504.473	1425.12
504.69	1470.12
504.907	1444.12
505.123	1301.12
505.34	1284.12
505.557	1193.12
505.773	1177.12
505.99	1162.12
506.207	1135.12
506.423	1114.12
506.64	1111.12
506.856	1094.12
507.073	1082.12
507.289	1065.12
507.506	1075.12
507.722	1057.12
507.939	1077.12
508.155	1049.12
508.372	1061.12
508.588	1021.12
508.805	1030.12
509.021	1006.12
509.238	1014.12
509.454	994.12
509.67	1003.12
509.887	983.12
510.103	988.12
510.319	998.12
510.536	987.12
510.752	991.12
510.968	974.12
511.184	970.12
511.401	994.12
511.617	973.12
511.833	965.12
512.049	963.12
512.265	968.12
512.481	955.12
512.698	952.12
512.914	970.12
513.13	949.12
513.346	980.12
513.562	959.12
513.778	954.12
513.994	997.12
514.21	983.12
514.426	969.12
514.642	991.12
514.858	1034.12
515.074	997.12
515.29	1022.12
515.506	1013.12
515.721	1046.12
515.937	1065.12
516.153	1064.12
516.369	1080.12
516.585	1139.12
516.801	1163.12
517.016	1187.12
517.232	1259.12
517.448	1333.12
517.664	1374.12
517.879	1411.12
518.095	1379.12
518.311	1347.12
518.527	1327.12
518.742	1211.12
518.958	1174.12
519.173	1149.12
519.389	1112.12
519.605	1075.12
519.82	1048.12
520.036	1029.12
520.251	1035.12
520.467	1027.12
520.682	989.12
520.898	972.12
521.113	979.12
521.329	947.12
521.544	954.12
521.76	968.12
521.975	930.12
522.19	907.12
522.406	927.12
522.621	924.12
522.836	912.12
523.052	933.12
523.267	886.12
523.482	933.12
523.698	909.12
523.913	878.12
524.128	901.12
524.343	901.12
524.559	882.12
524.774	885.12
524.989	917.12
525.204	899.12
525.419	900.12
525.634	900.12
525.849	910.12
526.064	881.12
526.28	853.12
526.495	852.12
526.71	875.12
526.925	885.12
527.14	868.12
527.355	887.12
527.57	876.12
527.785	873.12
527.999	882.12
528.214	869.12
528.429	883.12
528.644	884.12
528.859	904.12
529.074	907.12
529.289	906.12
529.503	901.12
529.718	890.12
529.933	878.12
530.148	881.12
530.363	865.12
530.577	892.12
530.792	883.12
531.007	892.12
531.221	855.12
531.436	868.12
531.651	883.12
531.865	878.12
532.08	880.12
532.295	869.12
532.509	888.12
532.724	866.12
532.938	896.12
533.153	887.12
533.367	877.12
533.582	877.12
533.796	872.12
534.011	891.12
534.225	858.12
534.44	875.12
534.654	862.12
534.868	882.12
535.083	883.12
535.297	853.12
535.511	835.12
535.726	871.12
535.94	857.12
536.154	820.12
536.369	849.12
536.583	859.12
536.797	834.12
537.011	809.12
537.225	807.12
537.44	825.12
537.654	830.12
537.868	808.12
538.082	802.12
538.296	826.12
538.51	818.12
538.724	804.12
538.938	803.12
539.153	822.12
539.367	798.12
539.581	806.12
539.795	789.12
540.009	789.12
540.222	806.12
540.436	793.12
540.65	777.12
540.864	782.12
541.078	778.12
541.292	812.12
541.506	787.12
541.72	795.12
541.934	794.12
542.147	783.12
542.361	816.12
542.575	757.12
542.789	785.12
543.002	780.12
543.216	790.12
543.43	753.12
543.644	770.12
543.857	776.12
544.071	773.12
544.285	803.12
544.498	786.12
544.712	788.12
544.925	808.12
545.139	813.12
545.352	824.12
545.566	808.12
545.779	807.12
545.993	797.12
546.206	825.12
546.42	832.12
546.633	821.12
546.847	814.12
547.06	818.12
547.274	780.12
547.487	813.12
547.7	797.12
547.914	789.12
548.127	825.12
548.34	839.12
548.554	801.12
548.767	824.12
548.98	838.12
549.193	821.12
549.407	824.12
549.62	832.12
549.833	852.12
550.046	843.12
550.259	799.12
550.473	805.12
550.686	807.12
550.899	810.12
551.112	777.12
551.325	778.12
551.538	803.12
551.751	795.12
551.964	781.12
552.177	797.12
552.39	821.12
552.603	828.12
552.816	837.12
553.029	878.12
553.242	898.12
553.455	885.12
553.667	909.12
553.88	904.12
554.093	842.12
554.306	844.12
554.519	822.12
554.732	785.12
554.944	777.12
555.157	788.12
555.37	758.12
555.583	779.12
555.795	745.12
556.008	731.12
556.221	710.12
556.433	700.12
556.646	709.12
556.859	691.12
557.071	682.12
557.284	685.12
557.496	674.12
557.709	698.12
557.921	686.12
558.134	673.12
558.346	683.12
558.559	665.12
558.771	665.12
558.984	691.12
559.196	681.12
559.409	677.12
559.621	685.12
559.833	688.12
560.046	668.12
560.258	677.12
560.47	702.12
560.683	680.12
560.895	659.12
561.107	675.12
561.32	666.12
561.532	654.12
561.744	660.12
561.956	648.12
562.168	682.12
562.381	658.12
562.593	673.12
562.805	637.12
563.017	669.12
563.229	696.12
563.441	663.12
563.653	659.12
563.865	658.12
564.077	679.12
564.289	690.12
564.501	719.12
564.713	712.12
564.925	719.12
565.137	727.12
565.349	727.12
565.561	766.12
565.773	783.12
565.985	815.12
566.197	847.12
566.408	915.12
566.62	1033.12
566.832	1106.12
567.044	1143.12
567.255	1106.12
567.467	1118.12
567.679	1202.12
567.891	1347.12
568.102	1366.12
568.314	1266.12
568.526	1155.12
568.737	1053.12
568.949	927.12
569.161	858.12
569.372	787.12
569.584	772.12
569.795	727.12
570.007	723.12
570.218	685.12
570.43	693.12
570.641	675.12
570.853	706.12
571.064	701.12
571.276	714.12
571.487	685.12
571.698	639.12
571.91	637.12
572.121	614.12
572.333	619.12
572.544	595.12
572.755	579.12
572.966	582.12
573.178	566.12
573.389	561.12
573.6	569.12
573.811	561.12
574.023	563.12
574.234	561.12
574.445	549.12
574.656	540.12
574.867	553.12
575.078	551.12
575.289	551.12
575.501	558.12
575.712	508.12
575.923	519.12
576.134	529.12
576.345	532.12
576.556	522.12
576.767	520.12
576.978	539.12
577.188	537.12
577.399	530.12
577.61	519.12
577.821	505.12
578.032	504.12
578.243	490.12
578.454	490.12
578.665	493.12
578.875	498.12
579.086	470.12
579.297	483.12
579.508	482.12
579.718	477.12
579.929	506.12
580.14	470.12
580.35	469.12
580.561	476.12
580.772	469.12
580.982	453.12
581.193	499.12
581.403	453.12
581.614	479.12
581.825	475.12
582.035	457.12
582.246	454.12
582.456	431.12
582.667	472.12
582.877	462.12
583.087	452.12
583.298	483.12
583.508	458.12
583.719	444.12
583.929	461.12
584.139	436.12
584.35	444.12
584.56	459.12
584.77	433.12
584.981	451.12
585.191	467.12
585.401	449.12
585.611	449.12
585.821	425.12
586.032	457.12
586.242	445.12
586.452	440.12
586.662	447.12
586.872	443.12
587.082	429.12
587.292	458.12
587.502	454.12
587.713	445.12
587.923	443.12
588.133	450.12
588.343	441.12
588.553	451.12
588.762	433.12
588.972	457.12
589.182	441.12
589.392	453.12
589.602	454.12
589.812	426.12
590.022	450.12
590.232	442.12
590.441	429.12
590.651	446.12
590.861	454.12
591.071	461.12
591.281	450.12
591.49	447.12
591.7	443.12
591.91	462.12
592.119	465.12
592.329	475.12
592.539	507.12
592.748	537.12
592.958	547.12
593.167	548.12
593.377	554.12
593.587	582.12
593.796	579.12
594.006	583.12
594.215	605.12
594.424	561.12
594.634	566.12
594.843	555.12
595.053	529.12
595.262	511.12
595.472	485.12
595.681	489.12
595.89	477.12
596.1	453.12
596.309	451.12
596.518	430.12
596.727	412.12
596.937	409.12
597.146	380.12
597.355	415.12
597.564	413.12
597.774	406.12
597.983	410.12
598.192	381.12
598.401	385.12
598.61	400.12
598.819	389.12
599.028	371.12
599.237	377.12
599.446	372.12
599.655	374.12
599.864	364.12
600.073	379.12
600.282	372.12
600.491	378.12
600.7	378.12
600.909	379.12
601.118	371.12
601.327	372.12
601.536	374.12
601.745	374.12
601.953	352.12
602.162	357.12
602.371	359.12
602.58	359.12
602.789	371.12
602.997	361.12
603.206	375.12
603.415	356.12
603.623	361.12
603.832	357.12
604.041	341.12
604.249	356.12
604.458	365.12
604.666	366.12
604.875	334.12
605.084	335.12
605.292	350.12
605.501	348.12
605.709	331.12
605.918	359.12
606.126	329.12
606.334	325.12
606.543	339.12
606.751	332.12
606.96	343.12
607.168	337.12
607.376	334.12
607.585	331.12
607.793	335.12
608.001	332.12
608.21	326.12
608.418	339.12
608.626	334.12
608.834	336.12
609.043	316.12
609.251	341.12
609.459	321.12
609.667	313.12
609.875	334.12
610.083	332.12
610.291	336.12
610.499	347.12
610.707	315.12
610.916	343.12
611.124	346.12
611.332	333.12
611.54	326.12
611.748	328.12
611.955	327.12
612.163	307.12
612.371	309.12
612.579	332.12
612.787	329.12
612.995	311.12
613.203	328.12
613.411	325.12
613.618	303.12
613.826	319.12
614.034	329.12
614.242	312.12
614.449	322.12
614.657	325.12
614.865	307.12
615.072	320.12
615.28	326.12
615.488	323.12
615.695	315.12
615.903	323.12
616.111	326.12
616.318	337.12
616.526	330.12
616.733	316.12
616.941	331.12
617.148	321.12
617.356	327.12
617.563	325.12
617.771	330.12
617.978	316.12
618.185	331.12
618.393	326.12
618.6	322.12
618.807	321.12
619.015	335.12
619.222	298.12
619.429	305.12
619.637	305.12
619.844	316.12
620.051	323.12
620.258	295.12
620.466	302.12
620.673	297.12
620.88	301.12
621.087	309.12
621.294	298.12
621.501	301.12
621.708	302.12
621.915	299.12
622.122	308.12
622.329	298.12
622.536	302.12
622.743	296.12
622.95	280.12
623.157	309.12
623.364	279.12
623.571	305.12
623.778	273.12
623.985	288.12
624.192	266.12
624.399	281.12
624.606	291.12
624.812	293.12
625.019	295.12
625.226	258.12
625.433	271.12
625.639	275.12
625.846	273.12
626.053	265.12
626.259	256.12
626.466	283.12
626.673	289.12
626.879	269.12
627.086	259.12
627.293	284.12
627.499	271.12
627.706	262.12
627.912	266.12
628.119	254.12
628.325	257.12
628.532	253.12
628.738	264.12
628.945	281.12
629.151	269.12
629.357	257.12
629.564	257.12
629.77	250.12
629.976	254.12
630.183	247.12
630.389	246.12
630.595	270.12
630.802	260.12
631.008	252.12
631.214	232.12
631.42	257.12
631.627	253.12
631.833	245.12
632.039	237.12
632.245	264.12
632.451	250.12
632.657	258.12
632.863	246.12
633.069	258.12
633.275	239.12
633.481	256.12
633.688	243.12
633.893	259.12
634.099	244.12
634.305	244.12
634.511	241.12
634.717	247.12
634.923	231.12
635.129	246.12
635.335	239.12
635.541	237.12
635.747	237.12
635.952	236.12
636.158	235.12
636.364	235.12
636.57	228.12
636.775	228.12
636.981	217.12
637.187	238.12
637.392	238.12
637.598	219.12
637.804	242.12
638.009	239.12
638.215	227.12
638.421	227.12
638.626	211.12
638.832	221.12
639.037	222.12
639.243	229.12
639.448	223.12
639.654	221.12
639.859	215.12
640.065	218.12
640.27	228.12
640.475	215.12
640.681	227.12
640.886	230.12
641.091	228.12
641.297	225.12
641.502	215.12
641.707	228.12
641.913	221.12
642.118	204.12
642.323	208.12
642.528	215.12
642.733	212.12
642.939	213.12
643.144	219.12
643.349	211.12
643.554	215.12
643.759	210.12
643.964	202.12
644.169	217.12
644.374	203.12
644.579	213.12
644.784	199.12
644.989	209.12
645.194	221.12
645.399	225.12
645.604	207.12
645.809	203.12
646.014	223.12
646.219	197.12
646.423	203.12
646.628	211.12
646.833	201.12
647.038	221.12
647.243	198.12
647.447	218.12
647.652	207.12
647.857	207.12
648.062	211.12
648.266	222.12
648.471	246.12
648.676	220.12
648.88	226.12
649.085	231.12
649.289	205.12
649.494	202.12
649.698	197.12
649.903	196.12
650.107	193.12
650.312	203.12
650.516	206.12
650.721	190.12
650.925	202.12
651.13	205.12
651.334	190.12
651.539	204.12
651.743	179.12
651.947	183.12
652.152	165.12
652.356	190.12
652.56	183.12
652.764	167.12
652.969	178.12
653.173	159.12
653.377	174.12
653.581	169.12
653.785	157.12
653.99	165.12
654.194	153.12
654.398	157.12
654.602	155.12
654.806	161.12
655.01	161.12
655.214	150.12
655.418	159.12
655.622	157.12
655.826	166.12
656.03	178.12
656.234	168.12
656.438	158.12
656.642	158.12
656.846	155.12
657.049	150.12
657.253	152.12
657.457	163.12
657.661	143.12
657.865	151.12
658.068	134.12
658.272	127.12
658.476	128.12
658.68	108.12
658.883	115.12
659.087	125.12
659.291	114.12
659.494	105.12
659.698	101.12
659.901	113.12
660.105	99.12
660.309	109.12
660.512	100.12
660.716	93.12
660.919	119.12
661.123	94.12
661.326	92.12
661.53	110.12
661.733	91.12
661.936	83.12
662.14	90.12
662.343	98.12
662.546	83.12
662.75	87.12
662.953	85.12
663.156	82.12
663.36	93.12
663.563	73.12
663.766	84.12
663.969	77.12
664.173	90.12
664.376	72.12
664.579	85.12
664.782	83.12
664.985	79.12
665.188	84.12
665.391	74.12
665.594	89.12
665.797	81.12
666	85.12
666.203	90.12
666.406	94.12
666.609	70.12
666.812	83.12
667.015	100.12
667.218	79.12
667.421	77.12
667.624	85.12
667.827	89.12
668.03	80.12
668.232	79.12
668.435	93.12
668.638	77.12
668.841	94.12
669.043	67.12
669.246	85.12
669.449	86.12
669.651	89.12
669.854	93.12
670.057	73.12
670.259	87.12
670.462	86.12
670.665	83.12
670.867	83.12
671.07	73.12
671.272	85.12
671.475	84.12
671.677	91.12
671.88	73.12
672.082	85.12
672.284	91.12
672.487	78.12
672.689	91.12
672.892	85.12
