Data from NiCl2@0.5M.TitratingCurve.Agarose3%dH2O.NegLispCup.LampEnergy10.LIBS07252019_HRD10591_18-19-08-571.txt Node
Date: Thu Jul 25 18:19:08 EDT 2019
User: cochatt
Spectrometer: HR+D1059
Trigger mode: 1
Integration Time (sec): 1.000000E-1
Scans to average: 1
Electric dark correction enabled: true
Nonlinearity correction enabled: false
Boxcar width: 0
XAxis mode: Wavelengths
Number of Pixels in Spectrum: 2048
>>>>>Begin Spectral Data<<<<<
223.165	-26.06
223.4	-26.06
223.635	-26.06
223.869	-20.06
224.104	-22.06
224.338	-15.06
224.573	-13.06
224.808	-12.06
225.042	0.94
225.277	1.94
225.511	-1.06
225.746	9.94
225.98	10.94
226.215	9.94
226.449	8.94
226.683	8.94
226.918	21.94
227.152	35.94
227.387	35.94
227.621	32.94
227.856	36.94
228.09	42.94
228.324	55.94
228.559	58.94
228.793	67.94
229.027	92.94
229.262	103.94
229.496	112.94
229.73	100.94
229.964	120.94
230.199	114.94
230.433	126.94
230.667	132.94
230.901	134.94
231.136	135.94
231.37	123.94
231.604	136.94
231.838	132.94
232.072	133.94
232.306	134.94
232.541	122.94
232.775	141.94
233.009	142.94
233.243	138.94
233.477	141.94
233.711	143.94
233.945	142.94
234.179	141.94
234.413	148.94
234.647	123.94
234.881	145.94
235.115	142.94
235.349	142.94
235.583	141.94
235.817	131.94
236.051	147.94
236.285	130.94
236.519	124.94
236.753	141.94
236.987	135.94
237.221	141.94
237.455	132.94
237.689	148.94
237.922	142.94
238.156	154.94
238.39	151.94
238.624	159.94
238.858	152.94
239.091	141.94
239.325	140.94
239.559	158.94
239.793	157.94
240.027	154.94
240.26	154.94
240.494	152.94
240.728	166.94
240.961	153.94
241.195	164.94
241.429	170.94
241.662	158.94
241.896	171.94
242.13	169.94
242.363	150.94
242.597	165.94
242.83	168.94
243.064	168.94
243.298	153.94
243.531	174.94
243.765	180.94
243.998	173.94
244.232	178.94
244.465	170.94
244.699	165.94
244.932	183.94
245.166	194.94
245.399	181.94
245.633	184.94
245.866	182.94
246.099	187.94
246.333	198.94
246.566	200.94
246.8	196.94
247.033	195.94
247.266	198.94
247.5	180.94
247.733	190.94
247.966	220.94
248.2	205.94
248.433	201.94
248.666	196.94
248.899	193.94
249.133	224.94
249.366	201.94
249.599	209.94
249.832	198.94
250.066	217.94
250.299	222.94
250.532	221.94
250.765	218.94
250.998	199.94
251.231	229.94
251.465	224.94
251.698	210.94
251.931	228.94
252.164	229.94
252.397	226.94
252.63	227.94
252.863	229.94
253.096	228.94
253.329	227.94
253.562	233.94
253.795	224.94
254.028	237.94
254.261	241.94
254.494	222.94
254.727	228.94
254.96	238.94
255.193	219.94
255.426	228.94
255.659	240.94
255.892	243.94
256.124	257.94
256.357	252.94
256.59	245.94
256.823	243.94
257.056	237.94
257.289	240.94
257.521	248.94
257.754	265.94
257.987	257.94
258.22	260.94
258.452	258.94
258.685	256.94
258.918	246.94
259.151	259.94
259.383	263.94
259.616	268.94
259.849	288.94
260.081	261.94
260.314	279.94
260.547	276.94
260.779	262.94
261.012	255.94
261.244	286.94
261.477	288.94
261.71	276.94
261.942	276.94
262.175	280.94
262.407	277.94
262.64	272.94
262.872	275.94
263.105	284.94
263.337	293.94
263.57	285.94
263.802	285.94
264.035	283.94
264.267	292.94
264.499	276.94
264.732	291.94
264.964	295.94
265.197	288.94
265.429	297.94
265.661	286.94
265.894	293.94
266.126	299.94
266.358	285.94
266.591	299.94
266.823	296.94
267.055	313.94
267.287	298.94
267.52	296.94
267.752	298.94
267.984	299.94
268.216	325.94
268.448	297.94
268.681	323.94
268.913	307.94
269.145	312.94
269.377	300.94
269.609	346.94
269.841	307.94
270.073	317.94
270.306	322.94
270.538	329.94
270.77	312.94
271.002	335.94
271.234	332.94
271.466	331.94
271.698	324.94
271.93	316.94
272.162	329.94
272.394	340.94
272.626	336.94
272.858	328.94
273.09	327.94
273.322	344.94
273.553	332.94
273.785	335.94
274.017	343.94
274.249	344.94
274.481	359.94
274.713	353.94
274.945	337.94
275.176	343.94
275.408	369.94
275.64	349.94
275.872	358.94
276.104	337.94
276.335	348.94
276.567	355.94
276.799	339.94
277.031	340.94
277.262	355.94
277.494	363.94
277.726	365.94
277.957	351.94
278.189	361.94
278.421	366.94
278.652	353.94
278.884	347.94
279.115	372.94
279.347	364.94
279.579	353.94
279.81	380.94
280.042	376.94
280.273	380.94
280.505	382.94
280.736	378.94
280.968	373.94
281.199	380.94
281.431	389.94
281.662	371.94
281.894	394.94
282.125	394.94
282.356	386.94
282.588	399.94
282.819	385.94
283.051	390.94
283.282	423.94
283.513	404.94
283.745	392.94
283.976	396.94
284.207	385.94
284.439	407.94
284.67	411.94
284.901	402.94
285.132	406.94
285.364	411.94
285.595	401.94
285.826	402.94
286.057	405.94
286.288	404.94
286.52	398.94
286.751	400.94
286.982	425.94
287.213	414.94
287.444	422.94
287.675	410.94
287.906	434.94
288.138	423.94
288.369	430.94
288.6	424.94
288.831	424.94
289.062	433.94
289.293	412.94
289.524	424.94
289.755	414.94
289.986	440.94
290.217	416.94
290.448	452.94
290.679	420.94
290.91	446.94
291.141	417.94
291.371	441.94
291.602	450.94
291.833	420.94
292.064	412.94
292.295	433.94
292.526	441.94
292.757	462.94
292.987	421.94
293.218	442.94
293.449	448.94
293.68	438.94
293.91	465.94
294.141	443.94
294.372	462.94
294.603	438.94
294.833	475.94
295.064	445.94
295.295	424.94
295.525	454.94
295.756	459.94
295.987	464.94
296.217	438.94
296.448	470.94
296.679	457.94
296.909	476.94
297.14	460.94
297.37	443.94
297.601	476.94
297.831	453.94
298.062	458.94
298.292	467.94
298.523	482.94
298.753	471.94
298.984	461.94
299.214	487.94
299.445	481.94
299.675	469.94
299.905	512.94
300.136	472.94
300.366	498.94
300.597	509.94
300.827	519.94
301.057	527.94
301.288	498.94
301.518	515.94
301.748	514.94
301.979	514.94
302.209	513.94
302.439	490.94
302.669	502.94
302.9	494.94
303.13	481.94
303.36	497.94
303.59	510.94
303.82	507.94
304.051	524.94
304.281	501.94
304.511	504.94
304.741	527.94
304.971	517.94
305.201	482.94
305.431	522.94
305.661	499.94
305.891	499.94
306.121	510.94
306.352	511.94
306.582	488.94
306.812	524.94
307.042	516.94
307.272	515.94
307.502	516.94
307.731	501.94
307.961	486.94
308.191	513.94
308.421	495.94
308.651	491.94
308.881	512.94
309.111	500.94
309.341	491.94
309.571	510.94
309.8	490.94
310.03	507.94
310.26	504.94
310.49	526.94
310.72	528.94
310.949	525.94
311.179	508.94
311.409	506.94
311.639	516.94
311.868	534.94
312.098	524.94
312.328	523.94
312.557	523.94
312.787	533.94
313.017	538.94
313.246	540.94
313.476	520.94
313.706	570.94
313.935	526.94
314.165	524.94
314.394	545.94
314.624	533.94
314.853	557.94
315.083	555.94
315.312	541.94
315.542	529.94
315.771	530.94
316.001	543.94
316.23	515.94
316.46	511.94
316.689	553.94
316.919	538.94
317.148	524.94
317.377	543.94
317.607	513.94
317.836	523.94
318.065	523.94
318.295	557.94
318.524	557.94
318.753	539.94
318.983	534.94
319.212	528.94
319.441	548.94
319.67	552.94
319.9	530.94
320.129	518.94
320.358	537.94
320.587	526.94
320.816	554.94
321.046	536.94
321.275	538.94
321.504	536.94
321.733	551.94
321.962	540.94
322.191	546.94
322.42	539.94
322.649	541.94
322.878	537.94
323.108	557.94
323.337	560.94
323.566	542.94
323.795	548.94
324.024	549.94
324.253	566.94
324.482	557.94
324.71	538.94
324.939	562.94
325.168	573.94
325.397	568.94
325.626	575.94
325.855	588.94
326.084	567.94
326.313	574.94
326.542	567.94
326.77	580.94
326.999	590.94
327.228	578.94
327.457	561.94
327.686	568.94
327.914	597.94
328.143	579.94
328.372	620.94
328.6	588.94
328.829	578.94
329.058	594.94
329.287	577.94
329.515	570.94
329.744	601.94
329.972	570.94
330.201	589.94
330.43	602.94
330.658	585.94
330.887	618.94
331.115	596.94
331.344	597.94
331.572	632.94
331.801	626.94
332.03	618.94
332.258	629.94
332.486	629.94
332.715	677.94
332.943	677.94
333.172	704.94
333.4	712.94
333.629	752.94
333.857	749.94
334.085	747.94
334.314	730.94
334.542	718.94
334.771	721.94
334.999	690.94
335.227	707.94
335.455	712.94
335.684	698.94
335.912	712.94
336.14	698.94
336.369	690.94
336.597	706.94
336.825	694.94
337.053	672.94
337.281	690.94
337.51	674.94
337.738	655.94
337.966	680.94
338.194	662.94
338.422	660.94
338.65	644.94
338.878	647.94
339.106	614.94
339.334	638.94
339.562	640.94
339.79	626.94
340.018	614.94
340.246	597.94
340.474	613.94
340.702	602.94
340.93	600.94
341.158	618.94
341.386	632.94
341.614	616.94
341.842	621.94
342.07	612.94
342.298	602.94
342.526	624.94
342.754	625.94
342.981	626.94
343.209	615.94
343.437	678.94
343.665	692.94
343.893	717.94
344.12	731.94
344.348	690.94
344.576	666.94
344.804	660.94
345.031	668.94
345.259	633.94
345.487	627.94
345.714	604.94
345.942	603.94
346.17	592.94
346.397	614.94
346.625	579.94
346.853	590.94
347.08	590.94
347.308	605.94
347.535	599.94
347.763	579.94
347.99	600.94
348.218	591.94
348.445	568.94
348.673	592.94
348.9	609.94
349.128	584.94
349.355	583.94
349.583	593.94
349.81	594.94
350.037	574.94
350.265	568.94
350.492	557.94
350.72	556.94
350.947	550.94
351.174	590.94
351.402	588.94
351.629	589.94
351.856	573.94
352.083	558.94
352.311	569.94
352.538	577.94
352.765	577.94
352.992	567.94
353.22	577.94
353.447	564.94
353.674	548.94
353.901	567.94
354.128	562.94
354.355	554.94
354.583	578.94
354.81	568.94
355.037	557.94
355.264	552.94
355.491	587.94
355.718	558.94
355.945	570.94
356.172	571.94
356.399	579.94
356.626	568.94
356.853	587.94
357.08	581.94
357.307	584.94
357.534	549.94
357.761	547.94
357.988	572.94
358.215	578.94
358.441	557.94
358.668	558.94
358.895	549.94
359.122	562.94
359.349	572.94
359.576	540.94
359.802	555.94
360.029	568.94
360.256	566.94
360.483	558.94
360.709	560.94
360.936	576.94
361.163	561.94
361.39	556.94
361.616	553.94
361.843	567.94
362.07	564.94
362.296	586.94
362.523	541.94
362.749	564.94
362.976	554.94
363.203	565.94
363.429	570.94
363.656	572.94
363.882	529.94
364.109	534.94
364.335	559.94
364.562	546.94
364.788	541.94
365.015	544.94
365.241	555.94
365.468	554.94
365.694	566.94
365.92	569.94
366.147	564.94
366.373	560.94
366.599	534.94
366.826	543.94
367.052	531.94
367.278	564.94
367.505	560.94
367.731	562.94
367.957	578.94
368.184	580.94
368.41	552.94
368.636	569.94
368.862	568.94
369.089	546.94
369.315	580.94
369.541	580.94
369.767	581.94
369.993	553.94
370.219	589.94
370.445	565.94
370.672	564.94
370.898	578.94
371.124	579.94
371.35	585.94
371.576	616.94
371.802	582.94
372.028	613.94
372.254	608.94
372.48	608.94
372.706	598.94
372.932	608.94
373.158	613.94
373.384	601.94
373.61	598.94
373.835	590.94
374.061	609.94
374.287	608.94
374.513	611.94
374.739	617.94
374.965	627.94
375.191	654.94
375.416	650.94
375.642	621.94
375.868	615.94
376.094	613.94
376.319	585.94
376.545	603.94
376.771	569.94
376.997	582.94
377.222	585.94
377.448	595.94
377.674	600.94
377.899	580.94
378.125	584.94
378.35	618.94
378.576	587.94
378.802	592.94
379.027	570.94
379.253	570.94
379.478	587.94
379.704	572.94
379.929	596.94
380.155	569.94
380.38	585.94
380.606	586.94
380.831	589.94
381.057	606.94
381.282	591.94
381.507	601.94
381.733	580.94
381.958	584.94
382.184	591.94
382.409	584.94
382.634	593.94
382.86	582.94
383.085	594.94
383.31	632.94
383.535	624.94
383.761	611.94
383.986	634.94
384.211	645.94
384.436	650.94
384.662	668.94
384.887	676.94
385.112	679.94
385.337	665.94
385.562	698.94
385.787	681.94
386.013	709.94
386.238	664.94
386.463	680.94
386.688	701.94
386.913	676.94
387.138	674.94
387.363	710.94
387.588	684.94
387.813	654.94
388.038	685.94
388.263	697.94
388.488	673.94
388.713	676.94
388.938	682.94
389.163	653.94
389.387	659.94
389.612	676.94
389.837	664.94
390.062	691.94
390.287	666.94
390.512	658.94
390.736	676.94
390.961	700.94
391.186	690.94
391.411	705.94
391.636	692.94
391.86	768.94
392.085	738.94
392.31	724.94
392.534	733.94
392.759	735.94
392.984	716.94
393.208	714.94
393.433	737.94
393.658	712.94
393.882	723.94
394.107	725.94
394.331	721.94
394.556	690.94
394.78	755.94
395.005	760.94
395.229	731.94
395.454	750.94
395.678	770.94
395.903	741.94
396.127	733.94
396.352	730.94
396.576	700.94
396.801	704.94
397.025	747.94
397.249	746.94
397.474	734.94
397.698	755.94
397.922	765.94
398.147	761.94
398.371	793.94
398.595	794.94
398.82	839.94
399.044	855.94
399.268	941.94
399.492	1060.94
399.717	1148.94
399.941	1126.94
400.165	1069.94
400.389	974.94
400.613	894.94
400.837	875.94
401.062	860.94
401.286	837.94
401.51	861.94
401.734	855.94
401.958	856.94
402.182	857.94
402.406	842.94
402.63	876.94
402.854	862.94
403.078	874.94
403.302	876.94
403.526	922.94
403.75	916.94
403.974	935.94
404.198	937.94
404.422	923.94
404.645	933.94
404.869	961.94
405.093	929.94
405.317	880.94
405.541	903.94
405.765	892.94
405.988	928.94
406.212	932.94
406.436	897.94
406.66	934.94
406.883	923.94
407.107	1004.94
407.331	1016.94
407.555	1070.94
407.778	1054.94
408.002	1023.94
408.226	1010.94
408.449	966.94
408.673	966.94
408.896	977.94
409.12	933.94
409.344	950.94
409.567	964.94
409.791	947.94
410.014	929.94
410.238	905.94
410.461	920.94
410.685	907.94
410.908	904.94
411.132	880.94
411.355	877.94
411.578	888.94
411.802	891.94
412.025	875.94
412.249	878.94
412.472	883.94
412.695	884.94
412.919	856.94
413.142	854.94
413.365	866.94
413.589	825.94
413.812	848.94
414.035	848.94
414.258	846.94
414.482	877.94
414.705	857.94
414.928	851.94
415.151	850.94
415.374	849.94
415.597	846.94
415.821	848.94
416.044	840.94
416.267	840.94
416.49	813.94
416.713	836.94
416.936	842.94
417.159	829.94
417.382	844.94
417.605	828.94
417.828	838.94
418.051	841.94
418.274	828.94
418.497	827.94
418.72	859.94
418.943	858.94
419.166	899.94
419.389	952.94
419.611	935.94
419.834	878.94
420.057	880.94
420.28	829.94
420.503	832.94
420.726	814.94
420.948	856.94
421.171	844.94
421.394	833.94
421.617	837.94
421.839	841.94
422.062	850.94
422.285	834.94
422.507	858.94
422.73	849.94
422.953	875.94
423.175	841.94
423.398	892.94
423.621	883.94
423.843	888.94
424.066	868.94
424.288	870.94
424.511	906.94
424.733	846.94
424.956	877.94
425.178	864.94
425.401	865.94
425.623	848.94
425.846	834.94
426.068	821.94
426.291	829.94
426.513	835.94
426.735	816.94
426.958	810.94
427.18	784.94
427.402	797.94
427.625	804.94
427.847	809.94
428.069	801.94
428.292	777.94
428.514	769.94
428.736	772.94
428.958	778.94
429.181	778.94
429.403	786.94
429.625	781.94
429.847	770.94
430.069	772.94
430.292	805.94
430.514	771.94
430.736	775.94
430.958	766.94
431.18	802.94
431.402	803.94
431.624	800.94
431.846	770.94
432.068	786.94
432.29	784.94
432.512	781.94
432.734	811.94
432.956	790.94
433.178	804.94
433.4	810.94
433.622	813.94
433.844	777.94
434.066	845.94
434.287	831.94
434.509	812.94
434.731	855.94
434.953	854.94
435.175	881.94
435.397	880.94
435.618	811.94
435.84	808.94
436.062	816.94
436.284	775.94
436.505	781.94
436.727	780.94
436.949	811.94
437.17	806.94
437.392	780.94
437.614	761.94
437.835	752.94
438.057	755.94
438.278	747.94
438.5	776.94
438.721	769.94
438.943	778.94
439.165	766.94
439.386	793.94
439.608	770.94
439.829	792.94
440.05	803.94
440.272	805.94
440.493	798.94
440.715	830.94
440.936	816.94
441.158	825.94
441.379	858.94
441.6	867.94
441.822	876.94
442.043	854.94
442.264	859.94
442.486	857.94
442.707	849.94
442.928	865.94
443.149	865.94
443.371	875.94
443.592	887.94
443.813	848.94
444.034	902.94
444.255	932.94
444.476	928.94
444.698	973.94
444.919	1000.94
445.14	1083.94
445.361	983.94
445.582	893.94
445.803	869.94
446.024	849.94
446.245	829.94
446.466	830.94
446.687	792.94
446.908	836.94
447.129	791.94
447.35	790.94
447.571	794.94
447.792	789.94
448.013	776.94
448.234	776.94
448.455	769.94
448.675	781.94
448.896	750.94
449.117	743.94
449.338	748.94
449.559	719.94
449.779	719.94
450	730.94
450.221	735.94
450.442	732.94
450.662	747.94
450.883	747.94
451.104	765.94
451.324	756.94
451.545	756.94
451.766	748.94
451.986	740.94
452.207	733.94
452.428	726.94
452.648	737.94
452.869	726.94
453.089	744.94
453.31	732.94
453.53	721.94
453.751	722.94
453.971	713.94
454.192	738.94
454.412	708.94
454.633	709.94
454.853	729.94
455.073	717.94
455.294	723.94
455.514	687.94
455.734	707.94
455.955	710.94
456.175	713.94
456.395	691.94
456.616	716.94
456.836	673.94
457.056	707.94
457.276	666.94
457.497	710.94
457.717	724.94
457.937	696.94
458.157	740.94
458.377	711.94
458.598	749.94
458.818	749.94
459.038	793.94
459.258	788.94
459.478	802.94
459.698	828.94
459.918	843.94
460.138	873.94
460.358	893.94
460.578	926.94
460.798	923.94
461.018	956.94
461.238	912.94
461.458	937.94
461.678	922.94
461.898	918.94
462.118	952.94
462.338	1004.94
462.558	1024.94
462.777	1032.94
462.997	1093.94
463.217	1164.94
463.437	1136.94
463.657	1108.94
463.876	1066.94
464.096	1057.94
464.316	1044.94
464.536	1062.94
464.755	1056.94
464.975	993.94
465.195	939.94
465.414	921.94
465.634	874.94
465.854	844.94
466.073	823.94
466.293	840.94
466.512	824.94
466.732	782.94
466.951	802.94
467.171	803.94
467.391	803.94
467.61	789.94
467.829	771.94
468.049	796.94
468.268	741.94
468.488	784.94
468.707	765.94
468.927	756.94
469.146	753.94
469.365	770.94
469.585	768.94
469.804	773.94
470.023	827.94
470.243	799.94
470.462	832.94
470.681	821.94
470.901	806.94
471.12	805.94
471.339	801.94
471.558	789.94
471.777	812.94
471.997	772.94
472.216	769.94
472.435	724.94
472.654	754.94
472.873	744.94
473.092	760.94
473.311	754.94
473.53	779.94
473.749	744.94
473.968	762.94
474.187	755.94
474.406	744.94
474.625	768.94
474.844	785.94
475.063	755.94
475.282	769.94
475.501	749.94
475.72	757.94
475.939	775.94
476.158	784.94
476.377	787.94
476.596	809.94
476.814	789.94
477.033	760.94
477.252	829.94
477.471	833.94
477.69	830.94
477.908	878.94
478.127	896.94
478.346	914.94
478.564	886.94
478.783	909.94
479.002	922.94
479.22	946.94
479.439	901.94
479.658	906.94
479.876	932.94
480.095	936.94
480.313	934.94
480.532	949.94
480.751	977.94
480.969	923.94
481.188	912.94
481.406	910.94
481.624	873.94
481.843	876.94
482.061	883.94
482.28	874.94
482.498	870.94
482.717	866.94
482.935	852.94
483.153	877.94
483.372	882.94
483.59	882.94
483.808	885.94
484.027	869.94
484.245	862.94
484.463	892.94
484.681	906.94
484.9	874.94
485.118	914.94
485.336	916.94
485.554	909.94
485.772	894.94
485.99	882.94
486.209	909.94
486.427	914.94
486.645	920.94
486.863	947.94
487.081	944.94
487.299	900.94
487.517	896.94
487.735	942.94
487.953	954.94
488.171	934.94
488.389	924.94
488.607	906.94
488.825	888.94
489.043	896.94
489.261	891.94
489.479	906.94
489.696	928.94
489.914	908.94
490.132	958.94
490.35	939.94
490.568	940.94
490.786	944.94
491.003	922.94
491.221	939.94
491.439	917.94
491.657	964.94
491.874	954.94
492.092	981.94
492.31	946.94
492.527	968.94
492.745	945.94
492.963	955.94
493.18	978.94
493.398	987.94
493.615	954.94
493.833	985.94
494.05	994.94
494.268	986.94
494.485	986.94
494.703	989.94
494.92	968.94
495.138	980.94
495.355	995.94
495.573	997.94
495.79	984.94
496.008	977.94
496.225	1005.94
496.442	1030.94
496.66	1016.94
496.877	1056.94
497.094	1052.94
497.312	1050.94
497.529	1092.94
497.746	1133.94
497.963	1146.94
498.181	1144.94
498.398	1160.94
498.615	1245.94
498.832	1337.94
499.049	1400.94
499.267	1486.94
499.484	1617.94
499.701	1757.94
499.918	1923.94
500.135	2131.94
500.352	2291.94
500.569	2422.94
500.786	2344.94
501.003	2250.94
501.22	2054.94
501.437	1897.94
501.654	1732.94
501.871	1582.94
502.088	1483.94
502.305	1388.94
502.522	1298.94
502.739	1266.94
502.956	1220.94
503.172	1183.94
503.389	1131.94
503.606	1128.94
503.823	1098.94
504.04	1073.94
504.256	1063.94
504.473	1079.94
504.69	1096.94
504.907	1107.94
505.123	1041.94
505.34	1003.94
505.557	957.94
505.773	935.94
505.99	940.94
506.207	921.94
506.423	888.94
506.64	869.94
506.856	880.94
507.073	854.94
507.289	849.94
507.506	847.94
507.722	872.94
507.939	825.94
508.155	859.94
508.372	843.94
508.588	851.94
508.805	808.94
509.021	828.94
509.238	823.94
509.454	804.94
509.67	798.94
509.887	783.94
510.103	798.94
510.319	796.94
510.536	765.94
510.752	755.94
510.968	768.94
511.184	764.94
511.401	804.94
511.617	790.94
511.833	739.94
512.049	760.94
512.265	762.94
512.481	779.94
512.698	776.94
512.914	787.94
513.13	797.94
513.346	772.94
513.562	788.94
513.778	778.94
513.994	788.94
514.21	778.94
514.426	801.94
514.642	800.94
514.858	786.94
515.074	785.94
515.29	778.94
515.506	781.94
515.721	800.94
515.937	830.94
516.153	805.94
516.369	844.94
516.585	872.94
516.801	894.94
517.016	908.94
517.232	957.94
517.448	973.94
517.664	972.94
517.879	984.94
518.095	1005.94
518.311	973.94
518.527	947.94
518.742	896.94
518.958	896.94
519.173	864.94
519.389	856.94
519.605	841.94
519.82	811.94
520.036	829.94
520.251	776.94
520.467	779.94
520.682	771.94
520.898	780.94
521.113	744.94
521.329	753.94
521.544	755.94
521.76	726.94
521.975	721.94
522.19	733.94
522.406	724.94
522.621	724.94
522.836	719.94
523.052	720.94
523.267	722.94
523.482	700.94
523.698	744.94
523.913	725.94
524.128	730.94
524.343	718.94
524.559	712.94
524.774	705.94
524.989	701.94
525.204	706.94
525.419	690.94
525.634	730.94
525.849	700.94
526.064	709.94
526.28	688.94
526.495	693.94
526.71	700.94
526.925	723.94
527.14	713.94
527.355	673.94
527.57	681.94
527.785	680.94
527.999	663.94
528.214	676.94
528.429	708.94
528.644	688.94
528.859	697.94
529.074	709.94
529.289	713.94
529.503	709.94
529.718	678.94
529.933	701.94
530.148	710.94
530.363	677.94
530.577	714.94
530.792	659.94
531.007	677.94
531.221	689.94
531.436	681.94
531.651	695.94
531.865	691.94
532.08	689.94
532.295	692.94
532.509	674.94
532.724	684.94
532.938	691.94
533.153	671.94
533.367	651.94
533.582	680.94
533.796	698.94
534.011	675.94
534.225	690.94
534.44	664.94
534.654	685.94
534.868	640.94
535.083	668.94
535.297	676.94
535.511	642.94
535.726	668.94
535.94	668.94
536.154	669.94
536.369	642.94
536.583	633.94
536.797	643.94
537.011	634.94
537.225	643.94
537.44	650.94
537.654	638.94
537.868	626.94
538.082	634.94
538.296	621.94
538.51	638.94
538.724	634.94
538.938	631.94
539.153	645.94
539.367	647.94
539.581	616.94
539.795	616.94
540.009	620.94
540.222	622.94
540.436	618.94
540.65	616.94
540.864	612.94
541.078	641.94
541.292	621.94
541.506	644.94
541.72	636.94
541.934	636.94
542.147	625.94
542.361	649.94
542.575	631.94
542.789	650.94
543.002	618.94
543.216	608.94
543.43	633.94
543.644	632.94
543.857	642.94
544.071	629.94
544.285	633.94
544.498	645.94
544.712	649.94
544.925	653.94
545.139	659.94
545.352	646.94
545.566	635.94
545.779	658.94
545.993	656.94
546.206	635.94
546.42	654.94
546.633	635.94
546.847	648.94
547.06	630.94
547.274	652.94
547.487	653.94
547.7	637.94
547.914	654.94
548.127	641.94
548.34	658.94
548.554	636.94
548.767	650.94
548.98	628.94
549.193	650.94
549.407	644.94
549.62	678.94
549.833	669.94
550.046	670.94
550.259	656.94
550.473	632.94
550.686	615.94
550.899	653.94
551.112	637.94
551.325	602.94
551.538	625.94
551.751	616.94
551.964	624.94
552.177	620.94
552.39	634.94
552.603	642.94
552.816	638.94
553.029	652.94
553.242	663.94
553.455	676.94
553.667	700.94
553.88	667.94
554.093	660.94
554.306	638.94
554.519	621.94
554.732	614.94
554.944	633.94
555.157	604.94
555.37	598.94
555.583	608.94
555.795	586.94
556.008	555.94
556.221	576.94
556.433	560.94
556.646	582.94
556.859	570.94
557.071	530.94
557.284	548.94
557.496	567.94
557.709	540.94
557.921	546.94
558.134	562.94
558.346	554.94
558.559	539.94
558.771	539.94
558.984	537.94
559.196	542.94
559.409	538.94
559.621	547.94
559.833	509.94
560.046	536.94
560.258	533.94
560.47	534.94
560.683	522.94
560.895	536.94
561.107	510.94
561.32	526.94
561.532	515.94
561.744	528.94
561.956	507.94
562.168	526.94
562.381	521.94
562.593	500.94
562.805	531.94
563.017	524.94
563.229	531.94
563.441	526.94
563.653	524.94
563.865	514.94
564.077	531.94
564.289	533.94
564.501	560.94
564.713	552.94
564.925	564.94
565.137	553.94
565.349	567.94
565.561	591.94
565.773	630.94
565.985	631.94
566.197	656.94
566.408	694.94
566.62	741.94
566.832	772.94
567.044	778.94
567.255	781.94
567.467	800.94
567.679	834.94
567.891	854.94
568.102	874.94
568.314	837.94
568.526	776.94
568.737	701.94
568.949	676.94
569.161	625.94
569.372	584.94
569.584	576.94
569.795	566.94
570.007	556.94
570.218	536.94
570.43	542.94
570.641	538.94
570.853	531.94
571.064	520.94
571.276	489.94
571.487	525.94
571.698	491.94
571.91	468.94
572.121	454.94
572.333	467.94
572.544	450.94
572.755	465.94
572.966	450.94
573.178	462.94
573.389	427.94
573.6	426.94
573.811	438.94
574.023	413.94
574.234	420.94
574.445	406.94
574.656	416.94
574.867	428.94
575.078	419.94
575.289	408.94
575.501	420.94
575.712	404.94
575.923	406.94
576.134	403.94
576.345	416.94
576.556	412.94
576.767	408.94
576.978	395.94
577.188	380.94
577.399	393.94
577.61	388.94
577.821	380.94
578.032	420.94
578.243	412.94
578.454	387.94
578.665	392.94
578.875	384.94
579.086	398.94
579.297	385.94
579.508	376.94
579.718	378.94
579.929	372.94
580.14	372.94
580.35	372.94
580.561	387.94
580.772	392.94
580.982	366.94
581.193	388.94
581.403	354.94
581.614	361.94
581.825	355.94
582.035	368.94
582.246	372.94
582.456	353.94
582.667	369.94
582.877	354.94
583.087	341.94
583.298	368.94
583.508	380.94
583.719	353.94
583.929	374.94
584.139	357.94
584.35	369.94
584.56	376.94
584.77	346.94
584.981	342.94
585.191	346.94
585.401	354.94
585.611	340.94
585.821	355.94
586.032	350.94
586.242	339.94
586.452	350.94
586.662	350.94
586.872	338.94
587.082	347.94
587.292	356.94
587.502	352.94
587.713	365.94
587.923	349.94
588.133	337.94
588.343	347.94
588.553	342.94
588.762	345.94
588.972	357.94
589.182	363.94
589.392	377.94
589.602	354.94
589.812	386.94
590.022	365.94
590.232	357.94
590.441	358.94
590.651	350.94
590.861	380.94
591.071	348.94
591.281	354.94
591.49	373.94
591.7	351.94
591.91	364.94
592.119	362.94
592.329	355.94
592.539	376.94
592.748	396.94
592.958	385.94
593.167	391.94
593.377	409.94
593.587	414.94
593.796	418.94
594.006	402.94
594.215	420.94
594.424	411.94
594.634	404.94
594.843	376.94
595.053	354.94
595.262	375.94
595.472	384.94
595.681	362.94
595.89	349.94
596.1	326.94
596.309	344.94
596.518	343.94
596.727	305.94
596.937	328.94
597.146	345.94
597.355	340.94
597.564	312.94
597.774	320.94
597.983	314.94
598.192	299.94
598.401	308.94
598.61	307.94
598.819	323.94
599.028	325.94
599.237	300.94
599.446	289.94
599.655	301.94
599.864	298.94
600.073	290.94
600.282	292.94
600.491	299.94
600.7	292.94
600.909	290.94
601.118	306.94
601.327	300.94
601.536	306.94
601.745	304.94
601.953	282.94
602.162	288.94
602.371	280.94
602.58	274.94
602.789	300.94
602.997	292.94
603.206	265.94
603.415	282.94
603.623	287.94
603.832	280.94
604.041	264.94
604.249	280.94
604.458	285.94
604.666	274.94
604.875	273.94
605.084	279.94
605.292	280.94
605.501	278.94
605.709	266.94
605.918	274.94
606.126	268.94
606.334	276.94
606.543	276.94
606.751	276.94
606.96	271.94
607.168	262.94
607.376	247.94
607.585	271.94
607.793	265.94
608.001	281.94
608.21	261.94
608.418	266.94
608.626	245.94
608.834	266.94
609.043	269.94
609.251	263.94
609.459	259.94
609.667	256.94
609.875	244.94
610.083	274.94
610.291	267.94
610.499	268.94
610.707	243.94
610.916	236.94
611.124	256.94
611.332	251.94
611.54	254.94
611.748	263.94
611.955	275.94
612.163	249.94
612.371	257.94
612.579	243.94
612.787	269.94
612.995	269.94
613.203	261.94
613.411	240.94
613.618	264.94
613.826	256.94
614.034	266.94
614.242	259.94
614.449	262.94
614.657	262.94
614.865	255.94
615.072	251.94
615.28	247.94
615.488	268.94
615.695	232.94
615.903	256.94
616.111	249.94
616.318	258.94
616.526	236.94
616.733	254.94
616.941	250.94
617.148	263.94
617.356	253.94
617.563	251.94
617.771	248.94
617.978	257.94
618.185	253.94
618.393	228.94
618.6	251.94
618.807	256.94
619.015	252.94
619.222	229.94
619.429	244.94
619.637	238.94
619.844	243.94
620.051	249.94
620.258	240.94
620.466	232.94
620.673	233.94
620.88	230.94
621.087	223.94
621.294	227.94
621.501	251.94
621.708	233.94
621.915	243.94
622.122	225.94
622.329	230.94
622.536	218.94
622.743	212.94
622.95	230.94
623.157	221.94
623.364	213.94
623.571	224.94
623.778	220.94
623.985	228.94
624.192	225.94
624.399	226.94
624.606	201.94
624.812	233.94
625.019	219.94
625.226	212.94
625.433	217.94
625.639	210.94
625.846	215.94
626.053	223.94
626.259	228.94
626.466	194.94
626.673	218.94
626.879	216.94
627.086	198.94
627.293	211.94
627.499	204.94
627.706	222.94
627.912	216.94
628.119	214.94
628.325	207.94
628.532	215.94
628.738	220.94
628.945	219.94
629.151	214.94
629.357	210.94
629.564	200.94
629.77	203.94
629.976	205.94
630.183	210.94
630.389	212.94
630.595	195.94
630.802	204.94
631.008	208.94
631.214	207.94
631.42	202.94
631.627	210.94
631.833	191.94
632.039	208.94
632.245	212.94
632.451	184.94
632.657	188.94
632.863	189.94
633.069	199.94
633.275	188.94
633.481	181.94
633.688	200.94
633.893	185.94
634.099	209.94
634.305	201.94
634.511	194.94
634.717	189.94
634.923	189.94
635.129	196.94
635.335	193.94
635.541	202.94
635.747	184.94
635.952	188.94
636.158	204.94
636.364	190.94
636.57	181.94
636.775	204.94
636.981	168.94
637.187	188.94
637.392	186.94
637.598	181.94
637.804	196.94
638.009	186.94
638.215	182.94
638.421	170.94
638.626	189.94
638.832	202.94
639.037	190.94
639.243	189.94
639.448	185.94
639.654	185.94
639.859	187.94
640.065	169.94
640.27	190.94
640.475	184.94
640.681	166.94
640.886	200.94
641.091	168.94
641.297	182.94
641.502	169.94
641.707	178.94
641.913	182.94
642.118	172.94
642.323	165.94
642.528	184.94
642.733	166.94
642.939	167.94
643.144	160.94
643.349	178.94
643.554	193.94
643.759	171.94
643.964	172.94
644.169	177.94
644.374	185.94
644.579	179.94
644.784	164.94
644.989	169.94
645.194	176.94
645.399	160.94
645.604	169.94
645.809	184.94
646.014	176.94
646.219	162.94
646.423	166.94
646.628	196.94
646.833	182.94
647.038	175.94
647.243	168.94
647.447	181.94
647.652	184.94
647.857	185.94
648.062	174.94
648.266	180.94
648.471	176.94
648.676	169.94
648.88	172.94
649.085	176.94
649.289	174.94
649.494	184.94
649.698	164.94
649.903	173.94
650.107	185.94
650.312	178.94
650.516	185.94
650.721	149.94
650.925	173.94
651.13	180.94
651.334	178.94
651.539	165.94
651.743	160.94
651.947	156.94
652.152	151.94
652.356	160.94
652.56	166.94
652.764	155.94
652.969	162.94
653.173	146.94
653.377	156.94
653.581	150.94
653.785	152.94
653.99	142.94
654.194	146.94
654.398	154.94
654.602	142.94
654.806	153.94
655.01	149.94
655.214	162.94
655.418	152.94
655.622	153.94
655.826	141.94
656.03	156.94
656.234	170.94
656.438	156.94
656.642	140.94
656.846	151.94
657.049	142.94
657.253	128.94
657.457	134.94
657.661	137.94
657.865	129.94
658.068	120.94
658.272	113.94
658.476	122.94
658.68	122.94
658.883	116.94
659.087	107.94
659.291	104.94
659.494	90.94
659.698	108.94
659.901	91.94
660.105	101.94
660.309	96.94
660.512	103.94
660.716	83.94
660.919	92.94
661.123	84.94
661.326	99.94
661.53	78.94
661.733	91.94
661.936	87.94
662.14	93.94
662.343	103.94
662.546	99.94
662.75	76.94
662.953	89.94
663.156	77.94
663.36	97.94
663.563	89.94
663.766	91.94
663.969	90.94
664.173	82.94
664.376	90.94
664.579	78.94
664.782	82.94
664.985	97.94
665.188	83.94
665.391	79.94
665.594	82.94
665.797	83.94
666	82.94
666.203	90.94
666.406	73.94
666.609	84.94
666.812	96.94
667.015	81.94
667.218	100.94
667.421	76.94
667.624	89.94
667.827	70.94
668.03	77.94
668.232	73.94
668.435	76.94
668.638	69.94
668.841	77.94
669.043	74.94
669.246	73.94
669.449	74.94
669.651	76.94
669.854	70.94
670.057	94.94
670.259	94.94
670.462	88.94
670.665	94.94
670.867	93.94
671.07	81.94
671.272	77.94
671.475	81.94
671.677	72.94
671.88	77.94
672.082	66.94
672.284	75.94
672.487	68.94
672.689	93.94
672.892	86.94
