Data from NiCl2@0.5M.TitratingCurve.Agarose3%dH2O.NegLispCup.LampEnergy10.LIBS07252019_HRD10591_18-18-44-582.txt Node
Date: Thu Jul 25 18:18:44 EDT 2019
User: cochatt
Spectrometer: HR+D1059
Trigger mode: 1
Integration Time (sec): 1.000000E-1
Scans to average: 1
Electric dark correction enabled: true
Nonlinearity correction enabled: false
Boxcar width: 0
XAxis mode: Wavelengths
Number of Pixels in Spectrum: 2048
>>>>>Begin Spectral Data<<<<<
223.165	-8.38
223.4	-8.38
223.635	-8.38
223.869	-13.38
224.104	-18.38
224.338	-14.38
224.573	-15.38
224.808	3.62
225.042	-6.38
225.277	-6.38
225.511	-2.38
225.746	7.62
225.98	-3.38
226.215	19.62
226.449	7.62
226.683	11.62
226.918	29.62
227.152	8.62
227.387	19.62
227.621	30.62
227.856	58.62
228.09	59.62
228.324	41.62
228.559	68.62
228.793	83.62
229.027	124.62
229.262	136.62
229.496	145.62
229.73	150.62
229.964	149.62
230.199	153.62
230.433	165.62
230.667	180.62
230.901	168.62
231.136	168.62
231.37	168.62
231.604	171.62
231.838	181.62
232.072	181.62
232.306	169.62
232.541	177.62
232.775	180.62
233.009	176.62
233.243	190.62
233.477	182.62
233.711	184.62
233.945	175.62
234.179	181.62
234.413	180.62
234.647	186.62
234.881	169.62
235.115	184.62
235.349	189.62
235.583	177.62
235.817	172.62
236.051	188.62
236.285	183.62
236.519	176.62
236.753	196.62
236.987	184.62
237.221	192.62
237.455	206.62
237.689	196.62
237.922	186.62
238.156	192.62
238.39	202.62
238.624	197.62
238.858	205.62
239.091	205.62
239.325	213.62
239.559	223.62
239.793	213.62
240.027	228.62
240.26	229.62
240.494	228.62
240.728	214.62
240.961	227.62
241.195	233.62
241.429	228.62
241.662	242.62
241.896	234.62
242.13	242.62
242.363	237.62
242.597	232.62
242.83	240.62
243.064	236.62
243.298	241.62
243.531	264.62
243.765	252.62
243.998	285.62
244.232	269.62
244.465	282.62
244.699	269.62
244.932	261.62
245.166	289.62
245.399	273.62
245.633	292.62
245.866	278.62
246.099	276.62
246.333	283.62
246.566	294.62
246.8	259.62
247.033	276.62
247.266	280.62
247.5	286.62
247.733	269.62
247.966	295.62
248.2	290.62
248.433	313.62
248.666	292.62
248.899	288.62
249.133	308.62
249.366	299.62
249.599	320.62
249.832	321.62
250.066	315.62
250.299	325.62
250.532	326.62
250.765	326.62
250.998	339.62
251.231	334.62
251.465	354.62
251.698	358.62
251.931	332.62
252.164	344.62
252.397	341.62
252.63	342.62
252.863	348.62
253.096	337.62
253.329	347.62
253.562	351.62
253.795	355.62
254.028	372.62
254.261	362.62
254.494	347.62
254.727	365.62
254.96	378.62
255.193	364.62
255.426	369.62
255.659	374.62
255.892	365.62
256.124	381.62
256.357	367.62
256.59	385.62
256.823	371.62
257.056	370.62
257.289	410.62
257.521	384.62
257.754	400.62
257.987	400.62
258.22	385.62
258.452	386.62
258.685	412.62
258.918	397.62
259.151	406.62
259.383	387.62
259.616	403.62
259.849	406.62
260.081	433.62
260.314	421.62
260.547	420.62
260.779	428.62
261.012	425.62
261.244	416.62
261.477	412.62
261.71	416.62
261.942	413.62
262.175	425.62
262.407	421.62
262.64	426.62
262.872	416.62
263.105	427.62
263.337	420.62
263.57	467.62
263.802	450.62
264.035	445.62
264.267	435.62
264.499	440.62
264.732	448.62
264.964	468.62
265.197	438.62
265.429	450.62
265.661	451.62
265.894	459.62
266.126	469.62
266.358	468.62
266.591	468.62
266.823	475.62
267.055	480.62
267.287	495.62
267.52	489.62
267.752	482.62
267.984	476.62
268.216	458.62
268.448	481.62
268.681	489.62
268.913	504.62
269.145	466.62
269.377	487.62
269.609	508.62
269.841	491.62
270.073	506.62
270.306	512.62
270.538	505.62
270.77	470.62
271.002	493.62
271.234	481.62
271.466	519.62
271.698	499.62
271.93	508.62
272.162	508.62
272.394	512.62
272.626	530.62
272.858	519.62
273.09	565.62
273.322	523.62
273.553	522.62
273.785	526.62
274.017	534.62
274.249	545.62
274.481	543.62
274.713	560.62
274.945	554.62
275.176	557.62
275.408	555.62
275.64	574.62
275.872	573.62
276.104	562.62
276.335	564.62
276.567	567.62
276.799	553.62
277.031	581.62
277.262	563.62
277.494	562.62
277.726	574.62
277.957	566.62
278.189	593.62
278.421	586.62
278.652	602.62
278.884	571.62
279.115	599.62
279.347	586.62
279.579	600.62
279.81	590.62
280.042	567.62
280.273	623.62
280.505	609.62
280.736	613.62
280.968	605.62
281.199	632.62
281.431	613.62
281.662	616.62
281.894	612.62
282.125	627.62
282.356	643.62
282.588	625.62
282.819	629.62
283.051	641.62
283.282	632.62
283.513	624.62
283.745	629.62
283.976	625.62
284.207	661.62
284.439	663.62
284.67	662.62
284.901	654.62
285.132	685.62
285.364	654.62
285.595	657.62
285.826	656.62
286.057	680.62
286.288	667.62
286.52	688.62
286.751	704.62
286.982	660.62
287.213	673.62
287.444	683.62
287.675	696.62
287.906	664.62
288.138	710.62
288.369	694.62
288.6	683.62
288.831	694.62
289.062	701.62
289.293	701.62
289.524	720.62
289.755	690.62
289.986	688.62
290.217	710.62
290.448	689.62
290.679	704.62
290.91	689.62
291.141	700.62
291.371	709.62
291.602	722.62
291.833	710.62
292.064	703.62
292.295	697.62
292.526	692.62
292.757	709.62
292.987	724.62
293.218	690.62
293.449	701.62
293.68	714.62
293.91	706.62
294.141	707.62
294.372	708.62
294.603	705.62
294.833	718.62
295.064	709.62
295.295	720.62
295.525	729.62
295.756	741.62
295.987	719.62
296.217	733.62
296.448	718.62
296.679	749.62
296.909	745.62
297.14	725.62
297.37	753.62
297.601	759.62
297.831	745.62
298.062	748.62
298.292	761.62
298.523	764.62
298.753	770.62
298.984	777.62
299.214	772.62
299.445	789.62
299.675	792.62
299.905	780.62
300.136	771.62
300.366	793.62
300.597	813.62
300.827	816.62
301.057	826.62
301.288	817.62
301.518	825.62
301.748	823.62
301.979	828.62
302.209	824.62
302.439	826.62
302.669	795.62
302.9	805.62
303.13	800.62
303.36	826.62
303.59	804.62
303.82	804.62
304.051	836.62
304.281	828.62
304.511	814.62
304.741	818.62
304.971	831.62
305.201	846.62
305.431	846.62
305.661	831.62
305.891	844.62
306.121	820.62
306.352	836.62
306.582	815.62
306.812	795.62
307.042	800.62
307.272	806.62
307.502	820.62
307.731	839.62
307.961	822.62
308.191	811.62
308.421	773.62
308.651	825.62
308.881	769.62
309.111	820.62
309.341	770.62
309.571	798.62
309.8	790.62
310.03	828.62
310.26	844.62
310.49	838.62
310.72	827.62
310.949	813.62
311.179	854.62
311.409	830.62
311.639	836.62
311.868	821.62
312.098	831.62
312.328	839.62
312.557	847.62
312.787	832.62
313.017	832.62
313.246	869.62
313.476	874.62
313.706	880.62
313.935	884.62
314.165	870.62
314.394	856.62
314.624	851.62
314.853	884.62
315.083	859.62
315.312	899.62
315.542	891.62
315.771	850.62
316.001	848.62
316.23	882.62
316.46	870.62
316.689	857.62
316.919	855.62
317.148	835.62
317.377	860.62
317.607	845.62
317.836	890.62
318.065	856.62
318.295	899.62
318.524	873.62
318.753	839.62
318.983	873.62
319.212	856.62
319.441	874.62
319.67	874.62
319.9	886.62
320.129	890.62
320.358	840.62
320.587	865.62
320.816	887.62
321.046	881.62
321.275	893.62
321.504	888.62
321.733	877.62
321.962	895.62
322.191	898.62
322.42	880.62
322.649	925.62
322.878	880.62
323.108	876.62
323.337	888.62
323.566	899.62
323.795	900.62
324.024	910.62
324.253	928.62
324.482	912.62
324.71	913.62
324.939	904.62
325.168	916.62
325.397	917.62
325.626	885.62
325.855	941.62
326.084	947.62
326.313	934.62
326.542	938.62
326.77	966.62
326.999	944.62
327.228	923.62
327.457	934.62
327.686	928.62
327.914	930.62
328.143	948.62
328.372	951.62
328.6	955.62
328.829	949.62
329.058	952.62
329.287	949.62
329.515	937.62
329.744	944.62
329.972	972.62
330.201	966.62
330.43	973.62
330.658	974.62
330.887	964.62
331.115	971.62
331.344	1000.62
331.572	975.62
331.801	1004.62
332.03	1044.62
332.258	1072.62
332.486	1058.62
332.715	1088.62
332.943	1102.62
333.172	1133.62
333.4	1165.62
333.629	1191.62
333.857	1201.62
334.085	1197.62
334.314	1188.62
334.542	1165.62
334.771	1212.62
334.999	1160.62
335.227	1179.62
335.455	1150.62
335.684	1145.62
335.912	1146.62
336.14	1132.62
336.369	1156.62
336.597	1172.62
336.825	1143.62
337.053	1142.62
337.281	1154.62
337.51	1103.62
337.738	1082.62
337.966	1085.62
338.194	1133.62
338.422	1092.62
338.65	1008.62
338.878	1049.62
339.106	1058.62
339.334	1043.62
339.562	1101.62
339.79	1003.62
340.018	988.62
340.246	984.62
340.474	971.62
340.702	980.62
340.93	987.62
341.158	1000.62
341.386	1033.62
341.614	1076.62
341.842	1076.62
342.07	1023.62
342.298	986.62
342.526	1012.62
342.754	994.62
342.981	1004.62
343.209	988.62
343.437	1062.62
343.665	1118.62
343.893	1137.62
344.12	1169.62
344.348	1100.62
344.576	1133.62
344.804	1064.62
345.031	1066.62
345.259	1020.62
345.487	1015.62
345.714	1004.62
345.942	1033.62
346.17	1075.62
346.397	1032.62
346.625	980.62
346.853	966.62
347.08	969.62
347.308	983.62
347.535	970.62
347.763	971.62
347.99	962.62
348.218	967.62
348.445	948.62
348.673	980.62
348.9	943.62
349.128	946.62
349.355	975.62
349.583	982.62
349.81	932.62
350.037	903.62
350.265	914.62
350.492	910.62
350.72	914.62
350.947	957.62
351.174	954.62
351.402	973.62
351.629	964.62
351.856	976.62
352.083	963.62
352.311	932.62
352.538	970.62
352.765	986.62
352.992	926.62
353.22	869.62
353.447	905.62
353.674	914.62
353.901	907.62
354.128	896.62
354.355	878.62
354.583	898.62
354.81	908.62
355.037	893.62
355.264	902.62
355.491	886.62
355.718	942.62
355.945	919.62
356.172	915.62
356.399	914.62
356.626	937.62
356.853	939.62
357.08	931.62
357.307	910.62
357.534	918.62
357.761	911.62
357.988	938.62
358.215	905.62
358.441	904.62
358.668	889.62
358.895	896.62
359.122	922.62
359.349	902.62
359.576	892.62
359.802	897.62
360.029	918.62
360.256	897.62
360.483	905.62
360.709	903.62
360.936	896.62
361.163	916.62
361.39	895.62
361.616	920.62
361.843	936.62
362.07	965.62
362.296	979.62
362.523	918.62
362.749	899.62
362.976	917.62
363.203	900.62
363.429	908.62
363.656	876.62
363.882	897.62
364.109	916.62
364.335	914.62
364.562	883.62
364.788	883.62
365.015	881.62
365.241	891.62
365.468	913.62
365.694	903.62
365.92	891.62
366.147	876.62
366.373	876.62
366.599	868.62
366.826	899.62
367.052	877.62
367.278	878.62
367.505	908.62
367.731	902.62
367.957	887.62
368.184	895.62
368.41	933.62
368.636	928.62
368.862	910.62
369.089	917.62
369.315	890.62
369.541	901.62
369.767	928.62
369.993	926.62
370.219	898.62
370.445	924.62
370.672	960.62
370.898	905.62
371.124	926.62
371.35	938.62
371.576	927.62
371.802	927.62
372.028	931.62
372.254	947.62
372.48	948.62
372.706	987.62
372.932	972.62
373.158	950.62
373.384	972.62
373.61	953.62
373.835	949.62
374.061	979.62
374.287	955.62
374.513	973.62
374.739	984.62
374.965	1008.62
375.191	1035.62
375.416	1020.62
375.642	1010.62
375.868	988.62
376.094	967.62
376.319	952.62
376.545	970.62
376.771	924.62
376.997	978.62
377.222	944.62
377.448	936.62
377.674	965.62
377.899	967.62
378.125	946.62
378.35	931.62
378.576	947.62
378.802	941.62
379.027	919.62
379.253	944.62
379.478	938.62
379.704	909.62
379.929	931.62
380.155	923.62
380.38	929.62
380.606	934.62
380.831	956.62
381.057	956.62
381.282	954.62
381.507	929.62
381.733	961.62
381.958	967.62
382.184	932.62
382.409	950.62
382.634	958.62
382.86	988.62
383.085	986.62
383.31	985.62
383.535	993.62
383.761	973.62
383.986	1012.62
384.211	1032.62
384.436	1034.62
384.662	1046.62
384.887	1074.62
385.112	1058.62
385.337	1078.62
385.562	1100.62
385.787	1089.62
386.013	1127.62
386.238	1123.62
386.463	1085.62
386.688	1097.62
386.913	1083.62
387.138	1089.62
387.363	1088.62
387.588	1094.62
387.813	1130.62
388.038	1142.62
388.263	1111.62
388.488	1123.62
388.713	1120.62
388.938	1119.62
389.163	1089.62
389.387	1108.62
389.612	1074.62
389.837	1071.62
390.062	1074.62
390.287	1102.62
390.512	1098.62
390.736	1096.62
390.961	1134.62
391.186	1144.62
391.411	1141.62
391.636	1175.62
391.86	1196.62
392.085	1216.62
392.31	1221.62
392.534	1195.62
392.759	1140.62
392.984	1162.62
393.208	1158.62
393.433	1162.62
393.658	1167.62
393.882	1160.62
394.107	1142.62
394.331	1174.62
394.556	1163.62
394.78	1185.62
395.005	1160.62
395.229	1197.62
395.454	1226.62
395.678	1203.62
395.903	1224.62
396.127	1217.62
396.352	1188.62
396.576	1187.62
396.801	1192.62
397.025	1205.62
397.249	1213.62
397.474	1236.62
397.698	1232.62
397.922	1233.62
398.147	1230.62
398.371	1260.62
398.595	1309.62
398.82	1373.62
399.044	1447.62
399.268	1506.62
399.492	1683.62
399.717	1842.62
399.941	1846.62
400.165	1727.62
400.389	1629.62
400.613	1520.62
400.837	1453.62
401.062	1412.62
401.286	1402.62
401.51	1378.62
401.734	1354.62
401.958	1400.62
402.182	1382.62
402.406	1380.62
402.63	1381.62
402.854	1449.62
403.078	1411.62
403.302	1445.62
403.526	1466.62
403.75	1490.62
403.974	1467.62
404.198	1508.62
404.422	1498.62
404.645	1444.62
404.869	1492.62
405.093	1452.62
405.317	1475.62
405.541	1491.62
405.765	1502.62
405.988	1438.62
406.212	1489.62
406.436	1527.62
406.66	1540.62
406.883	1554.62
407.107	1608.62
407.331	1641.62
407.555	1710.62
407.778	1691.62
408.002	1652.62
408.226	1640.62
408.449	1587.62
408.673	1552.62
408.896	1514.62
409.12	1534.62
409.344	1530.62
409.567	1516.62
409.791	1510.62
410.014	1509.62
410.238	1510.62
410.461	1473.62
410.685	1468.62
410.908	1455.62
411.132	1434.62
411.355	1412.62
411.578	1446.62
411.802	1436.62
412.025	1425.62
412.249	1445.62
412.472	1429.62
412.695	1384.62
412.919	1379.62
413.142	1393.62
413.365	1390.62
413.589	1420.62
413.812	1397.62
414.035	1395.62
414.258	1373.62
414.482	1384.62
414.705	1401.62
414.928	1386.62
415.151	1370.62
415.374	1386.62
415.597	1368.62
415.821	1369.62
416.044	1353.62
416.267	1346.62
416.49	1324.62
416.713	1306.62
416.936	1325.62
417.159	1353.62
417.382	1363.62
417.605	1340.62
417.828	1321.62
418.051	1358.62
418.274	1339.62
418.497	1317.62
418.72	1400.62
418.943	1352.62
419.166	1474.62
419.389	1546.62
419.611	1504.62
419.834	1433.62
420.057	1437.62
420.28	1372.62
420.503	1349.62
420.726	1349.62
420.948	1388.62
421.171	1362.62
421.394	1360.62
421.617	1335.62
421.839	1337.62
422.062	1361.62
422.285	1336.62
422.507	1374.62
422.73	1356.62
422.953	1384.62
423.175	1394.62
423.398	1380.62
423.621	1368.62
423.843	1423.62
424.066	1396.62
424.288	1417.62
424.511	1382.62
424.733	1369.62
424.956	1351.62
425.178	1356.62
425.401	1345.62
425.623	1368.62
425.846	1301.62
426.068	1329.62
426.291	1302.62
426.513	1356.62
426.735	1306.62
426.958	1321.62
427.18	1267.62
427.402	1292.62
427.625	1273.62
427.847	1243.62
428.069	1261.62
428.292	1254.62
428.514	1244.62
428.736	1240.62
428.958	1265.62
429.181	1260.62
429.403	1264.62
429.625	1209.62
429.847	1219.62
430.069	1227.62
430.292	1227.62
430.514	1238.62
430.736	1245.62
430.958	1219.62
431.18	1229.62
431.402	1258.62
431.624	1243.62
431.846	1252.62
432.068	1265.62
432.29	1293.62
432.512	1246.62
432.734	1259.62
432.956	1271.62
433.178	1264.62
433.4	1262.62
433.622	1304.62
433.844	1285.62
434.066	1306.62
434.287	1276.62
434.509	1328.62
434.731	1384.62
434.953	1343.62
435.175	1416.62
435.397	1374.62
435.618	1348.62
435.84	1309.62
436.062	1286.62
436.284	1255.62
436.505	1250.62
436.727	1288.62
436.949	1251.62
437.17	1296.62
437.392	1273.62
437.614	1262.62
437.835	1236.62
438.057	1204.62
438.278	1198.62
438.5	1183.62
438.721	1232.62
438.943	1220.62
439.165	1235.62
439.386	1220.62
439.608	1283.62
439.829	1269.62
440.05	1286.62
440.272	1298.62
440.493	1254.62
440.715	1288.62
440.936	1297.62
441.158	1317.62
441.379	1352.62
441.6	1419.62
441.822	1386.62
442.043	1420.62
442.264	1379.62
442.486	1364.62
442.707	1362.62
442.928	1396.62
443.149	1377.62
443.371	1382.62
443.592	1435.62
443.813	1422.62
444.034	1412.62
444.255	1421.62
444.476	1477.62
444.698	1569.62
444.919	1568.62
445.14	1635.62
445.361	1529.62
445.582	1456.62
445.803	1362.62
446.024	1305.62
446.245	1328.62
446.466	1322.62
446.687	1280.62
446.908	1306.62
447.129	1237.62
447.35	1239.62
447.571	1253.62
447.792	1220.62
448.013	1176.62
448.234	1214.62
448.455	1192.62
448.675	1212.62
448.896	1186.62
449.117	1182.62
449.338	1170.62
449.559	1164.62
449.779	1173.62
450	1156.62
450.221	1160.62
450.442	1150.62
450.662	1200.62
450.883	1166.62
451.104	1208.62
451.324	1197.62
451.545	1191.62
451.766	1154.62
451.986	1158.62
452.207	1137.62
452.428	1157.62
452.648	1160.62
452.869	1136.62
453.089	1141.62
453.31	1156.62
453.53	1146.62
453.751	1141.62
453.971	1132.62
454.192	1138.62
454.412	1139.62
454.633	1120.62
454.853	1127.62
455.073	1117.62
455.294	1149.62
455.514	1112.62
455.734	1094.62
455.955	1088.62
456.175	1096.62
456.395	1110.62
456.616	1110.62
456.836	1124.62
457.056	1093.62
457.276	1092.62
457.497	1116.62
457.717	1114.62
457.937	1114.62
458.157	1155.62
458.377	1147.62
458.598	1148.62
458.818	1183.62
459.038	1226.62
459.258	1254.62
459.478	1301.62
459.698	1336.62
459.918	1369.62
460.138	1418.62
460.358	1456.62
460.578	1444.62
460.798	1462.62
461.018	1512.62
461.238	1481.62
461.458	1472.62
461.678	1453.62
461.898	1492.62
462.118	1514.62
462.338	1569.62
462.558	1613.62
462.777	1665.62
462.997	1754.62
463.217	1818.62
463.437	1872.62
463.657	1736.62
463.876	1682.62
464.096	1688.62
464.316	1717.62
464.536	1712.62
464.755	1618.62
464.975	1630.62
465.195	1492.62
465.414	1466.62
465.634	1426.62
465.854	1341.62
466.073	1311.62
466.293	1291.62
466.512	1237.62
466.732	1278.62
466.951	1280.62
467.171	1251.62
467.391	1251.62
467.61	1242.62
467.829	1248.62
468.049	1216.62
468.268	1229.62
468.488	1185.62
468.707	1192.62
468.927	1185.62
469.146	1184.62
469.365	1220.62
469.585	1232.62
469.804	1241.62
470.023	1241.62
470.243	1256.62
470.462	1284.62
470.681	1278.62
470.901	1265.62
471.12	1239.62
471.339	1268.62
471.558	1251.62
471.777	1264.62
471.997	1274.62
472.216	1224.62
472.435	1202.62
472.654	1193.62
472.873	1163.62
473.092	1189.62
473.311	1174.62
473.53	1188.62
473.749	1196.62
473.968	1228.62
474.187	1208.62
474.406	1191.62
474.625	1185.62
474.844	1200.62
475.063	1202.62
475.282	1204.62
475.501	1177.62
475.72	1206.62
475.939	1229.62
476.158	1246.62
476.377	1238.62
476.596	1246.62
476.814	1250.62
477.033	1260.62
477.252	1254.62
477.471	1306.62
477.69	1319.62
477.908	1352.62
478.127	1404.62
478.346	1374.62
478.564	1460.62
478.783	1445.62
479.002	1447.62
479.22	1502.62
479.439	1489.62
479.658	1428.62
479.876	1486.62
480.095	1490.62
480.313	1547.62
480.532	1572.62
480.751	1550.62
480.969	1505.62
481.188	1488.62
481.406	1415.62
481.624	1425.62
481.843	1409.62
482.061	1369.62
482.28	1385.62
482.498	1389.62
482.717	1351.62
482.935	1385.62
483.153	1408.62
483.372	1428.62
483.59	1422.62
483.808	1387.62
484.027	1392.62
484.245	1374.62
484.463	1370.62
484.681	1449.62
484.9	1411.62
485.118	1437.62
485.336	1409.62
485.554	1443.62
485.772	1452.62
485.99	1436.62
486.209	1446.62
486.427	1443.62
486.645	1447.62
486.863	1426.62
487.081	1446.62
487.299	1454.62
487.517	1409.62
487.735	1469.62
487.953	1465.62
488.171	1463.62
488.389	1439.62
488.607	1433.62
488.825	1410.62
489.043	1403.62
489.261	1462.62
489.479	1445.62
489.696	1421.62
489.914	1448.62
490.132	1432.62
490.35	1429.62
490.568	1472.62
490.786	1468.62
491.003	1467.62
491.221	1464.62
491.439	1440.62
491.657	1468.62
491.874	1486.62
492.092	1499.62
492.31	1532.62
492.527	1519.62
492.745	1537.62
492.963	1517.62
493.18	1459.62
493.398	1535.62
493.615	1602.62
493.833	1498.62
494.05	1523.62
494.268	1546.62
494.485	1547.62
494.703	1507.62
494.92	1530.62
495.138	1537.62
495.355	1538.62
495.573	1569.62
495.79	1573.62
496.008	1624.62
496.225	1602.62
496.442	1614.62
496.66	1639.62
496.877	1661.62
497.094	1678.62
497.312	1701.62
497.529	1739.62
497.746	1766.62
497.963	1838.62
498.181	1869.62
498.398	1973.62
498.615	2055.62
498.832	2165.62
499.049	2238.62
499.267	2418.62
499.484	2625.62
499.701	2806.62
499.918	3094.62
500.135	3352.62
500.352	3673.62
500.569	3736.62
500.786	3712.62
501.003	3553.62
501.22	3279.62
501.437	3021.62
501.654	2797.62
501.871	2589.62
502.088	2407.62
502.305	2232.62
502.522	2180.62
502.739	2068.62
502.956	1980.62
503.172	1902.62
503.389	1863.62
503.606	1824.62
503.823	1783.62
504.04	1737.62
504.256	1727.62
504.473	1729.62
504.69	1756.62
504.907	1728.62
505.123	1664.62
505.34	1607.62
505.557	1561.62
505.773	1491.62
505.99	1450.62
506.207	1451.62
506.423	1425.62
506.64	1397.62
506.856	1386.62
507.073	1392.62
507.289	1369.62
507.506	1351.62
507.722	1368.62
507.939	1365.62
508.155	1364.62
508.372	1330.62
508.588	1295.62
508.805	1306.62
509.021	1309.62
509.238	1269.62
509.454	1249.62
509.67	1258.62
509.887	1244.62
510.103	1231.62
510.319	1230.62
510.536	1227.62
510.752	1229.62
510.968	1216.62
511.184	1229.62
511.401	1213.62
511.617	1217.62
511.833	1221.62
512.049	1209.62
512.265	1224.62
512.481	1226.62
512.698	1206.62
512.914	1205.62
513.13	1218.62
513.346	1244.62
513.562	1212.62
513.778	1224.62
513.994	1237.62
514.21	1236.62
514.426	1245.62
514.642	1215.62
514.858	1256.62
515.074	1256.62
515.29	1272.62
515.506	1258.62
515.721	1311.62
515.937	1317.62
516.153	1318.62
516.369	1316.62
516.585	1380.62
516.801	1398.62
517.016	1453.62
517.232	1484.62
517.448	1515.62
517.664	1581.62
517.879	1577.62
518.095	1574.62
518.311	1565.62
518.527	1509.62
518.742	1458.62
518.958	1410.62
519.173	1414.62
519.389	1339.62
519.605	1300.62
519.82	1300.62
520.036	1277.62
520.251	1256.62
520.467	1254.62
520.682	1212.62
520.898	1236.62
521.113	1200.62
521.329	1192.62
521.544	1196.62
521.76	1185.62
521.975	1166.62
522.19	1152.62
522.406	1160.62
522.621	1157.62
522.836	1130.62
523.052	1128.62
523.267	1109.62
523.482	1130.62
523.698	1132.62
523.913	1136.62
524.128	1110.62
524.343	1120.62
524.559	1108.62
524.774	1120.62
524.989	1080.62
525.204	1108.62
525.419	1115.62
525.634	1085.62
525.849	1096.62
526.064	1112.62
526.28	1084.62
526.495	1090.62
526.71	1065.62
526.925	1070.62
527.14	1091.62
527.355	1090.62
527.57	1075.62
527.785	1086.62
527.999	1078.62
528.214	1084.62
528.429	1074.62
528.644	1066.62
528.859	1070.62
529.074	1074.62
529.289	1074.62
529.503	1075.62
529.718	1085.62
529.933	1072.62
530.148	1102.62
530.363	1085.62
530.577	1084.62
530.792	1081.62
531.007	1048.62
531.221	1092.62
531.436	1078.62
531.651	1090.62
531.865	1065.62
532.08	1083.62
532.295	1064.62
532.509	1058.62
532.724	1091.62
532.938	1052.62
533.153	1031.62
533.367	1090.62
533.582	1042.62
533.796	1060.62
534.011	1073.62
534.225	1052.62
534.44	1075.62
534.654	1036.62
534.868	1022.62
535.083	1034.62
535.297	1030.62
535.511	1042.62
535.726	1022.62
535.94	1051.62
536.154	996.62
536.369	990.62
536.583	978.62
536.797	1017.62
537.011	974.62
537.225	1019.62
537.44	971.62
537.654	988.62
537.868	964.62
538.082	975.62
538.296	952.62
538.51	966.62
538.724	969.62
538.938	973.62
539.153	983.62
539.367	952.62
539.581	963.62
539.795	959.62
540.009	928.62
540.222	972.62
540.436	970.62
540.65	962.62
540.864	940.62
541.078	954.62
541.292	971.62
541.506	972.62
541.72	957.62
541.934	985.62
542.147	953.62
542.361	952.62
542.575	934.62
542.789	930.62
543.002	966.62
543.216	940.62
543.43	955.62
543.644	947.62
543.857	950.62
544.071	945.62
544.285	954.62
544.498	960.62
544.712	951.62
544.925	971.62
545.139	965.62
545.352	988.62
545.566	929.62
545.779	988.62
545.993	983.62
546.206	963.62
546.42	993.62
546.633	979.62
546.847	987.62
547.06	960.62
547.274	987.62
547.487	960.62
547.7	978.62
547.914	981.62
548.127	987.62
548.34	977.62
548.554	964.62
548.767	977.62
548.98	999.62
549.193	972.62
549.407	963.62
549.62	975.62
549.833	985.62
550.046	993.62
550.259	993.62
550.473	963.62
550.686	977.62
550.899	944.62
551.112	951.62
551.325	981.62
551.538	952.62
551.751	954.62
551.964	968.62
552.177	968.62
552.39	945.62
552.603	1010.62
552.816	1012.62
553.029	1022.62
553.242	1027.62
553.455	1043.62
553.667	1045.62
553.88	1005.62
554.093	982.62
554.306	985.62
554.519	965.62
554.732	921.62
554.944	924.62
555.157	892.62
555.37	906.62
555.583	914.62
555.795	897.62
556.008	899.62
556.221	897.62
556.433	869.62
556.646	864.62
556.859	846.62
557.071	806.62
557.284	843.62
557.496	864.62
557.709	856.62
557.921	836.62
558.134	848.62
558.346	812.62
558.559	828.62
558.771	817.62
558.984	801.62
559.196	791.62
559.409	835.62
559.621	784.62
559.833	806.62
560.046	791.62
560.258	782.62
560.47	793.62
560.683	800.62
560.895	788.62
561.107	821.62
561.32	821.62
561.532	786.62
561.744	796.62
561.956	813.62
562.168	801.62
562.381	809.62
562.593	793.62
562.805	794.62
563.017	802.62
563.229	798.62
563.441	813.62
563.653	830.62
563.865	809.62
564.077	824.62
564.289	822.62
564.501	840.62
564.713	867.62
564.925	869.62
565.137	865.62
565.349	918.62
565.561	933.62
565.773	950.62
565.985	966.62
566.197	1018.62
566.408	1058.62
566.62	1125.62
566.832	1191.62
567.044	1182.62
567.255	1174.62
567.467	1198.62
567.679	1260.62
567.891	1322.62
568.102	1278.62
568.314	1244.62
568.526	1200.62
568.737	1108.62
568.949	1042.62
569.161	1001.62
569.372	939.62
569.584	888.62
569.795	889.62
570.007	853.62
570.218	825.62
570.43	809.62
570.641	800.62
570.853	805.62
571.064	790.62
571.276	790.62
571.487	759.62
571.698	748.62
571.91	731.62
572.121	733.62
572.333	702.62
572.544	694.62
572.755	674.62
572.966	669.62
573.178	671.62
573.389	660.62
573.6	654.62
573.811	653.62
574.023	640.62
574.234	658.62
574.445	641.62
574.656	652.62
574.867	647.62
575.078	644.62
575.289	646.62
575.501	630.62
575.712	613.62
575.923	602.62
576.134	612.62
576.345	634.62
576.556	606.62
576.767	618.62
576.978	609.62
577.188	591.62
577.399	603.62
577.61	601.62
577.821	595.62
578.032	583.62
578.243	581.62
578.454	587.62
578.665	587.62
578.875	572.62
579.086	555.62
579.297	572.62
579.508	576.62
579.718	573.62
579.929	549.62
580.14	561.62
580.35	551.62
580.561	556.62
580.772	575.62
580.982	548.62
581.193	580.62
581.403	561.62
581.614	574.62
581.825	554.62
582.035	538.62
582.246	558.62
582.456	519.62
582.667	554.62
582.877	551.62
583.087	526.62
583.298	541.62
583.508	527.62
583.719	555.62
583.929	527.62
584.139	523.62
584.35	516.62
584.56	532.62
584.77	522.62
584.981	528.62
585.191	527.62
585.401	536.62
585.611	516.62
585.821	528.62
586.032	512.62
586.242	531.62
586.452	516.62
586.662	502.62
586.872	504.62
587.082	527.62
587.292	493.62
587.502	498.62
587.713	516.62
587.923	528.62
588.133	530.62
588.343	504.62
588.553	488.62
588.762	521.62
588.972	522.62
589.182	637.62
589.392	621.62
589.602	540.62
589.812	599.62
590.022	560.62
590.232	536.62
590.441	517.62
590.651	535.62
590.861	519.62
591.071	524.62
591.281	526.62
591.49	541.62
591.7	533.62
591.91	534.62
592.119	565.62
592.329	555.62
592.539	544.62
592.748	562.62
592.958	572.62
593.167	584.62
593.377	598.62
593.587	621.62
593.796	612.62
594.006	584.62
594.215	618.62
594.424	611.62
594.634	606.62
594.843	562.62
595.053	577.62
595.262	553.62
595.472	550.62
595.681	536.62
595.89	514.62
596.1	489.62
596.309	496.62
596.518	498.62
596.727	485.62
596.937	480.62
597.146	488.62
597.355	460.62
597.564	461.62
597.774	451.62
597.983	457.62
598.192	446.62
598.401	443.62
598.61	454.62
598.819	450.62
599.028	435.62
599.237	431.62
599.446	460.62
599.655	435.62
599.864	429.62
600.073	424.62
600.282	435.62
600.491	428.62
600.7	436.62
600.909	432.62
601.118	415.62
601.327	419.62
601.536	419.62
601.745	429.62
601.953	405.62
602.162	407.62
602.371	426.62
602.58	408.62
602.789	424.62
602.997	416.62
603.206	392.62
603.415	414.62
603.623	393.62
603.832	389.62
604.041	398.62
604.249	403.62
604.458	408.62
604.666	410.62
604.875	402.62
605.084	378.62
605.292	394.62
605.501	381.62
605.709	399.62
605.918	378.62
606.126	390.62
606.334	385.62
606.543	402.62
606.751	398.62
606.96	382.62
607.168	383.62
607.376	372.62
607.585	387.62
607.793	391.62
608.001	366.62
608.21	350.62
608.418	361.62
608.626	381.62
608.834	370.62
609.043	403.62
609.251	359.62
609.459	379.62
609.667	371.62
609.875	365.62
610.083	366.62
610.291	374.62
610.499	360.62
610.707	375.62
610.916	375.62
611.124	370.62
611.332	361.62
611.54	339.62
611.748	358.62
611.955	364.62
612.163	360.62
612.371	390.62
612.579	359.62
612.787	362.62
612.995	370.62
613.203	388.62
613.411	341.62
613.618	346.62
613.826	366.62
614.034	365.62
614.242	357.62
614.449	349.62
614.657	364.62
614.865	354.62
615.072	360.62
615.28	363.62
615.488	357.62
615.695	361.62
615.903	354.62
616.111	353.62
616.318	357.62
616.526	350.62
616.733	348.62
616.941	354.62
617.148	357.62
617.356	351.62
617.563	360.62
617.771	352.62
617.978	330.62
618.185	342.62
618.393	355.62
618.6	363.62
618.807	360.62
619.015	350.62
619.222	338.62
619.429	330.62
619.637	328.62
619.844	333.62
620.051	347.62
620.258	309.62
620.466	312.62
620.673	317.62
620.88	325.62
621.087	339.62
621.294	320.62
621.501	335.62
621.708	329.62
621.915	325.62
622.122	321.62
622.329	326.62
622.536	333.62
622.743	328.62
622.95	322.62
623.157	311.62
623.364	310.62
623.571	309.62
623.778	326.62
623.985	306.62
624.192	297.62
624.399	315.62
624.606	328.62
624.812	325.62
625.019	317.62
625.226	304.62
625.433	301.62
625.639	304.62
625.846	293.62
626.053	296.62
626.259	308.62
626.466	312.62
626.673	290.62
626.879	291.62
627.086	306.62
627.293	301.62
627.499	289.62
627.706	297.62
627.912	308.62
628.119	295.62
628.325	286.62
628.532	296.62
628.738	283.62
628.945	294.62
629.151	275.62
629.357	285.62
629.564	289.62
629.77	282.62
629.976	286.62
630.183	288.62
630.389	276.62
630.595	298.62
630.802	277.62
631.008	287.62
631.214	284.62
631.42	269.62
631.627	251.62
631.833	262.62
632.039	265.62
632.245	271.62
632.451	260.62
632.657	264.62
632.863	273.62
633.069	283.62
633.275	276.62
633.481	268.62
633.688	255.62
633.893	264.62
634.099	248.62
634.305	260.62
634.511	244.62
634.717	249.62
634.923	268.62
635.129	240.62
635.335	261.62
635.541	258.62
635.747	268.62
635.952	268.62
636.158	241.62
636.364	248.62
636.57	238.62
636.775	256.62
636.981	274.62
637.187	244.62
637.392	242.62
637.598	258.62
637.804	236.62
638.009	242.62
638.215	259.62
638.421	248.62
638.626	251.62
638.832	231.62
639.037	256.62
639.243	229.62
639.448	243.62
639.654	249.62
639.859	244.62
640.065	221.62
640.27	242.62
640.475	236.62
640.681	247.62
640.886	246.62
641.091	228.62
641.297	264.62
641.502	244.62
641.707	231.62
641.913	232.62
642.118	231.62
642.323	221.62
642.528	241.62
642.733	224.62
642.939	220.62
643.144	222.62
643.349	215.62
643.554	215.62
643.759	246.62
643.964	226.62
644.169	226.62
644.374	241.62
644.579	235.62
644.784	232.62
644.989	214.62
645.194	232.62
645.399	230.62
645.604	230.62
645.809	217.62
646.014	235.62
646.219	235.62
646.423	242.62
646.628	251.62
646.833	232.62
647.038	239.62
647.243	240.62
647.447	229.62
647.652	226.62
647.857	226.62
648.062	238.62
648.266	246.62
648.471	243.62
648.676	251.62
648.88	249.62
649.085	243.62
649.289	250.62
649.494	234.62
649.698	221.62
649.903	229.62
650.107	223.62
650.312	234.62
650.516	226.62
650.721	225.62
650.925	205.62
651.13	217.62
651.334	213.62
651.539	189.62
651.743	202.62
651.947	207.62
652.152	220.62
652.356	199.62
652.56	199.62
652.764	201.62
652.969	192.62
653.173	184.62
653.377	198.62
653.581	194.62
653.785	178.62
653.99	177.62
654.194	182.62
654.398	184.62
654.602	177.62
654.806	163.62
655.01	165.62
655.214	185.62
655.418	153.62
655.622	172.62
655.826	173.62
656.03	175.62
656.234	182.62
656.438	181.62
656.642	168.62
656.846	169.62
657.049	157.62
657.253	169.62
657.457	168.62
657.661	139.62
657.865	161.62
658.068	146.62
658.272	135.62
658.476	126.62
658.68	118.62
658.883	125.62
659.087	124.62
659.291	120.62
659.494	128.62
659.698	116.62
659.901	109.62
660.105	117.62
660.309	101.62
660.512	97.62
660.716	98.62
660.919	97.62
661.123	101.62
661.326	97.62
661.53	91.62
661.733	110.62
661.936	102.62
662.14	99.62
662.343	96.62
662.546	100.62
662.75	99.62
662.953	89.62
663.156	84.62
663.36	92.62
663.563	89.62
663.766	98.62
663.969	79.62
664.173	76.62
664.376	83.62
664.579	89.62
664.782	92.62
664.985	78.62
665.188	83.62
665.391	79.62
665.594	79.62
665.797	78.62
666	84.62
666.203	89.62
666.406	95.62
666.609	86.62
666.812	83.62
667.015	86.62
667.218	93.62
667.421	67.62
667.624	77.62
667.827	100.62
668.03	92.62
668.232	86.62
668.435	88.62
668.638	78.62
668.841	72.62
669.043	90.62
669.246	77.62
669.449	77.62
669.651	88.62
669.854	88.62
670.057	86.62
670.259	78.62
670.462	71.62
670.665	87.62
670.867	85.62
671.07	80.62
671.272	75.62
671.475	90.62
671.677	90.62
671.88	77.62
672.082	81.62
672.284	81.62
672.487	90.62
672.689	89.62
672.892	74.62
