Data from NiCl2@0.5M.TitratingCurve.Agarose3%dH2O.NegLispCup.LampEnergy10.LIBS07252019_HRD10591_18-20-13-571.txt Node
Date: Thu Jul 25 18:20:13 EDT 2019
User: cochatt
Spectrometer: HR+D1059
Trigger mode: 1
Integration Time (sec): 1.000000E-1
Scans to average: 1
Electric dark correction enabled: true
Nonlinearity correction enabled: false
Boxcar width: 0
XAxis mode: Wavelengths
Number of Pixels in Spectrum: 2048
>>>>>Begin Spectral Data<<<<<
223.165	-16.38
223.4	-16.38
223.635	-16.38
223.869	-9.38
224.104	-12.38
224.338	-17.38
224.573	-22.38
224.808	-12.38
225.042	-16.38
225.277	-1.38
225.511	7.62
225.746	13.62
225.98	14.62
226.215	7.62
226.449	4.62
226.683	24.62
226.918	13.62
227.152	21.62
227.387	27.62
227.621	45.62
227.856	50.62
228.09	44.62
228.324	41.62
228.559	52.62
228.793	53.62
229.027	102.62
229.262	111.62
229.496	116.62
229.73	115.62
229.964	113.62
230.199	118.62
230.433	108.62
230.667	117.62
230.901	129.62
231.136	122.62
231.37	134.62
231.604	127.62
231.838	132.62
232.072	130.62
232.306	129.62
232.541	130.62
232.775	116.62
233.009	121.62
233.243	122.62
233.477	144.62
233.711	128.62
233.945	127.62
234.179	123.62
234.413	126.62
234.647	126.62
234.881	136.62
235.115	120.62
235.349	144.62
235.583	123.62
235.817	136.62
236.051	125.62
236.285	141.62
236.519	140.62
236.753	127.62
236.987	158.62
237.221	137.62
237.455	135.62
237.689	148.62
237.922	140.62
238.156	139.62
238.39	130.62
238.624	150.62
238.858	148.62
239.091	141.62
239.325	146.62
239.559	147.62
239.793	157.62
240.027	145.62
240.26	157.62
240.494	157.62
240.728	159.62
240.961	167.62
241.195	168.62
241.429	165.62
241.662	162.62
241.896	152.62
242.13	175.62
242.363	184.62
242.597	165.62
242.83	155.62
243.064	164.62
243.298	171.62
243.531	172.62
243.765	179.62
243.998	175.62
244.232	161.62
244.465	165.62
244.699	180.62
244.932	193.62
245.166	175.62
245.399	197.62
245.633	201.62
245.866	182.62
246.099	185.62
246.333	188.62
246.566	179.62
246.8	190.62
247.033	187.62
247.266	191.62
247.5	197.62
247.733	185.62
247.966	199.62
248.2	203.62
248.433	208.62
248.666	198.62
248.899	204.62
249.133	196.62
249.366	219.62
249.599	218.62
249.832	206.62
250.066	213.62
250.299	214.62
250.532	208.62
250.765	210.62
250.998	224.62
251.231	213.62
251.465	221.62
251.698	215.62
251.931	216.62
252.164	209.62
252.397	210.62
252.63	203.62
252.863	230.62
253.096	232.62
253.329	221.62
253.562	209.62
253.795	227.62
254.028	226.62
254.261	231.62
254.494	234.62
254.727	231.62
254.96	222.62
255.193	233.62
255.426	230.62
255.659	228.62
255.892	253.62
256.124	231.62
256.357	231.62
256.59	246.62
256.823	249.62
257.056	238.62
257.289	270.62
257.521	244.62
257.754	269.62
257.987	238.62
258.22	224.62
258.452	230.62
258.685	236.62
258.918	266.62
259.151	252.62
259.383	262.62
259.616	250.62
259.849	254.62
260.081	265.62
260.314	245.62
260.547	285.62
260.779	280.62
261.012	249.62
261.244	258.62
261.477	292.62
261.71	281.62
261.942	283.62
262.175	266.62
262.407	287.62
262.64	265.62
262.872	270.62
263.105	272.62
263.337	271.62
263.57	267.62
263.802	270.62
264.035	294.62
264.267	277.62
264.499	285.62
264.732	285.62
264.964	275.62
265.197	291.62
265.429	292.62
265.661	287.62
265.894	292.62
266.126	307.62
266.358	313.62
266.591	286.62
266.823	309.62
267.055	311.62
267.287	296.62
267.52	305.62
267.752	281.62
267.984	316.62
268.216	311.62
268.448	291.62
268.681	285.62
268.913	302.62
269.145	316.62
269.377	298.62
269.609	314.62
269.841	317.62
270.073	319.62
270.306	314.62
270.538	332.62
270.77	297.62
271.002	321.62
271.234	322.62
271.466	317.62
271.698	300.62
271.93	319.62
272.162	315.62
272.394	325.62
272.626	322.62
272.858	319.62
273.09	329.62
273.322	331.62
273.553	343.62
273.785	337.62
274.017	334.62
274.249	345.62
274.481	339.62
274.713	350.62
274.945	339.62
275.176	347.62
275.408	322.62
275.64	354.62
275.872	332.62
276.104	338.62
276.335	334.62
276.567	339.62
276.799	338.62
277.031	354.62
277.262	346.62
277.494	355.62
277.726	358.62
277.957	359.62
278.189	361.62
278.421	361.62
278.652	360.62
278.884	343.62
279.115	360.62
279.347	374.62
279.579	379.62
279.81	359.62
280.042	349.62
280.273	376.62
280.505	357.62
280.736	363.62
280.968	364.62
281.199	372.62
281.431	373.62
281.662	375.62
281.894	373.62
282.125	366.62
282.356	379.62
282.588	359.62
282.819	382.62
283.051	385.62
283.282	381.62
283.513	392.62
283.745	409.62
283.976	397.62
284.207	388.62
284.439	402.62
284.67	399.62
284.901	413.62
285.132	397.62
285.364	398.62
285.595	392.62
285.826	399.62
286.057	410.62
286.288	392.62
286.52	417.62
286.751	428.62
286.982	422.62
287.213	416.62
287.444	408.62
287.675	415.62
287.906	418.62
288.138	423.62
288.369	416.62
288.6	453.62
288.831	418.62
289.062	414.62
289.293	446.62
289.524	427.62
289.755	419.62
289.986	434.62
290.217	429.62
290.448	427.62
290.679	437.62
290.91	404.62
291.141	436.62
291.371	428.62
291.602	434.62
291.833	402.62
292.064	421.62
292.295	416.62
292.526	421.62
292.757	429.62
292.987	442.62
293.218	401.62
293.449	451.62
293.68	428.62
293.91	423.62
294.141	431.62
294.372	455.62
294.603	456.62
294.833	438.62
295.064	424.62
295.295	447.62
295.525	457.62
295.756	457.62
295.987	447.62
296.217	447.62
296.448	447.62
296.679	449.62
296.909	452.62
297.14	478.62
297.37	466.62
297.601	478.62
297.831	480.62
298.062	466.62
298.292	474.62
298.523	478.62
298.753	469.62
298.984	469.62
299.214	484.62
299.445	475.62
299.675	471.62
299.905	498.62
300.136	469.62
300.366	496.62
300.597	509.62
300.827	499.62
301.057	492.62
301.288	501.62
301.518	492.62
301.748	495.62
301.979	504.62
302.209	517.62
302.439	495.62
302.669	506.62
302.9	509.62
303.13	481.62
303.36	521.62
303.59	489.62
303.82	501.62
304.051	511.62
304.281	514.62
304.511	519.62
304.741	507.62
304.971	508.62
305.201	511.62
305.431	523.62
305.661	514.62
305.891	509.62
306.121	515.62
306.352	497.62
306.582	476.62
306.812	516.62
307.042	509.62
307.272	500.62
307.502	499.62
307.731	509.62
307.961	498.62
308.191	488.62
308.421	499.62
308.651	499.62
308.881	480.62
309.111	471.62
309.341	494.62
309.571	526.62
309.8	531.62
310.03	501.62
310.26	516.62
310.49	531.62
310.72	527.62
310.949	504.62
311.179	515.62
311.409	495.62
311.639	485.62
311.868	518.62
312.098	525.62
312.328	510.62
312.557	514.62
312.787	498.62
313.017	534.62
313.246	514.62
313.476	546.62
313.706	556.62
313.935	537.62
314.165	522.62
314.394	542.62
314.624	537.62
314.853	539.62
315.083	558.62
315.312	532.62
315.542	539.62
315.771	558.62
316.001	535.62
316.23	543.62
316.46	527.62
316.689	548.62
316.919	521.62
317.148	513.62
317.377	542.62
317.607	521.62
317.836	535.62
318.065	514.62
318.295	514.62
318.524	539.62
318.753	537.62
318.983	522.62
319.212	545.62
319.441	520.62
319.67	527.62
319.9	507.62
320.129	518.62
320.358	532.62
320.587	532.62
320.816	543.62
321.046	535.62
321.275	513.62
321.504	537.62
321.733	539.62
321.962	522.62
322.191	563.62
322.42	536.62
322.649	554.62
322.878	531.62
323.108	519.62
323.337	555.62
323.566	572.62
323.795	539.62
324.024	573.62
324.253	548.62
324.482	556.62
324.71	543.62
324.939	552.62
325.168	559.62
325.397	541.62
325.626	556.62
325.855	551.62
326.084	593.62
326.313	588.62
326.542	575.62
326.77	571.62
326.999	589.62
327.228	558.62
327.457	561.62
327.686	563.62
327.914	590.62
328.143	568.62
328.372	600.62
328.6	566.62
328.829	552.62
329.058	621.62
329.287	581.62
329.515	562.62
329.744	563.62
329.972	577.62
330.201	580.62
330.43	595.62
330.658	571.62
330.887	585.62
331.115	592.62
331.344	626.62
331.572	611.62
331.801	614.62
332.03	621.62
332.258	649.62
332.486	653.62
332.715	667.62
332.943	676.62
333.172	697.62
333.4	700.62
333.629	734.62
333.857	736.62
334.085	743.62
334.314	718.62
334.542	739.62
334.771	726.62
334.999	720.62
335.227	698.62
335.455	700.62
335.684	719.62
335.912	725.62
336.14	693.62
336.369	693.62
336.597	719.62
336.825	695.62
337.053	722.62
337.281	702.62
337.51	680.62
337.738	678.62
337.966	659.62
338.194	661.62
338.422	656.62
338.65	631.62
338.878	649.62
339.106	630.62
339.334	653.62
339.562	669.62
339.79	626.62
340.018	602.62
340.246	621.62
340.474	609.62
340.702	617.62
340.93	618.62
341.158	630.62
341.386	635.62
341.614	658.62
341.842	657.62
342.07	601.62
342.298	605.62
342.526	621.62
342.754	621.62
342.981	604.62
343.209	625.62
343.437	645.62
343.665	679.62
343.893	714.62
344.12	727.62
344.348	691.62
344.576	674.62
344.804	690.62
345.031	641.62
345.259	647.62
345.487	632.62
345.714	629.62
345.942	613.62
346.17	654.62
346.397	641.62
346.625	629.62
346.853	603.62
347.08	604.62
347.308	603.62
347.535	607.62
347.763	611.62
347.99	599.62
348.218	597.62
348.445	592.62
348.673	596.62
348.9	600.62
349.128	590.62
349.355	609.62
349.583	609.62
349.81	593.62
350.037	577.62
350.265	569.62
350.492	570.62
350.72	566.62
350.947	558.62
351.174	581.62
351.402	597.62
351.629	577.62
351.856	595.62
352.083	573.62
352.311	587.62
352.538	597.62
352.765	603.62
352.992	557.62
353.22	554.62
353.447	557.62
353.674	534.62
353.901	548.62
354.128	560.62
354.355	550.62
354.583	564.62
354.81	553.62
355.037	547.62
355.264	578.62
355.491	547.62
355.718	546.62
355.945	555.62
356.172	567.62
356.399	576.62
356.626	585.62
356.853	578.62
357.08	591.62
357.307	579.62
357.534	551.62
357.761	547.62
357.988	571.62
358.215	554.62
358.441	543.62
358.668	558.62
358.895	543.62
359.122	574.62
359.349	569.62
359.576	569.62
359.802	553.62
360.029	559.62
360.256	568.62
360.483	551.62
360.709	551.62
360.936	555.62
361.163	539.62
361.39	577.62
361.616	555.62
361.843	562.62
362.07	614.62
362.296	592.62
362.523	562.62
362.749	542.62
362.976	556.62
363.203	551.62
363.429	557.62
363.656	559.62
363.882	541.62
364.109	542.62
364.335	532.62
364.562	541.62
364.788	540.62
365.015	565.62
365.241	540.62
365.468	555.62
365.694	551.62
365.92	542.62
366.147	542.62
366.373	527.62
366.599	545.62
366.826	557.62
367.052	558.62
367.278	561.62
367.505	574.62
367.731	572.62
367.957	546.62
368.184	541.62
368.41	546.62
368.636	553.62
368.862	561.62
369.089	564.62
369.315	552.62
369.541	561.62
369.767	558.62
369.993	573.62
370.219	573.62
370.445	566.62
370.672	565.62
370.898	589.62
371.124	554.62
371.35	556.62
371.576	623.62
371.802	574.62
372.028	591.62
372.254	597.62
372.48	598.62
372.706	590.62
372.932	604.62
373.158	603.62
373.384	583.62
373.61	597.62
373.835	579.62
374.061	613.62
374.287	606.62
374.513	606.62
374.739	616.62
374.965	627.62
375.191	663.62
375.416	637.62
375.642	640.62
375.868	614.62
376.094	595.62
376.319	581.62
376.545	608.62
376.771	587.62
376.997	584.62
377.222	589.62
377.448	554.62
377.674	609.62
377.899	564.62
378.125	578.62
378.35	593.62
378.576	579.62
378.802	586.62
379.027	563.62
379.253	590.62
379.478	569.62
379.704	557.62
379.929	551.62
380.155	567.62
380.38	578.62
380.606	578.62
380.831	592.62
381.057	598.62
381.282	588.62
381.507	587.62
381.733	598.62
381.958	559.62
382.184	587.62
382.409	636.62
382.634	592.62
382.86	590.62
383.085	615.62
383.31	627.62
383.535	625.62
383.761	616.62
383.986	629.62
384.211	652.62
384.436	664.62
384.662	625.62
384.887	681.62
385.112	687.62
385.337	671.62
385.562	689.62
385.787	681.62
386.013	695.62
386.238	685.62
386.463	697.62
386.688	686.62
386.913	686.62
387.138	677.62
387.363	673.62
387.588	682.62
387.813	684.62
388.038	663.62
388.263	689.62
388.488	695.62
388.713	703.62
388.938	672.62
389.163	673.62
389.387	695.62
389.612	671.62
389.837	645.62
390.062	673.62
390.287	684.62
390.512	679.62
390.736	711.62
390.961	693.62
391.186	700.62
391.411	720.62
391.636	709.62
391.86	745.62
392.085	728.62
392.31	730.62
392.534	718.62
392.759	746.62
392.984	720.62
393.208	729.62
393.433	718.62
393.658	722.62
393.882	736.62
394.107	710.62
394.331	729.62
394.556	740.62
394.78	757.62
395.005	740.62
395.229	742.62
395.454	743.62
395.678	796.62
395.903	759.62
396.127	747.62
396.352	742.62
396.576	744.62
396.801	714.62
397.025	759.62
397.249	738.62
397.474	782.62
397.698	775.62
397.922	780.62
398.147	773.62
398.371	811.62
398.595	819.62
398.82	882.62
399.044	922.62
399.268	951.62
399.492	1056.62
399.717	1150.62
399.941	1167.62
400.165	1105.62
400.389	1033.62
400.613	965.62
400.837	937.62
401.062	877.62
401.286	865.62
401.51	883.62
401.734	857.62
401.958	865.62
402.182	853.62
402.406	855.62
402.63	857.62
402.854	905.62
403.078	894.62
403.302	889.62
403.526	918.62
403.75	934.62
403.974	924.62
404.198	927.62
404.422	955.62
404.645	938.62
404.869	930.62
405.093	901.62
405.317	891.62
405.541	933.62
405.765	907.62
405.988	937.62
406.212	949.62
406.436	921.62
406.66	928.62
406.883	973.62
407.107	995.62
407.331	1020.62
407.555	1037.62
407.778	1070.62
408.002	1050.62
408.226	1028.62
408.449	1019.62
408.673	988.62
408.896	969.62
409.12	975.62
409.344	986.62
409.567	978.62
409.791	974.62
410.014	953.62
410.238	948.62
410.461	956.62
410.685	945.62
410.908	925.62
411.132	899.62
411.355	866.62
411.578	904.62
411.802	890.62
412.025	910.62
412.249	906.62
412.472	904.62
412.695	909.62
412.919	890.62
413.142	858.62
413.365	870.62
413.589	876.62
413.812	862.62
414.035	852.62
414.258	870.62
414.482	872.62
414.705	891.62
414.928	887.62
415.151	889.62
415.374	864.62
415.597	849.62
415.821	860.62
416.044	844.62
416.267	812.62
416.49	840.62
416.713	832.62
416.936	842.62
417.159	858.62
417.382	830.62
417.605	838.62
417.828	842.62
418.051	861.62
418.274	893.62
418.497	871.62
418.72	861.62
418.943	862.62
419.166	933.62
419.389	942.62
419.611	983.62
419.834	929.62
420.057	914.62
420.28	889.62
420.503	866.62
420.726	867.62
420.948	860.62
421.171	845.62
421.394	874.62
421.617	883.62
421.839	856.62
422.062	859.62
422.285	846.62
422.507	877.62
422.73	860.62
422.953	865.62
423.175	889.62
423.398	890.62
423.621	873.62
423.843	863.62
424.066	891.62
424.288	881.62
424.511	867.62
424.733	861.62
424.956	873.62
425.178	857.62
425.401	869.62
425.623	884.62
425.846	853.62
426.068	841.62
426.291	830.62
426.513	835.62
426.735	821.62
426.958	814.62
427.18	779.62
427.402	829.62
427.625	819.62
427.847	808.62
428.069	813.62
428.292	797.62
428.514	817.62
428.736	813.62
428.958	795.62
429.181	791.62
429.403	797.62
429.625	745.62
429.847	775.62
430.069	803.62
430.292	776.62
430.514	773.62
430.736	778.62
430.958	790.62
431.18	779.62
431.402	787.62
431.624	789.62
431.846	774.62
432.068	824.62
432.29	805.62
432.512	808.62
432.734	814.62
432.956	802.62
433.178	805.62
433.4	805.62
433.622	814.62
433.844	831.62
434.066	829.62
434.287	841.62
434.509	847.62
434.731	853.62
434.953	865.62
435.175	851.62
435.397	893.62
435.618	845.62
435.84	832.62
436.062	817.62
436.284	822.62
436.505	810.62
436.727	795.62
436.949	813.62
437.17	824.62
437.392	773.62
437.614	770.62
437.835	781.62
438.057	777.62
438.278	779.62
438.5	777.62
438.721	798.62
438.943	777.62
439.165	796.62
439.386	781.62
439.608	807.62
439.829	815.62
440.05	822.62
440.272	812.62
440.493	817.62
440.715	811.62
440.936	825.62
441.158	837.62
441.379	870.62
441.6	892.62
441.822	917.62
442.043	904.62
442.264	889.62
442.486	853.62
442.707	886.62
442.928	886.62
443.149	880.62
443.371	888.62
443.592	881.62
443.813	893.62
444.034	897.62
444.255	939.62
444.476	931.62
444.698	968.62
444.919	1001.62
445.14	1077.62
445.361	989.62
445.582	935.62
445.803	890.62
446.024	881.62
446.245	869.62
446.466	847.62
446.687	809.62
446.908	844.62
447.129	820.62
447.35	803.62
447.571	800.62
447.792	781.62
448.013	794.62
448.234	781.62
448.455	774.62
448.675	733.62
448.896	767.62
449.117	754.62
449.338	740.62
449.559	739.62
449.779	769.62
450	759.62
450.221	765.62
450.442	756.62
450.662	780.62
450.883	786.62
451.104	774.62
451.324	777.62
451.545	761.62
451.766	763.62
451.986	744.62
452.207	757.62
452.428	747.62
452.648	740.62
452.869	715.62
453.089	711.62
453.31	759.62
453.53	711.62
453.751	725.62
453.971	712.62
454.192	702.62
454.412	706.62
454.633	708.62
454.853	722.62
455.073	702.62
455.294	709.62
455.514	713.62
455.734	699.62
455.955	722.62
456.175	724.62
456.395	700.62
456.616	693.62
456.836	680.62
457.056	733.62
457.276	711.62
457.497	715.62
457.717	717.62
457.937	714.62
458.157	712.62
458.377	767.62
458.598	751.62
458.818	756.62
459.038	759.62
459.258	794.62
459.478	813.62
459.698	836.62
459.918	861.62
460.138	884.62
460.358	907.62
460.578	915.62
460.798	949.62
461.018	933.62
461.238	941.62
461.458	959.62
461.678	926.62
461.898	957.62
462.118	994.62
462.338	1016.62
462.558	1043.62
462.777	1091.62
462.997	1145.62
463.217	1159.62
463.437	1205.62
463.657	1123.62
463.876	1096.62
464.096	1077.62
464.316	1070.62
464.536	1069.62
464.755	1073.62
464.975	981.62
465.195	990.62
465.414	934.62
465.634	882.62
465.854	876.62
466.073	848.62
466.293	824.62
466.512	823.62
466.732	819.62
466.951	811.62
467.171	808.62
467.391	797.62
467.61	785.62
467.829	793.62
468.049	762.62
468.268	777.62
468.488	794.62
468.707	760.62
468.927	746.62
469.146	779.62
469.365	774.62
469.585	762.62
469.804	803.62
470.023	822.62
470.243	790.62
470.462	805.62
470.681	817.62
470.901	835.62
471.12	784.62
471.339	799.62
471.558	782.62
471.777	810.62
471.997	775.62
472.216	793.62
472.435	770.62
472.654	755.62
472.873	740.62
473.092	775.62
473.311	758.62
473.53	791.62
473.749	769.62
473.968	742.62
474.187	744.62
474.406	763.62
474.625	756.62
474.844	775.62
475.063	772.62
475.282	749.62
475.501	760.62
475.72	798.62
475.939	786.62
476.158	787.62
476.377	813.62
476.596	789.62
476.814	804.62
477.033	806.62
477.252	850.62
477.471	810.62
477.69	833.62
477.908	862.62
478.127	874.62
478.346	920.62
478.564	923.62
478.783	935.62
479.002	953.62
479.22	944.62
479.439	923.62
479.658	941.62
479.876	931.62
480.095	948.62
480.313	973.62
480.532	973.62
480.751	952.62
480.969	930.62
481.188	921.62
481.406	901.62
481.624	886.62
481.843	884.62
482.061	859.62
482.28	894.62
482.498	865.62
482.717	871.62
482.935	871.62
483.153	875.62
483.372	866.62
483.59	877.62
483.808	883.62
484.027	882.62
484.245	876.62
484.463	890.62
484.681	903.62
484.9	870.62
485.118	901.62
485.336	899.62
485.554	908.62
485.772	889.62
485.99	899.62
486.209	933.62
486.427	913.62
486.645	933.62
486.863	906.62
487.081	916.62
487.299	902.62
487.517	909.62
487.735	939.62
487.953	915.62
488.171	937.62
488.389	904.62
488.607	929.62
488.825	909.62
489.043	910.62
489.261	917.62
489.479	897.62
489.696	902.62
489.914	905.62
490.132	915.62
490.35	926.62
490.568	898.62
490.786	907.62
491.003	903.62
491.221	940.62
491.439	922.62
491.657	938.62
491.874	968.62
492.092	964.62
492.31	955.62
492.527	953.62
492.745	959.62
492.963	954.62
493.18	947.62
493.398	968.62
493.615	964.62
493.833	991.62
494.05	971.62
494.268	981.62
494.485	967.62
494.703	968.62
494.92	970.62
495.138	1001.62
495.355	1031.62
495.573	993.62
495.79	974.62
496.008	1013.62
496.225	1025.62
496.442	1067.62
496.66	1057.62
496.877	1045.62
497.094	1050.62
497.312	1091.62
497.529	1096.62
497.746	1148.62
497.963	1170.62
498.181	1213.62
498.398	1269.62
498.615	1299.62
498.832	1416.62
499.049	1489.62
499.267	1571.62
499.484	1708.62
499.701	1837.62
499.918	1955.62
500.135	2185.62
500.352	2326.62
500.569	2427.62
500.786	2390.62
501.003	2298.62
501.22	2148.62
501.437	1919.62
501.654	1798.62
501.871	1651.62
502.088	1535.62
502.305	1448.62
502.522	1379.62
502.739	1335.62
502.956	1250.62
503.172	1207.62
503.389	1174.62
503.606	1154.62
503.823	1132.62
504.04	1146.62
504.256	1146.62
504.473	1126.62
504.69	1094.62
504.907	1071.62
505.123	1054.62
505.34	1007.62
505.557	981.62
505.773	939.62
505.99	940.62
506.207	905.62
506.423	909.62
506.64	901.62
506.856	894.62
507.073	855.62
507.289	853.62
507.506	886.62
507.722	840.62
507.939	844.62
508.155	839.62
508.372	870.62
508.588	842.62
508.805	858.62
509.021	818.62
509.238	829.62
509.454	803.62
509.67	804.62
509.887	799.62
510.103	819.62
510.319	796.62
510.536	789.62
510.752	799.62
510.968	781.62
511.184	763.62
511.401	784.62
511.617	771.62
511.833	779.62
512.049	776.62
512.265	796.62
512.481	757.62
512.698	762.62
512.914	770.62
513.13	780.62
513.346	808.62
513.562	788.62
513.778	792.62
513.994	800.62
514.21	754.62
514.426	780.62
514.642	777.62
514.858	817.62
515.074	793.62
515.29	824.62
515.506	800.62
515.721	820.62
515.937	881.62
516.153	845.62
516.369	876.62
516.585	872.62
516.801	914.62
517.016	925.62
517.232	958.62
517.448	952.62
517.664	998.62
517.879	998.62
518.095	1004.62
518.311	996.62
518.527	951.62
518.742	947.62
518.958	892.62
519.173	877.62
519.389	871.62
519.605	871.62
519.82	824.62
520.036	809.62
520.251	829.62
520.467	806.62
520.682	798.62
520.898	790.62
521.113	788.62
521.329	765.62
521.544	738.62
521.76	781.62
521.975	748.62
522.19	761.62
522.406	738.62
522.621	729.62
522.836	739.62
523.052	725.62
523.267	719.62
523.482	704.62
523.698	716.62
523.913	706.62
524.128	707.62
524.343	721.62
524.559	732.62
524.774	719.62
524.989	732.62
525.204	710.62
525.419	694.62
525.634	712.62
525.849	678.62
526.064	703.62
526.28	701.62
526.495	702.62
526.71	685.62
526.925	718.62
527.14	698.62
527.355	713.62
527.57	698.62
527.785	700.62
527.999	675.62
528.214	706.62
528.429	690.62
528.644	734.62
528.859	693.62
529.074	703.62
529.289	704.62
529.503	684.62
529.718	723.62
529.933	683.62
530.148	692.62
530.363	677.62
530.577	698.62
530.792	691.62
531.007	682.62
531.221	694.62
531.436	701.62
531.651	686.62
531.865	692.62
532.08	693.62
532.295	682.62
532.509	679.62
532.724	701.62
532.938	686.62
533.153	673.62
533.367	690.62
533.582	702.62
533.796	687.62
534.011	690.62
534.225	677.62
534.44	669.62
534.654	665.62
534.868	673.62
535.083	698.62
535.297	645.62
535.511	641.62
535.726	649.62
535.94	643.62
536.154	638.62
536.369	667.62
536.583	620.62
536.797	627.62
537.011	641.62
537.225	661.62
537.44	665.62
537.654	632.62
537.868	629.62
538.082	649.62
538.296	638.62
538.51	630.62
538.724	606.62
538.938	643.62
539.153	626.62
539.367	651.62
539.581	640.62
539.795	649.62
540.009	628.62
540.222	611.62
540.436	625.62
540.65	635.62
540.864	611.62
541.078	635.62
541.292	631.62
541.506	638.62
541.72	656.62
541.934	651.62
542.147	630.62
542.361	648.62
542.575	633.62
542.789	636.62
543.002	617.62
543.216	633.62
543.43	593.62
543.644	619.62
543.857	605.62
544.071	607.62
544.285	628.62
544.498	627.62
544.712	647.62
544.925	639.62
545.139	662.62
545.352	634.62
545.566	636.62
545.779	623.62
545.993	651.62
546.206	650.62
546.42	630.62
546.633	645.62
546.847	645.62
547.06	651.62
547.274	627.62
547.487	654.62
547.7	653.62
547.914	659.62
548.127	678.62
548.34	654.62
548.554	649.62
548.767	655.62
548.98	650.62
549.193	617.62
549.407	625.62
549.62	651.62
549.833	674.62
550.046	637.62
550.259	654.62
550.473	645.62
550.686	642.62
550.899	614.62
551.112	633.62
551.325	637.62
551.538	642.62
551.751	621.62
551.964	627.62
552.177	659.62
552.39	664.62
552.603	655.62
552.816	679.62
553.029	690.62
553.242	679.62
553.455	684.62
553.667	695.62
553.88	677.62
554.093	666.62
554.306	637.62
554.519	666.62
554.732	665.62
554.944	627.62
555.157	612.62
555.37	599.62
555.583	608.62
555.795	590.62
556.008	588.62
556.221	594.62
556.433	584.62
556.646	567.62
556.859	550.62
557.071	549.62
557.284	568.62
557.496	561.62
557.709	550.62
557.921	556.62
558.134	559.62
558.346	536.62
558.559	540.62
558.771	505.62
558.984	549.62
559.196	543.62
559.409	528.62
559.621	537.62
559.833	518.62
560.046	529.62
560.258	545.62
560.47	537.62
560.683	540.62
560.895	536.62
561.107	551.62
561.32	554.62
561.532	553.62
561.744	555.62
561.956	541.62
562.168	540.62
562.381	528.62
562.593	528.62
562.805	546.62
563.017	548.62
563.229	558.62
563.441	531.62
563.653	526.62
563.865	519.62
564.077	553.62
564.289	561.62
564.501	580.62
564.713	572.62
564.925	595.62
565.137	588.62
565.349	604.62
565.561	620.62
565.773	619.62
565.985	664.62
566.197	670.62
566.408	724.62
566.62	759.62
566.832	789.62
567.044	765.62
567.255	769.62
567.467	832.62
567.679	836.62
567.891	863.62
568.102	849.62
568.314	830.62
568.526	757.62
568.737	735.62
568.949	680.62
569.161	647.62
569.372	622.62
569.584	580.62
569.795	597.62
570.007	568.62
570.218	537.62
570.43	549.62
570.641	524.62
570.853	537.62
571.064	531.62
571.276	534.62
571.487	504.62
571.698	499.62
571.91	504.62
572.121	477.62
572.333	487.62
572.544	462.62
572.755	458.62
572.966	466.62
573.178	452.62
573.389	459.62
573.6	441.62
573.811	444.62
574.023	420.62
574.234	449.62
574.445	423.62
574.656	444.62
574.867	447.62
575.078	415.62
575.289	423.62
575.501	424.62
575.712	423.62
575.923	419.62
576.134	427.62
576.345	401.62
576.556	413.62
576.767	406.62
576.978	409.62
577.188	399.62
577.399	407.62
577.61	393.62
577.821	396.62
578.032	391.62
578.243	404.62
578.454	401.62
578.665	372.62
578.875	361.62
579.086	403.62
579.297	389.62
579.508	391.62
579.718	380.62
579.929	373.62
580.14	372.62
580.35	381.62
580.561	364.62
580.772	383.62
580.982	376.62
581.193	368.62
581.403	372.62
581.614	382.62
581.825	376.62
582.035	403.62
582.246	379.62
582.456	376.62
582.667	369.62
582.877	353.62
583.087	360.62
583.298	363.62
583.508	358.62
583.719	343.62
583.929	373.62
584.139	374.62
584.35	359.62
584.56	358.62
584.77	351.62
584.981	375.62
585.191	362.62
585.401	359.62
585.611	354.62
585.821	336.62
586.032	382.62
586.242	351.62
586.452	360.62
586.662	340.62
586.872	346.62
587.082	363.62
587.292	355.62
587.502	360.62
587.713	364.62
587.923	357.62
588.133	339.62
588.343	353.62
588.553	342.62
588.762	356.62
588.972	357.62
589.182	417.62
589.392	389.62
589.602	372.62
589.812	376.62
590.022	393.62
590.232	359.62
590.441	366.62
590.651	356.62
590.861	356.62
591.071	372.62
591.281	370.62
591.49	346.62
591.7	369.62
591.91	359.62
592.119	373.62
592.329	373.62
592.539	372.62
592.748	410.62
592.958	395.62
593.167	395.62
593.377	394.62
593.587	435.62
593.796	406.62
594.006	401.62
594.215	436.62
594.424	414.62
594.634	413.62
594.843	382.62
595.053	392.62
595.262	377.62
595.472	371.62
595.681	382.62
595.89	353.62
596.1	364.62
596.309	341.62
596.518	327.62
596.727	348.62
596.937	327.62
597.146	315.62
597.355	318.62
597.564	325.62
597.774	312.62
597.983	300.62
598.192	312.62
598.401	318.62
598.61	301.62
598.819	328.62
599.028	317.62
599.237	309.62
599.446	319.62
599.655	294.62
599.864	302.62
600.073	300.62
600.282	310.62
600.491	315.62
600.7	308.62
600.909	314.62
601.118	292.62
601.327	293.62
601.536	289.62
601.745	309.62
601.953	294.62
602.162	295.62
602.371	292.62
602.58	289.62
602.789	302.62
602.997	292.62
603.206	299.62
603.415	283.62
603.623	274.62
603.832	285.62
604.041	283.62
604.249	257.62
604.458	275.62
604.666	279.62
604.875	281.62
605.084	294.62
605.292	270.62
605.501	268.62
605.709	281.62
605.918	277.62
606.126	274.62
606.334	284.62
606.543	284.62
606.751	274.62
606.96	282.62
607.168	261.62
607.376	257.62
607.585	275.62
607.793	269.62
608.001	275.62
608.21	275.62
608.418	262.62
608.626	257.62
608.834	278.62
609.043	265.62
609.251	241.62
609.459	272.62
609.667	258.62
609.875	257.62
610.083	269.62
610.291	266.62
610.499	262.62
610.707	261.62
610.916	271.62
611.124	264.62
611.332	266.62
611.54	257.62
611.748	283.62
611.955	252.62
612.163	264.62
612.371	263.62
612.579	251.62
612.787	249.62
612.995	250.62
613.203	261.62
613.411	268.62
613.618	237.62
613.826	261.62
614.034	260.62
614.242	250.62
614.449	271.62
614.657	265.62
614.865	261.62
615.072	261.62
615.28	262.62
615.488	261.62
615.695	262.62
615.903	263.62
616.111	242.62
616.318	255.62
616.526	248.62
616.733	277.62
616.941	238.62
617.148	247.62
617.356	251.62
617.563	271.62
617.771	244.62
617.978	258.62
618.185	257.62
618.393	233.62
618.6	248.62
618.807	251.62
619.015	254.62
619.222	244.62
619.429	236.62
619.637	253.62
619.844	236.62
620.051	227.62
620.258	211.62
620.466	241.62
620.673	232.62
620.88	233.62
621.087	237.62
621.294	241.62
621.501	225.62
621.708	233.62
621.915	235.62
622.122	235.62
622.329	242.62
622.536	242.62
622.743	237.62
622.95	232.62
623.157	223.62
623.364	231.62
623.571	218.62
623.778	225.62
623.985	243.62
624.192	235.62
624.399	239.62
624.606	221.62
624.812	226.62
625.019	232.62
625.226	204.62
625.433	233.62
625.639	233.62
625.846	215.62
626.053	203.62
626.259	234.62
626.466	239.62
626.673	218.62
626.879	212.62
627.086	235.62
627.293	211.62
627.499	233.62
627.706	228.62
627.912	225.62
628.119	207.62
628.325	216.62
628.532	204.62
628.738	208.62
628.945	209.62
629.151	214.62
629.357	225.62
629.564	190.62
629.77	212.62
629.976	213.62
630.183	209.62
630.389	208.62
630.595	210.62
630.802	201.62
631.008	203.62
631.214	210.62
631.42	191.62
631.627	208.62
631.833	200.62
632.039	210.62
632.245	206.62
632.451	199.62
632.657	186.62
632.863	189.62
633.069	205.62
633.275	189.62
633.481	203.62
633.688	198.62
633.893	189.62
634.099	190.62
634.305	202.62
634.511	203.62
634.717	185.62
634.923	193.62
635.129	186.62
635.335	199.62
635.541	184.62
635.747	175.62
635.952	187.62
636.158	187.62
636.364	185.62
636.57	177.62
636.775	187.62
636.981	206.62
637.187	179.62
637.392	177.62
637.598	193.62
637.804	199.62
638.009	184.62
638.215	196.62
638.421	180.62
638.626	181.62
638.832	189.62
639.037	182.62
639.243	177.62
639.448	185.62
639.654	197.62
639.859	173.62
640.065	172.62
640.27	190.62
640.475	171.62
640.681	186.62
640.886	178.62
641.091	181.62
641.297	189.62
641.502	182.62
641.707	183.62
641.913	171.62
642.118	193.62
642.323	182.62
642.528	179.62
642.733	177.62
642.939	182.62
643.144	178.62
643.349	174.62
643.554	187.62
643.759	184.62
643.964	158.62
644.169	166.62
644.374	166.62
644.579	179.62
644.784	179.62
644.989	182.62
645.194	178.62
645.399	176.62
645.604	174.62
645.809	173.62
646.014	176.62
646.219	159.62
646.423	179.62
646.628	169.62
646.833	173.62
647.038	171.62
647.243	163.62
647.447	190.62
647.652	168.62
647.857	161.62
648.062	189.62
648.266	171.62
648.471	159.62
648.676	177.62
648.88	181.62
649.085	171.62
649.289	173.62
649.494	182.62
649.698	183.62
649.903	178.62
650.107	169.62
650.312	181.62
650.516	167.62
650.721	169.62
650.925	169.62
651.13	168.62
651.334	163.62
651.539	156.62
651.743	156.62
651.947	171.62
652.152	158.62
652.356	166.62
652.56	147.62
652.764	143.62
652.969	149.62
653.173	133.62
653.377	152.62
653.581	157.62
653.785	151.62
653.99	147.62
654.194	155.62
654.398	147.62
654.602	134.62
654.806	133.62
655.01	139.62
655.214	130.62
655.418	148.62
655.622	138.62
655.826	141.62
656.03	140.62
656.234	127.62
656.438	143.62
656.642	124.62
656.846	123.62
657.049	129.62
657.253	134.62
657.457	139.62
657.661	129.62
657.865	130.62
658.068	104.62
658.272	119.62
658.476	123.62
658.68	120.62
658.883	105.62
659.087	104.62
659.291	95.62
659.494	98.62
659.698	108.62
659.901	103.62
660.105	91.62
660.309	102.62
660.512	106.62
660.716	82.62
660.919	101.62
661.123	120.62
661.326	89.62
661.53	90.62
661.733	95.62
661.936	79.62
662.14	95.62
662.343	101.62
662.546	95.62
662.75	114.62
662.953	82.62
663.156	85.62
663.36	77.62
663.563	76.62
663.766	85.62
663.969	87.62
664.173	93.62
664.376	78.62
664.579	91.62
664.782	85.62
664.985	94.62
665.188	82.62
665.391	84.62
665.594	80.62
665.797	91.62
666	92.62
666.203	78.62
666.406	91.62
666.609	84.62
666.812	84.62
667.015	100.62
667.218	89.62
667.421	75.62
667.624	80.62
667.827	82.62
668.03	76.62
668.232	88.62
668.435	75.62
668.638	96.62
668.841	83.62
669.043	100.62
669.246	71.62
669.449	81.62
669.651	84.62
669.854	86.62
670.057	78.62
670.259	81.62
670.462	79.62
670.665	78.62
670.867	81.62
671.07	85.62
671.272	100.62
671.475	84.62
671.677	85.62
671.88	75.62
672.082	82.62
672.284	77.62
672.487	75.62
672.689	76.62
672.892	75.62
