Data from NiCl2@0.0625M.TitratingCurve.Agarose3%dH2O.NegLispCup.LampEnergy10.LIBS07252019_HRD10591_18-34-14-576.txt Node
Date: Thu Jul 25 18:34:14 EDT 2019
User: cochatt
Spectrometer: HR+D1059
Trigger mode: 1
Integration Time (sec): 1.000000E-1
Scans to average: 1
Electric dark correction enabled: true
Nonlinearity correction enabled: false
Boxcar width: 0
XAxis mode: Wavelengths
Number of Pixels in Spectrum: 2048
>>>>>Begin Spectral Data<<<<<
223.165	-13.06
223.4	-13.06
223.635	-13.06
223.869	-32.06
224.104	-20.06
224.338	-10.06
224.573	-9.06
224.808	-24.06
225.042	-6.06
225.277	-17.06
225.511	-7.06
225.746	8.94
225.98	2.94
226.215	2.94
226.449	37.94
226.683	10.94
226.918	27.94
227.152	46.94
227.387	26.94
227.621	41.94
227.856	56.94
228.09	41.94
228.324	40.94
228.559	50.94
228.793	80.94
229.027	126.94
229.262	142.94
229.496	157.94
229.73	154.94
229.964	157.94
230.199	179.94
230.433	178.94
230.667	178.94
230.901	181.94
231.136	188.94
231.37	178.94
231.604	182.94
231.838	184.94
232.072	204.94
232.306	193.94
232.541	191.94
232.775	200.94
233.009	198.94
233.243	212.94
233.477	212.94
233.711	201.94
233.945	213.94
234.179	197.94
234.413	215.94
234.647	218.94
234.881	212.94
235.115	218.94
235.349	231.94
235.583	213.94
235.817	223.94
236.051	217.94
236.285	225.94
236.519	233.94
236.753	230.94
236.987	215.94
237.221	235.94
237.455	224.94
237.689	254.94
237.922	255.94
238.156	241.94
238.39	236.94
238.624	250.94
238.858	268.94
239.091	260.94
239.325	268.94
239.559	244.94
239.793	262.94
240.027	278.94
240.26	277.94
240.494	287.94
240.728	278.94
240.961	287.94
241.195	288.94
241.429	284.94
241.662	282.94
241.896	298.94
242.13	304.94
242.363	306.94
242.597	279.94
242.83	299.94
243.064	289.94
243.298	323.94
243.531	292.94
243.765	311.94
243.998	324.94
244.232	304.94
244.465	313.94
244.699	342.94
244.932	353.94
245.166	344.94
245.399	350.94
245.633	335.94
245.866	340.94
246.099	334.94
246.333	354.94
246.566	346.94
246.8	350.94
247.033	354.94
247.266	351.94
247.5	340.94
247.733	358.94
247.966	379.94
248.2	376.94
248.433	400.94
248.666	374.94
248.899	394.94
249.133	396.94
249.366	384.94
249.599	391.94
249.832	393.94
250.066	398.94
250.299	381.94
250.532	406.94
250.765	398.94
250.998	417.94
251.231	423.94
251.465	421.94
251.698	438.94
251.931	419.94
252.164	415.94
252.397	455.94
252.63	422.94
252.863	436.94
253.096	448.94
253.329	437.94
253.562	462.94
253.795	470.94
254.028	450.94
254.261	444.94
254.494	446.94
254.727	464.94
254.96	438.94
255.193	459.94
255.426	462.94
255.659	461.94
255.892	469.94
256.124	445.94
256.357	472.94
256.59	459.94
256.823	459.94
257.056	465.94
257.289	490.94
257.521	484.94
257.754	489.94
257.987	482.94
258.22	499.94
258.452	528.94
258.685	502.94
258.918	474.94
259.151	504.94
259.383	501.94
259.616	491.94
259.849	530.94
260.081	521.94
260.314	514.94
260.547	524.94
260.779	502.94
261.012	552.94
261.244	543.94
261.477	528.94
261.71	545.94
261.942	534.94
262.175	535.94
262.407	554.94
262.64	553.94
262.872	573.94
263.105	555.94
263.337	569.94
263.57	566.94
263.802	568.94
264.035	554.94
264.267	560.94
264.499	563.94
264.732	556.94
264.964	586.94
265.197	588.94
265.429	567.94
265.661	586.94
265.894	569.94
266.126	592.94
266.358	586.94
266.591	596.94
266.823	585.94
267.055	584.94
267.287	614.94
267.52	610.94
267.752	589.94
267.984	591.94
268.216	619.94
268.448	600.94
268.681	590.94
268.913	602.94
269.145	623.94
269.377	615.94
269.609	601.94
269.841	632.94
270.073	636.94
270.306	671.94
270.538	633.94
270.77	628.94
271.002	614.94
271.234	630.94
271.466	653.94
271.698	652.94
271.93	656.94
272.162	676.94
272.394	647.94
272.626	656.94
272.858	664.94
273.09	639.94
273.322	660.94
273.553	641.94
273.785	685.94
274.017	678.94
274.249	681.94
274.481	681.94
274.713	682.94
274.945	728.94
275.176	686.94
275.408	703.94
275.64	682.94
275.872	686.94
276.104	714.94
276.335	707.94
276.567	719.94
276.799	710.94
277.031	718.94
277.262	705.94
277.494	728.94
277.726	734.94
277.957	716.94
278.189	736.94
278.421	726.94
278.652	727.94
278.884	729.94
279.115	756.94
279.347	717.94
279.579	756.94
279.81	770.94
280.042	762.94
280.273	760.94
280.505	785.94
280.736	801.94
280.968	755.94
281.199	763.94
281.431	768.94
281.662	798.94
281.894	794.94
282.125	816.94
282.356	830.94
282.588	816.94
282.819	806.94
283.051	784.94
283.282	796.94
283.513	831.94
283.745	798.94
283.976	808.94
284.207	835.94
284.439	807.94
284.67	815.94
284.901	827.94
285.132	837.94
285.364	845.94
285.595	845.94
285.826	853.94
286.057	825.94
286.288	858.94
286.52	830.94
286.751	862.94
286.982	842.94
287.213	860.94
287.444	875.94
287.675	863.94
287.906	853.94
288.138	870.94
288.369	852.94
288.6	854.94
288.831	885.94
289.062	873.94
289.293	882.94
289.524	884.94
289.755	885.94
289.986	870.94
290.217	889.94
290.448	890.94
290.679	886.94
290.91	889.94
291.141	891.94
291.371	910.94
291.602	892.94
291.833	890.94
292.064	888.94
292.295	900.94
292.526	900.94
292.757	898.94
292.987	911.94
293.218	861.94
293.449	906.94
293.68	920.94
293.91	901.94
294.141	901.94
294.372	887.94
294.603	892.94
294.833	920.94
295.064	881.94
295.295	903.94
295.525	903.94
295.756	920.94
295.987	906.94
296.217	966.94
296.448	918.94
296.679	928.94
296.909	927.94
297.14	932.94
297.37	955.94
297.601	1004.94
297.831	971.94
298.062	957.94
298.292	953.94
298.523	974.94
298.753	942.94
298.984	952.94
299.214	971.94
299.445	963.94
299.675	955.94
299.905	1001.94
300.136	962.94
300.366	967.94
300.597	974.94
300.827	988.94
301.057	989.94
301.288	1006.94
301.518	1021.94
301.748	1025.94
301.979	1025.94
302.209	1019.94
302.439	1027.94
302.669	1044.94
302.9	1016.94
303.13	1034.94
303.36	1046.94
303.59	975.94
303.82	1015.94
304.051	1024.94
304.281	1055.94
304.511	1004.94
304.741	1040.94
304.971	1057.94
305.201	986.94
305.431	1027.94
305.661	1011.94
305.891	1034.94
306.121	1031.94
306.352	982.94
306.582	1015.94
306.812	997.94
307.042	1038.94
307.272	1040.94
307.502	996.94
307.731	988.94
307.961	1011.94
308.191	990.94
308.421	1012.94
308.651	1027.94
308.881	1008.94
309.111	1010.94
309.341	995.94
309.571	1018.94
309.8	1019.94
310.03	987.94
310.26	1034.94
310.49	1025.94
310.72	1018.94
310.949	1028.94
311.179	1034.94
311.409	1034.94
311.639	1051.94
311.868	1050.94
312.098	1062.94
312.328	1062.94
312.557	1077.94
312.787	1070.94
313.017	1040.94
313.246	1081.94
313.476	1030.94
313.706	1102.94
313.935	1099.94
314.165	1098.94
314.394	1106.94
314.624	1112.94
314.853	1113.94
315.083	1076.94
315.312	1094.94
315.542	1106.94
315.771	1069.94
316.001	1078.94
316.23	1092.94
316.46	1074.94
316.689	1100.94
316.919	1087.94
317.148	1082.94
317.377	1081.94
317.607	1084.94
317.836	1061.94
318.065	1089.94
318.295	1069.94
318.524	1054.94
318.753	1091.94
318.983	1072.94
319.212	1064.94
319.441	1099.94
319.67	1091.94
319.9	1076.94
320.129	1062.94
320.358	1087.94
320.587	1082.94
320.816	1087.94
321.046	1095.94
321.275	1084.94
321.504	1108.94
321.733	1110.94
321.962	1064.94
322.191	1103.94
322.42	1094.94
322.649	1115.94
322.878	1085.94
323.108	1069.94
323.337	1087.94
323.566	1115.94
323.795	1109.94
324.024	1087.94
324.253	1136.94
324.482	1150.94
324.71	1150.94
324.939	1134.94
325.168	1164.94
325.397	1128.94
325.626	1146.94
325.855	1182.94
326.084	1191.94
326.313	1176.94
326.542	1168.94
326.77	1218.94
326.999	1181.94
327.228	1161.94
327.457	1177.94
327.686	1167.94
327.914	1188.94
328.143	1158.94
328.372	1175.94
328.6	1208.94
328.829	1170.94
329.058	1171.94
329.287	1178.94
329.515	1193.94
329.744	1183.94
329.972	1211.94
330.201	1243.94
330.43	1232.94
330.658	1229.94
330.887	1222.94
331.115	1215.94
331.344	1215.94
331.572	1247.94
331.801	1302.94
332.03	1290.94
332.258	1350.94
332.486	1345.94
332.715	1359.94
332.943	1399.94
333.172	1430.94
333.4	1489.94
333.629	1506.94
333.857	1520.94
334.085	1516.94
334.314	1501.94
334.542	1507.94
334.771	1509.94
334.999	1482.94
335.227	1478.94
335.455	1483.94
335.684	1460.94
335.912	1461.94
336.14	1465.94
336.369	1415.94
336.597	1452.94
336.825	1456.94
337.053	1389.94
337.281	1379.94
337.51	1351.94
337.738	1363.94
337.966	1368.94
338.194	1313.94
338.422	1294.94
338.65	1274.94
338.878	1288.94
339.106	1289.94
339.334	1297.94
339.562	1283.94
339.79	1268.94
340.018	1239.94
340.246	1210.94
340.474	1221.94
340.702	1282.94
340.93	1240.94
341.158	1222.94
341.386	1199.94
341.614	1259.94
341.842	1244.94
342.07	1218.94
342.298	1214.94
342.526	1255.94
342.754	1251.94
342.981	1245.94
343.209	1274.94
343.437	1311.94
343.665	1399.94
343.893	1432.94
344.12	1493.94
344.348	1415.94
344.576	1392.94
344.804	1364.94
345.031	1308.94
345.259	1249.94
345.487	1258.94
345.714	1240.94
345.942	1206.94
346.17	1235.94
346.397	1202.94
346.625	1227.94
346.853	1208.94
347.08	1199.94
347.308	1174.94
347.535	1210.94
347.763	1205.94
347.99	1202.94
348.218	1206.94
348.445	1197.94
348.673	1181.94
348.9	1154.94
349.128	1213.94
349.355	1196.94
349.583	1166.94
349.81	1138.94
350.037	1152.94
350.265	1171.94
350.492	1150.94
350.72	1132.94
350.947	1150.94
351.174	1154.94
351.402	1168.94
351.629	1141.94
351.856	1160.94
352.083	1141.94
352.311	1166.94
352.538	1152.94
352.765	1134.94
352.992	1147.94
353.22	1122.94
353.447	1148.94
353.674	1138.94
353.901	1134.94
354.128	1136.94
354.355	1155.94
354.583	1163.94
354.81	1132.94
355.037	1140.94
355.264	1148.94
355.491	1135.94
355.718	1133.94
355.945	1143.94
356.172	1178.94
356.399	1126.94
356.626	1170.94
356.853	1168.94
357.08	1156.94
357.307	1154.94
357.534	1133.94
357.761	1161.94
357.988	1153.94
358.215	1142.94
358.441	1156.94
358.668	1145.94
358.895	1152.94
359.122	1183.94
359.349	1173.94
359.576	1162.94
359.802	1138.94
360.029	1158.94
360.256	1165.94
360.483	1145.94
360.709	1139.94
360.936	1123.94
361.163	1138.94
361.39	1146.94
361.616	1159.94
361.843	1152.94
362.07	1132.94
362.296	1135.94
362.523	1176.94
362.749	1176.94
362.976	1170.94
363.203	1166.94
363.429	1146.94
363.656	1141.94
363.882	1144.94
364.109	1173.94
364.335	1163.94
364.562	1172.94
364.788	1138.94
365.015	1135.94
365.241	1158.94
365.468	1139.94
365.694	1130.94
365.92	1160.94
366.147	1165.94
366.373	1131.94
366.599	1159.94
366.826	1140.94
367.052	1132.94
367.278	1129.94
367.505	1147.94
367.731	1182.94
367.957	1147.94
368.184	1167.94
368.41	1190.94
368.636	1199.94
368.862	1167.94
369.089	1194.94
369.315	1170.94
369.541	1196.94
369.767	1170.94
369.993	1192.94
370.219	1193.94
370.445	1247.94
370.672	1216.94
370.898	1224.94
371.124	1202.94
371.35	1267.94
371.576	1232.94
371.802	1253.94
372.028	1242.94
372.254	1268.94
372.48	1282.94
372.706	1295.94
372.932	1321.94
373.158	1293.94
373.384	1262.94
373.61	1257.94
373.835	1246.94
374.061	1284.94
374.287	1259.94
374.513	1281.94
374.739	1315.94
374.965	1347.94
375.191	1326.94
375.416	1365.94
375.642	1323.94
375.868	1342.94
376.094	1310.94
376.319	1282.94
376.545	1295.94
376.771	1254.94
376.997	1286.94
377.222	1253.94
377.448	1239.94
377.674	1266.94
377.899	1245.94
378.125	1241.94
378.35	1224.94
378.576	1259.94
378.802	1225.94
379.027	1245.94
379.253	1225.94
379.478	1266.94
379.704	1242.94
379.929	1246.94
380.155	1244.94
380.38	1239.94
380.606	1242.94
380.831	1229.94
381.057	1250.94
381.282	1236.94
381.507	1221.94
381.733	1248.94
381.958	1278.94
382.184	1246.94
382.409	1262.94
382.634	1295.94
382.86	1310.94
383.085	1314.94
383.31	1358.94
383.535	1387.94
383.761	1358.94
383.986	1392.94
384.211	1383.94
384.436	1414.94
384.662	1411.94
384.887	1455.94
385.112	1467.94
385.337	1472.94
385.562	1467.94
385.787	1480.94
386.013	1535.94
386.238	1500.94
386.463	1510.94
386.688	1494.94
386.913	1472.94
387.138	1487.94
387.363	1486.94
387.588	1495.94
387.813	1494.94
388.038	1505.94
388.263	1495.94
388.488	1499.94
388.713	1499.94
388.938	1512.94
389.163	1483.94
389.387	1496.94
389.612	1461.94
389.837	1489.94
390.062	1453.94
390.287	1455.94
390.512	1445.94
390.736	1500.94
390.961	1503.94
391.186	1525.94
391.411	1605.94
391.636	1592.94
391.86	1636.94
392.085	1663.94
392.31	1622.94
392.534	1641.94
392.759	1578.94
392.984	1571.94
393.208	1540.94
393.433	1569.94
393.658	1558.94
393.882	1580.94
394.107	1554.94
394.331	1572.94
394.556	1578.94
394.78	1569.94
395.005	1605.94
395.229	1613.94
395.454	1649.94
395.678	1676.94
395.903	1646.94
396.127	1626.94
396.352	1623.94
396.576	1598.94
396.801	1582.94
397.025	1631.94
397.249	1658.94
397.474	1706.94
397.698	1681.94
397.922	1708.94
398.147	1688.94
398.371	1746.94
398.595	1778.94
398.82	1866.94
399.044	1946.94
399.268	2102.94
399.492	2343.94
399.717	2527.94
399.941	2553.94
400.165	2360.94
400.389	2208.94
400.613	2100.94
400.837	1958.94
401.062	1903.94
401.286	1846.94
401.51	1850.94
401.734	1874.94
401.958	1869.94
402.182	1830.94
402.406	1882.94
402.63	1899.94
402.854	1907.94
403.078	1930.94
403.302	1970.94
403.526	1975.94
403.75	2010.94
403.974	2054.94
404.198	2034.94
404.422	2044.94
404.645	2051.94
404.869	2004.94
405.093	2038.94
405.317	1950.94
405.541	1988.94
405.765	2027.94
405.988	1992.94
406.212	2023.94
406.436	2004.94
406.66	2061.94
406.883	2090.94
407.107	2163.94
407.331	2282.94
407.555	2358.94
407.778	2337.94
408.002	2265.94
408.226	2227.94
408.449	2183.94
408.673	2159.94
408.896	2112.94
409.12	2050.94
409.344	2086.94
409.567	2059.94
409.791	2072.94
410.014	2015.94
410.238	2046.94
410.461	2033.94
410.685	2021.94
410.908	1996.94
411.132	1970.94
411.355	1942.94
411.578	1964.94
411.802	1932.94
412.025	1928.94
412.249	1934.94
412.472	1996.94
412.695	1874.94
412.919	1873.94
413.142	1865.94
413.365	1885.94
413.589	1904.94
413.812	1852.94
414.035	1844.94
414.258	1855.94
414.482	1887.94
414.705	1849.94
414.928	1899.94
415.151	1859.94
415.374	1835.94
415.597	1856.94
415.821	1793.94
416.044	1771.94
416.267	1827.94
416.49	1782.94
416.713	1759.94
416.936	1779.94
417.159	1766.94
417.382	1770.94
417.605	1760.94
417.828	1783.94
418.051	1798.94
418.274	1797.94
418.497	1753.94
418.72	1837.94
418.943	1834.94
419.166	1951.94
419.389	2064.94
419.611	2007.94
419.834	1927.94
420.057	1919.94
420.28	1852.94
420.503	1787.94
420.726	1768.94
420.948	1798.94
421.171	1807.94
421.394	1768.94
421.617	1750.94
421.839	1778.94
422.062	1822.94
422.285	1731.94
422.507	1804.94
422.73	1789.94
422.953	1792.94
423.175	1808.94
423.398	1816.94
423.621	1812.94
423.843	1858.94
424.066	1828.94
424.288	1823.94
424.511	1823.94
424.733	1807.94
424.956	1789.94
425.178	1755.94
425.401	1789.94
425.623	1811.94
425.846	1739.94
426.068	1771.94
426.291	1748.94
426.513	1687.94
426.735	1726.94
426.958	1707.94
427.18	1630.94
427.402	1638.94
427.625	1674.94
427.847	1647.94
428.069	1629.94
428.292	1667.94
428.514	1640.94
428.736	1615.94
428.958	1589.94
429.181	1572.94
429.403	1586.94
429.625	1562.94
429.847	1606.94
430.069	1580.94
430.292	1594.94
430.514	1586.94
430.736	1635.94
430.958	1652.94
431.18	1608.94
431.402	1610.94
431.624	1619.94
431.846	1651.94
432.068	1639.94
432.29	1679.94
432.512	1641.94
432.734	1665.94
432.956	1624.94
433.178	1672.94
433.4	1655.94
433.622	1716.94
433.844	1710.94
434.066	1659.94
434.287	1700.94
434.509	1760.94
434.731	1804.94
434.953	1775.94
435.175	1824.94
435.397	1764.94
435.618	1732.94
435.84	1690.94
436.062	1640.94
436.284	1666.94
436.505	1645.94
436.727	1663.94
436.949	1615.94
437.17	1625.94
437.392	1599.94
437.614	1580.94
437.835	1534.94
438.057	1567.94
438.278	1549.94
438.5	1570.94
438.721	1551.94
438.943	1572.94
439.165	1579.94
439.386	1598.94
439.608	1586.94
439.829	1602.94
440.05	1587.94
440.272	1583.94
440.493	1634.94
440.715	1634.94
440.936	1652.94
441.158	1674.94
441.379	1718.94
441.6	1758.94
441.822	1755.94
442.043	1765.94
442.264	1750.94
442.486	1719.94
442.707	1743.94
442.928	1708.94
443.149	1762.94
443.371	1733.94
443.592	1765.94
443.813	1750.94
444.034	1725.94
444.255	1807.94
444.476	1882.94
444.698	1974.94
444.919	2003.94
445.14	2077.94
445.361	1926.94
445.582	1813.94
445.803	1764.94
446.024	1693.94
446.245	1670.94
446.466	1650.94
446.687	1622.94
446.908	1631.94
447.129	1560.94
447.35	1569.94
447.571	1560.94
447.792	1484.94
448.013	1479.94
448.234	1470.94
448.455	1448.94
448.675	1458.94
448.896	1450.94
449.117	1432.94
449.338	1466.94
449.559	1463.94
449.779	1424.94
450	1433.94
450.221	1441.94
450.442	1450.94
450.662	1441.94
450.883	1452.94
451.104	1467.94
451.324	1450.94
451.545	1437.94
451.766	1475.94
451.986	1470.94
452.207	1432.94
452.428	1406.94
452.648	1418.94
452.869	1408.94
453.089	1366.94
453.31	1406.94
453.53	1390.94
453.751	1376.94
453.971	1375.94
454.192	1351.94
454.412	1350.94
454.633	1338.94
454.853	1350.94
455.073	1349.94
455.294	1396.94
455.514	1378.94
455.734	1352.94
455.955	1313.94
456.175	1340.94
456.395	1332.94
456.616	1356.94
456.836	1363.94
457.056	1380.94
457.276	1338.94
457.497	1416.94
457.717	1375.94
457.937	1367.94
458.157	1369.94
458.377	1428.94
458.598	1432.94
458.818	1489.94
459.038	1492.94
459.258	1561.94
459.478	1576.94
459.698	1642.94
459.918	1684.94
460.138	1711.94
460.358	1783.94
460.578	1828.94
460.798	1852.94
461.018	1844.94
461.238	1821.94
461.458	1835.94
461.678	1796.94
461.898	1843.94
462.118	1841.94
462.338	1972.94
462.558	1959.94
462.777	2072.94
462.997	2160.94
463.217	2247.94
463.437	2326.94
463.657	2188.94
463.876	2091.94
464.096	2097.94
464.316	2063.94
464.536	2027.94
464.755	1991.94
464.975	1964.94
465.195	1887.94
465.414	1790.94
465.634	1676.94
465.854	1660.94
466.073	1633.94
466.293	1579.94
466.512	1584.94
466.732	1570.94
466.951	1534.94
467.171	1538.94
467.391	1537.94
467.61	1518.94
467.829	1505.94
468.049	1506.94
468.268	1486.94
468.488	1458.94
468.707	1491.94
468.927	1463.94
469.146	1476.94
469.365	1479.94
469.585	1478.94
469.804	1539.94
470.023	1525.94
470.243	1604.94
470.462	1540.94
470.681	1583.94
470.901	1563.94
471.12	1523.94
471.339	1489.94
471.558	1491.94
471.777	1490.94
471.997	1477.94
472.216	1500.94
472.435	1446.94
472.654	1435.94
472.873	1474.94
473.092	1486.94
473.311	1447.94
473.53	1434.94
473.749	1466.94
473.968	1424.94
474.187	1420.94
474.406	1464.94
474.625	1451.94
474.844	1446.94
475.063	1466.94
475.282	1505.94
475.501	1493.94
475.72	1497.94
475.939	1503.94
476.158	1519.94
476.377	1539.94
476.596	1547.94
476.814	1554.94
477.033	1585.94
477.252	1590.94
477.471	1592.94
477.69	1647.94
477.908	1668.94
478.127	1690.94
478.346	1727.94
478.564	1765.94
478.783	1790.94
479.002	1834.94
479.22	1834.94
479.439	1808.94
479.658	1818.94
479.876	1866.94
480.095	1898.94
480.313	1896.94
480.532	1944.94
480.751	1948.94
480.969	1879.94
481.188	1854.94
481.406	1819.94
481.624	1768.94
481.843	1762.94
482.061	1760.94
482.28	1786.94
482.498	1743.94
482.717	1724.94
482.935	1755.94
483.153	1801.94
483.372	1767.94
483.59	1836.94
483.808	1802.94
484.027	1783.94
484.245	1883.94
484.463	1815.94
484.681	1919.94
484.9	1892.94
485.118	1890.94
485.336	1934.94
485.554	1946.94
485.772	1992.94
485.99	1939.94
486.209	1916.94
486.427	1957.94
486.645	1935.94
486.863	1926.94
487.081	1952.94
487.299	1922.94
487.517	1934.94
487.735	1887.94
487.953	1922.94
488.171	1946.94
488.389	1895.94
488.607	1837.94
488.825	1847.94
489.043	1832.94
489.261	1842.94
489.479	1829.94
489.696	1828.94
489.914	1882.94
490.132	1858.94
490.35	1834.94
490.568	1769.94
490.786	1850.94
491.003	1850.94
491.221	1828.94
491.439	1814.94
491.657	1859.94
491.874	1825.94
492.092	1837.94
492.31	1810.94
492.527	1806.94
492.745	1856.94
492.963	1845.94
493.18	1855.94
493.398	1855.94
493.615	1864.94
493.833	1850.94
494.05	1861.94
494.268	1843.94
494.485	1820.94
494.703	1852.94
494.92	1861.94
495.138	1894.94
495.355	1882.94
495.573	1879.94
495.79	1930.94
496.008	1883.94
496.225	1916.94
496.442	1921.94
496.66	1950.94
496.877	1979.94
497.094	2005.94
497.312	2038.94
497.529	2013.94
497.746	2137.94
497.963	2191.94
498.181	2275.94
498.398	2375.94
498.615	2444.94
498.832	2604.94
499.049	2733.94
499.267	2931.94
499.484	3239.94
499.701	3506.94
499.918	3732.94
500.135	4151.94
500.352	4550.94
500.569	4604.94
500.786	4589.94
501.003	4477.94
501.22	4113.94
501.437	3732.94
501.654	3387.94
501.871	3138.94
502.088	2902.94
502.305	2692.94
502.522	2584.94
502.739	2500.94
502.956	2338.94
503.172	2299.94
503.389	2201.94
503.606	2149.94
503.823	2099.94
504.04	2067.94
504.256	2093.94
504.473	2101.94
504.69	2054.94
504.907	2068.94
505.123	1998.94
505.34	1853.94
505.557	1806.94
505.773	1784.94
505.99	1754.94
506.207	1730.94
506.423	1710.94
506.64	1640.94
506.856	1644.94
507.073	1641.94
507.289	1603.94
507.506	1579.94
507.722	1592.94
507.939	1598.94
508.155	1570.94
508.372	1542.94
508.588	1552.94
508.805	1514.94
509.021	1523.94
509.238	1515.94
509.454	1528.94
509.67	1487.94
509.887	1499.94
510.103	1483.94
510.319	1466.94
510.536	1491.94
510.752	1458.94
510.968	1490.94
511.184	1434.94
511.401	1442.94
511.617	1469.94
511.833	1462.94
512.049	1433.94
512.265	1470.94
512.481	1471.94
512.698	1440.94
512.914	1460.94
513.13	1419.94
513.346	1444.94
513.562	1439.94
513.778	1450.94
513.994	1470.94
514.21	1445.94
514.426	1451.94
514.642	1458.94
514.858	1482.94
515.074	1460.94
515.29	1510.94
515.506	1518.94
515.721	1539.94
515.937	1586.94
516.153	1587.94
516.369	1599.94
516.585	1640.94
516.801	1671.94
517.016	1747.94
517.232	1838.94
517.448	1857.94
517.664	1938.94
517.879	1880.94
518.095	1876.94
518.311	1835.94
518.527	1781.94
518.742	1756.94
518.958	1716.94
519.173	1678.94
519.389	1608.94
519.605	1598.94
519.82	1551.94
520.036	1539.94
520.251	1476.94
520.467	1465.94
520.682	1477.94
520.898	1431.94
521.113	1415.94
521.329	1403.94
521.544	1376.94
521.76	1406.94
521.975	1384.94
522.19	1376.94
522.406	1327.94
522.621	1357.94
522.836	1363.94
523.052	1359.94
523.267	1317.94
523.482	1307.94
523.698	1323.94
523.913	1314.94
524.128	1331.94
524.343	1308.94
524.559	1326.94
524.774	1299.94
524.989	1314.94
525.204	1325.94
525.419	1297.94
525.634	1302.94
525.849	1312.94
526.064	1290.94
526.28	1300.94
526.495	1247.94
526.71	1262.94
526.925	1291.94
527.14	1259.94
527.355	1262.94
527.57	1266.94
527.785	1283.94
527.999	1289.94
528.214	1312.94
528.429	1292.94
528.644	1260.94
528.859	1253.94
529.074	1283.94
529.289	1288.94
529.503	1249.94
529.718	1275.94
529.933	1231.94
530.148	1286.94
530.363	1272.94
530.577	1283.94
530.792	1232.94
531.007	1282.94
531.221	1294.94
531.436	1269.94
531.651	1260.94
531.865	1259.94
532.08	1257.94
532.295	1281.94
532.509	1280.94
532.724	1270.94
532.938	1254.94
533.153	1280.94
533.367	1253.94
533.582	1238.94
533.796	1245.94
534.011	1257.94
534.225	1238.94
534.44	1231.94
534.654	1278.94
534.868	1274.94
535.083	1242.94
535.297	1224.94
535.511	1189.94
535.726	1197.94
535.94	1215.94
536.154	1195.94
536.369	1166.94
536.583	1184.94
536.797	1199.94
537.011	1204.94
537.225	1195.94
537.44	1203.94
537.654	1172.94
537.868	1170.94
538.082	1123.94
538.296	1164.94
538.51	1158.94
538.724	1155.94
538.938	1106.94
539.153	1158.94
539.367	1138.94
539.581	1130.94
539.795	1138.94
540.009	1148.94
540.222	1156.94
540.436	1162.94
540.65	1152.94
540.864	1133.94
541.078	1108.94
541.292	1147.94
541.506	1096.94
541.72	1141.94
541.934	1128.94
542.147	1134.94
542.361	1085.94
542.575	1115.94
542.789	1076.94
543.002	1074.94
543.216	1133.94
543.43	1118.94
543.644	1130.94
543.857	1102.94
544.071	1100.94
544.285	1105.94
544.498	1110.94
544.712	1145.94
544.925	1123.94
545.139	1111.94
545.352	1118.94
545.566	1145.94
545.779	1142.94
545.993	1161.94
546.206	1166.94
546.42	1110.94
546.633	1131.94
546.847	1120.94
547.06	1130.94
547.274	1126.94
547.487	1131.94
547.7	1106.94
547.914	1126.94
548.127	1135.94
548.34	1127.94
548.554	1156.94
548.767	1116.94
548.98	1142.94
549.193	1160.94
549.407	1143.94
549.62	1146.94
549.833	1180.94
550.046	1166.94
550.259	1134.94
550.473	1162.94
550.686	1095.94
550.899	1109.94
551.112	1129.94
551.325	1101.94
551.538	1099.94
551.751	1127.94
551.964	1138.94
552.177	1127.94
552.39	1127.94
552.603	1186.94
552.816	1176.94
553.029	1206.94
553.242	1216.94
553.455	1216.94
553.667	1195.94
553.88	1222.94
554.093	1192.94
554.306	1142.94
554.519	1138.94
554.732	1102.94
554.944	1094.94
555.157	1072.94
555.37	1087.94
555.583	1071.94
555.795	1050.94
556.008	1030.94
556.221	1034.94
556.433	1003.94
556.646	995.94
556.859	1008.94
557.071	973.94
557.284	1042.94
557.496	978.94
557.709	992.94
557.921	972.94
558.134	963.94
558.346	956.94
558.559	974.94
558.771	966.94
558.984	965.94
559.196	931.94
559.409	938.94
559.621	950.94
559.833	927.94
560.046	912.94
560.258	930.94
560.47	951.94
560.683	920.94
560.895	954.94
561.107	946.94
561.32	932.94
561.532	948.94
561.744	939.94
561.956	973.94
562.168	939.94
562.381	939.94
562.593	949.94
562.805	960.94
563.017	927.94
563.229	929.94
563.441	964.94
563.653	971.94
563.865	934.94
564.077	988.94
564.289	964.94
564.501	991.94
564.713	1040.94
564.925	1035.94
565.137	1031.94
565.349	1062.94
565.561	1076.94
565.773	1114.94
565.985	1139.94
566.197	1194.94
566.408	1286.94
566.62	1358.94
566.832	1403.94
567.044	1430.94
567.255	1438.94
567.467	1497.94
567.679	1557.94
567.891	1598.94
568.102	1611.94
568.314	1542.94
568.526	1436.94
568.737	1374.94
568.949	1249.94
569.161	1172.94
569.372	1102.94
569.584	1084.94
569.795	1047.94
570.007	1005.94
570.218	968.94
570.43	962.94
570.641	946.94
570.853	957.94
571.064	965.94
571.276	950.94
571.487	902.94
571.698	884.94
571.91	870.94
572.121	878.94
572.333	862.94
572.544	820.94
572.755	822.94
572.966	816.94
573.178	782.94
573.389	801.94
573.6	785.94
573.811	781.94
574.023	774.94
574.234	780.94
574.445	762.94
574.656	747.94
574.867	768.94
575.078	767.94
575.289	749.94
575.501	748.94
575.712	734.94
575.923	711.94
576.134	741.94
576.345	733.94
576.556	734.94
576.767	709.94
576.978	724.94
577.188	705.94
577.399	722.94
577.61	706.94
577.821	677.94
578.032	696.94
578.243	682.94
578.454	671.94
578.665	685.94
578.875	669.94
579.086	683.94
579.297	651.94
579.508	674.94
579.718	684.94
579.929	677.94
580.14	670.94
580.35	644.94
580.561	651.94
580.772	663.94
580.982	640.94
581.193	674.94
581.403	642.94
581.614	643.94
581.825	639.94
582.035	656.94
582.246	648.94
582.456	657.94
582.667	653.94
582.877	644.94
583.087	638.94
583.298	621.94
583.508	600.94
583.719	634.94
583.929	637.94
584.139	660.94
584.35	652.94
584.56	636.94
584.77	629.94
584.981	608.94
585.191	637.94
585.401	623.94
585.611	632.94
585.821	613.94
586.032	628.94
586.242	602.94
586.452	629.94
586.662	606.94
586.872	600.94
587.082	603.94
587.292	588.94
587.502	595.94
587.713	594.94
587.923	582.94
588.133	613.94
588.343	623.94
588.553	609.94
588.762	618.94
588.972	616.94
589.182	621.94
589.392	628.94
589.602	606.94
589.812	638.94
590.022	639.94
590.232	618.94
590.441	613.94
590.651	618.94
590.861	606.94
591.071	663.94
591.281	605.94
591.49	634.94
591.7	669.94
591.91	653.94
592.119	680.94
592.329	653.94
592.539	669.94
592.748	687.94
592.958	716.94
593.167	703.94
593.377	729.94
593.587	726.94
593.796	755.94
594.006	759.94
594.215	744.94
594.424	726.94
594.634	728.94
594.843	714.94
595.053	691.94
595.262	642.94
595.472	660.94
595.681	640.94
595.89	627.94
596.1	619.94
596.309	592.94
596.518	580.94
596.727	586.94
596.937	568.94
597.146	570.94
597.355	576.94
597.564	552.94
597.774	538.94
597.983	526.94
598.192	543.94
598.401	531.94
598.61	495.94
598.819	516.94
599.028	514.94
599.237	518.94
599.446	512.94
599.655	508.94
599.864	527.94
600.073	492.94
600.282	500.94
600.491	493.94
600.7	506.94
600.909	500.94
601.118	499.94
601.327	500.94
601.536	493.94
601.745	504.94
601.953	510.94
602.162	503.94
602.371	500.94
602.58	485.94
602.789	486.94
602.997	501.94
603.206	484.94
603.415	472.94
603.623	469.94
603.832	462.94
604.041	472.94
604.249	479.94
604.458	471.94
604.666	465.94
604.875	469.94
605.084	459.94
605.292	464.94
605.501	452.94
605.709	467.94
605.918	471.94
606.126	453.94
606.334	468.94
606.543	456.94
606.751	466.94
606.96	454.94
607.168	443.94
607.376	470.94
607.585	448.94
607.793	445.94
608.001	460.94
608.21	448.94
608.418	432.94
608.626	443.94
608.834	454.94
609.043	452.94
609.251	432.94
609.459	444.94
609.667	447.94
609.875	447.94
610.083	454.94
610.291	443.94
610.499	432.94
610.707	443.94
610.916	432.94
611.124	432.94
611.332	426.94
611.54	427.94
611.748	436.94
611.955	454.94
612.163	424.94
612.371	423.94
612.579	413.94
612.787	419.94
612.995	429.94
613.203	439.94
613.411	444.94
613.618	429.94
613.826	427.94
614.034	417.94
614.242	418.94
614.449	432.94
614.657	445.94
614.865	430.94
615.072	434.94
615.28	425.94
615.488	427.94
615.695	426.94
615.903	427.94
616.111	427.94
616.318	419.94
616.526	431.94
616.733	444.94
616.941	430.94
617.148	446.94
617.356	412.94
617.563	412.94
617.771	422.94
617.978	428.94
618.185	452.94
618.393	436.94
618.6	426.94
618.807	400.94
619.015	407.94
619.222	404.94
619.429	407.94
619.637	395.94
619.844	412.94
620.051	418.94
620.258	397.94
620.466	394.94
620.673	379.94
620.88	377.94
621.087	384.94
621.294	380.94
621.501	376.94
621.708	381.94
621.915	396.94
622.122	399.94
622.329	382.94
622.536	408.94
622.743	354.94
622.95	395.94
623.157	381.94
623.364	362.94
623.571	372.94
623.778	376.94
623.985	374.94
624.192	380.94
624.399	367.94
624.606	382.94
624.812	376.94
625.019	357.94
625.226	356.94
625.433	386.94
625.639	364.94
625.846	354.94
626.053	331.94
626.259	370.94
626.466	358.94
626.673	347.94
626.879	343.94
627.086	352.94
627.293	347.94
627.499	374.94
627.706	361.94
627.912	342.94
628.119	358.94
628.325	350.94
628.532	351.94
628.738	345.94
628.945	335.94
629.151	338.94
629.357	363.94
629.564	331.94
629.77	323.94
629.976	331.94
630.183	326.94
630.389	326.94
630.595	324.94
630.802	331.94
631.008	318.94
631.214	319.94
631.42	327.94
631.627	327.94
631.833	340.94
632.039	334.94
632.245	316.94
632.451	304.94
632.657	333.94
632.863	300.94
633.069	317.94
633.275	323.94
633.481	322.94
633.688	311.94
633.893	313.94
634.099	314.94
634.305	313.94
634.511	317.94
634.717	290.94
634.923	295.94
635.129	311.94
635.335	301.94
635.541	298.94
635.747	320.94
635.952	308.94
636.158	317.94
636.364	312.94
636.57	302.94
636.775	310.94
636.981	306.94
637.187	296.94
637.392	302.94
637.598	283.94
637.804	299.94
638.009	295.94
638.215	282.94
638.421	276.94
638.626	304.94
638.832	295.94
639.037	304.94
639.243	308.94
639.448	287.94
639.654	281.94
639.859	285.94
640.065	305.94
640.27	301.94
640.475	295.94
640.681	283.94
640.886	283.94
641.091	284.94
641.297	300.94
641.502	292.94
641.707	295.94
641.913	273.94
642.118	287.94
642.323	288.94
642.528	290.94
642.733	293.94
642.939	279.94
643.144	295.94
643.349	271.94
643.554	274.94
643.759	277.94
643.964	284.94
644.169	278.94
644.374	284.94
644.579	262.94
644.784	278.94
644.989	280.94
645.194	302.94
645.399	293.94
645.604	296.94
645.809	281.94
646.014	286.94
646.219	290.94
646.423	281.94
646.628	287.94
646.833	277.94
647.038	291.94
647.243	296.94
647.447	294.94
647.652	299.94
647.857	288.94
648.062	313.94
648.266	318.94
648.471	302.94
648.676	310.94
648.88	308.94
649.085	308.94
649.289	323.94
649.494	293.94
649.698	293.94
649.903	315.94
650.107	298.94
650.312	292.94
650.516	297.94
650.721	293.94
650.925	284.94
651.13	282.94
651.334	278.94
651.539	288.94
651.743	273.94
651.947	273.94
652.152	281.94
652.356	279.94
652.56	268.94
652.764	291.94
652.969	268.94
653.173	270.94
653.377	275.94
653.581	280.94
653.785	269.94
653.99	279.94
654.194	271.94
654.398	287.94
654.602	278.94
654.806	276.94
655.01	269.94
655.214	303.94
655.418	311.94
655.622	311.94
655.826	340.94
656.03	346.94
656.234	372.94
656.438	420.94
656.642	426.94
656.846	370.94
657.049	336.94
657.253	319.94
657.457	269.94
657.661	249.94
657.865	231.94
658.068	218.94
658.272	212.94
658.476	187.94
658.68	175.94
658.883	160.94
659.087	166.94
659.291	170.94
659.494	156.94
659.698	141.94
659.901	140.94
660.105	127.94
660.309	134.94
660.512	123.94
660.716	130.94
660.919	116.94
661.123	116.94
661.326	107.94
661.53	108.94
661.733	91.94
661.936	93.94
662.14	92.94
662.343	97.94
662.546	100.94
662.75	93.94
662.953	109.94
663.156	87.94
663.36	86.94
663.563	87.94
663.766	84.94
663.969	87.94
664.173	77.94
664.376	87.94
664.579	90.94
664.782	80.94
664.985	90.94
665.188	75.94
665.391	90.94
665.594	91.94
665.797	77.94
666	80.94
666.203	85.94
666.406	78.94
666.609	71.94
666.812	80.94
667.015	81.94
667.218	84.94
667.421	83.94
667.624	90.94
667.827	74.94
668.03	87.94
668.232	89.94
668.435	86.94
668.638	69.94
668.841	95.94
669.043	100.94
669.246	90.94
669.449	79.94
669.651	80.94
669.854	101.94
670.057	63.94
670.259	80.94
670.462	78.94
670.665	89.94
670.867	95.94
671.07	96.94
671.272	86.94
671.475	90.94
671.677	79.94
671.88	71.94
672.082	74.94
672.284	88.94
672.487	82.94
672.689	79.94
672.892	85.94
