Data from NiCl2@0.0625M.TitratingCurve.Agarose3%dH2O.NegLispCup.LampEnergy10.LIBS07252019_HRD10591_18-34-23-576.txt Node
Date: Thu Jul 25 18:34:23 EDT 2019
User: cochatt
Spectrometer: HR+D1059
Trigger mode: 1
Integration Time (sec): 1.000000E-1
Scans to average: 1
Electric dark correction enabled: true
Nonlinearity correction enabled: false
Boxcar width: 0
XAxis mode: Wavelengths
Number of Pixels in Spectrum: 2048
>>>>>Begin Spectral Data<<<<<
223.165	-17.12
223.4	-17.12
223.635	-17.12
223.869	0.88
224.104	-19.12
224.338	-17.12
224.573	-21.12
224.808	-25.12
225.042	-4.12
225.277	-13.12
225.511	-6.12
225.746	-0.12
225.98	-7.12
226.215	22.88
226.449	23.88
226.683	33.88
226.918	20.88
227.152	27.88
227.387	21.88
227.621	29.88
227.856	41.88
228.09	47.88
228.324	49.88
228.559	60.88
228.793	84.88
229.027	130.88
229.262	143.88
229.496	147.88
229.73	167.88
229.964	161.88
230.199	177.88
230.433	163.88
230.667	165.88
230.901	175.88
231.136	175.88
231.37	187.88
231.604	176.88
231.838	164.88
232.072	168.88
232.306	170.88
232.541	204.88
232.775	185.88
233.009	180.88
233.243	189.88
233.477	182.88
233.711	189.88
233.945	195.88
234.179	190.88
234.413	169.88
234.647	189.88
234.881	198.88
235.115	192.88
235.349	205.88
235.583	196.88
235.817	197.88
236.051	189.88
236.285	201.88
236.519	209.88
236.753	211.88
236.987	214.88
237.221	208.88
237.455	219.88
237.689	226.88
237.922	219.88
238.156	211.88
238.39	197.88
238.624	225.88
238.858	219.88
239.091	228.88
239.325	232.88
239.559	228.88
239.793	258.88
240.027	234.88
240.26	249.88
240.494	254.88
240.728	265.88
240.961	245.88
241.195	256.88
241.429	261.88
241.662	260.88
241.896	262.88
242.13	274.88
242.363	259.88
242.597	256.88
242.83	277.88
243.064	257.88
243.298	298.88
243.531	288.88
243.765	275.88
243.998	278.88
244.232	276.88
244.465	271.88
244.699	279.88
244.932	309.88
245.166	299.88
245.399	310.88
245.633	303.88
245.866	303.88
246.099	297.88
246.333	319.88
246.566	298.88
246.8	320.88
247.033	309.88
247.266	328.88
247.5	328.88
247.733	330.88
247.966	315.88
248.2	332.88
248.433	336.88
248.666	338.88
248.899	333.88
249.133	346.88
249.366	337.88
249.599	348.88
249.832	333.88
250.066	357.88
250.299	340.88
250.532	364.88
250.765	346.88
250.998	345.88
251.231	370.88
251.465	373.88
251.698	380.88
251.931	371.88
252.164	371.88
252.397	365.88
252.63	364.88
252.863	376.88
253.096	372.88
253.329	382.88
253.562	410.88
253.795	384.88
254.028	395.88
254.261	397.88
254.494	395.88
254.727	396.88
254.96	414.88
255.193	409.88
255.426	384.88
255.659	405.88
255.892	404.88
256.124	419.88
256.357	433.88
256.59	443.88
256.823	423.88
257.056	428.88
257.289	429.88
257.521	412.88
257.754	426.88
257.987	418.88
258.22	445.88
258.452	412.88
258.685	457.88
258.918	451.88
259.151	440.88
259.383	446.88
259.616	448.88
259.849	449.88
260.081	447.88
260.314	461.88
260.547	452.88
260.779	467.88
261.012	460.88
261.244	465.88
261.477	461.88
261.71	485.88
261.942	451.88
262.175	479.88
262.407	487.88
262.64	472.88
262.872	457.88
263.105	496.88
263.337	501.88
263.57	485.88
263.802	501.88
264.035	465.88
264.267	480.88
264.499	491.88
264.732	485.88
264.964	519.88
265.197	509.88
265.429	502.88
265.661	495.88
265.894	520.88
266.126	507.88
266.358	539.88
266.591	524.88
266.823	525.88
267.055	528.88
267.287	513.88
267.52	535.88
267.752	535.88
267.984	552.88
268.216	546.88
268.448	554.88
268.681	539.88
268.913	537.88
269.145	571.88
269.377	555.88
269.609	542.88
269.841	540.88
270.073	567.88
270.306	561.88
270.538	542.88
270.77	571.88
271.002	573.88
271.234	568.88
271.466	566.88
271.698	559.88
271.93	577.88
272.162	571.88
272.394	560.88
272.626	587.88
272.858	587.88
273.09	606.88
273.322	584.88
273.553	586.88
273.785	585.88
274.017	609.88
274.249	604.88
274.481	589.88
274.713	583.88
274.945	613.88
275.176	617.88
275.408	623.88
275.64	617.88
275.872	608.88
276.104	625.88
276.335	624.88
276.567	636.88
276.799	600.88
277.031	643.88
277.262	641.88
277.494	609.88
277.726	628.88
277.957	648.88
278.189	649.88
278.421	651.88
278.652	664.88
278.884	639.88
279.115	659.88
279.347	671.88
279.579	641.88
279.81	660.88
280.042	680.88
280.273	677.88
280.505	677.88
280.736	671.88
280.968	688.88
281.199	657.88
281.431	698.88
281.662	692.88
281.894	699.88
282.125	703.88
282.356	714.88
282.588	693.88
282.819	708.88
283.051	691.88
283.282	683.88
283.513	708.88
283.745	719.88
283.976	697.88
284.207	712.88
284.439	725.88
284.67	726.88
284.901	726.88
285.132	723.88
285.364	709.88
285.595	699.88
285.826	735.88
286.057	735.88
286.288	720.88
286.52	751.88
286.751	732.88
286.982	743.88
287.213	740.88
287.444	765.88
287.675	735.88
287.906	765.88
288.138	778.88
288.369	773.88
288.6	770.88
288.831	777.88
289.062	776.88
289.293	782.88
289.524	763.88
289.755	745.88
289.986	766.88
290.217	785.88
290.448	813.88
290.679	775.88
290.91	781.88
291.141	753.88
291.371	781.88
291.602	803.88
291.833	772.88
292.064	747.88
292.295	771.88
292.526	784.88
292.757	768.88
292.987	773.88
293.218	801.88
293.449	821.88
293.68	769.88
293.91	793.88
294.141	793.88
294.372	779.88
294.603	784.88
294.833	777.88
295.064	819.88
295.295	801.88
295.525	779.88
295.756	806.88
295.987	783.88
296.217	821.88
296.448	824.88
296.679	819.88
296.909	829.88
297.14	818.88
297.37	834.88
297.601	848.88
297.831	845.88
298.062	831.88
298.292	854.88
298.523	853.88
298.753	871.88
298.984	858.88
299.214	839.88
299.445	825.88
299.675	842.88
299.905	854.88
300.136	873.88
300.366	869.88
300.597	841.88
300.827	888.88
301.057	879.88
301.288	883.88
301.518	902.88
301.748	868.88
301.979	913.88
302.209	899.88
302.439	922.88
302.669	895.88
302.9	895.88
303.13	890.88
303.36	887.88
303.59	883.88
303.82	893.88
304.051	921.88
304.281	886.88
304.511	908.88
304.741	891.88
304.971	916.88
305.201	915.88
305.431	887.88
305.661	891.88
305.891	884.88
306.121	888.88
306.352	889.88
306.582	868.88
306.812	881.88
307.042	907.88
307.272	886.88
307.502	884.88
307.731	883.88
307.961	870.88
308.191	906.88
308.421	883.88
308.651	891.88
308.881	871.88
309.111	849.88
309.341	869.88
309.571	886.88
309.8	890.88
310.03	891.88
310.26	911.88
310.49	912.88
310.72	880.88
310.949	899.88
311.179	921.88
311.409	914.88
311.639	895.88
311.868	895.88
312.098	897.88
312.328	928.88
312.557	935.88
312.787	895.88
313.017	917.88
313.246	917.88
313.476	948.88
313.706	949.88
313.935	965.88
314.165	980.88
314.394	951.88
314.624	951.88
314.853	938.88
315.083	948.88
315.312	937.88
315.542	966.88
315.771	958.88
316.001	950.88
316.23	922.88
316.46	959.88
316.689	941.88
316.919	948.88
317.148	965.88
317.377	918.88
317.607	919.88
317.836	936.88
318.065	937.88
318.295	951.88
318.524	936.88
318.753	947.88
318.983	943.88
319.212	940.88
319.441	948.88
319.67	946.88
319.9	948.88
320.129	914.88
320.358	943.88
320.587	943.88
320.816	932.88
321.046	938.88
321.275	972.88
321.504	919.88
321.733	933.88
321.962	935.88
322.191	967.88
322.42	971.88
322.649	975.88
322.878	941.88
323.108	921.88
323.337	954.88
323.566	983.88
323.795	997.88
324.024	943.88
324.253	980.88
324.482	951.88
324.71	969.88
324.939	981.88
325.168	977.88
325.397	989.88
325.626	993.88
325.855	1010.88
326.084	1034.88
326.313	1020.88
326.542	1020.88
326.77	1032.88
326.999	1023.88
327.228	984.88
327.457	1015.88
327.686	1029.88
327.914	1022.88
328.143	1032.88
328.372	1019.88
328.6	1035.88
328.829	1028.88
329.058	1025.88
329.287	1018.88
329.515	1051.88
329.744	1045.88
329.972	1046.88
330.201	1059.88
330.43	1072.88
330.658	1080.88
330.887	1064.88
331.115	1064.88
331.344	1080.88
331.572	1098.88
331.801	1122.88
332.03	1117.88
332.258	1149.88
332.486	1152.88
332.715	1204.88
332.943	1209.88
333.172	1253.88
333.4	1275.88
333.629	1327.88
333.857	1351.88
334.085	1316.88
334.314	1333.88
334.542	1306.88
334.771	1288.88
334.999	1275.88
335.227	1282.88
335.455	1251.88
335.684	1235.88
335.912	1267.88
336.14	1283.88
336.369	1251.88
336.597	1273.88
336.825	1231.88
337.053	1211.88
337.281	1189.88
337.51	1162.88
337.738	1181.88
337.966	1177.88
338.194	1122.88
338.422	1155.88
338.65	1146.88
338.878	1093.88
339.106	1137.88
339.334	1123.88
339.562	1140.88
339.79	1101.88
340.018	1081.88
340.246	1094.88
340.474	1068.88
340.702	1086.88
340.93	1081.88
341.158	1109.88
341.386	1079.88
341.614	1063.88
341.842	1068.88
342.07	1058.88
342.298	1074.88
342.526	1063.88
342.754	1084.88
342.981	1053.88
343.209	1082.88
343.437	1139.88
343.665	1194.88
343.893	1239.88
344.12	1291.88
344.348	1276.88
344.576	1191.88
344.804	1163.88
345.031	1125.88
345.259	1130.88
345.487	1106.88
345.714	1080.88
345.942	1074.88
346.17	1087.88
346.397	1059.88
346.625	1051.88
346.853	1037.88
347.08	1028.88
347.308	1079.88
347.535	1032.88
347.763	1059.88
347.99	1060.88
348.218	1023.88
348.445	1023.88
348.673	1041.88
348.9	1040.88
349.128	1059.88
349.355	1027.88
349.583	1040.88
349.81	1003.88
350.037	1027.88
350.265	1033.88
350.492	981.88
350.72	999.88
350.947	1008.88
351.174	999.88
351.402	1018.88
351.629	987.88
351.856	986.88
352.083	999.88
352.311	996.88
352.538	988.88
352.765	990.88
352.992	1000.88
353.22	980.88
353.447	979.88
353.674	1005.88
353.901	997.88
354.128	999.88
354.355	979.88
354.583	987.88
354.81	997.88
355.037	989.88
355.264	1013.88
355.491	999.88
355.718	967.88
355.945	1004.88
356.172	996.88
356.399	1043.88
356.626	1005.88
356.853	1003.88
357.08	996.88
357.307	1019.88
357.534	1010.88
357.761	1015.88
357.988	978.88
358.215	983.88
358.441	995.88
358.668	981.88
358.895	998.88
359.122	997.88
359.349	1010.88
359.576	1012.88
359.802	1017.88
360.029	1017.88
360.256	1034.88
360.483	994.88
360.709	991.88
360.936	987.88
361.163	1011.88
361.39	1019.88
361.616	971.88
361.843	1002.88
362.07	1002.88
362.296	1004.88
362.523	1016.88
362.749	993.88
362.976	998.88
363.203	981.88
363.429	952.88
363.656	1014.88
363.882	1009.88
364.109	990.88
364.335	999.88
364.562	982.88
364.788	983.88
365.015	1008.88
365.241	1007.88
365.468	983.88
365.694	996.88
365.92	992.88
366.147	987.88
366.373	991.88
366.599	981.88
366.826	989.88
367.052	974.88
367.278	1001.88
367.505	1032.88
367.731	1003.88
367.957	1021.88
368.184	1022.88
368.41	1030.88
368.636	1020.88
368.862	1061.88
369.089	1036.88
369.315	1055.88
369.541	1015.88
369.767	1032.88
369.993	1033.88
370.219	1034.88
370.445	1067.88
370.672	1065.88
370.898	1074.88
371.124	1066.88
371.35	1077.88
371.576	1077.88
371.802	1084.88
372.028	1073.88
372.254	1091.88
372.48	1100.88
372.706	1098.88
372.932	1127.88
373.158	1128.88
373.384	1118.88
373.61	1098.88
373.835	1109.88
374.061	1098.88
374.287	1111.88
374.513	1132.88
374.739	1124.88
374.965	1147.88
375.191	1178.88
375.416	1171.88
375.642	1181.88
375.868	1144.88
376.094	1117.88
376.319	1113.88
376.545	1076.88
376.771	1082.88
376.997	1091.88
377.222	1105.88
377.448	1103.88
377.674	1088.88
377.899	1081.88
378.125	1088.88
378.35	1075.88
378.576	1094.88
378.802	1075.88
379.027	1101.88
379.253	1077.88
379.478	1082.88
379.704	1063.88
379.929	1027.88
380.155	1071.88
380.38	1075.88
380.606	1034.88
380.831	1056.88
381.057	1089.88
381.282	1072.88
381.507	1073.88
381.733	1073.88
381.958	1079.88
382.184	1085.88
382.409	1091.88
382.634	1100.88
382.86	1132.88
383.085	1130.88
383.31	1143.88
383.535	1153.88
383.761	1173.88
383.986	1192.88
384.211	1208.88
384.436	1201.88
384.662	1257.88
384.887	1257.88
385.112	1277.88
385.337	1276.88
385.562	1263.88
385.787	1329.88
386.013	1290.88
386.238	1275.88
386.463	1292.88
386.688	1307.88
386.913	1268.88
387.138	1267.88
387.363	1304.88
387.588	1287.88
387.813	1291.88
388.038	1280.88
388.263	1295.88
388.488	1286.88
388.713	1285.88
388.938	1305.88
389.163	1257.88
389.387	1305.88
389.612	1282.88
389.837	1267.88
390.062	1277.88
390.287	1273.88
390.512	1269.88
390.736	1278.88
390.961	1308.88
391.186	1348.88
391.411	1358.88
391.636	1372.88
391.86	1404.88
392.085	1403.88
392.31	1411.88
392.534	1421.88
392.759	1376.88
392.984	1363.88
393.208	1345.88
393.433	1357.88
393.658	1362.88
393.882	1356.88
394.107	1340.88
394.331	1352.88
394.556	1351.88
394.78	1369.88
395.005	1378.88
395.229	1415.88
395.454	1421.88
395.678	1447.88
395.903	1440.88
396.127	1409.88
396.352	1373.88
396.576	1391.88
396.801	1378.88
397.025	1429.88
397.249	1422.88
397.474	1460.88
397.698	1436.88
397.922	1461.88
398.147	1468.88
398.371	1468.88
398.595	1498.88
398.82	1634.88
399.044	1674.88
399.268	1807.88
399.492	2016.88
399.717	2202.88
399.941	2187.88
400.165	2076.88
400.389	1899.88
400.613	1796.88
400.837	1704.88
401.062	1629.88
401.286	1633.88
401.51	1633.88
401.734	1606.88
401.958	1608.88
402.182	1644.88
402.406	1607.88
402.63	1633.88
402.854	1664.88
403.078	1671.88
403.302	1705.88
403.526	1736.88
403.75	1737.88
403.974	1783.88
404.198	1726.88
404.422	1777.88
404.645	1729.88
404.869	1745.88
405.093	1737.88
405.317	1740.88
405.541	1712.88
405.765	1702.88
405.988	1726.88
406.212	1784.88
406.436	1735.88
406.66	1756.88
406.883	1811.88
407.107	1904.88
407.331	1997.88
407.555	2029.88
407.778	2012.88
408.002	1974.88
408.226	1914.88
408.449	1902.88
408.673	1875.88
408.896	1798.88
409.12	1821.88
409.344	1775.88
409.567	1804.88
409.791	1790.88
410.014	1770.88
410.238	1728.88
410.461	1733.88
410.685	1751.88
410.908	1729.88
411.132	1685.88
411.355	1691.88
411.578	1678.88
411.802	1669.88
412.025	1699.88
412.249	1684.88
412.472	1668.88
412.695	1622.88
412.919	1598.88
413.142	1627.88
413.365	1637.88
413.589	1641.88
413.812	1606.88
414.035	1580.88
414.258	1590.88
414.482	1587.88
414.705	1633.88
414.928	1618.88
415.151	1638.88
415.374	1602.88
415.597	1610.88
415.821	1553.88
416.044	1533.88
416.267	1539.88
416.49	1572.88
416.713	1521.88
416.936	1536.88
417.159	1507.88
417.382	1511.88
417.605	1523.88
417.828	1563.88
418.051	1541.88
418.274	1549.88
418.497	1561.88
418.72	1590.88
418.943	1568.88
419.166	1680.88
419.389	1791.88
419.611	1721.88
419.834	1676.88
420.057	1618.88
420.28	1622.88
420.503	1561.88
420.726	1492.88
420.948	1542.88
421.171	1517.88
421.394	1528.88
421.617	1555.88
421.839	1545.88
422.062	1556.88
422.285	1503.88
422.507	1556.88
422.73	1568.88
422.953	1558.88
423.175	1612.88
423.398	1555.88
423.621	1572.88
423.843	1591.88
424.066	1589.88
424.288	1590.88
424.511	1596.88
424.733	1560.88
424.956	1551.88
425.178	1561.88
425.401	1559.88
425.623	1579.88
425.846	1535.88
426.068	1499.88
426.291	1471.88
426.513	1490.88
426.735	1474.88
426.958	1468.88
427.18	1458.88
427.402	1443.88
427.625	1438.88
427.847	1416.88
428.069	1422.88
428.292	1437.88
428.514	1413.88
428.736	1396.88
428.958	1399.88
429.181	1364.88
429.403	1408.88
429.625	1379.88
429.847	1401.88
430.069	1380.88
430.292	1391.88
430.514	1373.88
430.736	1399.88
430.958	1372.88
431.18	1389.88
431.402	1417.88
431.624	1387.88
431.846	1420.88
432.068	1426.88
432.29	1463.88
432.512	1404.88
432.734	1438.88
432.956	1393.88
433.178	1424.88
433.4	1388.88
433.622	1429.88
433.844	1422.88
434.066	1436.88
434.287	1495.88
434.509	1502.88
434.731	1495.88
434.953	1527.88
435.175	1564.88
435.397	1567.88
435.618	1455.88
435.84	1464.88
436.062	1457.88
436.284	1432.88
436.505	1393.88
436.727	1431.88
436.949	1409.88
437.17	1382.88
437.392	1393.88
437.614	1357.88
437.835	1339.88
438.057	1364.88
438.278	1345.88
438.5	1310.88
438.721	1385.88
438.943	1332.88
439.165	1356.88
439.386	1370.88
439.608	1355.88
439.829	1345.88
440.05	1375.88
440.272	1375.88
440.493	1395.88
440.715	1405.88
440.936	1444.88
441.158	1427.88
441.379	1472.88
441.6	1503.88
441.822	1531.88
442.043	1543.88
442.264	1508.88
442.486	1456.88
442.707	1476.88
442.928	1474.88
443.149	1458.88
443.371	1497.88
443.592	1512.88
443.813	1509.88
444.034	1548.88
444.255	1577.88
444.476	1639.88
444.698	1709.88
444.919	1705.88
445.14	1837.88
445.361	1692.88
445.582	1555.88
445.803	1474.88
446.024	1455.88
446.245	1441.88
446.466	1441.88
446.687	1405.88
446.908	1380.88
447.129	1363.88
447.35	1314.88
447.571	1332.88
447.792	1318.88
448.013	1324.88
448.234	1298.88
448.455	1310.88
448.675	1263.88
448.896	1263.88
449.117	1248.88
449.338	1266.88
449.559	1263.88
449.779	1217.88
450	1218.88
450.221	1261.88
450.442	1271.88
450.662	1273.88
450.883	1240.88
451.104	1234.88
451.324	1240.88
451.545	1268.88
451.766	1236.88
451.986	1241.88
452.207	1257.88
452.428	1228.88
452.648	1236.88
452.869	1205.88
453.089	1202.88
453.31	1211.88
453.53	1194.88
453.751	1220.88
453.971	1204.88
454.192	1172.88
454.412	1189.88
454.633	1180.88
454.853	1202.88
455.073	1165.88
455.294	1171.88
455.514	1157.88
455.734	1151.88
455.955	1161.88
456.175	1167.88
456.395	1146.88
456.616	1169.88
456.836	1173.88
457.056	1183.88
457.276	1131.88
457.497	1165.88
457.717	1168.88
457.937	1193.88
458.157	1214.88
458.377	1222.88
458.598	1258.88
458.818	1297.88
459.038	1307.88
459.258	1333.88
459.478	1367.88
459.698	1410.88
459.918	1415.88
460.138	1485.88
460.358	1544.88
460.578	1583.88
460.798	1562.88
461.018	1575.88
461.238	1551.88
461.458	1551.88
461.678	1608.88
461.898	1627.88
462.118	1621.88
462.338	1670.88
462.558	1717.88
462.777	1808.88
462.997	1897.88
463.217	1995.88
463.437	2018.88
463.657	1876.88
463.876	1876.88
464.096	1884.88
464.316	1831.88
464.536	1756.88
464.755	1713.88
464.975	1736.88
465.195	1653.88
465.414	1596.88
465.634	1515.88
465.854	1414.88
466.073	1417.88
466.293	1402.88
466.512	1353.88
466.732	1329.88
466.951	1320.88
467.171	1304.88
467.391	1314.88
467.61	1328.88
467.829	1298.88
468.049	1269.88
468.268	1300.88
468.488	1282.88
468.707	1258.88
468.927	1299.88
469.146	1292.88
469.365	1285.88
469.585	1275.88
469.804	1331.88
470.023	1306.88
470.243	1310.88
470.462	1346.88
470.681	1366.88
470.901	1371.88
471.12	1332.88
471.339	1331.88
471.558	1294.88
471.777	1271.88
471.997	1299.88
472.216	1260.88
472.435	1245.88
472.654	1254.88
472.873	1239.88
473.092	1234.88
473.311	1227.88
473.53	1273.88
473.749	1256.88
473.968	1237.88
474.187	1244.88
474.406	1251.88
474.625	1230.88
474.844	1263.88
475.063	1266.88
475.282	1277.88
475.501	1264.88
475.72	1304.88
475.939	1308.88
476.158	1293.88
476.377	1316.88
476.596	1336.88
476.814	1348.88
477.033	1377.88
477.252	1358.88
477.471	1408.88
477.69	1415.88
477.908	1413.88
478.127	1486.88
478.346	1505.88
478.564	1508.88
478.783	1536.88
479.002	1533.88
479.22	1547.88
479.439	1565.88
479.658	1575.88
479.876	1576.88
480.095	1595.88
480.313	1647.88
480.532	1645.88
480.751	1655.88
480.969	1610.88
481.188	1608.88
481.406	1573.88
481.624	1543.88
481.843	1528.88
482.061	1516.88
482.28	1516.88
482.498	1555.88
482.717	1546.88
482.935	1543.88
483.153	1553.88
483.372	1541.88
483.59	1538.88
483.808	1555.88
484.027	1524.88
484.245	1588.88
484.463	1613.88
484.681	1619.88
484.9	1701.88
485.118	1637.88
485.336	1649.88
485.554	1713.88
485.772	1681.88
485.99	1707.88
486.209	1668.88
486.427	1685.88
486.645	1707.88
486.863	1681.88
487.081	1636.88
487.299	1665.88
487.517	1680.88
487.735	1668.88
487.953	1657.88
488.171	1617.88
488.389	1639.88
488.607	1628.88
488.825	1619.88
489.043	1603.88
489.261	1581.88
489.479	1591.88
489.696	1583.88
489.914	1550.88
490.132	1603.88
490.35	1609.88
490.568	1610.88
490.786	1583.88
491.003	1583.88
491.221	1583.88
491.439	1578.88
491.657	1561.88
491.874	1640.88
492.092	1599.88
492.31	1593.88
492.527	1579.88
492.745	1585.88
492.963	1626.88
493.18	1617.88
493.398	1591.88
493.615	1577.88
493.833	1564.88
494.05	1603.88
494.268	1610.88
494.485	1625.88
494.703	1593.88
494.92	1653.88
495.138	1593.88
495.355	1627.88
495.573	1617.88
495.79	1613.88
496.008	1626.88
496.225	1659.88
496.442	1689.88
496.66	1685.88
496.877	1725.88
497.094	1721.88
497.312	1735.88
497.529	1781.88
497.746	1835.88
497.963	1876.88
498.181	1967.88
498.398	2026.88
498.615	2108.88
498.832	2231.88
499.049	2325.88
499.267	2499.88
499.484	2715.88
499.701	3034.88
499.918	3219.88
500.135	3595.88
500.352	3923.88
500.569	4001.88
500.786	4023.88
501.003	3789.88
501.22	3478.88
501.437	3221.88
501.654	2890.88
501.871	2689.88
502.088	2503.88
502.305	2347.88
502.522	2242.88
502.739	2171.88
502.956	2036.88
503.172	2013.88
503.389	1866.88
503.606	1827.88
503.823	1795.88
504.04	1816.88
504.256	1795.88
504.473	1819.88
504.69	1856.88
504.907	1799.88
505.123	1675.88
505.34	1651.88
505.557	1568.88
505.773	1553.88
505.99	1481.88
506.207	1468.88
506.423	1441.88
506.64	1435.88
506.856	1427.88
507.073	1456.88
507.289	1378.88
507.506	1378.88
507.722	1394.88
507.939	1361.88
508.155	1350.88
508.372	1349.88
508.588	1333.88
508.805	1307.88
509.021	1332.88
509.238	1324.88
509.454	1285.88
509.67	1286.88
509.887	1297.88
510.103	1249.88
510.319	1251.88
510.536	1252.88
510.752	1250.88
510.968	1248.88
511.184	1277.88
511.401	1265.88
511.617	1279.88
511.833	1245.88
512.049	1225.88
512.265	1236.88
512.481	1252.88
512.698	1249.88
512.914	1229.88
513.13	1245.88
513.346	1244.88
513.562	1245.88
513.778	1268.88
513.994	1228.88
514.21	1248.88
514.426	1276.88
514.642	1257.88
514.858	1279.88
515.074	1285.88
515.29	1313.88
515.506	1301.88
515.721	1321.88
515.937	1337.88
516.153	1329.88
516.369	1404.88
516.585	1403.88
516.801	1433.88
517.016	1501.88
517.232	1568.88
517.448	1597.88
517.664	1647.88
517.879	1639.88
518.095	1662.88
518.311	1608.88
518.527	1582.88
518.742	1536.88
518.958	1496.88
519.173	1418.88
519.389	1392.88
519.605	1311.88
519.82	1335.88
520.036	1305.88
520.251	1283.88
520.467	1268.88
520.682	1259.88
520.898	1248.88
521.113	1253.88
521.329	1200.88
521.544	1213.88
521.76	1177.88
521.975	1182.88
522.19	1175.88
522.406	1144.88
522.621	1177.88
522.836	1142.88
523.052	1138.88
523.267	1173.88
523.482	1159.88
523.698	1159.88
523.913	1124.88
524.128	1165.88
524.343	1124.88
524.559	1157.88
524.774	1147.88
524.989	1152.88
525.204	1126.88
525.419	1116.88
525.634	1139.88
525.849	1122.88
526.064	1116.88
526.28	1099.88
526.495	1110.88
526.71	1109.88
526.925	1101.88
527.14	1116.88
527.355	1113.88
527.57	1112.88
527.785	1110.88
527.999	1106.88
528.214	1113.88
528.429	1103.88
528.644	1110.88
528.859	1099.88
529.074	1097.88
529.289	1090.88
529.503	1086.88
529.718	1110.88
529.933	1076.88
530.148	1081.88
530.363	1113.88
530.577	1061.88
530.792	1081.88
531.007	1077.88
531.221	1075.88
531.436	1095.88
531.651	1118.88
531.865	1076.88
532.08	1099.88
532.295	1113.88
532.509	1098.88
532.724	1075.88
532.938	1115.88
533.153	1072.88
533.367	1073.88
533.582	1083.88
533.796	1102.88
534.011	1071.88
534.225	1071.88
534.44	1072.88
534.654	1027.88
534.868	1045.88
535.083	1085.88
535.297	1044.88
535.511	1063.88
535.726	1051.88
535.94	1026.88
536.154	1027.88
536.369	1018.88
536.583	1031.88
536.797	1007.88
537.011	992.88
537.225	1031.88
537.44	1033.88
537.654	1028.88
537.868	1009.88
538.082	988.88
538.296	963.88
538.51	999.88
538.724	983.88
538.938	1012.88
539.153	979.88
539.367	967.88
539.581	984.88
539.795	963.88
540.009	971.88
540.222	997.88
540.436	990.88
540.65	971.88
540.864	976.88
541.078	948.88
541.292	979.88
541.506	984.88
541.72	963.88
541.934	958.88
542.147	950.88
542.361	976.88
542.575	968.88
542.789	984.88
543.002	949.88
543.216	944.88
543.43	934.88
543.644	938.88
543.857	945.88
544.071	986.88
544.285	973.88
544.498	971.88
544.712	975.88
544.925	943.88
545.139	950.88
545.352	966.88
545.566	963.88
545.779	963.88
545.993	970.88
546.206	994.88
546.42	969.88
546.633	983.88
546.847	969.88
547.06	960.88
547.274	980.88
547.487	1000.88
547.7	996.88
547.914	1014.88
548.127	991.88
548.34	1011.88
548.554	1009.88
548.767	983.88
548.98	999.88
549.193	976.88
549.407	1000.88
549.62	1020.88
549.833	1014.88
550.046	998.88
550.259	977.88
550.473	972.88
550.686	988.88
550.899	977.88
551.112	986.88
551.325	969.88
551.538	946.88
551.751	979.88
551.964	977.88
552.177	989.88
552.39	984.88
552.603	998.88
552.816	995.88
553.029	1046.88
553.242	1039.88
553.455	1040.88
553.667	1010.88
553.88	1039.88
554.093	1015.88
554.306	956.88
554.519	989.88
554.732	955.88
554.944	919.88
555.157	948.88
555.37	947.88
555.583	915.88
555.795	903.88
556.008	864.88
556.221	860.88
556.433	865.88
556.646	856.88
556.859	867.88
557.071	851.88
557.284	853.88
557.496	863.88
557.709	849.88
557.921	821.88
558.134	836.88
558.346	836.88
558.559	820.88
558.771	800.88
558.984	832.88
559.196	808.88
559.409	807.88
559.621	807.88
559.833	810.88
560.046	819.88
560.258	821.88
560.47	807.88
560.683	788.88
560.895	793.88
561.107	791.88
561.32	811.88
561.532	799.88
561.744	819.88
561.956	811.88
562.168	835.88
562.381	795.88
562.593	805.88
562.805	808.88
563.017	843.88
563.229	818.88
563.441	821.88
563.653	845.88
563.865	836.88
564.077	826.88
564.289	872.88
564.501	866.88
564.713	867.88
564.925	868.88
565.137	885.88
565.349	919.88
565.561	942.88
565.773	940.88
565.985	1016.88
566.197	1074.88
566.408	1091.88
566.62	1157.88
566.832	1186.88
567.044	1246.88
567.255	1269.88
567.467	1281.88
567.679	1350.88
567.891	1401.88
568.102	1368.88
568.314	1335.88
568.526	1258.88
568.737	1175.88
568.949	1087.88
569.161	1031.88
569.372	975.88
569.584	917.88
569.795	907.88
570.007	875.88
570.218	837.88
570.43	851.88
570.641	824.88
570.853	836.88
571.064	825.88
571.276	796.88
571.487	784.88
571.698	772.88
571.91	766.88
572.121	738.88
572.333	741.88
572.544	744.88
572.755	711.88
572.966	720.88
573.178	673.88
573.389	690.88
573.6	655.88
573.811	667.88
574.023	659.88
574.234	678.88
574.445	676.88
574.656	659.88
574.867	659.88
575.078	679.88
575.289	676.88
575.501	658.88
575.712	649.88
575.923	654.88
576.134	643.88
576.345	642.88
576.556	612.88
576.767	641.88
576.978	622.88
577.188	620.88
577.399	626.88
577.61	607.88
577.821	593.88
578.032	594.88
578.243	601.88
578.454	622.88
578.665	595.88
578.875	571.88
579.086	584.88
579.297	597.88
579.508	605.88
579.718	594.88
579.929	618.88
580.14	580.88
580.35	550.88
580.561	565.88
580.772	587.88
580.982	565.88
581.193	612.88
581.403	575.88
581.614	545.88
581.825	586.88
582.035	568.88
582.246	548.88
582.456	567.88
582.667	570.88
582.877	540.88
583.087	548.88
583.298	542.88
583.508	553.88
583.719	571.88
583.929	555.88
584.139	522.88
584.35	556.88
584.56	548.88
584.77	530.88
584.981	544.88
585.191	552.88
585.401	549.88
585.611	537.88
585.821	537.88
586.032	546.88
586.242	541.88
586.452	539.88
586.662	541.88
586.872	528.88
587.082	524.88
587.292	538.88
587.502	537.88
587.713	536.88
587.923	534.88
588.133	513.88
588.343	504.88
588.553	499.88
588.762	510.88
588.972	521.88
589.182	521.88
589.392	516.88
589.602	513.88
589.812	533.88
590.022	538.88
590.232	513.88
590.441	543.88
590.651	512.88
590.861	518.88
591.071	543.88
591.281	553.88
591.49	550.88
591.7	545.88
591.91	555.88
592.119	567.88
592.329	568.88
592.539	594.88
592.748	606.88
592.958	628.88
593.167	613.88
593.377	626.88
593.587	637.88
593.796	626.88
594.006	641.88
594.215	641.88
594.424	651.88
594.634	621.88
594.843	610.88
595.053	593.88
595.262	575.88
595.472	554.88
595.681	571.88
595.89	552.88
596.1	540.88
596.309	511.88
596.518	496.88
596.727	486.88
596.937	492.88
597.146	497.88
597.355	490.88
597.564	475.88
597.774	471.88
597.983	509.88
598.192	455.88
598.401	442.88
598.61	467.88
598.819	458.88
599.028	459.88
599.237	448.88
599.446	458.88
599.655	428.88
599.864	428.88
600.073	454.88
600.282	425.88
600.491	436.88
600.7	449.88
600.909	456.88
601.118	431.88
601.327	456.88
601.536	431.88
601.745	435.88
601.953	440.88
602.162	428.88
602.371	443.88
602.58	439.88
602.789	421.88
602.997	405.88
603.206	414.88
603.415	419.88
603.623	396.88
603.832	420.88
604.041	412.88
604.249	413.88
604.458	416.88
604.666	421.88
604.875	391.88
605.084	411.88
605.292	388.88
605.501	401.88
605.709	422.88
605.918	389.88
606.126	381.88
606.334	401.88
606.543	404.88
606.751	397.88
606.96	375.88
607.168	402.88
607.376	380.88
607.585	386.88
607.793	411.88
608.001	405.88
608.21	383.88
608.418	393.88
608.626	376.88
608.834	382.88
609.043	384.88
609.251	389.88
609.459	388.88
609.667	392.88
609.875	376.88
610.083	378.88
610.291	387.88
610.499	388.88
610.707	383.88
610.916	381.88
611.124	375.88
611.332	368.88
611.54	383.88
611.748	384.88
611.955	386.88
612.163	385.88
612.371	378.88
612.579	375.88
612.787	380.88
612.995	380.88
613.203	391.88
613.411	380.88
613.618	394.88
613.826	357.88
614.034	362.88
614.242	358.88
614.449	358.88
614.657	379.88
614.865	379.88
615.072	363.88
615.28	357.88
615.488	382.88
615.695	377.88
615.903	371.88
616.111	389.88
616.318	385.88
616.526	380.88
616.733	389.88
616.941	370.88
617.148	368.88
617.356	385.88
617.563	365.88
617.771	363.88
617.978	347.88
618.185	375.88
618.393	367.88
618.6	364.88
618.807	362.88
619.015	369.88
619.222	369.88
619.429	357.88
619.637	345.88
619.844	350.88
620.051	373.88
620.258	355.88
620.466	342.88
620.673	340.88
620.88	341.88
621.087	346.88
621.294	337.88
621.501	336.88
621.708	348.88
621.915	341.88
622.122	344.88
622.329	339.88
622.536	322.88
622.743	370.88
622.95	328.88
623.157	335.88
623.364	340.88
623.571	339.88
623.778	345.88
623.985	332.88
624.192	338.88
624.399	341.88
624.606	333.88
624.812	321.88
625.019	319.88
625.226	328.88
625.433	314.88
625.639	327.88
625.846	315.88
626.053	320.88
626.259	300.88
626.466	301.88
626.673	301.88
626.879	305.88
627.086	327.88
627.293	308.88
627.499	309.88
627.706	295.88
627.912	297.88
628.119	323.88
628.325	293.88
628.532	298.88
628.738	304.88
628.945	309.88
629.151	322.88
629.357	295.88
629.564	320.88
629.77	328.88
629.976	301.88
630.183	291.88
630.389	299.88
630.595	289.88
630.802	290.88
631.008	275.88
631.214	300.88
631.42	278.88
631.627	315.88
631.833	284.88
632.039	282.88
632.245	285.88
632.451	282.88
632.657	279.88
632.863	265.88
633.069	272.88
633.275	277.88
633.481	273.88
633.688	268.88
633.893	267.88
634.099	265.88
634.305	276.88
634.511	283.88
634.717	276.88
634.923	269.88
635.129	271.88
635.335	256.88
635.541	267.88
635.747	277.88
635.952	267.88
636.158	279.88
636.364	278.88
636.57	267.88
636.775	268.88
636.981	249.88
637.187	271.88
637.392	265.88
637.598	269.88
637.804	264.88
638.009	262.88
638.215	267.88
638.421	261.88
638.626	253.88
638.832	267.88
639.037	255.88
639.243	239.88
639.448	245.88
639.654	279.88
639.859	247.88
640.065	256.88
640.27	253.88
640.475	263.88
640.681	252.88
640.886	271.88
641.091	247.88
641.297	256.88
641.502	262.88
641.707	252.88
641.913	261.88
642.118	241.88
642.323	261.88
642.528	240.88
642.733	247.88
642.939	248.88
643.144	234.88
643.349	248.88
643.554	256.88
643.759	259.88
643.964	234.88
644.169	250.88
644.374	269.88
644.579	224.88
644.784	224.88
644.989	251.88
645.194	233.88
645.399	257.88
645.604	243.88
645.809	256.88
646.014	250.88
646.219	263.88
646.423	268.88
646.628	256.88
646.833	264.88
647.038	258.88
647.243	259.88
647.447	270.88
647.652	254.88
647.857	251.88
648.062	278.88
648.266	274.88
648.471	268.88
648.676	272.88
648.88	279.88
649.085	260.88
649.289	262.88
649.494	266.88
649.698	275.88
649.903	272.88
650.107	258.88
650.312	277.88
650.516	252.88
650.721	255.88
650.925	251.88
651.13	258.88
651.334	249.88
651.539	240.88
651.743	251.88
651.947	244.88
652.152	243.88
652.356	247.88
652.56	242.88
652.764	234.88
652.969	262.88
653.173	241.88
653.377	249.88
653.581	250.88
653.785	223.88
653.99	235.88
654.194	241.88
654.398	261.88
654.602	253.88
654.806	267.88
655.01	255.88
655.214	264.88
655.418	270.88
655.622	285.88
655.826	296.88
656.03	331.88
656.234	322.88
656.438	362.88
656.642	352.88
656.846	324.88
657.049	287.88
657.253	265.88
657.457	244.88
657.661	224.88
657.865	204.88
658.068	194.88
658.272	169.88
658.476	181.88
658.68	149.88
658.883	141.88
659.087	161.88
659.291	148.88
659.494	144.88
659.698	122.88
659.901	127.88
660.105	118.88
660.309	96.88
660.512	117.88
660.716	108.88
660.919	106.88
661.123	120.88
661.326	96.88
661.53	94.88
661.733	106.88
661.936	76.88
662.14	88.88
662.343	112.88
662.546	93.88
662.75	83.88
662.953	79.88
663.156	93.88
663.36	83.88
663.563	90.88
663.766	82.88
663.969	75.88
664.173	82.88
664.376	85.88
664.579	90.88
664.782	87.88
664.985	79.88
665.188	81.88
665.391	90.88
665.594	88.88
665.797	81.88
666	85.88
666.203	87.88
666.406	81.88
666.609	79.88
666.812	82.88
667.015	94.88
667.218	78.88
667.421	80.88
667.624	79.88
667.827	96.88
668.03	77.88
668.232	75.88
668.435	64.88
668.638	64.88
668.841	74.88
669.043	87.88
669.246	91.88
669.449	80.88
669.651	89.88
669.854	68.88
670.057	87.88
670.259	94.88
670.462	76.88
670.665	82.88
670.867	73.88
671.07	84.88
671.272	66.88
671.475	83.88
671.677	94.88
671.88	87.88
672.082	83.88
672.284	75.88
672.487	72.88
672.689	86.88
672.892	73.88
