Data from NiCl2@0.5M.TitratingCurve.Agarose3%dH2O.NegLispCup.LampEnergy10.LIBS07252019_HRD10591_18-20-00-571.txt Node
Date: Thu Jul 25 18:20:00 EDT 2019
User: cochatt
Spectrometer: HR+D1059
Trigger mode: 1
Integration Time (sec): 1.000000E-1
Scans to average: 1
Electric dark correction enabled: true
Nonlinearity correction enabled: false
Boxcar width: 0
XAxis mode: Wavelengths
Number of Pixels in Spectrum: 2048
>>>>>Begin Spectral Data<<<<<
223.165	-24.19
223.4	-24.19
223.635	-24.19
223.869	-12.19
224.104	-31.19
224.338	-21.19
224.573	-11.19
224.808	-9.19
225.042	-19.19
225.277	-6.19
225.511	-0.19
225.746	21.81
225.98	6.81
226.215	20.81
226.449	21.81
226.683	26.81
226.918	15.81
227.152	20.81
227.387	34.81
227.621	43.81
227.856	46.81
228.09	50.81
228.324	57.81
228.559	52.81
228.793	59.81
229.027	79.81
229.262	79.81
229.496	97.81
229.73	94.81
229.964	115.81
230.199	123.81
230.433	114.81
230.667	117.81
230.901	128.81
231.136	113.81
231.37	123.81
231.604	122.81
231.838	137.81
232.072	129.81
232.306	131.81
232.541	136.81
232.775	124.81
233.009	112.81
233.243	137.81
233.477	117.81
233.711	129.81
233.945	137.81
234.179	140.81
234.413	129.81
234.647	134.81
234.881	121.81
235.115	133.81
235.349	135.81
235.583	136.81
235.817	124.81
236.051	129.81
236.285	127.81
236.519	131.81
236.753	129.81
236.987	126.81
237.221	124.81
237.455	153.81
237.689	148.81
237.922	135.81
238.156	141.81
238.39	147.81
238.624	140.81
238.858	146.81
239.091	143.81
239.325	146.81
239.559	155.81
239.793	147.81
240.027	160.81
240.26	162.81
240.494	158.81
240.728	145.81
240.961	153.81
241.195	153.81
241.429	153.81
241.662	150.81
241.896	151.81
242.13	153.81
242.363	170.81
242.597	164.81
242.83	171.81
243.064	173.81
243.298	179.81
243.531	175.81
243.765	152.81
243.998	164.81
244.232	181.81
244.465	162.81
244.699	178.81
244.932	179.81
245.166	186.81
245.399	178.81
245.633	181.81
245.866	187.81
246.099	186.81
246.333	182.81
246.566	181.81
246.8	175.81
247.033	194.81
247.266	180.81
247.5	197.81
247.733	194.81
247.966	189.81
248.2	191.81
248.433	206.81
248.666	187.81
248.899	195.81
249.133	201.81
249.366	204.81
249.599	193.81
249.832	191.81
250.066	203.81
250.299	208.81
250.532	199.81
250.765	201.81
250.998	205.81
251.231	199.81
251.465	222.81
251.698	221.81
251.931	212.81
252.164	220.81
252.397	194.81
252.63	221.81
252.863	213.81
253.096	219.81
253.329	243.81
253.562	230.81
253.795	221.81
254.028	219.81
254.261	230.81
254.494	229.81
254.727	221.81
254.96	231.81
255.193	236.81
255.426	225.81
255.659	215.81
255.892	208.81
256.124	225.81
256.357	239.81
256.59	236.81
256.823	245.81
257.056	250.81
257.289	268.81
257.521	225.81
257.754	238.81
257.987	235.81
258.22	233.81
258.452	210.81
258.685	245.81
258.918	233.81
259.151	249.81
259.383	267.81
259.616	255.81
259.849	272.81
260.081	228.81
260.314	245.81
260.547	252.81
260.779	252.81
261.012	236.81
261.244	259.81
261.477	253.81
261.71	269.81
261.942	258.81
262.175	268.81
262.407	252.81
262.64	253.81
262.872	257.81
263.105	273.81
263.337	274.81
263.57	271.81
263.802	279.81
264.035	272.81
264.267	263.81
264.499	259.81
264.732	288.81
264.964	272.81
265.197	272.81
265.429	294.81
265.661	268.81
265.894	277.81
266.126	284.81
266.358	272.81
266.591	291.81
266.823	293.81
267.055	292.81
267.287	290.81
267.52	284.81
267.752	292.81
267.984	300.81
268.216	296.81
268.448	298.81
268.681	296.81
268.913	293.81
269.145	301.81
269.377	317.81
269.609	296.81
269.841	302.81
270.073	312.81
270.306	314.81
270.538	297.81
270.77	310.81
271.002	298.81
271.234	307.81
271.466	307.81
271.698	317.81
271.93	311.81
272.162	329.81
272.394	331.81
272.626	314.81
272.858	317.81
273.09	314.81
273.322	315.81
273.553	328.81
273.785	324.81
274.017	314.81
274.249	325.81
274.481	323.81
274.713	316.81
274.945	314.81
275.176	322.81
275.408	314.81
275.64	344.81
275.872	314.81
276.104	330.81
276.335	344.81
276.567	332.81
276.799	347.81
277.031	325.81
277.262	342.81
277.494	336.81
277.726	341.81
277.957	340.81
278.189	340.81
278.421	355.81
278.652	353.81
278.884	341.81
279.115	361.81
279.347	342.81
279.579	357.81
279.81	339.81
280.042	333.81
280.273	366.81
280.505	359.81
280.736	378.81
280.968	359.81
281.199	341.81
281.431	373.81
281.662	372.81
281.894	359.81
282.125	362.81
282.356	373.81
282.588	386.81
282.819	367.81
283.051	384.81
283.282	381.81
283.513	383.81
283.745	363.81
283.976	368.81
284.207	359.81
284.439	387.81
284.67	389.81
284.901	386.81
285.132	379.81
285.364	405.81
285.595	377.81
285.826	378.81
286.057	376.81
286.288	385.81
286.52	396.81
286.751	388.81
286.982	392.81
287.213	399.81
287.444	386.81
287.675	411.81
287.906	404.81
288.138	405.81
288.369	389.81
288.6	415.81
288.831	415.81
289.062	419.81
289.293	405.81
289.524	399.81
289.755	405.81
289.986	421.81
290.217	439.81
290.448	428.81
290.679	395.81
290.91	410.81
291.141	402.81
291.371	416.81
291.602	419.81
291.833	415.81
292.064	413.81
292.295	414.81
292.526	399.81
292.757	424.81
292.987	413.81
293.218	414.81
293.449	414.81
293.68	410.81
293.91	417.81
294.141	424.81
294.372	417.81
294.603	420.81
294.833	421.81
295.064	425.81
295.295	421.81
295.525	439.81
295.756	442.81
295.987	439.81
296.217	446.81
296.448	438.81
296.679	427.81
296.909	422.81
297.14	438.81
297.37	436.81
297.601	449.81
297.831	445.81
298.062	442.81
298.292	465.81
298.523	454.81
298.753	465.81
298.984	465.81
299.214	465.81
299.445	450.81
299.675	478.81
299.905	461.81
300.136	448.81
300.366	467.81
300.597	486.81
300.827	475.81
301.057	476.81
301.288	497.81
301.518	491.81
301.748	492.81
301.979	461.81
302.209	488.81
302.439	487.81
302.669	468.81
302.9	484.81
303.13	470.81
303.36	471.81
303.59	479.81
303.82	489.81
304.051	487.81
304.281	497.81
304.511	492.81
304.741	481.81
304.971	477.81
305.201	513.81
305.431	509.81
305.661	494.81
305.891	482.81
306.121	485.81
306.352	470.81
306.582	468.81
306.812	472.81
307.042	463.81
307.272	466.81
307.502	486.81
307.731	489.81
307.961	485.81
308.191	484.81
308.421	486.81
308.651	487.81
308.881	494.81
309.111	484.81
309.341	473.81
309.571	462.81
309.8	474.81
310.03	481.81
310.26	486.81
310.49	504.81
310.72	491.81
310.949	485.81
311.179	483.81
311.409	480.81
311.639	490.81
311.868	490.81
312.098	503.81
312.328	484.81
312.557	525.81
312.787	498.81
313.017	509.81
313.246	517.81
313.476	501.81
313.706	518.81
313.935	511.81
314.165	521.81
314.394	534.81
314.624	507.81
314.853	483.81
315.083	510.81
315.312	505.81
315.542	506.81
315.771	513.81
316.001	508.81
316.23	515.81
316.46	495.81
316.689	538.81
316.919	509.81
317.148	530.81
317.377	531.81
317.607	517.81
317.836	477.81
318.065	514.81
318.295	494.81
318.524	509.81
318.753	510.81
318.983	510.81
319.212	515.81
319.441	530.81
319.67	534.81
319.9	528.81
320.129	515.81
320.358	544.81
320.587	517.81
320.816	516.81
321.046	519.81
321.275	521.81
321.504	511.81
321.733	513.81
321.962	503.81
322.191	527.81
322.42	509.81
322.649	519.81
322.878	515.81
323.108	492.81
323.337	531.81
323.566	528.81
323.795	517.81
324.024	533.81
324.253	526.81
324.482	531.81
324.71	541.81
324.939	537.81
325.168	525.81
325.397	542.81
325.626	527.81
325.855	527.81
326.084	553.81
326.313	559.81
326.542	563.81
326.77	548.81
326.999	546.81
327.228	530.81
327.457	536.81
327.686	567.81
327.914	569.81
328.143	551.81
328.372	567.81
328.6	553.81
328.829	543.81
329.058	534.81
329.287	569.81
329.515	567.81
329.744	558.81
329.972	553.81
330.201	556.81
330.43	579.81
330.658	571.81
330.887	580.81
331.115	579.81
331.344	583.81
331.572	578.81
331.801	613.81
332.03	599.81
332.258	617.81
332.486	639.81
332.715	653.81
332.943	633.81
333.172	684.81
333.4	716.81
333.629	744.81
333.857	741.81
334.085	716.81
334.314	712.81
334.542	682.81
334.771	697.81
334.999	681.81
335.227	681.81
335.455	697.81
335.684	673.81
335.912	682.81
336.14	656.81
336.369	669.81
336.597	675.81
336.825	679.81
337.053	677.81
337.281	679.81
337.51	651.81
337.738	632.81
337.966	621.81
338.194	645.81
338.422	621.81
338.65	617.81
338.878	613.81
339.106	596.81
339.334	625.81
339.562	607.81
339.79	587.81
340.018	588.81
340.246	582.81
340.474	595.81
340.702	604.81
340.93	586.81
341.158	589.81
341.386	589.81
341.614	604.81
341.842	604.81
342.07	589.81
342.298	596.81
342.526	586.81
342.754	579.81
342.981	594.81
343.209	611.81
343.437	648.81
343.665	665.81
343.893	686.81
344.12	689.81
344.348	656.81
344.576	645.81
344.804	635.81
345.031	617.81
345.259	584.81
345.487	580.81
345.714	604.81
345.942	606.81
346.17	583.81
346.397	585.81
346.625	573.81
346.853	548.81
347.08	555.81
347.308	569.81
347.535	573.81
347.763	559.81
347.99	552.81
348.218	538.81
348.445	564.81
348.673	575.81
348.9	546.81
349.128	569.81
349.355	553.81
349.583	566.81
349.81	543.81
350.037	556.81
350.265	553.81
350.492	545.81
350.72	535.81
350.947	545.81
351.174	555.81
351.402	573.81
351.629	541.81
351.856	546.81
352.083	518.81
352.311	536.81
352.538	539.81
352.765	562.81
352.992	551.81
353.22	550.81
353.447	523.81
353.674	537.81
353.901	535.81
354.128	540.81
354.355	531.81
354.583	523.81
354.81	535.81
355.037	541.81
355.264	528.81
355.491	527.81
355.718	537.81
355.945	526.81
356.172	542.81
356.399	557.81
356.626	550.81
356.853	542.81
357.08	525.81
357.307	540.81
357.534	543.81
357.761	526.81
357.988	525.81
358.215	534.81
358.441	515.81
358.668	518.81
358.895	531.81
359.122	527.81
359.349	519.81
359.576	533.81
359.802	530.81
360.029	535.81
360.256	546.81
360.483	530.81
360.709	511.81
360.936	524.81
361.163	541.81
361.39	545.81
361.616	526.81
361.843	551.81
362.07	545.81
362.296	561.81
362.523	544.81
362.749	545.81
362.976	525.81
363.203	534.81
363.429	509.81
363.656	527.81
363.882	505.81
364.109	527.81
364.335	528.81
364.562	525.81
364.788	527.81
365.015	527.81
365.241	523.81
365.468	537.81
365.694	522.81
365.92	511.81
366.147	515.81
366.373	525.81
366.599	507.81
366.826	511.81
367.052	530.81
367.278	534.81
367.505	549.81
367.731	547.81
367.957	541.81
368.184	532.81
368.41	522.81
368.636	524.81
368.862	543.81
369.089	503.81
369.315	555.81
369.541	562.81
369.767	522.81
369.993	540.81
370.219	551.81
370.445	554.81
370.672	550.81
370.898	541.81
371.124	560.81
371.35	579.81
371.576	561.81
371.802	572.81
372.028	555.81
372.254	569.81
372.48	581.81
372.706	578.81
372.932	579.81
373.158	589.81
373.384	587.81
373.61	567.81
373.835	565.81
374.061	564.81
374.287	577.81
374.513	578.81
374.739	602.81
374.965	605.81
375.191	622.81
375.416	602.81
375.642	600.81
375.868	610.81
376.094	585.81
376.319	571.81
376.545	593.81
376.771	586.81
376.997	592.81
377.222	567.81
377.448	546.81
377.674	551.81
377.899	535.81
378.125	562.81
378.35	550.81
378.576	547.81
378.802	546.81
379.027	545.81
379.253	545.81
379.478	545.81
379.704	545.81
379.929	528.81
380.155	557.81
380.38	563.81
380.606	539.81
380.831	545.81
381.057	589.81
381.282	550.81
381.507	554.81
381.733	571.81
381.958	579.81
382.184	562.81
382.409	566.81
382.634	563.81
382.86	585.81
383.085	610.81
383.31	603.81
383.535	597.81
383.761	601.81
383.986	613.81
384.211	626.81
384.436	629.81
384.662	619.81
384.887	627.81
385.112	631.81
385.337	651.81
385.562	659.81
385.787	644.81
386.013	652.81
386.238	646.81
386.463	643.81
386.688	650.81
386.913	646.81
387.138	652.81
387.363	660.81
387.588	631.81
387.813	633.81
388.038	649.81
388.263	651.81
388.488	654.81
388.713	645.81
388.938	650.81
389.163	627.81
389.387	647.81
389.612	627.81
389.837	615.81
390.062	641.81
390.287	634.81
390.512	639.81
390.736	651.81
390.961	648.81
391.186	664.81
391.411	668.81
391.636	671.81
391.86	709.81
392.085	731.81
392.31	717.81
392.534	723.81
392.759	689.81
392.984	685.81
393.208	671.81
393.433	664.81
393.658	711.81
393.882	675.81
394.107	682.81
394.331	691.81
394.556	691.81
394.78	682.81
395.005	718.81
395.229	707.81
395.454	702.81
395.678	717.81
395.903	705.81
396.127	732.81
396.352	695.81
396.576	678.81
396.801	693.81
397.025	683.81
397.249	717.81
397.474	707.81
397.698	729.81
397.922	725.81
398.147	733.81
398.371	734.81
398.595	755.81
398.82	802.81
399.044	853.81
399.268	937.81
399.492	1067.81
399.717	1159.81
399.941	1139.81
400.165	1020.81
400.389	934.81
400.613	865.81
400.837	833.81
401.062	823.81
401.286	808.81
401.51	807.81
401.734	804.81
401.958	815.81
402.182	818.81
402.406	843.81
402.63	839.81
402.854	875.81
403.078	842.81
403.302	884.81
403.526	868.81
403.75	901.81
403.974	920.81
404.198	895.81
404.422	910.81
404.645	897.81
404.869	898.81
405.093	895.81
405.317	885.81
405.541	867.81
405.765	872.81
405.988	873.81
406.212	875.81
406.436	885.81
406.66	933.81
406.883	916.81
407.107	961.81
407.331	1001.81
407.555	1036.81
407.778	1028.81
408.002	1030.81
408.226	1002.81
408.449	961.81
408.673	919.81
408.896	921.81
409.12	902.81
409.344	941.81
409.567	907.81
409.791	926.81
410.014	876.81
410.238	889.81
410.461	893.81
410.685	879.81
410.908	862.81
411.132	858.81
411.355	854.81
411.578	863.81
411.802	874.81
412.025	853.81
412.249	861.81
412.472	841.81
412.695	831.81
412.919	820.81
413.142	823.81
413.365	817.81
413.589	830.81
413.812	830.81
414.035	818.81
414.258	813.81
414.482	841.81
414.705	839.81
414.928	839.81
415.151	849.81
415.374	845.81
415.597	820.81
415.821	803.81
416.044	769.81
416.267	790.81
416.49	789.81
416.713	809.81
416.936	827.81
417.159	798.81
417.382	802.81
417.605	800.81
417.828	825.81
418.051	792.81
418.274	833.81
418.497	805.81
418.72	827.81
418.943	841.81
419.166	890.81
419.389	911.81
419.611	927.81
419.834	870.81
420.057	861.81
420.28	827.81
420.503	823.81
420.726	808.81
420.948	811.81
421.171	810.81
421.394	795.81
421.617	819.81
421.839	816.81
422.062	831.81
422.285	810.81
422.507	842.81
422.73	850.81
422.953	854.81
423.175	841.81
423.398	875.81
423.621	874.81
423.843	867.81
424.066	870.81
424.288	866.81
424.511	853.81
424.733	855.81
424.956	846.81
425.178	841.81
425.401	825.81
425.623	828.81
425.846	808.81
426.068	804.81
426.291	803.81
426.513	789.81
426.735	806.81
426.958	804.81
427.18	729.81
427.402	761.81
427.625	780.81
427.847	739.81
428.069	730.81
428.292	758.81
428.514	755.81
428.736	755.81
428.958	761.81
429.181	729.81
429.403	727.81
429.625	739.81
429.847	725.81
430.069	745.81
430.292	735.81
430.514	723.81
430.736	748.81
430.958	734.81
431.18	722.81
431.402	720.81
431.624	736.81
431.846	761.81
432.068	779.81
432.29	760.81
432.512	739.81
432.734	770.81
432.956	751.81
433.178	763.81
433.4	777.81
433.622	773.81
433.844	773.81
434.066	791.81
434.287	771.81
434.509	803.81
434.731	840.81
434.953	841.81
435.175	852.81
435.397	825.81
435.618	771.81
435.84	790.81
436.062	761.81
436.284	767.81
436.505	784.81
436.727	765.81
436.949	755.81
437.17	749.81
437.392	742.81
437.614	759.81
437.835	755.81
438.057	741.81
438.278	730.81
438.5	714.81
438.721	741.81
438.943	733.81
439.165	733.81
439.386	747.81
439.608	764.81
439.829	730.81
440.05	755.81
440.272	746.81
440.493	772.81
440.715	754.81
440.936	783.81
441.158	811.81
441.379	807.81
441.6	872.81
441.822	860.81
442.043	844.81
442.264	844.81
442.486	845.81
442.707	851.81
442.928	834.81
443.149	833.81
443.371	823.81
443.592	851.81
443.813	878.81
444.034	874.81
444.255	866.81
444.476	929.81
444.698	963.81
444.919	1005.81
445.14	1098.81
445.361	947.81
445.582	908.81
445.803	860.81
446.024	809.81
446.245	814.81
446.466	781.81
446.687	799.81
446.908	772.81
447.129	771.81
447.35	755.81
447.571	770.81
447.792	744.81
448.013	753.81
448.234	725.81
448.455	739.81
448.675	722.81
448.896	725.81
449.117	734.81
449.338	701.81
449.559	695.81
449.779	708.81
450	696.81
450.221	715.81
450.442	711.81
450.662	737.81
450.883	751.81
451.104	740.81
451.324	731.81
451.545	722.81
451.766	711.81
451.986	730.81
452.207	699.81
452.428	709.81
452.648	725.81
452.869	701.81
453.089	682.81
453.31	701.81
453.53	696.81
453.751	678.81
453.971	663.81
454.192	706.81
454.412	681.81
454.633	676.81
454.853	694.81
455.073	679.81
455.294	660.81
455.514	663.81
455.734	669.81
455.955	679.81
456.175	681.81
456.395	668.81
456.616	655.81
456.836	647.81
457.056	671.81
457.276	663.81
457.497	660.81
457.717	668.81
457.937	659.81
458.157	683.81
458.377	708.81
458.598	699.81
458.818	708.81
459.038	742.81
459.258	738.81
459.478	780.81
459.698	800.81
459.918	823.81
460.138	832.81
460.358	840.81
460.578	871.81
460.798	923.81
461.018	905.81
461.238	899.81
461.458	905.81
461.678	879.81
461.898	900.81
462.118	885.81
462.338	957.81
462.558	1007.81
462.777	1003.81
462.997	1074.81
463.217	1167.81
463.437	1167.81
463.657	1078.81
463.876	1025.81
464.096	1034.81
464.316	1020.81
464.536	1036.81
464.755	1004.81
464.975	967.81
465.195	908.81
465.414	868.81
465.634	833.81
465.854	825.81
466.073	800.81
466.293	787.81
466.512	766.81
466.732	762.81
466.951	773.81
467.171	749.81
467.391	750.81
467.61	753.81
467.829	748.81
468.049	775.81
468.268	736.81
468.488	725.81
468.707	743.81
468.927	729.81
469.146	718.81
469.365	737.81
469.585	749.81
469.804	740.81
470.023	734.81
470.243	788.81
470.462	796.81
470.681	784.81
470.901	749.81
471.12	784.81
471.339	774.81
471.558	741.81
471.777	746.81
471.997	740.81
472.216	714.81
472.435	712.81
472.654	725.81
472.873	722.81
473.092	715.81
473.311	721.81
473.53	705.81
473.749	693.81
473.968	713.81
474.187	708.81
474.406	717.81
474.625	729.81
474.844	723.81
475.063	704.81
475.282	725.81
475.501	730.81
475.72	732.81
475.939	734.81
476.158	733.81
476.377	745.81
476.596	739.81
476.814	738.81
477.033	726.81
477.252	765.81
477.471	783.81
477.69	794.81
477.908	799.81
478.127	828.81
478.346	829.81
478.564	843.81
478.783	844.81
479.002	894.81
479.22	897.81
479.439	889.81
479.658	876.81
479.876	857.81
480.095	886.81
480.313	906.81
480.532	926.81
480.751	914.81
480.969	908.81
481.188	875.81
481.406	873.81
481.624	834.81
481.843	819.81
482.061	829.81
482.28	836.81
482.498	807.81
482.717	817.81
482.935	824.81
483.153	842.81
483.372	838.81
483.59	852.81
483.808	813.81
484.027	831.81
484.245	861.81
484.463	855.81
484.681	848.81
484.9	868.81
485.118	860.81
485.336	852.81
485.554	844.81
485.772	864.81
485.99	875.81
486.209	863.81
486.427	866.81
486.645	883.81
486.863	896.81
487.081	854.81
487.299	874.81
487.517	872.81
487.735	891.81
487.953	875.81
488.171	898.81
488.389	877.81
488.607	848.81
488.825	842.81
489.043	824.81
489.261	855.81
489.479	884.81
489.696	895.81
489.914	917.81
490.132	868.81
490.35	877.81
490.568	851.81
490.786	867.81
491.003	881.81
491.221	897.81
491.439	900.81
491.657	871.81
491.874	901.81
492.092	927.81
492.31	878.81
492.527	915.81
492.745	923.81
492.963	940.81
493.18	888.81
493.398	910.81
493.615	931.81
493.833	933.81
494.05	931.81
494.268	936.81
494.485	930.81
494.703	918.81
494.92	933.81
495.138	927.81
495.355	970.81
495.573	953.81
495.79	918.81
496.008	968.81
496.225	917.81
496.442	925.81
496.66	948.81
496.877	977.81
497.094	999.81
497.312	988.81
497.529	1003.81
497.746	1014.81
497.963	1063.81
498.181	1088.81
498.398	1145.81
498.615	1187.81
498.832	1300.81
499.049	1371.81
499.267	1466.81
499.484	1565.81
499.701	1719.81
499.918	1863.81
500.135	2112.81
500.352	2346.81
500.569	2414.81
500.786	2384.81
501.003	2263.81
501.22	2078.81
501.437	1846.81
501.654	1661.81
501.871	1513.81
502.088	1397.81
502.305	1315.81
502.522	1257.81
502.739	1255.81
502.956	1168.81
503.172	1121.81
503.389	1099.81
503.606	1073.81
503.823	1024.81
504.04	1045.81
504.256	1010.81
504.473	1075.81
504.69	1060.81
504.907	1036.81
505.123	995.81
505.34	943.81
505.557	886.81
505.773	891.81
505.99	866.81
506.207	827.81
506.423	854.81
506.64	837.81
506.856	803.81
507.073	831.81
507.289	805.81
507.506	828.81
507.722	774.81
507.939	798.81
508.155	776.81
508.372	764.81
508.588	792.81
508.805	781.81
509.021	769.81
509.238	746.81
509.454	729.81
509.67	737.81
509.887	757.81
510.103	744.81
510.319	745.81
510.536	739.81
510.752	722.81
510.968	734.81
511.184	724.81
511.401	731.81
511.617	723.81
511.833	723.81
512.049	709.81
512.265	717.81
512.481	745.81
512.698	705.81
512.914	712.81
513.13	713.81
513.346	726.81
513.562	713.81
513.778	704.81
513.994	720.81
514.21	753.81
514.426	743.81
514.642	753.81
514.858	746.81
515.074	763.81
515.29	739.81
515.506	745.81
515.721	772.81
515.937	769.81
516.153	790.81
516.369	774.81
516.585	821.81
516.801	840.81
517.016	899.81
517.232	933.81
517.448	942.81
517.664	978.81
517.879	983.81
518.095	971.81
518.311	964.81
518.527	895.81
518.742	875.81
518.958	860.81
519.173	819.81
519.389	797.81
519.605	775.81
519.82	774.81
520.036	747.81
520.251	763.81
520.467	741.81
520.682	733.81
520.898	707.81
521.113	697.81
521.329	716.81
521.544	712.81
521.76	714.81
521.975	701.81
522.19	695.81
522.406	690.81
522.621	682.81
522.836	677.81
523.052	659.81
523.267	683.81
523.482	671.81
523.698	662.81
523.913	665.81
524.128	676.81
524.343	659.81
524.559	677.81
524.774	664.81
524.989	679.81
525.204	670.81
525.419	676.81
525.634	655.81
525.849	668.81
526.064	661.81
526.28	649.81
526.495	662.81
526.71	653.81
526.925	647.81
527.14	659.81
527.355	667.81
527.57	649.81
527.785	670.81
527.999	647.81
528.214	661.81
528.429	646.81
528.644	671.81
528.859	653.81
529.074	677.81
529.289	681.81
529.503	666.81
529.718	675.81
529.933	670.81
530.148	641.81
530.363	661.81
530.577	632.81
530.792	634.81
531.007	637.81
531.221	642.81
531.436	663.81
531.651	645.81
531.865	644.81
532.08	668.81
532.295	652.81
532.509	627.81
532.724	637.81
532.938	635.81
533.153	649.81
533.367	638.81
533.582	645.81
533.796	639.81
534.011	650.81
534.225	636.81
534.44	651.81
534.654	635.81
534.868	622.81
535.083	618.81
535.297	643.81
535.511	619.81
535.726	631.81
535.94	619.81
536.154	611.81
536.369	617.81
536.583	601.81
536.797	619.81
537.011	582.81
537.225	585.81
537.44	617.81
537.654	609.81
537.868	615.81
538.082	616.81
538.296	600.81
538.51	628.81
538.724	605.81
538.938	583.81
539.153	604.81
539.367	619.81
539.581	592.81
539.795	595.81
540.009	586.81
540.222	579.81
540.436	603.81
540.65	591.81
540.864	597.81
541.078	585.81
541.292	595.81
541.506	606.81
541.72	589.81
541.934	606.81
542.147	617.81
542.361	615.81
542.575	602.81
542.789	601.81
543.002	570.81
543.216	593.81
543.43	614.81
543.644	609.81
543.857	597.81
544.071	584.81
544.285	595.81
544.498	565.81
544.712	611.81
544.925	602.81
545.139	610.81
545.352	626.81
545.566	599.81
545.779	607.81
545.993	604.81
546.206	588.81
546.42	614.81
546.633	595.81
546.847	617.81
547.06	607.81
547.274	611.81
547.487	632.81
547.7	615.81
547.914	613.81
548.127	607.81
548.34	594.81
548.554	611.81
548.767	629.81
548.98	606.81
549.193	605.81
549.407	612.81
549.62	630.81
549.833	614.81
550.046	590.81
550.259	609.81
550.473	606.81
550.686	597.81
550.899	600.81
551.112	583.81
551.325	598.81
551.538	605.81
551.751	582.81
551.964	604.81
552.177	614.81
552.39	611.81
552.603	634.81
552.816	627.81
553.029	627.81
553.242	650.81
553.455	656.81
553.667	685.81
553.88	627.81
554.093	630.81
554.306	602.81
554.519	597.81
554.732	591.81
554.944	579.81
555.157	564.81
555.37	585.81
555.583	569.81
555.795	567.81
556.008	563.81
556.221	549.81
556.433	537.81
556.646	542.81
556.859	534.81
557.071	534.81
557.284	524.81
557.496	537.81
557.709	527.81
557.921	529.81
558.134	526.81
558.346	513.81
558.559	494.81
558.771	547.81
558.984	498.81
559.196	501.81
559.409	504.81
559.621	512.81
559.833	500.81
560.046	517.81
560.258	507.81
560.47	502.81
560.683	503.81
560.895	499.81
561.107	487.81
561.32	495.81
561.532	499.81
561.744	509.81
561.956	478.81
562.168	488.81
562.381	495.81
562.593	501.81
562.805	503.81
563.017	482.81
563.229	501.81
563.441	503.81
563.653	503.81
563.865	524.81
564.077	481.81
564.289	528.81
564.501	524.81
564.713	541.81
564.925	534.81
565.137	556.81
565.349	547.81
565.561	569.81
565.773	587.81
565.985	597.81
566.197	616.81
566.408	655.81
566.62	704.81
566.832	738.81
567.044	747.81
567.255	793.81
567.467	774.81
567.679	824.81
567.891	848.81
568.102	895.81
568.314	830.81
568.526	759.81
568.737	716.81
568.949	675.81
569.161	613.81
569.372	573.81
569.584	553.81
569.795	540.81
570.007	515.81
570.218	499.81
570.43	503.81
570.641	513.81
570.853	517.81
571.064	499.81
571.276	489.81
571.487	487.81
571.698	477.81
571.91	452.81
572.121	454.81
572.333	446.81
572.544	427.81
572.755	419.81
572.966	435.81
573.178	423.81
573.389	412.81
573.6	418.81
573.811	400.81
574.023	412.81
574.234	391.81
574.445	406.81
574.656	398.81
574.867	399.81
575.078	402.81
575.289	396.81
575.501	417.81
575.712	403.81
575.923	391.81
576.134	375.81
576.345	391.81
576.556	382.81
576.767	380.81
576.978	387.81
577.188	402.81
577.399	381.81
577.61	389.81
577.821	377.81
578.032	388.81
578.243	374.81
578.454	375.81
578.665	377.81
578.875	373.81
579.086	361.81
579.297	350.81
579.508	369.81
579.718	357.81
579.929	371.81
580.14	351.81
580.35	341.81
580.561	360.81
580.772	359.81
580.982	364.81
581.193	339.81
581.403	346.81
581.614	365.81
581.825	347.81
582.035	349.81
582.246	334.81
582.456	348.81
582.667	342.81
582.877	345.81
583.087	342.81
583.298	356.81
583.508	344.81
583.719	335.81
583.929	339.81
584.139	331.81
584.35	328.81
584.56	345.81
584.77	337.81
584.981	336.81
585.191	320.81
585.401	332.81
585.611	344.81
585.821	335.81
586.032	333.81
586.242	328.81
586.452	329.81
586.662	336.81
586.872	343.81
587.082	328.81
587.292	327.81
587.502	323.81
587.713	324.81
587.923	329.81
588.133	346.81
588.343	346.81
588.553	341.81
588.762	334.81
588.972	350.81
589.182	386.81
589.392	389.81
589.602	344.81
589.812	379.81
590.022	354.81
590.232	343.81
590.441	337.81
590.651	324.81
590.861	317.81
591.071	342.81
591.281	337.81
591.49	342.81
591.7	354.81
591.91	347.81
592.119	358.81
592.329	359.81
592.539	359.81
592.748	361.81
592.958	362.81
593.167	405.81
593.377	409.81
593.587	405.81
593.796	400.81
594.006	406.81
594.215	402.81
594.424	416.81
594.634	382.81
594.843	377.81
595.053	363.81
595.262	362.81
595.472	366.81
595.681	345.81
595.89	324.81
596.1	319.81
596.309	312.81
596.518	315.81
596.727	322.81
596.937	305.81
597.146	317.81
597.355	292.81
597.564	309.81
597.774	287.81
597.983	318.81
598.192	293.81
598.401	263.81
598.61	309.81
598.819	296.81
599.028	294.81
599.237	282.81
599.446	290.81
599.655	282.81
599.864	285.81
600.073	281.81
600.282	278.81
600.491	281.81
600.7	287.81
600.909	274.81
601.118	267.81
601.327	280.81
601.536	295.81
601.745	299.81
601.953	269.81
602.162	268.81
602.371	280.81
602.58	295.81
602.789	271.81
602.997	270.81
603.206	277.81
603.415	286.81
603.623	277.81
603.832	266.81
604.041	253.81
604.249	278.81
604.458	261.81
604.666	267.81
604.875	266.81
605.084	254.81
605.292	260.81
605.501	264.81
605.709	261.81
605.918	268.81
606.126	266.81
606.334	270.81
606.543	272.81
606.751	279.81
606.96	261.81
607.168	276.81
607.376	272.81
607.585	284.81
607.793	256.81
608.001	259.81
608.21	267.81
608.418	250.81
608.626	246.81
608.834	263.81
609.043	253.81
609.251	259.81
609.459	245.81
609.667	243.81
609.875	227.81
610.083	254.81
610.291	244.81
610.499	260.81
610.707	251.81
610.916	268.81
611.124	243.81
611.332	257.81
611.54	237.81
611.748	234.81
611.955	239.81
612.163	252.81
612.371	257.81
612.579	236.81
612.787	239.81
612.995	234.81
613.203	249.81
613.411	238.81
613.618	253.81
613.826	248.81
614.034	242.81
614.242	259.81
614.449	230.81
614.657	240.81
614.865	242.81
615.072	238.81
615.28	241.81
615.488	234.81
615.695	235.81
615.903	245.81
616.111	235.81
616.318	242.81
616.526	249.81
616.733	245.81
616.941	247.81
617.148	244.81
617.356	239.81
617.563	241.81
617.771	248.81
617.978	242.81
618.185	233.81
618.393	238.81
618.6	234.81
618.807	245.81
619.015	251.81
619.222	262.81
619.429	242.81
619.637	229.81
619.844	227.81
620.051	243.81
620.258	235.81
620.466	226.81
620.673	230.81
620.88	220.81
621.087	228.81
621.294	228.81
621.501	223.81
621.708	228.81
621.915	237.81
622.122	220.81
622.329	217.81
622.536	231.81
622.743	220.81
622.95	225.81
623.157	226.81
623.364	206.81
623.571	228.81
623.778	222.81
623.985	218.81
624.192	214.81
624.399	212.81
624.606	231.81
624.812	218.81
625.019	230.81
625.226	205.81
625.433	195.81
625.639	209.81
625.846	203.81
626.053	215.81
626.259	208.81
626.466	234.81
626.673	198.81
626.879	206.81
627.086	207.81
627.293	207.81
627.499	220.81
627.706	196.81
627.912	213.81
628.119	222.81
628.325	202.81
628.532	201.81
628.738	201.81
628.945	207.81
629.151	193.81
629.357	210.81
629.564	214.81
629.77	200.81
629.976	196.81
630.183	207.81
630.389	209.81
630.595	207.81
630.802	194.81
631.008	204.81
631.214	191.81
631.42	197.81
631.627	189.81
631.833	195.81
632.039	188.81
632.245	186.81
632.451	179.81
632.657	200.81
632.863	193.81
633.069	178.81
633.275	176.81
633.481	195.81
633.688	180.81
633.893	176.81
634.099	186.81
634.305	173.81
634.511	194.81
634.717	186.81
634.923	183.81
635.129	186.81
635.335	181.81
635.541	193.81
635.747	179.81
635.952	186.81
636.158	176.81
636.364	184.81
636.57	173.81
636.775	190.81
636.981	202.81
637.187	187.81
637.392	187.81
637.598	186.81
637.804	184.81
638.009	176.81
638.215	180.81
638.421	181.81
638.626	172.81
638.832	186.81
639.037	163.81
639.243	184.81
639.448	161.81
639.654	168.81
639.859	181.81
640.065	190.81
640.27	179.81
640.475	182.81
640.681	163.81
640.886	184.81
641.091	182.81
641.297	174.81
641.502	179.81
641.707	184.81
641.913	188.81
642.118	166.81
642.323	158.81
642.528	161.81
642.733	167.81
642.939	159.81
643.144	168.81
643.349	171.81
643.554	172.81
643.759	169.81
643.964	170.81
644.169	178.81
644.374	169.81
644.579	179.81
644.784	178.81
644.989	186.81
645.194	169.81
645.399	179.81
645.604	168.81
645.809	171.81
646.014	175.81
646.219	172.81
646.423	180.81
646.628	171.81
646.833	169.81
647.038	158.81
647.243	171.81
647.447	171.81
647.652	179.81
647.857	193.81
648.062	184.81
648.266	171.81
648.471	169.81
648.676	177.81
648.88	159.81
649.085	171.81
649.289	188.81
649.494	179.81
649.698	156.81
649.903	161.81
650.107	162.81
650.312	165.81
650.516	139.81
650.721	157.81
650.925	147.81
651.13	154.81
651.334	148.81
651.539	155.81
651.743	151.81
651.947	134.81
652.152	169.81
652.356	156.81
652.56	165.81
652.764	162.81
652.969	149.81
653.173	151.81
653.377	144.81
653.581	141.81
653.785	146.81
653.99	144.81
654.194	156.81
654.398	161.81
654.602	135.81
654.806	145.81
655.01	145.81
655.214	138.81
655.418	159.81
655.622	138.81
655.826	142.81
656.03	145.81
656.234	149.81
656.438	133.81
656.642	161.81
656.846	148.81
657.049	136.81
657.253	153.81
657.457	135.81
657.661	113.81
657.865	121.81
658.068	117.81
658.272	122.81
658.476	118.81
658.68	115.81
658.883	107.81
659.087	113.81
659.291	120.81
659.494	106.81
659.698	100.81
659.901	92.81
660.105	80.81
660.309	97.81
660.512	94.81
660.716	92.81
660.919	94.81
661.123	95.81
661.326	100.81
661.53	94.81
661.733	99.81
661.936	93.81
662.14	98.81
662.343	90.81
662.546	79.81
662.75	84.81
662.953	94.81
663.156	82.81
663.36	97.81
663.563	97.81
663.766	79.81
663.969	90.81
664.173	87.81
664.376	74.81
664.579	80.81
664.782	69.81
664.985	95.81
665.188	88.81
665.391	97.81
665.594	78.81
665.797	93.81
666	99.81
666.203	73.81
666.406	71.81
666.609	84.81
666.812	77.81
667.015	91.81
667.218	78.81
667.421	79.81
667.624	85.81
667.827	79.81
668.03	83.81
668.232	77.81
668.435	90.81
668.638	84.81
668.841	91.81
669.043	80.81
669.246	85.81
669.449	81.81
669.651	77.81
669.854	61.81
670.057	86.81
670.259	83.81
670.462	75.81
670.665	94.81
670.867	87.81
671.07	79.81
671.272	83.81
671.475	88.81
671.677	87.81
671.88	71.81
672.082	90.81
672.284	73.81
672.487	80.81
672.689	79.81
672.892	88.81
