Data from NiCl2@0.125M.TitratingCurve.Agarose3%dH2O.NegLispCup.LampEnergy10.LIBS07252019_HRD10591_18-28-37-574.txt Node
Date: Thu Jul 25 18:28:37 EDT 2019
User: cochatt
Spectrometer: HR+D1059
Trigger mode: 1
Integration Time (sec): 1.000000E-1
Scans to average: 1
Electric dark correction enabled: true
Nonlinearity correction enabled: false
Boxcar width: 0
XAxis mode: Wavelengths
Number of Pixels in Spectrum: 2048
>>>>>Begin Spectral Data<<<<<
223.165	-24.25
223.4	-24.25
223.635	-24.25
223.869	-9.25
224.104	-26.25
224.338	-27.25
224.573	-19.25
224.808	-10.25
225.042	12.75
225.277	-7.25
225.511	-0.25
225.746	0.75
225.98	6.75
226.215	13.75
226.449	9.75
226.683	13.75
226.918	38.75
227.152	27.75
227.387	40.75
227.621	35.75
227.856	47.75
228.09	55.75
228.324	59.75
228.559	53.75
228.793	70.75
229.027	122.75
229.262	123.75
229.496	110.75
229.73	124.75
229.964	118.75
230.199	142.75
230.433	139.75
230.667	130.75
230.901	139.75
231.136	150.75
231.37	142.75
231.604	147.75
231.838	152.75
232.072	153.75
232.306	147.75
232.541	167.75
232.775	162.75
233.009	169.75
233.243	149.75
233.477	149.75
233.711	159.75
233.945	155.75
234.179	150.75
234.413	150.75
234.647	162.75
234.881	162.75
235.115	165.75
235.349	164.75
235.583	168.75
235.817	163.75
236.051	160.75
236.285	156.75
236.519	156.75
236.753	158.75
236.987	201.75
237.221	176.75
237.455	182.75
237.689	171.75
237.922	188.75
238.156	183.75
238.39	186.75
238.624	186.75
238.858	160.75
239.091	184.75
239.325	186.75
239.559	175.75
239.793	188.75
240.027	190.75
240.26	190.75
240.494	187.75
240.728	190.75
240.961	187.75
241.195	226.75
241.429	202.75
241.662	212.75
241.896	188.75
242.13	211.75
242.363	207.75
242.597	208.75
242.83	213.75
243.064	192.75
243.298	222.75
243.531	215.75
243.765	219.75
243.998	216.75
244.232	218.75
244.465	232.75
244.699	225.75
244.932	215.75
245.166	226.75
245.399	251.75
245.633	250.75
245.866	249.75
246.099	246.75
246.333	242.75
246.566	251.75
246.8	230.75
247.033	234.75
247.266	252.75
247.5	235.75
247.733	243.75
247.966	258.75
248.2	261.75
248.433	267.75
248.666	246.75
248.899	252.75
249.133	249.75
249.366	267.75
249.599	259.75
249.832	273.75
250.066	254.75
250.299	262.75
250.532	266.75
250.765	265.75
250.998	267.75
251.231	279.75
251.465	278.75
251.698	281.75
251.931	295.75
252.164	281.75
252.397	294.75
252.63	295.75
252.863	298.75
253.096	269.75
253.329	290.75
253.562	289.75
253.795	299.75
254.028	292.75
254.261	318.75
254.494	296.75
254.727	292.75
254.96	296.75
255.193	295.75
255.426	296.75
255.659	310.75
255.892	314.75
256.124	304.75
256.357	302.75
256.59	314.75
256.823	308.75
257.056	319.75
257.289	322.75
257.521	323.75
257.754	338.75
257.987	325.75
258.22	327.75
258.452	324.75
258.685	326.75
258.918	317.75
259.151	326.75
259.383	337.75
259.616	346.75
259.849	328.75
260.081	369.75
260.314	353.75
260.547	330.75
260.779	344.75
261.012	340.75
261.244	340.75
261.477	348.75
261.71	336.75
261.942	357.75
262.175	334.75
262.407	357.75
262.64	343.75
262.872	342.75
263.105	361.75
263.337	363.75
263.57	352.75
263.802	371.75
264.035	362.75
264.267	340.75
264.499	377.75
264.732	356.75
264.964	364.75
265.197	364.75
265.429	386.75
265.661	387.75
265.894	385.75
266.126	393.75
266.358	380.75
266.591	388.75
266.823	391.75
267.055	398.75
267.287	385.75
267.52	416.75
267.752	401.75
267.984	395.75
268.216	401.75
268.448	386.75
268.681	386.75
268.913	405.75
269.145	408.75
269.377	400.75
269.609	394.75
269.841	398.75
270.073	403.75
270.306	407.75
270.538	394.75
270.77	418.75
271.002	420.75
271.234	427.75
271.466	402.75
271.698	405.75
271.93	409.75
272.162	400.75
272.394	437.75
272.626	429.75
272.858	414.75
273.09	423.75
273.322	422.75
273.553	435.75
273.785	436.75
274.017	434.75
274.249	436.75
274.481	435.75
274.713	418.75
274.945	471.75
275.176	446.75
275.408	459.75
275.64	460.75
275.872	442.75
276.104	450.75
276.335	462.75
276.567	458.75
276.799	461.75
277.031	463.75
277.262	457.75
277.494	447.75
277.726	478.75
277.957	464.75
278.189	486.75
278.421	452.75
278.652	446.75
278.884	468.75
279.115	473.75
279.347	472.75
279.579	476.75
279.81	464.75
280.042	463.75
280.273	480.75
280.505	482.75
280.736	487.75
280.968	477.75
281.199	504.75
281.431	508.75
281.662	487.75
281.894	483.75
282.125	501.75
282.356	500.75
282.588	502.75
282.819	479.75
283.051	498.75
283.282	486.75
283.513	507.75
283.745	494.75
283.976	495.75
284.207	502.75
284.439	525.75
284.67	509.75
284.901	540.75
285.132	511.75
285.364	508.75
285.595	532.75
285.826	528.75
286.057	522.75
286.288	516.75
286.52	510.75
286.751	537.75
286.982	514.75
287.213	540.75
287.444	527.75
287.675	526.75
287.906	547.75
288.138	538.75
288.369	544.75
288.6	550.75
288.831	543.75
289.062	572.75
289.293	554.75
289.524	548.75
289.755	556.75
289.986	566.75
290.217	543.75
290.448	543.75
290.679	552.75
290.91	568.75
291.141	578.75
291.371	572.75
291.602	559.75
291.833	583.75
292.064	556.75
292.295	574.75
292.526	576.75
292.757	556.75
292.987	547.75
293.218	558.75
293.449	585.75
293.68	570.75
293.91	562.75
294.141	582.75
294.372	580.75
294.603	578.75
294.833	602.75
295.064	577.75
295.295	606.75
295.525	570.75
295.756	607.75
295.987	597.75
296.217	584.75
296.448	608.75
296.679	598.75
296.909	602.75
297.14	612.75
297.37	598.75
297.601	614.75
297.831	598.75
298.062	602.75
298.292	599.75
298.523	619.75
298.753	634.75
298.984	629.75
299.214	605.75
299.445	597.75
299.675	609.75
299.905	634.75
300.136	610.75
300.366	642.75
300.597	644.75
300.827	629.75
301.057	629.75
301.288	640.75
301.518	671.75
301.748	642.75
301.979	678.75
302.209	653.75
302.439	648.75
302.669	656.75
302.9	650.75
303.13	640.75
303.36	635.75
303.59	634.75
303.82	635.75
304.051	651.75
304.281	651.75
304.511	627.75
304.741	624.75
304.971	634.75
305.201	634.75
305.431	640.75
305.661	624.75
305.891	616.75
306.121	656.75
306.352	621.75
306.582	636.75
306.812	614.75
307.042	644.75
307.272	631.75
307.502	610.75
307.731	604.75
307.961	630.75
308.191	620.75
308.421	619.75
308.651	612.75
308.881	627.75
309.111	618.75
309.341	617.75
309.571	619.75
309.8	636.75
310.03	632.75
310.26	627.75
310.49	611.75
310.72	635.75
310.949	620.75
311.179	622.75
311.409	620.75
311.639	637.75
311.868	617.75
312.098	623.75
312.328	662.75
312.557	643.75
312.787	668.75
313.017	666.75
313.246	656.75
313.476	659.75
313.706	666.75
313.935	657.75
314.165	667.75
314.394	654.75
314.624	662.75
314.853	651.75
315.083	663.75
315.312	692.75
315.542	639.75
315.771	682.75
316.001	650.75
316.23	642.75
316.46	650.75
316.689	626.75
316.919	653.75
317.148	675.75
317.377	640.75
317.607	654.75
317.836	667.75
318.065	636.75
318.295	648.75
318.524	646.75
318.753	649.75
318.983	656.75
319.212	651.75
319.441	664.75
319.67	658.75
319.9	671.75
320.129	646.75
320.358	639.75
320.587	662.75
320.816	644.75
321.046	647.75
321.275	636.75
321.504	644.75
321.733	680.75
321.962	655.75
322.191	662.75
322.42	662.75
322.649	651.75
322.878	676.75
323.108	652.75
323.337	675.75
323.566	658.75
323.795	668.75
324.024	700.75
324.253	673.75
324.482	686.75
324.71	699.75
324.939	711.75
325.168	657.75
325.397	672.75
325.626	676.75
325.855	680.75
326.084	714.75
326.313	740.75
326.542	743.75
326.77	734.75
326.999	664.75
327.228	696.75
327.457	706.75
327.686	702.75
327.914	722.75
328.143	683.75
328.372	704.75
328.6	706.75
328.829	716.75
329.058	714.75
329.287	720.75
329.515	730.75
329.744	708.75
329.972	729.75
330.201	705.75
330.43	720.75
330.658	746.75
330.887	751.75
331.115	736.75
331.344	775.75
331.572	764.75
331.801	767.75
332.03	788.75
332.258	816.75
332.486	813.75
332.715	813.75
332.943	861.75
333.172	878.75
333.4	934.75
333.629	966.75
333.857	996.75
334.085	960.75
334.314	952.75
334.542	924.75
334.771	943.75
334.999	891.75
335.227	903.75
335.455	900.75
335.684	898.75
335.912	869.75
336.14	866.75
336.369	830.75
336.597	862.75
336.825	871.75
337.053	863.75
337.281	870.75
337.51	847.75
337.738	815.75
337.966	787.75
338.194	788.75
338.422	750.75
338.65	791.75
338.878	778.75
339.106	796.75
339.334	809.75
339.562	789.75
339.79	744.75
340.018	752.75
340.246	738.75
340.474	746.75
340.702	741.75
340.93	758.75
341.158	777.75
341.386	747.75
341.614	762.75
341.842	752.75
342.07	721.75
342.298	726.75
342.526	724.75
342.754	723.75
342.981	730.75
343.209	745.75
343.437	805.75
343.665	837.75
343.893	903.75
344.12	912.75
344.348	892.75
344.576	847.75
344.804	815.75
345.031	790.75
345.259	783.75
345.487	748.75
345.714	740.75
345.942	774.75
346.17	754.75
346.397	737.75
346.625	740.75
346.853	710.75
347.08	718.75
347.308	731.75
347.535	751.75
347.763	739.75
347.99	718.75
348.218	749.75
348.445	734.75
348.673	734.75
348.9	728.75
349.128	708.75
349.355	707.75
349.583	699.75
349.81	697.75
350.037	710.75
350.265	713.75
350.492	690.75
350.72	680.75
350.947	692.75
351.174	696.75
351.402	703.75
351.629	713.75
351.856	697.75
352.083	687.75
352.311	670.75
352.538	685.75
352.765	739.75
352.992	690.75
353.22	685.75
353.447	685.75
353.674	692.75
353.901	691.75
354.128	700.75
354.355	695.75
354.583	696.75
354.81	683.75
355.037	687.75
355.264	686.75
355.491	690.75
355.718	694.75
355.945	708.75
356.172	718.75
356.399	719.75
356.626	702.75
356.853	714.75
357.08	740.75
357.307	696.75
357.534	676.75
357.761	715.75
357.988	706.75
358.215	699.75
358.441	695.75
358.668	674.75
358.895	715.75
359.122	688.75
359.349	664.75
359.576	701.75
359.802	706.75
360.029	692.75
360.256	681.75
360.483	671.75
360.709	698.75
360.936	702.75
361.163	706.75
361.39	690.75
361.616	690.75
361.843	698.75
362.07	709.75
362.296	710.75
362.523	682.75
362.749	708.75
362.976	694.75
363.203	711.75
363.429	695.75
363.656	705.75
363.882	670.75
364.109	709.75
364.335	678.75
364.562	683.75
364.788	687.75
365.015	710.75
365.241	684.75
365.468	661.75
365.694	675.75
365.92	677.75
366.147	726.75
366.373	699.75
366.599	677.75
366.826	702.75
367.052	694.75
367.278	704.75
367.505	710.75
367.731	693.75
367.957	693.75
368.184	717.75
368.41	701.75
368.636	684.75
368.862	709.75
369.089	714.75
369.315	709.75
369.541	714.75
369.767	720.75
369.993	747.75
370.219	720.75
370.445	737.75
370.672	738.75
370.898	733.75
371.124	747.75
371.35	747.75
371.576	773.75
371.802	765.75
372.028	774.75
372.254	777.75
372.48	758.75
372.706	780.75
372.932	779.75
373.158	793.75
373.384	775.75
373.61	753.75
373.835	746.75
374.061	748.75
374.287	764.75
374.513	774.75
374.739	774.75
374.965	806.75
375.191	837.75
375.416	846.75
375.642	824.75
375.868	784.75
376.094	775.75
376.319	798.75
376.545	766.75
376.771	755.75
376.997	768.75
377.222	755.75
377.448	755.75
377.674	760.75
377.899	725.75
378.125	730.75
378.35	755.75
378.576	733.75
378.802	736.75
379.027	755.75
379.253	756.75
379.478	735.75
379.704	736.75
379.929	738.75
380.155	740.75
380.38	761.75
380.606	739.75
380.831	744.75
381.057	783.75
381.282	769.75
381.507	775.75
381.733	779.75
381.958	778.75
382.184	772.75
382.409	797.75
382.634	792.75
382.86	805.75
383.085	797.75
383.31	812.75
383.535	836.75
383.761	846.75
383.986	844.75
384.211	848.75
384.436	875.75
384.662	912.75
384.887	904.75
385.112	923.75
385.337	926.75
385.562	930.75
385.787	921.75
386.013	939.75
386.238	927.75
386.463	902.75
386.688	950.75
386.913	883.75
387.138	897.75
387.363	903.75
387.588	898.75
387.813	905.75
388.038	898.75
388.263	910.75
388.488	920.75
388.713	902.75
388.938	895.75
389.163	885.75
389.387	918.75
389.612	890.75
389.837	895.75
390.062	858.75
390.287	885.75
390.512	900.75
390.736	925.75
390.961	934.75
391.186	939.75
391.411	968.75
391.636	972.75
391.86	1007.75
392.085	1025.75
392.31	1010.75
392.534	997.75
392.759	1017.75
392.984	954.75
393.208	980.75
393.433	982.75
393.658	982.75
393.882	960.75
394.107	983.75
394.331	969.75
394.556	974.75
394.78	971.75
395.005	971.75
395.229	976.75
395.454	1022.75
395.678	1024.75
395.903	1007.75
396.127	997.75
396.352	993.75
396.576	971.75
396.801	952.75
397.025	1004.75
397.249	982.75
397.474	1065.75
397.698	1006.75
397.922	1063.75
398.147	1041.75
398.371	1047.75
398.595	1068.75
398.82	1122.75
399.044	1205.75
399.268	1338.75
399.492	1508.75
399.717	1724.75
399.941	1753.75
400.165	1605.75
400.389	1427.75
400.613	1310.75
400.837	1256.75
401.062	1206.75
401.286	1131.75
401.51	1160.75
401.734	1138.75
401.958	1173.75
402.182	1168.75
402.406	1182.75
402.63	1203.75
402.854	1259.75
403.078	1251.75
403.302	1241.75
403.526	1317.75
403.75	1296.75
403.974	1286.75
404.198	1301.75
404.422	1310.75
404.645	1328.75
404.869	1339.75
405.093	1292.75
405.317	1284.75
405.541	1266.75
405.765	1299.75
405.988	1263.75
406.212	1303.75
406.436	1253.75
406.66	1284.75
406.883	1314.75
407.107	1390.75
407.331	1458.75
407.555	1483.75
407.778	1490.75
408.002	1421.75
408.226	1395.75
408.449	1382.75
408.673	1314.75
408.896	1312.75
409.12	1278.75
409.344	1282.75
409.567	1303.75
409.791	1312.75
410.014	1301.75
410.238	1285.75
410.461	1282.75
410.685	1242.75
410.908	1216.75
411.132	1192.75
411.355	1205.75
411.578	1205.75
411.802	1221.75
412.025	1235.75
412.249	1214.75
412.472	1209.75
412.695	1164.75
412.919	1163.75
413.142	1154.75
413.365	1148.75
413.589	1135.75
413.812	1119.75
414.035	1144.75
414.258	1131.75
414.482	1162.75
414.705	1166.75
414.928	1165.75
415.151	1159.75
415.374	1162.75
415.597	1146.75
415.821	1142.75
416.044	1168.75
416.267	1118.75
416.49	1123.75
416.713	1100.75
416.936	1102.75
417.159	1127.75
417.382	1114.75
417.605	1148.75
417.828	1138.75
418.051	1144.75
418.274	1147.75
418.497	1099.75
418.72	1134.75
418.943	1158.75
419.166	1232.75
419.389	1358.75
419.611	1294.75
419.834	1247.75
420.057	1214.75
420.28	1124.75
420.503	1141.75
420.726	1143.75
420.948	1114.75
421.171	1102.75
421.394	1142.75
421.617	1130.75
421.839	1156.75
422.062	1130.75
422.285	1134.75
422.507	1134.75
422.73	1152.75
422.953	1172.75
423.175	1190.75
423.398	1184.75
423.621	1183.75
423.843	1214.75
424.066	1193.75
424.288	1209.75
424.511	1164.75
424.733	1168.75
424.956	1169.75
425.178	1193.75
425.401	1186.75
425.623	1166.75
425.846	1123.75
426.068	1116.75
426.291	1093.75
426.513	1068.75
426.735	1055.75
426.958	1071.75
427.18	1043.75
427.402	1080.75
427.625	1069.75
427.847	1039.75
428.069	1000.75
428.292	1060.75
428.514	1022.75
428.736	1035.75
428.958	1028.75
429.181	1010.75
429.403	1005.75
429.625	1009.75
429.847	979.75
430.069	1018.75
430.292	999.75
430.514	997.75
430.736	1006.75
430.958	1002.75
431.18	981.75
431.402	991.75
431.624	1009.75
431.846	994.75
432.068	1010.75
432.29	1068.75
432.512	1015.75
432.734	1033.75
432.956	1032.75
433.178	1026.75
433.4	1066.75
433.622	1060.75
433.844	1030.75
434.066	1048.75
434.287	1069.75
434.509	1067.75
434.731	1114.75
434.953	1132.75
435.175	1167.75
435.397	1131.75
435.618	1076.75
435.84	1083.75
436.062	1070.75
436.284	1036.75
436.505	1031.75
436.727	1034.75
436.949	1064.75
437.17	1072.75
437.392	1013.75
437.614	1016.75
437.835	1015.75
438.057	971.75
438.278	975.75
438.5	973.75
438.721	973.75
438.943	983.75
439.165	1014.75
439.386	1044.75
439.608	1006.75
439.829	1026.75
440.05	1025.75
440.272	1034.75
440.493	1044.75
440.715	1041.75
440.936	1061.75
441.158	1109.75
441.379	1145.75
441.6	1151.75
441.822	1183.75
442.043	1184.75
442.264	1132.75
442.486	1162.75
442.707	1160.75
442.928	1132.75
443.149	1112.75
443.371	1166.75
443.592	1126.75
443.813	1123.75
444.034	1189.75
444.255	1207.75
444.476	1255.75
444.698	1355.75
444.919	1410.75
445.14	1482.75
445.361	1326.75
445.582	1222.75
445.803	1160.75
446.024	1121.75
446.245	1072.75
446.466	1060.75
446.687	1071.75
446.908	1048.75
447.129	1018.75
447.35	1025.75
447.571	1011.75
447.792	978.75
448.013	969.75
448.234	972.75
448.455	993.75
448.675	959.75
448.896	948.75
449.117	957.75
449.338	957.75
449.559	957.75
449.779	903.75
450	912.75
450.221	941.75
450.442	958.75
450.662	965.75
450.883	950.75
451.104	987.75
451.324	1019.75
451.545	990.75
451.766	970.75
451.986	957.75
452.207	969.75
452.428	957.75
452.648	903.75
452.869	918.75
453.089	925.75
453.31	923.75
453.53	950.75
453.751	908.75
453.971	926.75
454.192	935.75
454.412	920.75
454.633	892.75
454.853	904.75
455.073	884.75
455.294	924.75
455.514	859.75
455.734	886.75
455.955	884.75
456.175	874.75
456.395	880.75
456.616	879.75
456.836	893.75
457.056	864.75
457.276	885.75
457.497	916.75
457.717	887.75
457.937	907.75
458.157	919.75
458.377	902.75
458.598	905.75
458.818	918.75
459.038	975.75
459.258	990.75
459.478	1053.75
459.698	1093.75
459.918	1086.75
460.138	1131.75
460.358	1201.75
460.578	1222.75
460.798	1212.75
461.018	1244.75
461.238	1205.75
461.458	1231.75
461.678	1216.75
461.898	1241.75
462.118	1247.75
462.338	1298.75
462.558	1365.75
462.777	1437.75
462.997	1484.75
463.217	1695.75
463.437	1655.75
463.657	1542.75
463.876	1431.75
464.096	1458.75
464.316	1465.75
464.536	1429.75
464.755	1377.75
464.975	1327.75
465.195	1311.75
465.414	1204.75
465.634	1142.75
465.854	1114.75
466.073	1058.75
466.293	1062.75
466.512	1049.75
466.732	1029.75
466.951	1031.75
467.171	1031.75
467.391	1025.75
467.61	1014.75
467.829	993.75
468.049	967.75
468.268	971.75
468.488	953.75
468.707	951.75
468.927	978.75
469.146	943.75
469.365	946.75
469.585	982.75
469.804	1015.75
470.023	1026.75
470.243	1013.75
470.462	1046.75
470.681	1039.75
470.901	1092.75
471.12	1040.75
471.339	1010.75
471.558	991.75
471.777	995.75
471.997	982.75
472.216	934.75
472.435	948.75
472.654	936.75
472.873	932.75
473.092	922.75
473.311	924.75
473.53	948.75
473.749	954.75
473.968	946.75
474.187	935.75
474.406	926.75
474.625	927.75
474.844	915.75
475.063	938.75
475.282	946.75
475.501	941.75
475.72	935.75
475.939	950.75
476.158	957.75
476.377	972.75
476.596	980.75
476.814	976.75
477.033	974.75
477.252	979.75
477.471	1042.75
477.69	1046.75
477.908	1092.75
478.127	1106.75
478.346	1111.75
478.564	1135.75
478.783	1149.75
479.002	1164.75
479.22	1167.75
479.439	1176.75
479.658	1167.75
479.876	1172.75
480.095	1197.75
480.313	1269.75
480.532	1283.75
480.751	1243.75
480.969	1212.75
481.188	1161.75
481.406	1159.75
481.624	1125.75
481.843	1102.75
482.061	1103.75
482.28	1070.75
482.498	1094.75
482.717	1061.75
482.935	1068.75
483.153	1069.75
483.372	1077.75
483.59	1053.75
483.808	1071.75
484.027	1071.75
484.245	1064.75
484.463	1087.75
484.681	1105.75
484.9	1103.75
485.118	1119.75
485.336	1074.75
485.554	1133.75
485.772	1136.75
485.99	1139.75
486.209	1144.75
486.427	1149.75
486.645	1103.75
486.863	1134.75
487.081	1143.75
487.299	1120.75
487.517	1146.75
487.735	1116.75
487.953	1116.75
488.171	1109.75
488.389	1124.75
488.607	1100.75
488.825	1127.75
489.043	1119.75
489.261	1103.75
489.479	1132.75
489.696	1106.75
489.914	1120.75
490.132	1129.75
490.35	1125.75
490.568	1117.75
490.786	1123.75
491.003	1097.75
491.221	1122.75
491.439	1120.75
491.657	1130.75
491.874	1138.75
492.092	1158.75
492.31	1165.75
492.527	1142.75
492.745	1132.75
492.963	1138.75
493.18	1149.75
493.398	1168.75
493.615	1156.75
493.833	1143.75
494.05	1176.75
494.268	1175.75
494.485	1215.75
494.703	1155.75
494.92	1239.75
495.138	1164.75
495.355	1187.75
495.573	1206.75
495.79	1186.75
496.008	1195.75
496.225	1197.75
496.442	1243.75
496.66	1229.75
496.877	1214.75
497.094	1258.75
497.312	1311.75
497.529	1319.75
497.746	1363.75
497.963	1369.75
498.181	1449.75
498.398	1499.75
498.615	1591.75
498.832	1722.75
499.049	1862.75
499.267	1980.75
499.484	2156.75
499.701	2424.75
499.918	2639.75
500.135	2948.75
500.352	3384.75
500.569	3565.75
500.786	3560.75
501.003	3337.75
501.22	3006.75
501.437	2644.75
501.654	2373.75
501.871	2120.75
502.088	1917.75
502.305	1823.75
502.522	1724.75
502.739	1612.75
502.956	1590.75
503.172	1503.75
503.389	1414.75
503.606	1395.75
503.823	1384.75
504.04	1368.75
504.256	1390.75
504.473	1403.75
504.69	1444.75
504.907	1429.75
505.123	1325.75
505.34	1231.75
505.557	1198.75
505.773	1190.75
505.99	1174.75
506.207	1119.75
506.423	1081.75
506.64	1086.75
506.856	1044.75
507.073	1066.75
507.289	1070.75
507.506	1064.75
507.722	1066.75
507.939	1067.75
508.155	1030.75
508.372	1013.75
508.588	1009.75
508.805	1017.75
509.021	1004.75
509.238	1002.75
509.454	963.75
509.67	982.75
509.887	979.75
510.103	967.75
510.319	981.75
510.536	984.75
510.752	962.75
510.968	962.75
511.184	976.75
511.401	970.75
511.617	982.75
511.833	973.75
512.049	955.75
512.265	972.75
512.481	953.75
512.698	916.75
512.914	947.75
513.13	941.75
513.346	956.75
513.562	950.75
513.778	950.75
513.994	942.75
514.21	963.75
514.426	987.75
514.642	993.75
514.858	960.75
515.074	975.75
515.29	986.75
515.506	969.75
515.721	1013.75
515.937	1030.75
516.153	1035.75
516.369	1055.75
516.585	1130.75
516.801	1103.75
517.016	1162.75
517.232	1235.75
517.448	1280.75
517.664	1284.75
517.879	1336.75
518.095	1333.75
518.311	1310.75
518.527	1259.75
518.742	1230.75
518.958	1145.75
519.173	1113.75
519.389	1069.75
519.605	1046.75
519.82	1002.75
520.036	1028.75
520.251	963.75
520.467	983.75
520.682	968.75
520.898	956.75
521.113	935.75
521.329	950.75
521.544	928.75
521.76	930.75
521.975	912.75
522.19	922.75
522.406	919.75
522.621	889.75
522.836	914.75
523.052	916.75
523.267	874.75
523.482	891.75
523.698	879.75
523.913	893.75
524.128	894.75
524.343	892.75
524.559	890.75
524.774	870.75
524.989	895.75
525.204	871.75
525.419	905.75
525.634	890.75
525.849	874.75
526.064	880.75
526.28	860.75
526.495	861.75
526.71	886.75
526.925	870.75
527.14	850.75
527.355	869.75
527.57	859.75
527.785	866.75
527.999	869.75
528.214	878.75
528.429	874.75
528.644	865.75
528.859	870.75
529.074	845.75
529.289	922.75
529.503	883.75
529.718	896.75
529.933	848.75
530.148	862.75
530.363	885.75
530.577	861.75
530.792	885.75
531.007	869.75
531.221	881.75
531.436	868.75
531.651	865.75
531.865	846.75
532.08	872.75
532.295	853.75
532.509	862.75
532.724	873.75
532.938	893.75
533.153	859.75
533.367	863.75
533.582	877.75
533.796	868.75
534.011	862.75
534.225	859.75
534.44	851.75
534.654	851.75
534.868	858.75
535.083	857.75
535.297	866.75
535.511	838.75
535.726	845.75
535.94	831.75
536.154	838.75
536.369	842.75
536.583	827.75
536.797	839.75
537.011	795.75
537.225	790.75
537.44	797.75
537.654	818.75
537.868	789.75
538.082	790.75
538.296	815.75
538.51	815.75
538.724	798.75
538.938	811.75
539.153	806.75
539.367	802.75
539.581	811.75
539.795	803.75
540.009	786.75
540.222	812.75
540.436	778.75
540.65	763.75
540.864	769.75
541.078	796.75
541.292	765.75
541.506	774.75
541.72	784.75
541.934	775.75
542.147	799.75
542.361	788.75
542.575	766.75
542.789	790.75
543.002	754.75
543.216	754.75
543.43	766.75
543.644	778.75
543.857	758.75
544.071	781.75
544.285	776.75
544.498	780.75
544.712	760.75
544.925	793.75
545.139	784.75
545.352	788.75
545.566	788.75
545.779	815.75
545.993	836.75
546.206	798.75
546.42	771.75
546.633	798.75
546.847	797.75
547.06	793.75
547.274	783.75
547.487	798.75
547.7	812.75
547.914	811.75
548.127	793.75
548.34	831.75
548.554	822.75
548.767	788.75
548.98	808.75
549.193	796.75
549.407	804.75
549.62	822.75
549.833	812.75
550.046	840.75
550.259	820.75
550.473	795.75
550.686	778.75
550.899	765.75
551.112	783.75
551.325	768.75
551.538	797.75
551.751	794.75
551.964	796.75
552.177	776.75
552.39	812.75
552.603	808.75
552.816	826.75
553.029	852.75
553.242	867.75
553.455	897.75
553.667	878.75
553.88	860.75
554.093	835.75
554.306	834.75
554.519	826.75
554.732	787.75
554.944	767.75
555.157	763.75
555.37	754.75
555.583	757.75
555.795	745.75
556.008	734.75
556.221	711.75
556.433	730.75
556.646	718.75
556.859	715.75
557.071	690.75
557.284	717.75
557.496	684.75
557.709	692.75
557.921	684.75
558.134	675.75
558.346	662.75
558.559	677.75
558.771	692.75
558.984	671.75
559.196	675.75
559.409	657.75
559.621	668.75
559.833	646.75
560.046	669.75
560.258	687.75
560.47	656.75
560.683	667.75
560.895	665.75
561.107	664.75
561.32	646.75
561.532	671.75
561.744	650.75
561.956	685.75
562.168	636.75
562.381	688.75
562.593	674.75
562.805	648.75
563.017	676.75
563.229	681.75
563.441	665.75
563.653	675.75
563.865	675.75
564.077	678.75
564.289	688.75
564.501	690.75
564.713	708.75
564.925	724.75
565.137	685.75
565.349	742.75
565.561	764.75
565.773	792.75
565.985	824.75
566.197	869.75
566.408	943.75
566.62	1007.75
566.832	1087.75
567.044	1078.75
567.255	1115.75
567.467	1138.75
567.679	1194.75
567.891	1278.75
568.102	1300.75
568.314	1197.75
568.526	1122.75
568.737	1026.75
568.949	932.75
569.161	838.75
569.372	830.75
569.584	765.75
569.795	733.75
570.007	718.75
570.218	704.75
570.43	706.75
570.641	690.75
570.853	678.75
571.064	702.75
571.276	673.75
571.487	672.75
571.698	664.75
571.91	628.75
572.121	607.75
572.333	600.75
572.544	584.75
572.755	610.75
572.966	589.75
573.178	586.75
573.389	550.75
573.6	548.75
573.811	557.75
574.023	555.75
574.234	571.75
574.445	551.75
574.656	556.75
574.867	550.75
575.078	562.75
575.289	556.75
575.501	555.75
575.712	528.75
575.923	537.75
576.134	509.75
576.345	519.75
576.556	523.75
576.767	522.75
576.978	528.75
577.188	522.75
577.399	517.75
577.61	498.75
577.821	533.75
578.032	498.75
578.243	500.75
578.454	518.75
578.665	489.75
578.875	502.75
579.086	504.75
579.297	487.75
579.508	506.75
579.718	510.75
579.929	496.75
580.14	504.75
580.35	506.75
580.561	480.75
580.772	465.75
580.982	472.75
581.193	466.75
581.403	471.75
581.614	475.75
581.825	470.75
582.035	454.75
582.246	482.75
582.456	464.75
582.667	470.75
582.877	455.75
583.087	466.75
583.298	465.75
583.508	473.75
583.719	456.75
583.929	460.75
584.139	488.75
584.35	468.75
584.56	458.75
584.77	449.75
584.981	455.75
585.191	453.75
585.401	474.75
585.611	473.75
585.821	460.75
586.032	438.75
586.242	471.75
586.452	441.75
586.662	437.75
586.872	440.75
587.082	450.75
587.292	446.75
587.502	448.75
587.713	432.75
587.923	437.75
588.133	422.75
588.343	453.75
588.553	444.75
588.762	450.75
588.972	456.75
589.182	463.75
589.392	474.75
589.602	437.75
589.812	423.75
590.022	455.75
590.232	443.75
590.441	460.75
590.651	458.75
590.861	488.75
591.071	439.75
591.281	467.75
591.49	454.75
591.7	487.75
591.91	486.75
592.119	503.75
592.329	485.75
592.539	490.75
592.748	529.75
592.958	520.75
593.167	544.75
593.377	550.75
593.587	561.75
593.796	571.75
594.006	558.75
594.215	566.75
594.424	598.75
594.634	582.75
594.843	541.75
595.053	544.75
595.262	508.75
595.472	494.75
595.681	455.75
595.89	446.75
596.1	458.75
596.309	450.75
596.518	432.75
596.727	448.75
596.937	450.75
597.146	442.75
597.355	430.75
597.564	420.75
597.774	410.75
597.983	404.75
598.192	407.75
598.401	389.75
598.61	383.75
598.819	376.75
599.028	372.75
599.237	382.75
599.446	383.75
599.655	373.75
599.864	387.75
600.073	374.75
600.282	388.75
600.491	363.75
600.7	389.75
600.909	368.75
601.118	361.75
601.327	340.75
601.536	370.75
601.745	364.75
601.953	373.75
602.162	382.75
602.371	360.75
602.58	362.75
602.789	359.75
602.997	382.75
603.206	387.75
603.415	368.75
603.623	351.75
603.832	358.75
604.041	360.75
604.249	347.75
604.458	360.75
604.666	341.75
604.875	349.75
605.084	334.75
605.292	343.75
605.501	360.75
605.709	359.75
605.918	362.75
606.126	371.75
606.334	336.75
606.543	348.75
606.751	338.75
606.96	347.75
607.168	342.75
607.376	341.75
607.585	332.75
607.793	342.75
608.001	344.75
608.21	354.75
608.418	335.75
608.626	345.75
608.834	346.75
609.043	338.75
609.251	335.75
609.459	336.75
609.667	329.75
609.875	318.75
610.083	338.75
610.291	344.75
610.499	340.75
610.707	318.75
610.916	344.75
611.124	343.75
611.332	337.75
611.54	338.75
611.748	342.75
611.955	323.75
612.163	324.75
612.371	324.75
612.579	345.75
612.787	326.75
612.995	318.75
613.203	335.75
613.411	329.75
613.618	341.75
613.826	322.75
614.034	342.75
614.242	317.75
614.449	324.75
614.657	322.75
614.865	313.75
615.072	332.75
615.28	330.75
615.488	323.75
615.695	332.75
615.903	343.75
616.111	336.75
616.318	331.75
616.526	325.75
616.733	319.75
616.941	328.75
617.148	334.75
617.356	334.75
617.563	326.75
617.771	310.75
617.978	316.75
618.185	324.75
618.393	310.75
618.6	333.75
618.807	314.75
619.015	318.75
619.222	298.75
619.429	323.75
619.637	324.75
619.844	318.75
620.051	307.75
620.258	320.75
620.466	306.75
620.673	291.75
620.88	286.75
621.087	301.75
621.294	314.75
621.501	311.75
621.708	299.75
621.915	300.75
622.122	300.75
622.329	300.75
622.536	295.75
622.743	290.75
622.95	308.75
623.157	278.75
623.364	293.75
623.571	287.75
623.778	283.75
623.985	283.75
624.192	286.75
624.399	282.75
624.606	282.75
624.812	285.75
625.019	286.75
625.226	300.75
625.433	305.75
625.639	268.75
625.846	288.75
626.053	303.75
626.259	284.75
626.466	272.75
626.673	270.75
626.879	287.75
627.086	281.75
627.293	280.75
627.499	281.75
627.706	275.75
627.912	302.75
628.119	261.75
628.325	258.75
628.532	269.75
628.738	282.75
628.945	280.75
629.151	263.75
629.357	260.75
629.564	266.75
629.77	259.75
629.976	245.75
630.183	263.75
630.389	266.75
630.595	264.75
630.802	240.75
631.008	249.75
631.214	246.75
631.42	262.75
631.627	291.75
631.833	260.75
632.039	232.75
632.245	244.75
632.451	269.75
632.657	241.75
632.863	247.75
633.069	248.75
633.275	234.75
633.481	237.75
633.688	235.75
633.893	241.75
634.099	258.75
634.305	239.75
634.511	235.75
634.717	244.75
634.923	260.75
635.129	243.75
635.335	229.75
635.541	232.75
635.747	259.75
635.952	248.75
636.158	243.75
636.364	232.75
636.57	231.75
636.775	235.75
636.981	228.75
637.187	249.75
637.392	229.75
637.598	214.75
637.804	223.75
638.009	236.75
638.215	233.75
638.421	229.75
638.626	207.75
638.832	236.75
639.037	221.75
639.243	226.75
639.448	238.75
639.654	222.75
639.859	217.75
640.065	225.75
640.27	245.75
640.475	208.75
640.681	209.75
640.886	220.75
641.091	220.75
641.297	219.75
641.502	218.75
641.707	211.75
641.913	222.75
642.118	223.75
642.323	211.75
642.528	212.75
642.733	219.75
642.939	217.75
643.144	213.75
643.349	223.75
643.554	231.75
643.759	220.75
643.964	194.75
644.169	198.75
644.374	213.75
644.579	220.75
644.784	223.75
644.989	208.75
645.194	215.75
645.399	204.75
645.604	209.75
645.809	224.75
646.014	223.75
646.219	204.75
646.423	205.75
646.628	204.75
646.833	229.75
647.038	205.75
647.243	209.75
647.447	207.75
647.652	218.75
647.857	210.75
648.062	207.75
648.266	214.75
648.471	232.75
648.676	214.75
648.88	215.75
649.085	220.75
649.289	222.75
649.494	210.75
649.698	213.75
649.903	211.75
650.107	206.75
650.312	214.75
650.516	202.75
650.721	202.75
650.925	200.75
651.13	194.75
651.334	189.75
651.539	194.75
651.743	186.75
651.947	187.75
652.152	196.75
652.356	184.75
652.56	183.75
652.764	176.75
652.969	187.75
653.173	175.75
653.377	165.75
653.581	171.75
653.785	171.75
653.99	158.75
654.194	166.75
654.398	163.75
654.602	158.75
654.806	172.75
655.01	151.75
655.214	151.75
655.418	154.75
655.622	155.75
655.826	152.75
656.03	167.75
656.234	159.75
656.438	151.75
656.642	150.75
656.846	148.75
657.049	155.75
657.253	141.75
657.457	132.75
657.661	150.75
657.865	136.75
658.068	134.75
658.272	124.75
658.476	136.75
658.68	119.75
658.883	128.75
659.087	107.75
659.291	127.75
659.494	130.75
659.698	114.75
659.901	108.75
660.105	90.75
660.309	113.75
660.512	98.75
660.716	98.75
660.919	87.75
661.123	97.75
661.326	82.75
661.53	98.75
661.733	80.75
661.936	92.75
662.14	92.75
662.343	84.75
662.546	91.75
662.75	93.75
662.953	84.75
663.156	93.75
663.36	95.75
663.563	85.75
663.766	82.75
663.969	82.75
664.173	99.75
664.376	83.75
664.579	88.75
664.782	83.75
664.985	73.75
665.188	83.75
665.391	95.75
665.594	85.75
665.797	75.75
666	85.75
666.203	95.75
666.406	78.75
666.609	82.75
666.812	87.75
667.015	85.75
667.218	69.75
667.421	86.75
667.624	75.75
667.827	104.75
668.03	101.75
668.232	95.75
668.435	73.75
668.638	77.75
668.841	84.75
669.043	82.75
669.246	95.75
669.449	80.75
669.651	78.75
669.854	71.75
670.057	76.75
670.259	72.75
670.462	78.75
670.665	78.75
670.867	92.75
671.07	100.75
671.272	79.75
671.475	80.75
671.677	82.75
671.88	93.75
672.082	88.75
672.284	96.75
672.487	91.75
672.689	90.75
672.892	90.75
