Data from NiCl2@0.0625M.TitratingCurve.Agarose3%dH2O.NegLispCup.LampEnergy10.LIBS07252019_HRD10591_18-35-26-577.txt Node
Date: Thu Jul 25 18:35:26 EDT 2019
User: cochatt
Spectrometer: HR+D1059
Trigger mode: 1
Integration Time (sec): 1.000000E-1
Scans to average: 1
Electric dark correction enabled: true
Nonlinearity correction enabled: false
Boxcar width: 0
XAxis mode: Wavelengths
Number of Pixels in Spectrum: 2048
>>>>>Begin Spectral Data<<<<<
223.165	-11.44
223.4	-11.44
223.635	-11.44
223.869	-22.44
224.104	-15.44
224.338	-22.44
224.573	-6.44
224.808	-19.44
225.042	-5.44
225.277	-7.44
225.511	-2.44
225.746	1.56
225.98	7.56
226.215	8.56
226.449	9.56
226.683	21.56
226.918	19.56
227.152	44.56
227.387	36.56
227.621	37.56
227.856	55.56
228.09	52.56
228.324	52.56
228.559	69.56
228.793	80.56
229.027	159.56
229.262	168.56
229.496	157.56
229.73	151.56
229.964	184.56
230.199	176.56
230.433	197.56
230.667	168.56
230.901	180.56
231.136	180.56
231.37	192.56
231.604	202.56
231.838	197.56
232.072	197.56
232.306	209.56
232.541	211.56
232.775	209.56
233.009	200.56
233.243	215.56
233.477	219.56
233.711	215.56
233.945	204.56
234.179	229.56
234.413	206.56
234.647	214.56
234.881	215.56
235.115	223.56
235.349	203.56
235.583	225.56
235.817	220.56
236.051	228.56
236.285	216.56
236.519	210.56
236.753	233.56
236.987	220.56
237.221	235.56
237.455	224.56
237.689	247.56
237.922	242.56
238.156	247.56
238.39	246.56
238.624	231.56
238.858	262.56
239.091	262.56
239.325	280.56
239.559	264.56
239.793	275.56
240.027	273.56
240.26	262.56
240.494	266.56
240.728	286.56
240.961	270.56
241.195	282.56
241.429	284.56
241.662	300.56
241.896	289.56
242.13	307.56
242.363	298.56
242.597	294.56
242.83	313.56
243.064	311.56
243.298	322.56
243.531	299.56
243.765	313.56
243.998	310.56
244.232	319.56
244.465	327.56
244.699	324.56
244.932	324.56
245.166	324.56
245.399	349.56
245.633	344.56
245.866	358.56
246.099	353.56
246.333	334.56
246.566	357.56
246.8	342.56
247.033	351.56
247.266	363.56
247.5	365.56
247.733	364.56
247.966	376.56
248.2	375.56
248.433	374.56
248.666	357.56
248.899	386.56
249.133	394.56
249.366	413.56
249.599	399.56
249.832	396.56
250.066	388.56
250.299	396.56
250.532	416.56
250.765	388.56
250.998	416.56
251.231	417.56
251.465	410.56
251.698	423.56
251.931	426.56
252.164	415.56
252.397	420.56
252.63	438.56
252.863	421.56
253.096	426.56
253.329	453.56
253.562	433.56
253.795	456.56
254.028	460.56
254.261	445.56
254.494	464.56
254.727	463.56
254.96	457.56
255.193	464.56
255.426	465.56
255.659	472.56
255.892	462.56
256.124	485.56
256.357	492.56
256.59	473.56
256.823	478.56
257.056	463.56
257.289	497.56
257.521	486.56
257.754	469.56
257.987	482.56
258.22	501.56
258.452	506.56
258.685	501.56
258.918	501.56
259.151	495.56
259.383	522.56
259.616	491.56
259.849	500.56
260.081	518.56
260.314	535.56
260.547	511.56
260.779	513.56
261.012	508.56
261.244	492.56
261.477	540.56
261.71	527.56
261.942	550.56
262.175	525.56
262.407	567.56
262.64	536.56
262.872	564.56
263.105	549.56
263.337	560.56
263.57	578.56
263.802	564.56
264.035	564.56
264.267	569.56
264.499	590.56
264.732	603.56
264.964	549.56
265.197	557.56
265.429	575.56
265.661	576.56
265.894	585.56
266.126	609.56
266.358	575.56
266.591	594.56
266.823	614.56
267.055	587.56
267.287	626.56
267.52	602.56
267.752	608.56
267.984	612.56
268.216	624.56
268.448	637.56
268.681	618.56
268.913	634.56
269.145	634.56
269.377	608.56
269.609	610.56
269.841	632.56
270.073	648.56
270.306	633.56
270.538	644.56
270.77	628.56
271.002	654.56
271.234	668.56
271.466	656.56
271.698	635.56
271.93	654.56
272.162	639.56
272.394	678.56
272.626	687.56
272.858	670.56
273.09	676.56
273.322	708.56
273.553	682.56
273.785	682.56
274.017	670.56
274.249	704.56
274.481	669.56
274.713	680.56
274.945	672.56
275.176	700.56
275.408	729.56
275.64	682.56
275.872	695.56
276.104	701.56
276.335	708.56
276.567	709.56
276.799	716.56
277.031	726.56
277.262	743.56
277.494	712.56
277.726	706.56
277.957	709.56
278.189	731.56
278.421	728.56
278.652	741.56
278.884	738.56
279.115	748.56
279.347	750.56
279.579	743.56
279.81	734.56
280.042	731.56
280.273	750.56
280.505	762.56
280.736	769.56
280.968	760.56
281.199	774.56
281.431	755.56
281.662	756.56
281.894	782.56
282.125	779.56
282.356	791.56
282.588	813.56
282.819	790.56
283.051	794.56
283.282	812.56
283.513	806.56
283.745	782.56
283.976	828.56
284.207	806.56
284.439	799.56
284.67	798.56
284.901	837.56
285.132	816.56
285.364	834.56
285.595	824.56
285.826	848.56
286.057	817.56
286.288	808.56
286.52	846.56
286.751	838.56
286.982	846.56
287.213	835.56
287.444	838.56
287.675	878.56
287.906	883.56
288.138	879.56
288.369	861.56
288.6	858.56
288.831	871.56
289.062	860.56
289.293	875.56
289.524	866.56
289.755	883.56
289.986	874.56
290.217	848.56
290.448	858.56
290.679	914.56
290.91	879.56
291.141	874.56
291.371	874.56
291.602	897.56
291.833	906.56
292.064	890.56
292.295	922.56
292.526	879.56
292.757	909.56
292.987	874.56
293.218	896.56
293.449	916.56
293.68	894.56
293.91	896.56
294.141	871.56
294.372	897.56
294.603	897.56
294.833	908.56
295.064	890.56
295.295	888.56
295.525	897.56
295.756	929.56
295.987	880.56
296.217	922.56
296.448	950.56
296.679	928.56
296.909	918.56
297.14	960.56
297.37	952.56
297.601	949.56
297.831	953.56
298.062	978.56
298.292	965.56
298.523	972.56
298.753	953.56
298.984	932.56
299.214	944.56
299.445	962.56
299.675	958.56
299.905	988.56
300.136	997.56
300.366	972.56
300.597	981.56
300.827	1001.56
301.057	993.56
301.288	1022.56
301.518	1030.56
301.748	1017.56
301.979	1052.56
302.209	1032.56
302.439	1002.56
302.669	1022.56
302.9	987.56
303.13	1024.56
303.36	999.56
303.59	1005.56
303.82	1018.56
304.051	1012.56
304.281	1029.56
304.511	1015.56
304.741	1033.56
304.971	1008.56
305.201	1030.56
305.431	1004.56
305.661	1038.56
305.891	1049.56
306.121	1018.56
306.352	1026.56
306.582	1023.56
306.812	989.56
307.042	1016.56
307.272	997.56
307.502	1008.56
307.731	1010.56
307.961	1003.56
308.191	970.56
308.421	1002.56
308.651	996.56
308.881	980.56
309.111	997.56
309.341	995.56
309.571	1023.56
309.8	1017.56
310.03	1019.56
310.26	1006.56
310.49	994.56
310.72	1017.56
310.949	1003.56
311.179	1020.56
311.409	1017.56
311.639	1025.56
311.868	1032.56
312.098	1031.56
312.328	1053.56
312.557	1038.56
312.787	1063.56
313.017	1067.56
313.246	1073.56
313.476	1039.56
313.706	1065.56
313.935	1088.56
314.165	1097.56
314.394	1085.56
314.624	1099.56
314.853	1097.56
315.083	1128.56
315.312	1099.56
315.542	1082.56
315.771	1096.56
316.001	1072.56
316.23	1067.56
316.46	1096.56
316.689	1086.56
316.919	1086.56
317.148	1081.56
317.377	1060.56
317.607	1046.56
317.836	1057.56
318.065	1061.56
318.295	1052.56
318.524	1076.56
318.753	1084.56
318.983	1053.56
319.212	1042.56
319.441	1028.56
319.67	1090.56
319.9	1060.56
320.129	1061.56
320.358	1084.56
320.587	1078.56
320.816	1112.56
321.046	1097.56
321.275	1123.56
321.504	1105.56
321.733	1088.56
321.962	1098.56
322.191	1087.56
322.42	1092.56
322.649	1126.56
322.878	1084.56
323.108	1083.56
323.337	1078.56
323.566	1116.56
323.795	1103.56
324.024	1099.56
324.253	1114.56
324.482	1126.56
324.71	1100.56
324.939	1135.56
325.168	1164.56
325.397	1116.56
325.626	1134.56
325.855	1146.56
326.084	1186.56
326.313	1161.56
326.542	1190.56
326.77	1195.56
326.999	1158.56
327.228	1152.56
327.457	1174.56
327.686	1152.56
327.914	1170.56
328.143	1166.56
328.372	1201.56
328.6	1168.56
328.829	1157.56
329.058	1190.56
329.287	1193.56
329.515	1176.56
329.744	1188.56
329.972	1202.56
330.201	1184.56
330.43	1197.56
330.658	1176.56
330.887	1195.56
331.115	1189.56
331.344	1249.56
331.572	1223.56
331.801	1240.56
332.03	1263.56
332.258	1296.56
332.486	1322.56
332.715	1365.56
332.943	1376.56
333.172	1430.56
333.4	1470.56
333.629	1498.56
333.857	1502.56
334.085	1521.56
334.314	1541.56
334.542	1503.56
334.771	1489.56
334.999	1471.56
335.227	1467.56
335.455	1506.56
335.684	1461.56
335.912	1419.56
336.14	1414.56
336.369	1401.56
336.597	1465.56
336.825	1432.56
337.053	1417.56
337.281	1376.56
337.51	1359.56
337.738	1320.56
337.966	1304.56
338.194	1342.56
338.422	1295.56
338.65	1296.56
338.878	1261.56
339.106	1260.56
339.334	1301.56
339.562	1265.56
339.79	1271.56
340.018	1240.56
340.246	1214.56
340.474	1277.56
340.702	1228.56
340.93	1243.56
341.158	1241.56
341.386	1262.56
341.614	1274.56
341.842	1224.56
342.07	1215.56
342.298	1231.56
342.526	1174.56
342.754	1225.56
342.981	1263.56
343.209	1252.56
343.437	1295.56
343.665	1366.56
343.893	1405.56
344.12	1453.56
344.348	1405.56
344.576	1394.56
344.804	1339.56
345.031	1264.56
345.259	1292.56
345.487	1228.56
345.714	1226.56
345.942	1232.56
346.17	1226.56
346.397	1200.56
346.625	1186.56
346.853	1174.56
347.08	1176.56
347.308	1192.56
347.535	1210.56
347.763	1206.56
347.99	1168.56
348.218	1199.56
348.445	1173.56
348.673	1168.56
348.9	1186.56
349.128	1158.56
349.355	1145.56
349.583	1166.56
349.81	1136.56
350.037	1145.56
350.265	1172.56
350.492	1164.56
350.72	1137.56
350.947	1129.56
351.174	1167.56
351.402	1162.56
351.629	1163.56
351.856	1151.56
352.083	1122.56
352.311	1119.56
352.538	1171.56
352.765	1154.56
352.992	1130.56
353.22	1119.56
353.447	1119.56
353.674	1137.56
353.901	1152.56
354.128	1148.56
354.355	1139.56
354.583	1132.56
354.81	1151.56
355.037	1126.56
355.264	1156.56
355.491	1148.56
355.718	1154.56
355.945	1109.56
356.172	1140.56
356.399	1143.56
356.626	1190.56
356.853	1154.56
357.08	1130.56
357.307	1174.56
357.534	1139.56
357.761	1150.56
357.988	1152.56
358.215	1140.56
358.441	1136.56
358.668	1136.56
358.895	1132.56
359.122	1127.56
359.349	1144.56
359.576	1132.56
359.802	1148.56
360.029	1135.56
360.256	1141.56
360.483	1140.56
360.709	1163.56
360.936	1140.56
361.163	1157.56
361.39	1130.56
361.616	1134.56
361.843	1157.56
362.07	1120.56
362.296	1162.56
362.523	1147.56
362.749	1132.56
362.976	1154.56
363.203	1152.56
363.429	1145.56
363.656	1140.56
363.882	1156.56
364.109	1135.56
364.335	1066.56
364.562	1157.56
364.788	1139.56
365.015	1116.56
365.241	1146.56
365.468	1148.56
365.694	1167.56
365.92	1182.56
366.147	1130.56
366.373	1128.56
366.599	1124.56
366.826	1125.56
367.052	1152.56
367.278	1116.56
367.505	1172.56
367.731	1149.56
367.957	1153.56
368.184	1134.56
368.41	1166.56
368.636	1178.56
368.862	1188.56
369.089	1172.56
369.315	1208.56
369.541	1178.56
369.767	1174.56
369.993	1206.56
370.219	1175.56
370.445	1221.56
370.672	1233.56
370.898	1205.56
371.124	1242.56
371.35	1226.56
371.576	1264.56
371.802	1237.56
372.028	1225.56
372.254	1248.56
372.48	1265.56
372.706	1283.56
372.932	1288.56
373.158	1290.56
373.384	1266.56
373.61	1231.56
373.835	1262.56
374.061	1259.56
374.287	1254.56
374.513	1291.56
374.739	1288.56
374.965	1343.56
375.191	1376.56
375.416	1340.56
375.642	1326.56
375.868	1306.56
376.094	1272.56
376.319	1259.56
376.545	1275.56
376.771	1259.56
376.997	1236.56
377.222	1253.56
377.448	1249.56
377.674	1265.56
377.899	1273.56
378.125	1245.56
378.35	1210.56
378.576	1218.56
378.802	1235.56
379.027	1183.56
379.253	1227.56
379.478	1214.56
379.704	1233.56
379.929	1220.56
380.155	1223.56
380.38	1213.56
380.606	1216.56
380.831	1215.56
381.057	1248.56
381.282	1228.56
381.507	1244.56
381.733	1227.56
381.958	1244.56
382.184	1260.56
382.409	1276.56
382.634	1292.56
382.86	1324.56
383.085	1280.56
383.31	1321.56
383.535	1321.56
383.761	1297.56
383.986	1381.56
384.211	1382.56
384.436	1399.56
384.662	1430.56
384.887	1419.56
385.112	1431.56
385.337	1448.56
385.562	1493.56
385.787	1439.56
386.013	1482.56
386.238	1464.56
386.463	1478.56
386.688	1483.56
386.913	1440.56
387.138	1461.56
387.363	1468.56
387.588	1467.56
387.813	1461.56
388.038	1445.56
388.263	1449.56
388.488	1478.56
388.713	1471.56
388.938	1503.56
389.163	1445.56
389.387	1455.56
389.612	1458.56
389.837	1461.56
390.062	1466.56
390.287	1468.56
390.512	1420.56
390.736	1444.56
390.961	1482.56
391.186	1507.56
391.411	1547.56
391.636	1592.56
391.86	1633.56
392.085	1671.56
392.31	1631.56
392.534	1615.56
392.759	1617.56
392.984	1563.56
393.208	1546.56
393.433	1532.56
393.658	1546.56
393.882	1521.56
394.107	1554.56
394.331	1546.56
394.556	1584.56
394.78	1588.56
395.005	1584.56
395.229	1601.56
395.454	1644.56
395.678	1654.56
395.903	1650.56
396.127	1634.56
396.352	1630.56
396.576	1595.56
396.801	1576.56
397.025	1594.56
397.249	1670.56
397.474	1636.56
397.698	1682.56
397.922	1681.56
398.147	1711.56
398.371	1746.56
398.595	1740.56
398.82	1837.56
399.044	1921.56
399.268	2074.56
399.492	2280.56
399.717	2505.56
399.941	2564.56
400.165	2329.56
400.389	2186.56
400.613	2056.56
400.837	1972.56
401.062	1907.56
401.286	1889.56
401.51	1887.56
401.734	1854.56
401.958	1868.56
402.182	1873.56
402.406	1847.56
402.63	1857.56
402.854	1913.56
403.078	1888.56
403.302	1916.56
403.526	1935.56
403.75	1988.56
403.974	1969.56
404.198	2011.56
404.422	1996.56
404.645	1986.56
404.869	1934.56
405.093	1988.56
405.317	1961.56
405.541	1994.56
405.765	1976.56
405.988	1955.56
406.212	1996.56
406.436	1965.56
406.66	2052.56
406.883	2083.56
407.107	2209.56
407.331	2236.56
407.555	2328.56
407.778	2341.56
408.002	2283.56
408.226	2255.56
408.449	2173.56
408.673	2088.56
408.896	2104.56
409.12	2061.56
409.344	2087.56
409.567	2021.56
409.791	2095.56
410.014	2007.56
410.238	2052.56
410.461	2021.56
410.685	2014.56
410.908	1953.56
411.132	1945.56
411.355	1911.56
411.578	1969.56
411.802	1916.56
412.025	1926.56
412.249	1929.56
412.472	1928.56
412.695	1889.56
412.919	1837.56
413.142	1842.56
413.365	1855.56
413.589	1883.56
413.812	1837.56
414.035	1802.56
414.258	1831.56
414.482	1836.56
414.705	1848.56
414.928	1871.56
415.151	1869.56
415.374	1818.56
415.597	1819.56
415.821	1758.56
416.044	1805.56
416.267	1760.56
416.49	1761.56
416.713	1765.56
416.936	1788.56
417.159	1746.56
417.382	1735.56
417.605	1752.56
417.828	1761.56
418.051	1776.56
418.274	1750.56
418.497	1777.56
418.72	1825.56
418.943	1784.56
419.166	1912.56
419.389	2033.56
419.611	1975.56
419.834	1915.56
420.057	1841.56
420.28	1805.56
420.503	1774.56
420.726	1766.56
420.948	1749.56
421.171	1754.56
421.394	1728.56
421.617	1762.56
421.839	1776.56
422.062	1784.56
422.285	1748.56
422.507	1799.56
422.73	1780.56
422.953	1753.56
423.175	1806.56
423.398	1855.56
423.621	1779.56
423.843	1838.56
424.066	1863.56
424.288	1823.56
424.511	1833.56
424.733	1774.56
424.956	1764.56
425.178	1763.56
425.401	1775.56
425.623	1766.56
425.846	1709.56
426.068	1773.56
426.291	1700.56
426.513	1705.56
426.735	1677.56
426.958	1728.56
427.18	1614.56
427.402	1622.56
427.625	1632.56
427.847	1617.56
428.069	1592.56
428.292	1623.56
428.514	1596.56
428.736	1611.56
428.958	1601.56
429.181	1588.56
429.403	1571.56
429.625	1585.56
429.847	1551.56
430.069	1558.56
430.292	1546.56
430.514	1559.56
430.736	1606.56
430.958	1566.56
431.18	1576.56
431.402	1596.56
431.624	1601.56
431.846	1613.56
432.068	1608.56
432.29	1668.56
432.512	1633.56
432.734	1662.56
432.956	1626.56
433.178	1614.56
433.4	1637.56
433.622	1615.56
433.844	1662.56
434.066	1704.56
434.287	1663.56
434.509	1708.56
434.731	1766.56
434.953	1801.56
435.175	1840.56
435.397	1800.56
435.618	1727.56
435.84	1694.56
436.062	1636.56
436.284	1642.56
436.505	1647.56
436.727	1599.56
436.949	1639.56
437.17	1639.56
437.392	1552.56
437.614	1546.56
437.835	1524.56
438.057	1564.56
438.278	1534.56
438.5	1526.56
438.721	1526.56
438.943	1548.56
439.165	1546.56
439.386	1550.56
439.608	1534.56
439.829	1609.56
440.05	1597.56
440.272	1621.56
440.493	1598.56
440.715	1630.56
440.936	1659.56
441.158	1620.56
441.379	1682.56
441.6	1696.56
441.822	1753.56
442.043	1773.56
442.264	1706.56
442.486	1730.56
442.707	1698.56
442.928	1692.56
443.149	1708.56
443.371	1707.56
443.592	1729.56
443.813	1722.56
444.034	1772.56
444.255	1791.56
444.476	1862.56
444.698	1941.56
444.919	1978.56
445.14	2031.56
445.361	1915.56
445.582	1796.56
445.803	1751.56
446.024	1704.56
446.245	1661.56
446.466	1610.56
446.687	1614.56
446.908	1579.56
447.129	1561.56
447.35	1556.56
447.571	1540.56
447.792	1504.56
448.013	1535.56
448.234	1458.56
448.455	1476.56
448.675	1458.56
448.896	1420.56
449.117	1441.56
449.338	1442.56
449.559	1418.56
449.779	1429.56
450	1387.56
450.221	1404.56
450.442	1441.56
450.662	1437.56
450.883	1415.56
451.104	1456.56
451.324	1470.56
451.545	1415.56
451.766	1431.56
451.986	1406.56
452.207	1448.56
452.428	1415.56
452.648	1423.56
452.869	1397.56
453.089	1368.56
453.31	1384.56
453.53	1392.56
453.751	1372.56
453.971	1382.56
454.192	1359.56
454.412	1364.56
454.633	1358.56
454.853	1368.56
455.073	1368.56
455.294	1382.56
455.514	1370.56
455.734	1309.56
455.955	1310.56
456.175	1349.56
456.395	1330.56
456.616	1348.56
456.836	1376.56
457.056	1353.56
457.276	1346.56
457.497	1374.56
457.717	1351.56
457.937	1369.56
458.157	1383.56
458.377	1393.56
458.598	1421.56
458.818	1494.56
459.038	1478.56
459.258	1541.56
459.478	1594.56
459.698	1636.56
459.918	1670.56
460.138	1683.56
460.358	1740.56
460.578	1771.56
460.798	1863.56
461.018	1773.56
461.238	1797.56
461.458	1795.56
461.678	1774.56
461.898	1814.56
462.118	1838.56
462.338	1888.56
462.558	1915.56
462.777	2028.56
462.997	2166.56
463.217	2233.56
463.437	2278.56
463.657	2162.56
463.876	2121.56
464.096	2092.56
464.316	2069.56
464.536	2068.56
464.755	2020.56
464.975	1950.56
465.195	1892.56
465.414	1791.56
465.634	1686.56
465.854	1629.56
466.073	1668.56
466.293	1630.56
466.512	1573.56
466.732	1546.56
466.951	1512.56
467.171	1522.56
467.391	1489.56
467.61	1515.56
467.829	1502.56
468.049	1468.56
468.268	1479.56
468.488	1472.56
468.707	1430.56
468.927	1446.56
469.146	1437.56
469.365	1493.56
469.585	1485.56
469.804	1495.56
470.023	1500.56
470.243	1503.56
470.462	1546.56
470.681	1531.56
470.901	1544.56
471.12	1532.56
471.339	1528.56
471.558	1499.56
471.777	1488.56
471.997	1453.56
472.216	1474.56
472.435	1438.56
472.654	1436.56
472.873	1428.56
473.092	1429.56
473.311	1426.56
473.53	1460.56
473.749	1436.56
473.968	1438.56
474.187	1434.56
474.406	1421.56
474.625	1449.56
474.844	1451.56
475.063	1467.56
475.282	1432.56
475.501	1462.56
475.72	1490.56
475.939	1472.56
476.158	1485.56
476.377	1518.56
476.596	1494.56
476.814	1506.56
477.033	1553.56
477.252	1549.56
477.471	1561.56
477.69	1621.56
477.908	1684.56
478.127	1672.56
478.346	1710.56
478.564	1756.56
478.783	1754.56
479.002	1787.56
479.22	1792.56
479.439	1802.56
479.658	1839.56
479.876	1817.56
480.095	1825.56
480.313	1866.56
480.532	1892.56
480.751	1957.56
480.969	1863.56
481.188	1823.56
481.406	1818.56
481.624	1753.56
481.843	1776.56
482.061	1776.56
482.28	1743.56
482.498	1770.56
482.717	1738.56
482.935	1768.56
483.153	1757.56
483.372	1761.56
483.59	1813.56
483.808	1778.56
484.027	1794.56
484.245	1823.56
484.463	1859.56
484.681	1864.56
484.9	1850.56
485.118	1887.56
485.336	1900.56
485.554	1930.56
485.772	1974.56
485.99	1936.56
486.209	1948.56
486.427	1941.56
486.645	1968.56
486.863	1918.56
487.081	1913.56
487.299	1892.56
487.517	1922.56
487.735	1874.56
487.953	1926.56
488.171	1880.56
488.389	1876.56
488.607	1871.56
488.825	1853.56
489.043	1833.56
489.261	1847.56
489.479	1866.56
489.696	1816.56
489.914	1801.56
490.132	1836.56
490.35	1804.56
490.568	1807.56
490.786	1803.56
491.003	1826.56
491.221	1802.56
491.439	1787.56
491.657	1792.56
491.874	1822.56
492.092	1821.56
492.31	1817.56
492.527	1778.56
492.745	1790.56
492.963	1802.56
493.18	1822.56
493.398	1832.56
493.615	1827.56
493.833	1828.56
494.05	1847.56
494.268	1867.56
494.485	1860.56
494.703	1841.56
494.92	1890.56
495.138	1862.56
495.355	1852.56
495.573	1852.56
495.79	1903.56
496.008	1886.56
496.225	1916.56
496.442	1910.56
496.66	1960.56
496.877	1937.56
497.094	1943.56
497.312	2025.56
497.529	2017.56
497.746	2092.56
497.963	2194.56
498.181	2228.56
498.398	2373.56
498.615	2468.56
498.832	2592.56
499.049	2705.56
499.267	2932.56
499.484	3198.56
499.701	3436.56
499.918	3689.56
500.135	4077.56
500.352	4466.56
500.569	4621.56
500.786	4677.56
501.003	4314.56
501.22	3997.56
501.437	3768.56
501.654	3303.56
501.871	3109.56
502.088	2858.56
502.305	2624.56
502.522	2561.56
502.739	2486.56
502.956	2334.56
503.172	2270.56
503.389	2118.56
503.606	2157.56
503.823	2074.56
504.04	2066.56
504.256	2056.56
504.473	2097.56
504.69	2061.56
504.907	2108.56
505.123	1974.56
505.34	1876.56
505.557	1807.56
505.773	1753.56
505.99	1728.56
506.207	1701.56
506.423	1661.56
506.64	1681.56
506.856	1618.56
507.073	1616.56
507.289	1610.56
507.506	1580.56
507.722	1604.56
507.939	1587.56
508.155	1607.56
508.372	1543.56
508.588	1498.56
508.805	1519.56
509.021	1545.56
509.238	1498.56
509.454	1468.56
509.67	1463.56
509.887	1479.56
510.103	1477.56
510.319	1482.56
510.536	1468.56
510.752	1442.56
510.968	1442.56
511.184	1428.56
511.401	1433.56
511.617	1444.56
511.833	1443.56
512.049	1439.56
512.265	1451.56
512.481	1437.56
512.698	1425.56
512.914	1479.56
513.13	1434.56
513.346	1391.56
513.562	1426.56
513.778	1458.56
513.994	1439.56
514.21	1426.56
514.426	1476.56
514.642	1456.56
514.858	1456.56
515.074	1499.56
515.29	1525.56
515.506	1514.56
515.721	1515.56
515.937	1540.56
516.153	1584.56
516.369	1584.56
516.585	1643.56
516.801	1653.56
517.016	1728.56
517.232	1808.56
517.448	1829.56
517.664	1870.56
517.879	1910.56
518.095	1900.56
518.311	1860.56
518.527	1795.56
518.742	1777.56
518.958	1722.56
519.173	1635.56
519.389	1622.56
519.605	1548.56
519.82	1538.56
520.036	1526.56
520.251	1461.56
520.467	1480.56
520.682	1439.56
520.898	1450.56
521.113	1408.56
521.329	1412.56
521.544	1392.56
521.76	1366.56
521.975	1344.56
522.19	1380.56
522.406	1354.56
522.621	1321.56
522.836	1351.56
523.052	1365.56
523.267	1318.56
523.482	1310.56
523.698	1329.56
523.913	1322.56
524.128	1321.56
524.343	1319.56
524.559	1314.56
524.774	1294.56
524.989	1296.56
525.204	1316.56
525.419	1263.56
525.634	1277.56
525.849	1267.56
526.064	1280.56
526.28	1288.56
526.495	1293.56
526.71	1272.56
526.925	1250.56
527.14	1249.56
527.355	1268.56
527.57	1279.56
527.785	1284.56
527.999	1267.56
528.214	1286.56
528.429	1275.56
528.644	1299.56
528.859	1246.56
529.074	1258.56
529.289	1250.56
529.503	1275.56
529.718	1240.56
529.933	1243.56
530.148	1278.56
530.363	1277.56
530.577	1238.56
530.792	1220.56
531.007	1250.56
531.221	1224.56
531.436	1271.56
531.651	1260.56
531.865	1236.56
532.08	1245.56
532.295	1263.56
532.509	1257.56
532.724	1261.56
532.938	1259.56
533.153	1240.56
533.367	1255.56
533.582	1227.56
533.796	1260.56
534.011	1250.56
534.225	1239.56
534.44	1236.56
534.654	1207.56
534.868	1216.56
535.083	1206.56
535.297	1232.56
535.511	1213.56
535.726	1204.56
535.94	1185.56
536.154	1158.56
536.369	1201.56
536.583	1152.56
536.797	1178.56
537.011	1158.56
537.225	1160.56
537.44	1177.56
537.654	1141.56
537.868	1136.56
538.082	1160.56
538.296	1142.56
538.51	1126.56
538.724	1156.56
538.938	1124.56
539.153	1156.56
539.367	1121.56
539.581	1128.56
539.795	1119.56
540.009	1107.56
540.222	1103.56
540.436	1113.56
540.65	1105.56
540.864	1114.56
541.078	1135.56
541.292	1117.56
541.506	1107.56
541.72	1094.56
541.934	1100.56
542.147	1142.56
542.361	1122.56
542.575	1090.56
542.789	1098.56
543.002	1113.56
543.216	1094.56
543.43	1068.56
543.644	1091.56
543.857	1089.56
544.071	1102.56
544.285	1066.56
544.498	1081.56
544.712	1087.56
544.925	1093.56
545.139	1101.56
545.352	1114.56
545.566	1117.56
545.779	1116.56
545.993	1112.56
546.206	1118.56
546.42	1154.56
546.633	1124.56
546.847	1149.56
547.06	1093.56
547.274	1108.56
547.487	1138.56
547.7	1106.56
547.914	1130.56
548.127	1134.56
548.34	1126.56
548.554	1121.56
548.767	1152.56
548.98	1120.56
549.193	1150.56
549.407	1141.56
549.62	1147.56
549.833	1153.56
550.046	1125.56
550.259	1125.56
550.473	1129.56
550.686	1135.56
550.899	1115.56
551.112	1115.56
551.325	1099.56
551.538	1104.56
551.751	1094.56
551.964	1110.56
552.177	1116.56
552.39	1136.56
552.603	1122.56
552.816	1201.56
553.029	1212.56
553.242	1208.56
553.455	1200.56
553.667	1220.56
553.88	1205.56
554.093	1183.56
554.306	1128.56
554.519	1112.56
554.732	1100.56
554.944	1062.56
555.157	1097.56
555.37	1066.56
555.583	1055.56
555.795	1029.56
556.008	989.56
556.221	999.56
556.433	1006.56
556.646	993.56
556.859	991.56
557.071	990.56
557.284	973.56
557.496	960.56
557.709	977.56
557.921	980.56
558.134	983.56
558.346	968.56
558.559	945.56
558.771	960.56
558.984	946.56
559.196	936.56
559.409	948.56
559.621	948.56
559.833	921.56
560.046	942.56
560.258	912.56
560.47	897.56
560.683	908.56
560.895	915.56
561.107	920.56
561.32	911.56
561.532	934.56
561.744	920.56
561.956	926.56
562.168	928.56
562.381	950.56
562.593	930.56
562.805	920.56
563.017	952.56
563.229	935.56
563.441	941.56
563.653	969.56
563.865	956.56
564.077	968.56
564.289	965.56
564.501	992.56
564.713	1006.56
564.925	1012.56
565.137	1018.56
565.349	1068.56
565.561	1082.56
565.773	1131.56
565.985	1132.56
566.197	1154.56
566.408	1253.56
566.62	1322.56
566.832	1422.56
567.044	1453.56
567.255	1482.56
567.467	1484.56
567.679	1536.56
567.891	1578.56
568.102	1585.56
568.314	1544.56
568.526	1408.56
568.737	1350.56
568.949	1236.56
569.161	1158.56
569.372	1098.56
569.584	1051.56
569.795	1055.56
570.007	998.56
570.218	962.56
570.43	963.56
570.641	943.56
570.853	950.56
571.064	946.56
571.276	982.56
571.487	920.56
571.698	877.56
571.91	848.56
572.121	866.56
572.333	842.56
572.544	822.56
572.755	786.56
572.966	809.56
573.178	795.56
573.389	766.56
573.6	783.56
573.811	780.56
574.023	757.56
574.234	761.56
574.445	774.56
574.656	778.56
574.867	763.56
575.078	735.56
575.289	732.56
575.501	735.56
575.712	721.56
575.923	714.56
576.134	715.56
576.345	745.56
576.556	723.56
576.767	697.56
576.978	727.56
577.188	689.56
577.399	708.56
577.61	718.56
577.821	687.56
578.032	694.56
578.243	678.56
578.454	658.56
578.665	664.56
578.875	668.56
579.086	673.56
579.297	654.56
579.508	671.56
579.718	646.56
579.929	675.56
580.14	669.56
580.35	645.56
580.561	651.56
580.772	649.56
580.982	657.56
581.193	647.56
581.403	657.56
581.614	655.56
581.825	637.56
582.035	659.56
582.246	630.56
582.456	644.56
582.667	631.56
582.877	644.56
583.087	635.56
583.298	624.56
583.508	633.56
583.719	608.56
583.929	625.56
584.139	635.56
584.35	627.56
584.56	625.56
584.77	600.56
584.981	601.56
585.191	624.56
585.401	621.56
585.611	619.56
585.821	590.56
586.032	621.56
586.242	605.56
586.452	628.56
586.662	623.56
586.872	606.56
587.082	618.56
587.292	600.56
587.502	624.56
587.713	604.56
587.923	605.56
588.133	615.56
588.343	593.56
588.553	589.56
588.762	594.56
588.972	586.56
589.182	610.56
589.392	609.56
589.602	611.56
589.812	582.56
590.022	615.56
590.232	577.56
590.441	628.56
590.651	596.56
590.861	630.56
591.071	641.56
591.281	605.56
591.49	602.56
591.7	623.56
591.91	636.56
592.119	640.56
592.329	668.56
592.539	653.56
592.748	678.56
592.958	715.56
593.167	694.56
593.377	721.56
593.587	738.56
593.796	739.56
594.006	717.56
594.215	716.56
594.424	717.56
594.634	702.56
594.843	711.56
595.053	666.56
595.262	659.56
595.472	658.56
595.681	630.56
595.89	636.56
596.1	605.56
596.309	582.56
596.518	592.56
596.727	566.56
596.937	531.56
597.146	543.56
597.355	560.56
597.564	565.56
597.774	546.56
597.983	530.56
598.192	548.56
598.401	546.56
598.61	530.56
598.819	530.56
599.028	520.56
599.237	510.56
599.446	536.56
599.655	507.56
599.864	506.56
600.073	507.56
600.282	502.56
600.491	486.56
600.7	493.56
600.909	516.56
601.118	502.56
601.327	493.56
601.536	478.56
601.745	498.56
601.953	490.56
602.162	497.56
602.371	480.56
602.58	485.56
602.789	474.56
602.997	494.56
603.206	488.56
603.415	482.56
603.623	496.56
603.832	471.56
604.041	487.56
604.249	469.56
604.458	469.56
604.666	465.56
604.875	467.56
605.084	491.56
605.292	454.56
605.501	462.56
605.709	472.56
605.918	458.56
606.126	459.56
606.334	437.56
606.543	446.56
606.751	448.56
606.96	446.56
607.168	456.56
607.376	431.56
607.585	433.56
607.793	449.56
608.001	457.56
608.21	470.56
608.418	445.56
608.626	414.56
608.834	424.56
609.043	426.56
609.251	434.56
609.459	452.56
609.667	442.56
609.875	421.56
610.083	436.56
610.291	429.56
610.499	420.56
610.707	437.56
610.916	408.56
611.124	436.56
611.332	407.56
611.54	436.56
611.748	430.56
611.955	433.56
612.163	431.56
612.371	438.56
612.579	431.56
612.787	431.56
612.995	415.56
613.203	422.56
613.411	420.56
613.618	421.56
613.826	416.56
614.034	421.56
614.242	416.56
614.449	427.56
614.657	400.56
614.865	398.56
615.072	429.56
615.28	428.56
615.488	426.56
615.695	416.56
615.903	409.56
616.111	426.56
616.318	440.56
616.526	420.56
616.733	430.56
616.941	413.56
617.148	420.56
617.356	438.56
617.563	424.56
617.771	423.56
617.978	407.56
618.185	423.56
618.393	410.56
618.6	436.56
618.807	434.56
619.015	397.56
619.222	411.56
619.429	401.56
619.637	409.56
619.844	416.56
620.051	393.56
620.258	392.56
620.466	387.56
620.673	369.56
620.88	369.56
621.087	398.56
621.294	384.56
621.501	403.56
621.708	404.56
621.915	387.56
622.122	382.56
622.329	384.56
622.536	383.56
622.743	387.56
622.95	390.56
623.157	365.56
623.364	368.56
623.571	361.56
623.778	380.56
623.985	388.56
624.192	377.56
624.399	369.56
624.606	369.56
624.812	359.56
625.019	365.56
625.226	379.56
625.433	363.56
625.639	354.56
625.846	345.56
626.053	360.56
626.259	361.56
626.466	358.56
626.673	331.56
626.879	341.56
627.086	348.56
627.293	346.56
627.499	349.56
627.706	345.56
627.912	346.56
628.119	368.56
628.325	338.56
628.532	336.56
628.738	333.56
628.945	352.56
629.151	328.56
629.357	328.56
629.564	323.56
629.77	322.56
629.976	321.56
630.183	333.56
630.389	316.56
630.595	328.56
630.802	333.56
631.008	326.56
631.214	337.56
631.42	319.56
631.627	315.56
631.833	313.56
632.039	326.56
632.245	330.56
632.451	321.56
632.657	320.56
632.863	310.56
633.069	319.56
633.275	312.56
633.481	309.56
633.688	317.56
633.893	310.56
634.099	299.56
634.305	317.56
634.511	310.56
634.717	302.56
634.923	321.56
635.129	318.56
635.335	305.56
635.541	313.56
635.747	300.56
635.952	294.56
636.158	285.56
636.364	319.56
636.57	294.56
636.775	300.56
636.981	306.56
637.187	290.56
637.392	281.56
637.598	302.56
637.804	291.56
638.009	299.56
638.215	304.56
638.421	284.56
638.626	301.56
638.832	273.56
639.037	297.56
639.243	280.56
639.448	299.56
639.654	302.56
639.859	277.56
640.065	274.56
640.27	288.56
640.475	291.56
640.681	281.56
640.886	295.56
641.091	279.56
641.297	292.56
641.502	297.56
641.707	279.56
641.913	293.56
642.118	280.56
642.323	280.56
642.528	268.56
642.733	283.56
642.939	279.56
643.144	270.56
643.349	285.56
643.554	282.56
643.759	266.56
643.964	273.56
644.169	290.56
644.374	271.56
644.579	271.56
644.784	285.56
644.989	286.56
645.194	279.56
645.399	273.56
645.604	277.56
645.809	281.56
646.014	281.56
646.219	297.56
646.423	285.56
646.628	277.56
646.833	277.56
647.038	292.56
647.243	313.56
647.447	288.56
647.652	290.56
647.857	315.56
648.062	297.56
648.266	296.56
648.471	324.56
648.676	304.56
648.88	290.56
649.085	304.56
649.289	299.56
649.494	288.56
649.698	301.56
649.903	294.56
650.107	302.56
650.312	294.56
650.516	287.56
650.721	290.56
650.925	281.56
651.13	298.56
651.334	271.56
651.539	268.56
651.743	273.56
651.947	274.56
652.152	262.56
652.356	272.56
652.56	256.56
652.764	271.56
652.969	285.56
653.173	284.56
653.377	272.56
653.581	262.56
653.785	268.56
653.99	282.56
654.194	286.56
654.398	273.56
654.602	266.56
654.806	266.56
655.01	272.56
655.214	272.56
655.418	311.56
655.622	309.56
655.826	321.56
656.03	367.56
656.234	380.56
656.438	402.56
656.642	395.56
656.846	360.56
657.049	337.56
657.253	309.56
657.457	289.56
657.661	245.56
657.865	245.56
658.068	204.56
658.272	193.56
658.476	188.56
658.68	177.56
658.883	160.56
659.087	170.56
659.291	155.56
659.494	152.56
659.698	131.56
659.901	136.56
660.105	131.56
660.309	120.56
660.512	127.56
660.716	105.56
660.919	123.56
661.123	113.56
661.326	109.56
661.53	122.56
661.733	101.56
661.936	94.56
662.14	100.56
662.343	104.56
662.546	113.56
662.75	100.56
662.953	103.56
663.156	104.56
663.36	87.56
663.563	101.56
663.766	84.56
663.969	99.56
664.173	89.56
664.376	92.56
664.579	78.56
664.782	89.56
664.985	76.56
665.188	85.56
665.391	92.56
665.594	92.56
665.797	84.56
666	82.56
666.203	94.56
666.406	82.56
666.609	97.56
666.812	105.56
667.015	82.56
667.218	88.56
667.421	90.56
667.624	82.56
667.827	83.56
668.03	95.56
668.232	98.56
668.435	98.56
668.638	88.56
668.841	81.56
669.043	81.56
669.246	70.56
669.449	80.56
669.651	91.56
669.854	93.56
670.057	84.56
670.259	89.56
670.462	90.56
670.665	74.56
670.867	81.56
671.07	92.56
671.272	97.56
671.475	77.56
671.677	82.56
671.88	92.56
672.082	78.56
672.284	97.56
672.487	90.56
672.689	90.56
672.892	80.56
