Data from NiCl2@0.0625M.TitratingCurve.Agarose3%dH2O.NegLispCup.LampEnergy10.LIBS07252019_HRD10591_18-34-39-611.txt Node
Date: Thu Jul 25 18:34:39 EDT 2019
User: cochatt
Spectrometer: HR+D1059
Trigger mode: 1
Integration Time (sec): 1.000000E-1
Scans to average: 1
Electric dark correction enabled: true
Nonlinearity correction enabled: false
Boxcar width: 0
XAxis mode: Wavelengths
Number of Pixels in Spectrum: 2048
>>>>>Begin Spectral Data<<<<<
223.165	-7.25
223.4	-7.25
223.635	-7.25
223.869	-17.25
224.104	-19.25
224.338	-11.25
224.573	-20.25
224.808	0.75
225.042	-11.25
225.277	-13.25
225.511	2.75
225.746	13.75
225.98	3.75
226.215	8.75
226.449	14.75
226.683	15.75
226.918	20.75
227.152	18.75
227.387	43.75
227.621	42.75
227.856	38.75
228.09	57.75
228.324	34.75
228.559	50.75
228.793	88.75
229.027	118.75
229.262	142.75
229.496	134.75
229.73	172.75
229.964	160.75
230.199	158.75
230.433	150.75
230.667	178.75
230.901	163.75
231.136	156.75
231.37	172.75
231.604	185.75
231.838	173.75
232.072	183.75
232.306	178.75
232.541	178.75
232.775	173.75
233.009	182.75
233.243	198.75
233.477	186.75
233.711	177.75
233.945	189.75
234.179	203.75
234.413	184.75
234.647	190.75
234.881	187.75
235.115	206.75
235.349	194.75
235.583	193.75
235.817	196.75
236.051	190.75
236.285	203.75
236.519	203.75
236.753	201.75
236.987	197.75
237.221	210.75
237.455	207.75
237.689	226.75
237.922	209.75
238.156	232.75
238.39	221.75
238.624	221.75
238.858	216.75
239.091	229.75
239.325	218.75
239.559	218.75
239.793	244.75
240.027	220.75
240.26	237.75
240.494	241.75
240.728	245.75
240.961	237.75
241.195	238.75
241.429	247.75
241.662	248.75
241.896	253.75
242.13	259.75
242.363	260.75
242.597	270.75
242.83	270.75
243.064	285.75
243.298	270.75
243.531	286.75
243.765	276.75
243.998	263.75
244.232	278.75
244.465	274.75
244.699	281.75
244.932	294.75
245.166	289.75
245.399	299.75
245.633	307.75
245.866	316.75
246.099	322.75
246.333	287.75
246.566	301.75
246.8	289.75
247.033	310.75
247.266	297.75
247.5	310.75
247.733	306.75
247.966	325.75
248.2	315.75
248.433	338.75
248.666	325.75
248.899	328.75
249.133	305.75
249.366	333.75
249.599	350.75
249.832	341.75
250.066	331.75
250.299	342.75
250.532	361.75
250.765	360.75
250.998	342.75
251.231	356.75
251.465	368.75
251.698	368.75
251.931	371.75
252.164	381.75
252.397	370.75
252.63	364.75
252.863	382.75
253.096	376.75
253.329	403.75
253.562	387.75
253.795	397.75
254.028	406.75
254.261	392.75
254.494	379.75
254.727	374.75
254.96	395.75
255.193	381.75
255.426	386.75
255.659	404.75
255.892	396.75
256.124	402.75
256.357	408.75
256.59	407.75
256.823	402.75
257.056	419.75
257.289	421.75
257.521	424.75
257.754	424.75
257.987	433.75
258.22	427.75
258.452	411.75
258.685	445.75
258.918	432.75
259.151	439.75
259.383	436.75
259.616	435.75
259.849	436.75
260.081	453.75
260.314	452.75
260.547	444.75
260.779	465.75
261.012	476.75
261.244	460.75
261.477	472.75
261.71	477.75
261.942	463.75
262.175	458.75
262.407	473.75
262.64	485.75
262.872	481.75
263.105	471.75
263.337	472.75
263.57	490.75
263.802	501.75
264.035	504.75
264.267	469.75
264.499	482.75
264.732	489.75
264.964	496.75
265.197	496.75
265.429	489.75
265.661	464.75
265.894	502.75
266.126	503.75
266.358	493.75
266.591	506.75
266.823	518.75
267.055	530.75
267.287	524.75
267.52	522.75
267.752	536.75
267.984	514.75
268.216	553.75
268.448	506.75
268.681	535.75
268.913	544.75
269.145	539.75
269.377	525.75
269.609	570.75
269.841	534.75
270.073	534.75
270.306	533.75
270.538	549.75
270.77	557.75
271.002	542.75
271.234	574.75
271.466	575.75
271.698	564.75
271.93	549.75
272.162	556.75
272.394	570.75
272.626	577.75
272.858	580.75
273.09	585.75
273.322	571.75
273.553	573.75
273.785	580.75
274.017	612.75
274.249	596.75
274.481	581.75
274.713	590.75
274.945	608.75
275.176	595.75
275.408	580.75
275.64	610.75
275.872	614.75
276.104	603.75
276.335	612.75
276.567	614.75
276.799	625.75
277.031	618.75
277.262	597.75
277.494	622.75
277.726	636.75
277.957	617.75
278.189	642.75
278.421	668.75
278.652	637.75
278.884	635.75
279.115	673.75
279.347	646.75
279.579	680.75
279.81	666.75
280.042	644.75
280.273	642.75
280.505	669.75
280.736	657.75
280.968	680.75
281.199	684.75
281.431	655.75
281.662	676.75
281.894	667.75
282.125	685.75
282.356	676.75
282.588	694.75
282.819	679.75
283.051	706.75
283.282	688.75
283.513	694.75
283.745	672.75
283.976	700.75
284.207	672.75
284.439	703.75
284.67	698.75
284.901	736.75
285.132	709.75
285.364	714.75
285.595	713.75
285.826	736.75
286.057	728.75
286.288	720.75
286.52	740.75
286.751	715.75
286.982	720.75
287.213	722.75
287.444	742.75
287.675	728.75
287.906	718.75
288.138	747.75
288.369	748.75
288.6	776.75
288.831	762.75
289.062	752.75
289.293	747.75
289.524	761.75
289.755	754.75
289.986	743.75
290.217	756.75
290.448	776.75
290.679	781.75
290.91	768.75
291.141	757.75
291.371	761.75
291.602	768.75
291.833	772.75
292.064	766.75
292.295	747.75
292.526	760.75
292.757	771.75
292.987	743.75
293.218	765.75
293.449	758.75
293.68	798.75
293.91	770.75
294.141	757.75
294.372	762.75
294.603	778.75
294.833	781.75
295.064	771.75
295.295	773.75
295.525	783.75
295.756	799.75
295.987	781.75
296.217	788.75
296.448	790.75
296.679	783.75
296.909	800.75
297.14	822.75
297.37	837.75
297.601	797.75
297.831	796.75
298.062	811.75
298.292	827.75
298.523	827.75
298.753	844.75
298.984	833.75
299.214	836.75
299.445	834.75
299.675	825.75
299.905	811.75
300.136	831.75
300.366	828.75
300.597	870.75
300.827	869.75
301.057	849.75
301.288	838.75
301.518	844.75
301.748	886.75
301.979	887.75
302.209	848.75
302.439	854.75
302.669	852.75
302.9	851.75
303.13	887.75
303.36	893.75
303.59	849.75
303.82	871.75
304.051	900.75
304.281	892.75
304.511	884.75
304.741	872.75
304.971	870.75
305.201	868.75
305.431	870.75
305.661	896.75
305.891	853.75
306.121	852.75
306.352	882.75
306.582	866.75
306.812	872.75
307.042	864.75
307.272	848.75
307.502	868.75
307.731	856.75
307.961	861.75
308.191	873.75
308.421	864.75
308.651	848.75
308.881	858.75
309.111	850.75
309.341	862.75
309.571	866.75
309.8	872.75
310.03	877.75
310.26	852.75
310.49	887.75
310.72	884.75
310.949	843.75
311.179	894.75
311.409	873.75
311.639	912.75
311.868	856.75
312.098	876.75
312.328	922.75
312.557	888.75
312.787	892.75
313.017	907.75
313.246	916.75
313.476	902.75
313.706	910.75
313.935	912.75
314.165	942.75
314.394	929.75
314.624	925.75
314.853	917.75
315.083	939.75
315.312	922.75
315.542	940.75
315.771	937.75
316.001	952.75
316.23	908.75
316.46	894.75
316.689	909.75
316.919	898.75
317.148	923.75
317.377	915.75
317.607	911.75
317.836	876.75
318.065	949.75
318.295	908.75
318.524	927.75
318.753	933.75
318.983	945.75
319.212	916.75
319.441	924.75
319.67	918.75
319.9	905.75
320.129	917.75
320.358	895.75
320.587	914.75
320.816	902.75
321.046	933.75
321.275	892.75
321.504	896.75
321.733	935.75
321.962	934.75
322.191	954.75
322.42	918.75
322.649	932.75
322.878	931.75
323.108	938.75
323.337	949.75
323.566	923.75
323.795	965.75
324.024	957.75
324.253	972.75
324.482	971.75
324.71	956.75
324.939	958.75
325.168	963.75
325.397	970.75
325.626	985.75
325.855	968.75
326.084	981.75
326.313	1011.75
326.542	1045.75
326.77	1033.75
326.999	966.75
327.228	994.75
327.457	1001.75
327.686	968.75
327.914	1009.75
328.143	1002.75
328.372	998.75
328.6	988.75
328.829	1018.75
329.058	1009.75
329.287	1017.75
329.515	1006.75
329.744	1030.75
329.972	1022.75
330.201	1008.75
330.43	1019.75
330.658	1033.75
330.887	1021.75
331.115	1045.75
331.344	1047.75
331.572	1064.75
331.801	1041.75
332.03	1105.75
332.258	1080.75
332.486	1083.75
332.715	1172.75
332.943	1141.75
333.172	1214.75
333.4	1278.75
333.629	1272.75
333.857	1266.75
334.085	1249.75
334.314	1243.75
334.542	1275.75
334.771	1276.75
334.999	1233.75
335.227	1228.75
335.455	1255.75
335.684	1239.75
335.912	1232.75
336.14	1210.75
336.369	1235.75
336.597	1225.75
336.825	1214.75
337.053	1189.75
337.281	1170.75
337.51	1150.75
337.738	1138.75
337.966	1144.75
338.194	1139.75
338.422	1086.75
338.65	1085.75
338.878	1097.75
339.106	1111.75
339.334	1087.75
339.562	1116.75
339.79	1058.75
340.018	1061.75
340.246	1051.75
340.474	1037.75
340.702	1068.75
340.93	1062.75
341.158	1077.75
341.386	1074.75
341.614	1081.75
341.842	1065.75
342.07	1019.75
342.298	1045.75
342.526	1055.75
342.754	1050.75
342.981	1035.75
343.209	1079.75
343.437	1132.75
343.665	1128.75
343.893	1237.75
344.12	1230.75
344.348	1225.75
344.576	1149.75
344.804	1124.75
345.031	1092.75
345.259	1082.75
345.487	1067.75
345.714	1037.75
345.942	1054.75
346.17	1049.75
346.397	1031.75
346.625	1027.75
346.853	998.75
347.08	1005.75
347.308	996.75
347.535	981.75
347.763	1029.75
347.99	1018.75
348.218	1014.75
348.445	1009.75
348.673	1001.75
348.9	1004.75
349.128	1011.75
349.355	999.75
349.583	981.75
349.81	982.75
350.037	964.75
350.265	978.75
350.492	1000.75
350.72	990.75
350.947	987.75
351.174	981.75
351.402	975.75
351.629	985.75
351.856	958.75
352.083	983.75
352.311	947.75
352.538	968.75
352.765	928.75
352.992	975.75
353.22	985.75
353.447	977.75
353.674	987.75
353.901	967.75
354.128	990.75
354.355	933.75
354.583	986.75
354.81	974.75
355.037	957.75
355.264	950.75
355.491	996.75
355.718	956.75
355.945	966.75
356.172	990.75
356.399	984.75
356.626	980.75
356.853	961.75
357.08	934.75
357.307	988.75
357.534	968.75
357.761	967.75
357.988	960.75
358.215	959.75
358.441	984.75
358.668	948.75
358.895	971.75
359.122	984.75
359.349	1006.75
359.576	974.75
359.802	971.75
360.029	987.75
360.256	975.75
360.483	997.75
360.709	978.75
360.936	987.75
361.163	984.75
361.39	950.75
361.616	961.75
361.843	950.75
362.07	993.75
362.296	978.75
362.523	997.75
362.749	968.75
362.976	970.75
363.203	969.75
363.429	967.75
363.656	998.75
363.882	969.75
364.109	964.75
364.335	925.75
364.562	954.75
364.788	1000.75
365.015	963.75
365.241	969.75
365.468	956.75
365.694	992.75
365.92	963.75
366.147	978.75
366.373	937.75
366.599	962.75
366.826	931.75
367.052	982.75
367.278	968.75
367.505	984.75
367.731	973.75
367.957	984.75
368.184	983.75
368.41	987.75
368.636	1026.75
368.862	1008.75
369.089	997.75
369.315	997.75
369.541	999.75
369.767	1014.75
369.993	1006.75
370.219	999.75
370.445	1052.75
370.672	1059.75
370.898	1052.75
371.124	1026.75
371.35	1069.75
371.576	1048.75
371.802	1048.75
372.028	1050.75
372.254	1046.75
372.48	1045.75
372.706	1081.75
372.932	1112.75
373.158	1091.75
373.384	1080.75
373.61	1045.75
373.835	1054.75
374.061	1085.75
374.287	1081.75
374.513	1086.75
374.739	1084.75
374.965	1149.75
375.191	1172.75
375.416	1131.75
375.642	1120.75
375.868	1111.75
376.094	1088.75
376.319	1089.75
376.545	1084.75
376.771	1075.75
376.997	1074.75
377.222	1059.75
377.448	1026.75
377.674	1054.75
377.899	1057.75
378.125	1045.75
378.35	1047.75
378.576	1022.75
378.802	1054.75
379.027	1057.75
379.253	1064.75
379.478	1026.75
379.704	1011.75
379.929	1033.75
380.155	1040.75
380.38	1067.75
380.606	1040.75
380.831	1060.75
381.057	1054.75
381.282	1062.75
381.507	1081.75
381.733	1062.75
381.958	1061.75
382.184	1053.75
382.409	1117.75
382.634	1088.75
382.86	1083.75
383.085	1090.75
383.31	1108.75
383.535	1146.75
383.761	1147.75
383.986	1166.75
384.211	1174.75
384.436	1151.75
384.662	1186.75
384.887	1207.75
385.112	1202.75
385.337	1237.75
385.562	1248.75
385.787	1249.75
386.013	1246.75
386.238	1246.75
386.463	1244.75
386.688	1242.75
386.913	1225.75
387.138	1272.75
387.363	1262.75
387.588	1264.75
387.813	1232.75
388.038	1213.75
388.263	1253.75
388.488	1264.75
388.713	1249.75
388.938	1260.75
389.163	1238.75
389.387	1240.75
389.612	1206.75
389.837	1278.75
390.062	1246.75
390.287	1232.75
390.512	1250.75
390.736	1243.75
390.961	1279.75
391.186	1271.75
391.411	1271.75
391.636	1336.75
391.86	1376.75
392.085	1378.75
392.31	1342.75
392.534	1371.75
392.759	1348.75
392.984	1359.75
393.208	1311.75
393.433	1322.75
393.658	1342.75
393.882	1286.75
394.107	1299.75
394.331	1332.75
394.556	1332.75
394.78	1352.75
395.005	1333.75
395.229	1328.75
395.454	1412.75
395.678	1405.75
395.903	1399.75
396.127	1391.75
396.352	1371.75
396.576	1368.75
396.801	1325.75
397.025	1338.75
397.249	1387.75
397.474	1390.75
397.698	1410.75
397.922	1396.75
398.147	1422.75
398.371	1421.75
398.595	1460.75
398.82	1535.75
399.044	1600.75
399.268	1750.75
399.492	1925.75
399.717	2068.75
399.941	2124.75
400.165	1999.75
400.389	1820.75
400.613	1718.75
400.837	1654.75
401.062	1608.75
401.286	1596.75
401.51	1569.75
401.734	1558.75
401.958	1580.75
402.182	1559.75
402.406	1600.75
402.63	1622.75
402.854	1565.75
403.078	1620.75
403.302	1656.75
403.526	1667.75
403.75	1673.75
403.974	1710.75
404.198	1707.75
404.422	1707.75
404.645	1685.75
404.869	1667.75
405.093	1665.75
405.317	1629.75
405.541	1701.75
405.765	1712.75
405.988	1675.75
406.212	1701.75
406.436	1679.75
406.66	1753.75
406.883	1745.75
407.107	1820.75
407.331	1927.75
407.555	1964.75
407.778	1981.75
408.002	1907.75
408.226	1837.75
408.449	1833.75
408.673	1780.75
408.896	1776.75
409.12	1715.75
409.344	1720.75
409.567	1713.75
409.791	1736.75
410.014	1718.75
410.238	1694.75
410.461	1682.75
410.685	1701.75
410.908	1657.75
411.132	1655.75
411.355	1647.75
411.578	1635.75
411.802	1644.75
412.025	1596.75
412.249	1648.75
412.472	1602.75
412.695	1581.75
412.919	1558.75
413.142	1585.75
413.365	1541.75
413.589	1550.75
413.812	1525.75
414.035	1550.75
414.258	1530.75
414.482	1520.75
414.705	1543.75
414.928	1533.75
415.151	1562.75
415.374	1548.75
415.597	1525.75
415.821	1514.75
416.044	1554.75
416.267	1504.75
416.49	1480.75
416.713	1466.75
416.936	1510.75
417.159	1483.75
417.382	1467.75
417.605	1472.75
417.828	1477.75
418.051	1487.75
418.274	1499.75
418.497	1530.75
418.72	1510.75
418.943	1509.75
419.166	1641.75
419.389	1716.75
419.611	1665.75
419.834	1626.75
420.057	1560.75
420.28	1520.75
420.503	1472.75
420.726	1487.75
420.948	1461.75
421.171	1507.75
421.394	1494.75
421.617	1481.75
421.839	1482.75
422.062	1501.75
422.285	1451.75
422.507	1523.75
422.73	1502.75
422.953	1503.75
423.175	1526.75
423.398	1536.75
423.621	1506.75
423.843	1532.75
424.066	1564.75
424.288	1540.75
424.511	1542.75
424.733	1501.75
424.956	1499.75
425.178	1499.75
425.401	1516.75
425.623	1492.75
425.846	1448.75
426.068	1464.75
426.291	1457.75
426.513	1418.75
426.735	1422.75
426.958	1441.75
427.18	1370.75
427.402	1373.75
427.625	1355.75
427.847	1368.75
428.069	1360.75
428.292	1386.75
428.514	1359.75
428.736	1363.75
428.958	1355.75
429.181	1353.75
429.403	1334.75
429.625	1325.75
429.847	1334.75
430.069	1330.75
430.292	1350.75
430.514	1326.75
430.736	1364.75
430.958	1353.75
431.18	1377.75
431.402	1366.75
431.624	1350.75
431.846	1397.75
432.068	1364.75
432.29	1396.75
432.512	1384.75
432.734	1413.75
432.956	1360.75
433.178	1375.75
433.4	1362.75
433.622	1404.75
433.844	1396.75
434.066	1408.75
434.287	1441.75
434.509	1465.75
434.731	1479.75
434.953	1513.75
435.175	1512.75
435.397	1512.75
435.618	1479.75
435.84	1435.75
436.062	1387.75
436.284	1363.75
436.505	1366.75
436.727	1410.75
436.949	1385.75
437.17	1363.75
437.392	1340.75
437.614	1335.75
437.835	1324.75
438.057	1288.75
438.278	1257.75
438.5	1292.75
438.721	1274.75
438.943	1308.75
439.165	1325.75
439.386	1331.75
439.608	1325.75
439.829	1342.75
440.05	1318.75
440.272	1335.75
440.493	1322.75
440.715	1348.75
440.936	1404.75
441.158	1414.75
441.379	1447.75
441.6	1486.75
441.822	1518.75
442.043	1507.75
442.264	1483.75
442.486	1483.75
442.707	1456.75
442.928	1419.75
443.149	1468.75
443.371	1485.75
443.592	1460.75
443.813	1465.75
444.034	1460.75
444.255	1523.75
444.476	1558.75
444.698	1635.75
444.919	1681.75
445.14	1794.75
445.361	1628.75
445.582	1496.75
445.803	1465.75
446.024	1403.75
446.245	1382.75
446.466	1416.75
446.687	1347.75
446.908	1356.75
447.129	1299.75
447.35	1319.75
447.571	1291.75
447.792	1286.75
448.013	1237.75
448.234	1228.75
448.455	1235.75
448.675	1232.75
448.896	1239.75
449.117	1207.75
449.338	1203.75
449.559	1211.75
449.779	1210.75
450	1198.75
450.221	1220.75
450.442	1244.75
450.662	1208.75
450.883	1249.75
451.104	1246.75
451.324	1211.75
451.545	1243.75
451.766	1220.75
451.986	1219.75
452.207	1197.75
452.428	1192.75
452.648	1178.75
452.869	1169.75
453.089	1186.75
453.31	1210.75
453.53	1176.75
453.751	1164.75
453.971	1174.75
454.192	1152.75
454.412	1149.75
454.633	1178.75
454.853	1148.75
455.073	1119.75
455.294	1132.75
455.514	1171.75
455.734	1156.75
455.955	1113.75
456.175	1136.75
456.395	1138.75
456.616	1158.75
456.836	1170.75
457.056	1125.75
457.276	1119.75
457.497	1169.75
457.717	1158.75
457.937	1160.75
458.157	1177.75
458.377	1198.75
458.598	1210.75
458.818	1269.75
459.038	1266.75
459.258	1305.75
459.478	1331.75
459.698	1394.75
459.918	1407.75
460.138	1445.75
460.358	1480.75
460.578	1504.75
460.798	1537.75
461.018	1576.75
461.238	1563.75
461.458	1504.75
461.678	1530.75
461.898	1564.75
462.118	1565.75
462.338	1632.75
462.558	1653.75
462.777	1721.75
462.997	1794.75
463.217	1911.75
463.437	1900.75
463.657	1824.75
463.876	1787.75
464.096	1760.75
464.316	1786.75
464.536	1735.75
464.755	1712.75
464.975	1662.75
465.195	1556.75
465.414	1492.75
465.634	1416.75
465.854	1405.75
466.073	1357.75
466.293	1353.75
466.512	1336.75
466.732	1282.75
466.951	1307.75
467.171	1294.75
467.391	1305.75
467.61	1255.75
467.829	1252.75
468.049	1242.75
468.268	1241.75
468.488	1184.75
468.707	1236.75
468.927	1245.75
469.146	1244.75
469.365	1232.75
469.585	1252.75
469.804	1297.75
470.023	1280.75
470.243	1288.75
470.462	1366.75
470.681	1317.75
470.901	1315.75
471.12	1310.75
471.339	1292.75
471.558	1307.75
471.777	1239.75
471.997	1242.75
472.216	1246.75
472.435	1235.75
472.654	1209.75
472.873	1212.75
473.092	1244.75
473.311	1219.75
473.53	1246.75
473.749	1193.75
473.968	1244.75
474.187	1225.75
474.406	1200.75
474.625	1237.75
474.844	1205.75
475.063	1234.75
475.282	1210.75
475.501	1271.75
475.72	1254.75
475.939	1239.75
476.158	1268.75
476.377	1323.75
476.596	1309.75
476.814	1330.75
477.033	1332.75
477.252	1332.75
477.471	1374.75
477.69	1385.75
477.908	1399.75
478.127	1464.75
478.346	1415.75
478.564	1468.75
478.783	1477.75
479.002	1506.75
479.22	1538.75
479.439	1528.75
479.658	1521.75
479.876	1574.75
480.095	1573.75
480.313	1573.75
480.532	1625.75
480.751	1620.75
480.969	1595.75
481.188	1546.75
481.406	1525.75
481.624	1504.75
481.843	1477.75
482.061	1491.75
482.28	1469.75
482.498	1471.75
482.717	1453.75
482.935	1446.75
483.153	1466.75
483.372	1495.75
483.59	1473.75
483.808	1483.75
484.027	1530.75
484.245	1541.75
484.463	1547.75
484.681	1570.75
484.9	1567.75
485.118	1632.75
485.336	1592.75
485.554	1612.75
485.772	1653.75
485.99	1624.75
486.209	1604.75
486.427	1636.75
486.645	1609.75
486.863	1624.75
487.081	1619.75
487.299	1578.75
487.517	1586.75
487.735	1574.75
487.953	1591.75
488.171	1590.75
488.389	1609.75
488.607	1563.75
488.825	1571.75
489.043	1530.75
489.261	1534.75
489.479	1534.75
489.696	1527.75
489.914	1548.75
490.132	1533.75
490.35	1522.75
490.568	1525.75
490.786	1526.75
491.003	1524.75
491.221	1522.75
491.439	1526.75
491.657	1513.75
491.874	1559.75
492.092	1536.75
492.31	1539.75
492.527	1523.75
492.745	1545.75
492.963	1526.75
493.18	1496.75
493.398	1484.75
493.615	1536.75
493.833	1545.75
494.05	1545.75
494.268	1572.75
494.485	1534.75
494.703	1568.75
494.92	1567.75
495.138	1539.75
495.355	1563.75
495.573	1592.75
495.79	1560.75
496.008	1608.75
496.225	1617.75
496.442	1596.75
496.66	1627.75
496.877	1674.75
497.094	1670.75
497.312	1708.75
497.529	1716.75
497.746	1737.75
497.963	1818.75
498.181	1900.75
498.398	1949.75
498.615	2018.75
498.832	2174.75
499.049	2288.75
499.267	2429.75
499.484	2645.75
499.701	2803.75
499.918	3117.75
500.135	3409.75
500.352	3777.75
500.569	3907.75
500.786	3815.75
501.003	3598.75
501.22	3366.75
501.437	3066.75
501.654	2802.75
501.871	2563.75
502.088	2397.75
502.305	2304.75
502.522	2123.75
502.739	2081.75
502.956	1997.75
503.172	1940.75
503.389	1853.75
503.606	1829.75
503.823	1777.75
504.04	1764.75
504.256	1748.75
504.473	1765.75
504.69	1745.75
504.907	1737.75
505.123	1675.75
505.34	1607.75
505.557	1485.75
505.773	1481.75
505.99	1464.75
506.207	1423.75
506.423	1398.75
506.64	1370.75
506.856	1378.75
507.073	1382.75
507.289	1397.75
507.506	1312.75
507.722	1306.75
507.939	1330.75
508.155	1298.75
508.372	1332.75
508.588	1324.75
508.805	1312.75
509.021	1309.75
509.238	1261.75
509.454	1266.75
509.67	1253.75
509.887	1245.75
510.103	1249.75
510.319	1221.75
510.536	1236.75
510.752	1227.75
510.968	1248.75
511.184	1202.75
511.401	1210.75
511.617	1234.75
511.833	1233.75
512.049	1215.75
512.265	1201.75
512.481	1225.75
512.698	1207.75
512.914	1193.75
513.13	1205.75
513.346	1196.75
513.562	1214.75
513.778	1242.75
513.994	1236.75
514.21	1230.75
514.426	1224.75
514.642	1214.75
514.858	1219.75
515.074	1220.75
515.29	1255.75
515.506	1268.75
515.721	1284.75
515.937	1307.75
516.153	1341.75
516.369	1334.75
516.585	1385.75
516.801	1383.75
517.016	1429.75
517.232	1468.75
517.448	1559.75
517.664	1588.75
517.879	1582.75
518.095	1607.75
518.311	1539.75
518.527	1538.75
518.742	1495.75
518.958	1450.75
519.173	1376.75
519.389	1344.75
519.605	1355.75
519.82	1283.75
520.036	1287.75
520.251	1240.75
520.467	1235.75
520.682	1243.75
520.898	1212.75
521.113	1208.75
521.329	1186.75
521.544	1166.75
521.76	1178.75
521.975	1147.75
522.19	1160.75
522.406	1129.75
522.621	1131.75
522.836	1128.75
523.052	1122.75
523.267	1143.75
523.482	1112.75
523.698	1109.75
523.913	1090.75
524.128	1122.75
524.343	1092.75
524.559	1121.75
524.774	1145.75
524.989	1087.75
525.204	1092.75
525.419	1064.75
525.634	1101.75
525.849	1109.75
526.064	1081.75
526.28	1100.75
526.495	1076.75
526.71	1082.75
526.925	1064.75
527.14	1072.75
527.355	1078.75
527.57	1055.75
527.785	1056.75
527.999	1039.75
528.214	1058.75
528.429	1077.75
528.644	1083.75
528.859	1058.75
529.074	1056.75
529.289	1050.75
529.503	1077.75
529.718	1047.75
529.933	1067.75
530.148	1021.75
530.363	1076.75
530.577	1034.75
530.792	1050.75
531.007	1051.75
531.221	1078.75
531.436	1055.75
531.651	1064.75
531.865	1052.75
532.08	1042.75
532.295	1078.75
532.509	1072.75
532.724	1046.75
532.938	1064.75
533.153	1069.75
533.367	1080.75
533.582	1040.75
533.796	1066.75
534.011	1040.75
534.225	1051.75
534.44	1047.75
534.654	1035.75
534.868	1014.75
535.083	1037.75
535.297	1014.75
535.511	1013.75
535.726	1044.75
535.94	990.75
536.154	980.75
536.369	990.75
536.583	989.75
536.797	964.75
537.011	983.75
537.225	975.75
537.44	978.75
537.654	972.75
537.868	976.75
538.082	969.75
538.296	981.75
538.51	943.75
538.724	997.75
538.938	948.75
539.153	955.75
539.367	971.75
539.581	948.75
539.795	945.75
540.009	950.75
540.222	940.75
540.436	960.75
540.65	954.75
540.864	950.75
541.078	938.75
541.292	964.75
541.506	968.75
541.72	948.75
541.934	965.75
542.147	944.75
542.361	938.75
542.575	914.75
542.789	915.75
543.002	931.75
543.216	921.75
543.43	923.75
543.644	929.75
543.857	932.75
544.071	941.75
544.285	923.75
544.498	925.75
544.712	918.75
544.925	953.75
545.139	987.75
545.352	961.75
545.566	955.75
545.779	954.75
545.993	960.75
546.206	932.75
546.42	942.75
546.633	924.75
546.847	933.75
547.06	938.75
547.274	926.75
547.487	934.75
547.7	925.75
547.914	973.75
548.127	964.75
548.34	974.75
548.554	948.75
548.767	973.75
548.98	949.75
549.193	956.75
549.407	944.75
549.62	967.75
549.833	960.75
550.046	948.75
550.259	968.75
550.473	936.75
550.686	957.75
550.899	964.75
551.112	917.75
551.325	934.75
551.538	948.75
551.751	942.75
551.964	948.75
552.177	935.75
552.39	943.75
552.603	966.75
552.816	1022.75
553.029	999.75
553.242	1034.75
553.455	1025.75
553.667	1002.75
553.88	993.75
554.093	969.75
554.306	974.75
554.519	923.75
554.732	952.75
554.944	905.75
555.157	916.75
555.37	898.75
555.583	894.75
555.795	879.75
556.008	842.75
556.221	834.75
556.433	858.75
556.646	820.75
556.859	836.75
557.071	826.75
557.284	783.75
557.496	823.75
557.709	820.75
557.921	840.75
558.134	810.75
558.346	815.75
558.559	808.75
558.771	791.75
558.984	812.75
559.196	807.75
559.409	804.75
559.621	801.75
559.833	791.75
560.046	802.75
560.258	787.75
560.47	778.75
560.683	792.75
560.895	785.75
561.107	786.75
561.32	793.75
561.532	772.75
561.744	801.75
561.956	777.75
562.168	790.75
562.381	790.75
562.593	801.75
562.805	774.75
563.017	788.75
563.229	784.75
563.441	780.75
563.653	821.75
563.865	807.75
564.077	805.75
564.289	833.75
564.501	825.75
564.713	836.75
564.925	853.75
565.137	872.75
565.349	874.75
565.561	910.75
565.773	957.75
565.985	982.75
566.197	1010.75
566.408	1097.75
566.62	1133.75
566.832	1187.75
567.044	1195.75
567.255	1203.75
567.467	1275.75
567.679	1306.75
567.891	1346.75
568.102	1356.75
568.314	1270.75
568.526	1204.75
568.737	1132.75
568.949	1047.75
569.161	998.75
569.372	949.75
569.584	906.75
569.795	880.75
570.007	822.75
570.218	823.75
570.43	828.75
570.641	820.75
570.853	807.75
571.064	792.75
571.276	817.75
571.487	771.75
571.698	737.75
571.91	725.75
572.121	715.75
572.333	709.75
572.544	691.75
572.755	672.75
572.966	693.75
573.178	677.75
573.389	642.75
573.6	675.75
573.811	682.75
574.023	634.75
574.234	622.75
574.445	662.75
574.656	649.75
574.867	653.75
575.078	637.75
575.289	643.75
575.501	628.75
575.712	612.75
575.923	612.75
576.134	606.75
576.345	597.75
576.556	596.75
576.767	609.75
576.978	600.75
577.188	593.75
577.399	588.75
577.61	597.75
577.821	594.75
578.032	579.75
578.243	590.75
578.454	576.75
578.665	583.75
578.875	581.75
579.086	576.75
579.297	570.75
579.508	558.75
579.718	576.75
579.929	591.75
580.14	559.75
580.35	552.75
580.561	563.75
580.772	576.75
580.982	551.75
581.193	553.75
581.403	568.75
581.614	551.75
581.825	554.75
582.035	546.75
582.246	526.75
582.456	522.75
582.667	561.75
582.877	546.75
583.087	537.75
583.298	515.75
583.508	536.75
583.719	554.75
583.929	531.75
584.139	520.75
584.35	527.75
584.56	523.75
584.77	512.75
584.981	518.75
585.191	514.75
585.401	525.75
585.611	520.75
585.821	514.75
586.032	529.75
586.242	524.75
586.452	510.75
586.662	532.75
586.872	520.75
587.082	512.75
587.292	513.75
587.502	501.75
587.713	505.75
587.923	521.75
588.133	498.75
588.343	489.75
588.553	498.75
588.762	500.75
588.972	508.75
589.182	518.75
589.392	545.75
589.602	510.75
589.812	524.75
590.022	519.75
590.232	514.75
590.441	540.75
590.651	510.75
590.861	518.75
591.071	526.75
591.281	518.75
591.49	543.75
591.7	542.75
591.91	538.75
592.119	578.75
592.329	569.75
592.539	591.75
592.748	578.75
592.958	596.75
593.167	598.75
593.377	602.75
593.587	595.75
593.796	614.75
594.006	625.75
594.215	624.75
594.424	616.75
594.634	585.75
594.843	583.75
595.053	568.75
595.262	579.75
595.472	545.75
595.681	517.75
595.89	532.75
596.1	508.75
596.309	497.75
596.518	474.75
596.727	498.75
596.937	485.75
597.146	453.75
597.355	488.75
597.564	451.75
597.774	461.75
597.983	458.75
598.192	460.75
598.401	464.75
598.61	432.75
598.819	455.75
599.028	440.75
599.237	442.75
599.446	417.75
599.655	449.75
599.864	432.75
600.073	436.75
600.282	414.75
600.491	408.75
600.7	432.75
600.909	429.75
601.118	416.75
601.327	404.75
601.536	416.75
601.745	439.75
601.953	416.75
602.162	404.75
602.371	405.75
602.58	402.75
602.789	427.75
602.997	410.75
603.206	407.75
603.415	405.75
603.623	396.75
603.832	390.75
604.041	397.75
604.249	394.75
604.458	395.75
604.666	396.75
604.875	406.75
605.084	410.75
605.292	389.75
605.501	404.75
605.709	389.75
605.918	393.75
606.126	398.75
606.334	389.75
606.543	390.75
606.751	353.75
606.96	382.75
607.168	383.75
607.376	373.75
607.585	397.75
607.793	381.75
608.001	406.75
608.21	381.75
608.418	381.75
608.626	370.75
608.834	379.75
609.043	371.75
609.251	377.75
609.459	379.75
609.667	379.75
609.875	370.75
610.083	361.75
610.291	366.75
610.499	374.75
610.707	359.75
610.916	364.75
611.124	379.75
611.332	370.75
611.54	361.75
611.748	372.75
611.955	364.75
612.163	370.75
612.371	365.75
612.579	318.75
612.787	353.75
612.995	362.75
613.203	360.75
613.411	369.75
613.618	372.75
613.826	350.75
614.034	374.75
614.242	346.75
614.449	357.75
614.657	340.75
614.865	368.75
615.072	354.75
615.28	342.75
615.488	353.75
615.695	347.75
615.903	357.75
616.111	342.75
616.318	357.75
616.526	338.75
616.733	356.75
616.941	378.75
617.148	360.75
617.356	370.75
617.563	354.75
617.771	369.75
617.978	364.75
618.185	346.75
618.393	351.75
618.6	351.75
618.807	344.75
619.015	344.75
619.222	347.75
619.429	333.75
619.637	334.75
619.844	344.75
620.051	337.75
620.258	344.75
620.466	344.75
620.673	318.75
620.88	316.75
621.087	328.75
621.294	346.75
621.501	327.75
621.708	332.75
621.915	335.75
622.122	333.75
622.329	322.75
622.536	348.75
622.743	319.75
622.95	330.75
623.157	323.75
623.364	329.75
623.571	320.75
623.778	310.75
623.985	328.75
624.192	333.75
624.399	326.75
624.606	327.75
624.812	327.75
625.019	341.75
625.226	327.75
625.433	325.75
625.639	301.75
625.846	278.75
626.053	292.75
626.259	299.75
626.466	297.75
626.673	281.75
626.879	307.75
627.086	295.75
627.293	293.75
627.499	294.75
627.706	292.75
627.912	297.75
628.119	299.75
628.325	307.75
628.532	297.75
628.738	291.75
628.945	288.75
629.151	313.75
629.357	285.75
629.564	294.75
629.77	297.75
629.976	286.75
630.183	291.75
630.389	291.75
630.595	283.75
630.802	288.75
631.008	293.75
631.214	275.75
631.42	266.75
631.627	281.75
631.833	285.75
632.039	286.75
632.245	280.75
632.451	278.75
632.657	286.75
632.863	277.75
633.069	276.75
633.275	272.75
633.481	257.75
633.688	252.75
633.893	257.75
634.099	275.75
634.305	276.75
634.511	265.75
634.717	277.75
634.923	269.75
635.129	265.75
635.335	269.75
635.541	265.75
635.747	267.75
635.952	263.75
636.158	243.75
636.364	262.75
636.57	256.75
636.775	259.75
636.981	255.75
637.187	271.75
637.392	273.75
637.598	269.75
637.804	257.75
638.009	268.75
638.215	275.75
638.421	260.75
638.626	257.75
638.832	272.75
639.037	272.75
639.243	244.75
639.448	264.75
639.654	285.75
639.859	247.75
640.065	249.75
640.27	260.75
640.475	242.75
640.681	250.75
640.886	251.75
641.091	248.75
641.297	249.75
641.502	222.75
641.707	250.75
641.913	246.75
642.118	258.75
642.323	254.75
642.528	252.75
642.733	258.75
642.939	253.75
643.144	242.75
643.349	227.75
643.554	248.75
643.759	260.75
643.964	245.75
644.169	229.75
644.374	258.75
644.579	242.75
644.784	246.75
644.989	262.75
645.194	249.75
645.399	246.75
645.604	239.75
645.809	241.75
646.014	253.75
646.219	259.75
646.423	235.75
646.628	247.75
646.833	256.75
647.038	260.75
647.243	253.75
647.447	260.75
647.652	270.75
647.857	255.75
648.062	262.75
648.266	264.75
648.471	258.75
648.676	274.75
648.88	283.75
649.085	266.75
649.289	265.75
649.494	262.75
649.698	257.75
649.903	258.75
650.107	272.75
650.312	245.75
650.516	255.75
650.721	264.75
650.925	260.75
651.13	253.75
651.334	246.75
651.539	235.75
651.743	250.75
651.947	250.75
652.152	241.75
652.356	233.75
652.56	254.75
652.764	214.75
652.969	229.75
653.173	237.75
653.377	227.75
653.581	225.75
653.785	237.75
653.99	217.75
654.194	237.75
654.398	233.75
654.602	255.75
654.806	254.75
655.01	258.75
655.214	259.75
655.418	286.75
655.622	280.75
655.826	286.75
656.03	294.75
656.234	301.75
656.438	350.75
656.642	338.75
656.846	322.75
657.049	288.75
657.253	269.75
657.457	242.75
657.661	215.75
657.865	202.75
658.068	185.75
658.272	166.75
658.476	167.75
658.68	165.75
658.883	149.75
659.087	145.75
659.291	136.75
659.494	139.75
659.698	117.75
659.901	116.75
660.105	115.75
660.309	120.75
660.512	128.75
660.716	118.75
660.919	114.75
661.123	107.75
661.326	101.75
661.53	97.75
661.733	101.75
661.936	102.75
662.14	91.75
662.343	94.75
662.546	103.75
662.75	80.75
662.953	100.75
663.156	100.75
663.36	75.75
663.563	88.75
663.766	73.75
663.969	82.75
664.173	89.75
664.376	81.75
664.579	81.75
664.782	76.75
664.985	86.75
665.188	78.75
665.391	58.75
665.594	68.75
665.797	80.75
666	93.75
666.203	76.75
666.406	79.75
666.609	88.75
666.812	83.75
667.015	79.75
667.218	84.75
667.421	85.75
667.624	67.75
667.827	88.75
668.03	86.75
668.232	98.75
668.435	85.75
668.638	89.75
668.841	76.75
669.043	74.75
669.246	82.75
669.449	74.75
669.651	78.75
669.854	79.75
670.057	90.75
670.259	85.75
670.462	80.75
670.665	68.75
670.867	90.75
671.07	91.75
671.272	87.75
671.475	73.75
671.677	89.75
671.88	93.75
672.082	84.75
672.284	83.75
672.487	78.75
672.689	81.75
672.892	82.75
