Data from NiCl2@0.0625M.TitratingCurve.Agarose3%dH2O.NegLispCup.LampEnergy10.LIBS07252019_HRD10591_18-33-57-576.txt Node
Date: Thu Jul 25 18:33:57 EDT 2019
User: cochatt
Spectrometer: HR+D1059
Trigger mode: 1
Integration Time (sec): 1.000000E-1
Scans to average: 1
Electric dark correction enabled: true
Nonlinearity correction enabled: false
Boxcar width: 0
XAxis mode: Wavelengths
Number of Pixels in Spectrum: 2048
>>>>>Begin Spectral Data<<<<<
223.165	-29.88
223.4	-29.88
223.635	-29.88
223.869	-6.88
224.104	-14.88
224.338	-16.88
224.573	-21.88
224.808	-8.88
225.042	-16.88
225.277	-2.88
225.511	-14.88
225.746	10.12
225.98	14.12
226.215	7.12
226.449	10.12
226.683	27.12
226.918	25.12
227.152	40.12
227.387	39.12
227.621	30.12
227.856	32.12
228.09	46.12
228.324	57.12
228.559	54.12
228.793	86.12
229.027	142.12
229.262	149.12
229.496	159.12
229.73	158.12
229.964	161.12
230.199	179.12
230.433	175.12
230.667	192.12
230.901	191.12
231.136	171.12
231.37	173.12
231.604	185.12
231.838	179.12
232.072	195.12
232.306	205.12
232.541	199.12
232.775	194.12
233.009	214.12
233.243	209.12
233.477	213.12
233.711	183.12
233.945	214.12
234.179	213.12
234.413	215.12
234.647	209.12
234.881	217.12
235.115	216.12
235.349	207.12
235.583	203.12
235.817	222.12
236.051	224.12
236.285	209.12
236.519	221.12
236.753	209.12
236.987	226.12
237.221	230.12
237.455	233.12
237.689	240.12
237.922	246.12
238.156	222.12
238.39	238.12
238.624	240.12
238.858	248.12
239.091	264.12
239.325	258.12
239.559	272.12
239.793	264.12
240.027	259.12
240.26	264.12
240.494	263.12
240.728	271.12
240.961	264.12
241.195	283.12
241.429	282.12
241.662	292.12
241.896	297.12
242.13	317.12
242.363	296.12
242.597	310.12
242.83	289.12
243.064	312.12
243.298	313.12
243.531	314.12
243.765	314.12
243.998	309.12
244.232	306.12
244.465	305.12
244.699	329.12
244.932	329.12
245.166	318.12
245.399	341.12
245.633	339.12
245.866	330.12
246.099	345.12
246.333	357.12
246.566	343.12
246.8	329.12
247.033	348.12
247.266	342.12
247.5	349.12
247.733	364.12
247.966	349.12
248.2	373.12
248.433	371.12
248.666	385.12
248.899	388.12
249.133	378.12
249.366	368.12
249.599	385.12
249.832	385.12
250.066	396.12
250.299	394.12
250.532	409.12
250.765	405.12
250.998	415.12
251.231	425.12
251.465	445.12
251.698	410.12
251.931	423.12
252.164	431.12
252.397	437.12
252.63	425.12
252.863	423.12
253.096	435.12
253.329	471.12
253.562	417.12
253.795	458.12
254.028	452.12
254.261	450.12
254.494	459.12
254.727	459.12
254.96	400.12
255.193	457.12
255.426	458.12
255.659	457.12
255.892	459.12
256.124	469.12
256.357	459.12
256.59	488.12
256.823	464.12
257.056	469.12
257.289	480.12
257.521	495.12
257.754	488.12
257.987	483.12
258.22	471.12
258.452	493.12
258.685	500.12
258.918	516.12
259.151	502.12
259.383	490.12
259.616	492.12
259.849	503.12
260.081	512.12
260.314	508.12
260.547	521.12
260.779	523.12
261.012	527.12
261.244	521.12
261.477	524.12
261.71	534.12
261.942	550.12
262.175	539.12
262.407	536.12
262.64	519.12
262.872	522.12
263.105	566.12
263.337	554.12
263.57	553.12
263.802	543.12
264.035	554.12
264.267	542.12
264.499	574.12
264.732	586.12
264.964	563.12
265.197	555.12
265.429	561.12
265.661	593.12
265.894	586.12
266.126	591.12
266.358	615.12
266.591	586.12
266.823	585.12
267.055	605.12
267.287	623.12
267.52	585.12
267.752	616.12
267.984	613.12
268.216	611.12
268.448	611.12
268.681	594.12
268.913	599.12
269.145	607.12
269.377	615.12
269.609	627.12
269.841	632.12
270.073	618.12
270.306	625.12
270.538	633.12
270.77	632.12
271.002	633.12
271.234	650.12
271.466	649.12
271.698	659.12
271.93	670.12
272.162	659.12
272.394	651.12
272.626	657.12
272.858	639.12
273.09	669.12
273.322	692.12
273.553	686.12
273.785	673.12
274.017	663.12
274.249	693.12
274.481	692.12
274.713	688.12
274.945	681.12
275.176	698.12
275.408	706.12
275.64	709.12
275.872	682.12
276.104	689.12
276.335	714.12
276.567	688.12
276.799	706.12
277.031	734.12
277.262	724.12
277.494	725.12
277.726	708.12
277.957	722.12
278.189	714.12
278.421	727.12
278.652	731.12
278.884	714.12
279.115	734.12
279.347	731.12
279.579	739.12
279.81	742.12
280.042	761.12
280.273	784.12
280.505	767.12
280.736	767.12
280.968	768.12
281.199	781.12
281.431	789.12
281.662	786.12
281.894	784.12
282.125	766.12
282.356	803.12
282.588	805.12
282.819	782.12
283.051	805.12
283.282	816.12
283.513	797.12
283.745	789.12
283.976	793.12
284.207	795.12
284.439	831.12
284.67	856.12
284.901	840.12
285.132	846.12
285.364	813.12
285.595	840.12
285.826	854.12
286.057	837.12
286.288	838.12
286.52	847.12
286.751	840.12
286.982	838.12
287.213	854.12
287.444	853.12
287.675	853.12
287.906	845.12
288.138	870.12
288.369	871.12
288.6	870.12
288.831	883.12
289.062	859.12
289.293	882.12
289.524	861.12
289.755	857.12
289.986	874.12
290.217	876.12
290.448	875.12
290.679	871.12
290.91	876.12
291.141	862.12
291.371	901.12
291.602	861.12
291.833	897.12
292.064	909.12
292.295	887.12
292.526	889.12
292.757	877.12
292.987	898.12
293.218	904.12
293.449	900.12
293.68	917.12
293.91	895.12
294.141	901.12
294.372	910.12
294.603	886.12
294.833	935.12
295.064	888.12
295.295	912.12
295.525	898.12
295.756	910.12
295.987	897.12
296.217	915.12
296.448	929.12
296.679	945.12
296.909	958.12
297.14	950.12
297.37	935.12
297.601	924.12
297.831	961.12
298.062	975.12
298.292	948.12
298.523	990.12
298.753	988.12
298.984	971.12
299.214	925.12
299.445	949.12
299.675	968.12
299.905	991.12
300.136	958.12
300.366	967.12
300.597	974.12
300.827	1000.12
301.057	985.12
301.288	1018.12
301.518	1006.12
301.748	987.12
301.979	1045.12
302.209	1041.12
302.439	1040.12
302.669	1024.12
302.9	996.12
303.13	1002.12
303.36	1024.12
303.59	1007.12
303.82	1005.12
304.051	1027.12
304.281	1041.12
304.511	1005.12
304.741	1004.12
304.971	1055.12
305.201	1021.12
305.431	1026.12
305.661	1024.12
305.891	1000.12
306.121	1009.12
306.352	1007.12
306.582	999.12
306.812	989.12
307.042	992.12
307.272	1008.12
307.502	1000.12
307.731	994.12
307.961	1027.12
308.191	978.12
308.421	1042.12
308.651	998.12
308.881	975.12
309.111	978.12
309.341	986.12
309.571	1013.12
309.8	1017.12
310.03	1021.12
310.26	997.12
310.49	1042.12
310.72	1023.12
310.949	1000.12
311.179	1027.12
311.409	1028.12
311.639	1029.12
311.868	999.12
312.098	1058.12
312.328	1051.12
312.557	1051.12
312.787	1013.12
313.017	1073.12
313.246	1065.12
313.476	1069.12
313.706	1095.12
313.935	1096.12
314.165	1079.12
314.394	1101.12
314.624	1093.12
314.853	1073.12
315.083	1106.12
315.312	1104.12
315.542	1095.12
315.771	1093.12
316.001	1100.12
316.23	1064.12
316.46	1054.12
316.689	1087.12
316.919	1076.12
317.148	1073.12
317.377	1093.12
317.607	1065.12
317.836	1091.12
318.065	1072.12
318.295	1055.12
318.524	1051.12
318.753	1059.12
318.983	1094.12
319.212	1057.12
319.441	1093.12
319.67	1072.12
319.9	1061.12
320.129	1097.12
320.358	1093.12
320.587	1081.12
320.816	1069.12
321.046	1108.12
321.275	1065.12
321.504	1089.12
321.733	1075.12
321.962	1068.12
322.191	1086.12
322.42	1090.12
322.649	1109.12
322.878	1069.12
323.108	1111.12
323.337	1106.12
323.566	1107.12
323.795	1121.12
324.024	1121.12
324.253	1110.12
324.482	1115.12
324.71	1123.12
324.939	1128.12
325.168	1144.12
325.397	1115.12
325.626	1138.12
325.855	1138.12
326.084	1194.12
326.313	1169.12
326.542	1205.12
326.77	1176.12
326.999	1183.12
327.228	1180.12
327.457	1179.12
327.686	1191.12
327.914	1193.12
328.143	1169.12
328.372	1175.12
328.6	1161.12
328.829	1173.12
329.058	1191.12
329.287	1185.12
329.515	1192.12
329.744	1170.12
329.972	1201.12
330.201	1200.12
330.43	1224.12
330.658	1246.12
330.887	1249.12
331.115	1206.12
331.344	1223.12
331.572	1217.12
331.801	1292.12
332.03	1301.12
332.258	1255.12
332.486	1320.12
332.715	1359.12
332.943	1389.12
333.172	1399.12
333.4	1466.12
333.629	1492.12
333.857	1551.12
334.085	1510.12
334.314	1497.12
334.542	1502.12
334.771	1477.12
334.999	1444.12
335.227	1487.12
335.455	1471.12
335.684	1455.12
335.912	1441.12
336.14	1464.12
336.369	1385.12
336.597	1448.12
336.825	1405.12
337.053	1408.12
337.281	1372.12
337.51	1353.12
337.738	1394.12
337.966	1339.12
338.194	1295.12
338.422	1301.12
338.65	1302.12
338.878	1301.12
339.106	1281.12
339.334	1294.12
339.562	1297.12
339.79	1245.12
340.018	1255.12
340.246	1224.12
340.474	1252.12
340.702	1230.12
340.93	1241.12
341.158	1235.12
341.386	1221.12
341.614	1262.12
341.842	1229.12
342.07	1218.12
342.298	1248.12
342.526	1254.12
342.754	1217.12
342.981	1241.12
343.209	1258.12
343.437	1307.12
343.665	1365.12
343.893	1410.12
344.12	1491.12
344.348	1420.12
344.576	1409.12
344.804	1330.12
345.031	1278.12
345.259	1277.12
345.487	1278.12
345.714	1235.12
345.942	1232.12
346.17	1188.12
346.397	1204.12
346.625	1202.12
346.853	1173.12
347.08	1154.12
347.308	1189.12
347.535	1182.12
347.763	1203.12
347.99	1215.12
348.218	1216.12
348.445	1201.12
348.673	1157.12
348.9	1190.12
349.128	1156.12
349.355	1181.12
349.583	1155.12
349.81	1162.12
350.037	1162.12
350.265	1149.12
350.492	1123.12
350.72	1162.12
350.947	1143.12
351.174	1147.12
351.402	1114.12
351.629	1141.12
351.856	1143.12
352.083	1146.12
352.311	1130.12
352.538	1133.12
352.765	1153.12
352.992	1112.12
353.22	1116.12
353.447	1125.12
353.674	1149.12
353.901	1135.12
354.128	1135.12
354.355	1120.12
354.583	1135.12
354.81	1128.12
355.037	1145.12
355.264	1156.12
355.491	1167.12
355.718	1136.12
355.945	1157.12
356.172	1151.12
356.399	1138.12
356.626	1155.12
356.853	1145.12
357.08	1165.12
357.307	1146.12
357.534	1158.12
357.761	1162.12
357.988	1153.12
358.215	1169.12
358.441	1151.12
358.668	1127.12
358.895	1138.12
359.122	1139.12
359.349	1130.12
359.576	1167.12
359.802	1122.12
360.029	1153.12
360.256	1153.12
360.483	1164.12
360.709	1131.12
360.936	1149.12
361.163	1156.12
361.39	1175.12
361.616	1169.12
361.843	1139.12
362.07	1145.12
362.296	1143.12
362.523	1129.12
362.749	1167.12
362.976	1159.12
363.203	1131.12
363.429	1144.12
363.656	1163.12
363.882	1159.12
364.109	1179.12
364.335	1138.12
364.562	1112.12
364.788	1153.12
365.015	1155.12
365.241	1135.12
365.468	1135.12
365.694	1151.12
365.92	1144.12
366.147	1145.12
366.373	1130.12
366.599	1164.12
366.826	1171.12
367.052	1142.12
367.278	1169.12
367.505	1146.12
367.731	1161.12
367.957	1152.12
368.184	1176.12
368.41	1167.12
368.636	1143.12
368.862	1184.12
369.089	1199.12
369.315	1169.12
369.541	1197.12
369.767	1195.12
369.993	1185.12
370.219	1210.12
370.445	1215.12
370.672	1212.12
370.898	1206.12
371.124	1261.12
371.35	1277.12
371.576	1234.12
371.802	1279.12
372.028	1239.12
372.254	1239.12
372.48	1244.12
372.706	1280.12
372.932	1282.12
373.158	1288.12
373.384	1280.12
373.61	1288.12
373.835	1246.12
374.061	1229.12
374.287	1270.12
374.513	1295.12
374.739	1341.12
374.965	1347.12
375.191	1353.12
375.416	1360.12
375.642	1327.12
375.868	1301.12
376.094	1309.12
376.319	1282.12
376.545	1236.12
376.771	1251.12
376.997	1266.12
377.222	1280.12
377.448	1246.12
377.674	1252.12
377.899	1240.12
378.125	1243.12
378.35	1199.12
378.576	1221.12
378.802	1213.12
379.027	1233.12
379.253	1226.12
379.478	1232.12
379.704	1255.12
379.929	1246.12
380.155	1240.12
380.38	1234.12
380.606	1251.12
380.831	1224.12
381.057	1245.12
381.282	1215.12
381.507	1234.12
381.733	1251.12
381.958	1274.12
382.184	1265.12
382.409	1279.12
382.634	1287.12
382.86	1300.12
383.085	1347.12
383.31	1349.12
383.535	1340.12
383.761	1347.12
383.986	1376.12
384.211	1411.12
384.436	1397.12
384.662	1402.12
384.887	1435.12
385.112	1449.12
385.337	1479.12
385.562	1497.12
385.787	1465.12
386.013	1489.12
386.238	1494.12
386.463	1502.12
386.688	1533.12
386.913	1441.12
387.138	1489.12
387.363	1505.12
387.588	1441.12
387.813	1498.12
388.038	1470.12
388.263	1479.12
388.488	1500.12
388.713	1465.12
388.938	1477.12
389.163	1470.12
389.387	1476.12
389.612	1431.12
389.837	1470.12
390.062	1437.12
390.287	1492.12
390.512	1469.12
390.736	1495.12
390.961	1466.12
391.186	1514.12
391.411	1557.12
391.636	1573.12
391.86	1653.12
392.085	1661.12
392.31	1596.12
392.534	1632.12
392.759	1627.12
392.984	1563.12
393.208	1571.12
393.433	1568.12
393.658	1573.12
393.882	1565.12
394.107	1564.12
394.331	1544.12
394.556	1587.12
394.78	1597.12
395.005	1590.12
395.229	1584.12
395.454	1624.12
395.678	1671.12
395.903	1682.12
396.127	1659.12
396.352	1630.12
396.576	1563.12
396.801	1562.12
397.025	1594.12
397.249	1682.12
397.474	1689.12
397.698	1686.12
397.922	1701.12
398.147	1657.12
398.371	1691.12
398.595	1755.12
398.82	1829.12
399.044	1925.12
399.268	2075.12
399.492	2340.12
399.717	2541.12
399.941	2584.12
400.165	2411.12
400.389	2235.12
400.613	2094.12
400.837	1961.12
401.062	1909.12
401.286	1858.12
401.51	1839.12
401.734	1886.12
401.958	1869.12
402.182	1892.12
402.406	1876.12
402.63	1887.12
402.854	1907.12
403.078	1926.12
403.302	1959.12
403.526	1967.12
403.75	1993.12
403.974	1991.12
404.198	2001.12
404.422	2031.12
404.645	2048.12
404.869	2014.12
405.093	1973.12
405.317	1967.12
405.541	1976.12
405.765	1949.12
405.988	1969.12
406.212	2013.12
406.436	1970.12
406.66	2056.12
406.883	2074.12
407.107	2210.12
407.331	2273.12
407.555	2331.12
407.778	2256.12
408.002	2283.12
408.226	2237.12
408.449	2196.12
408.673	2148.12
408.896	2076.12
409.12	2058.12
409.344	2100.12
409.567	2063.12
409.791	2049.12
410.014	2026.12
410.238	2047.12
410.461	2014.12
410.685	2037.12
410.908	2006.12
411.132	1989.12
411.355	1899.12
411.578	1937.12
411.802	1907.12
412.025	1895.12
412.249	1915.12
412.472	1955.12
412.695	1910.12
412.919	1839.12
413.142	1889.12
413.365	1819.12
413.589	1914.12
413.812	1863.12
414.035	1809.12
414.258	1872.12
414.482	1840.12
414.705	1846.12
414.928	1912.12
415.151	1854.12
415.374	1828.12
415.597	1874.12
415.821	1803.12
416.044	1760.12
416.267	1777.12
416.49	1764.12
416.713	1781.12
416.936	1767.12
417.159	1776.12
417.382	1787.12
417.605	1727.12
417.828	1766.12
418.051	1766.12
418.274	1733.12
418.497	1764.12
418.72	1824.12
418.943	1809.12
419.166	1923.12
419.389	2063.12
419.611	1983.12
419.834	1876.12
420.057	1894.12
420.28	1827.12
420.503	1789.12
420.726	1737.12
420.948	1709.12
421.171	1745.12
421.394	1793.12
421.617	1760.12
421.839	1791.12
422.062	1792.12
422.285	1762.12
422.507	1823.12
422.73	1815.12
422.953	1808.12
423.175	1821.12
423.398	1833.12
423.621	1790.12
423.843	1816.12
424.066	1861.12
424.288	1825.12
424.511	1817.12
424.733	1805.12
424.956	1754.12
425.178	1778.12
425.401	1749.12
425.623	1789.12
425.846	1705.12
426.068	1732.12
426.291	1717.12
426.513	1726.12
426.735	1688.12
426.958	1705.12
427.18	1631.12
427.402	1672.12
427.625	1655.12
427.847	1634.12
428.069	1629.12
428.292	1647.12
428.514	1602.12
428.736	1611.12
428.958	1616.12
429.181	1580.12
429.403	1561.12
429.625	1592.12
429.847	1615.12
430.069	1570.12
430.292	1574.12
430.514	1566.12
430.736	1631.12
430.958	1599.12
431.18	1597.12
431.402	1611.12
431.624	1616.12
431.846	1625.12
432.068	1647.12
432.29	1643.12
432.512	1613.12
432.734	1642.12
432.956	1617.12
433.178	1626.12
433.4	1648.12
433.622	1640.12
433.844	1694.12
434.066	1703.12
434.287	1687.12
434.509	1748.12
434.731	1786.12
434.953	1827.12
435.175	1763.12
435.397	1777.12
435.618	1709.12
435.84	1703.12
436.062	1640.12
436.284	1647.12
436.505	1617.12
436.727	1588.12
436.949	1671.12
437.17	1628.12
437.392	1597.12
437.614	1583.12
437.835	1560.12
438.057	1566.12
438.278	1535.12
438.5	1518.12
438.721	1545.12
438.943	1539.12
439.165	1515.12
439.386	1544.12
439.608	1591.12
439.829	1600.12
440.05	1603.12
440.272	1599.12
440.493	1601.12
440.715	1628.12
440.936	1655.12
441.158	1675.12
441.379	1704.12
441.6	1769.12
441.822	1746.12
442.043	1757.12
442.264	1713.12
442.486	1734.12
442.707	1726.12
442.928	1713.12
443.149	1725.12
443.371	1701.12
443.592	1742.12
443.813	1747.12
444.034	1760.12
444.255	1789.12
444.476	1865.12
444.698	1949.12
444.919	2027.12
445.14	2117.12
445.361	1918.12
445.582	1809.12
445.803	1723.12
446.024	1693.12
446.245	1713.12
446.466	1661.12
446.687	1616.12
446.908	1610.12
447.129	1569.12
447.35	1548.12
447.571	1519.12
447.792	1510.12
448.013	1506.12
448.234	1499.12
448.455	1464.12
448.675	1455.12
448.896	1442.12
449.117	1438.12
449.338	1449.12
449.559	1395.12
449.779	1449.12
450	1429.12
450.221	1415.12
450.442	1441.12
450.662	1436.12
450.883	1427.12
451.104	1436.12
451.324	1483.12
451.545	1453.12
451.766	1426.12
451.986	1438.12
452.207	1409.12
452.428	1394.12
452.648	1433.12
452.869	1368.12
453.089	1399.12
453.31	1401.12
453.53	1414.12
453.751	1386.12
453.971	1384.12
454.192	1386.12
454.412	1366.12
454.633	1384.12
454.853	1396.12
455.073	1335.12
455.294	1379.12
455.514	1272.12
455.734	1370.12
455.955	1320.12
456.175	1353.12
456.395	1359.12
456.616	1325.12
456.836	1343.12
457.056	1343.12
457.276	1319.12
457.497	1373.12
457.717	1376.12
457.937	1367.12
458.157	1427.12
458.377	1420.12
458.598	1427.12
458.818	1479.12
459.038	1476.12
459.258	1540.12
459.478	1600.12
459.698	1648.12
459.918	1631.12
460.138	1699.12
460.358	1767.12
460.578	1775.12
460.798	1816.12
461.018	1844.12
461.238	1784.12
461.458	1828.12
461.678	1814.12
461.898	1843.12
462.118	1871.12
462.338	1970.12
462.558	1973.12
462.777	2035.12
462.997	2134.12
463.217	2257.12
463.437	2284.12
463.657	2201.12
463.876	2109.12
464.096	2116.12
464.316	2067.12
464.536	2082.12
464.755	2006.12
464.975	1968.12
465.195	1891.12
465.414	1818.12
465.634	1682.12
465.854	1682.12
466.073	1616.12
466.293	1577.12
466.512	1556.12
466.732	1534.12
466.951	1570.12
467.171	1512.12
467.391	1517.12
467.61	1497.12
467.829	1495.12
468.049	1512.12
468.268	1494.12
468.488	1475.12
468.707	1427.12
468.927	1466.12
469.146	1439.12
469.365	1485.12
469.585	1475.12
469.804	1559.12
470.023	1537.12
470.243	1543.12
470.462	1548.12
470.681	1560.12
470.901	1543.12
471.12	1508.12
471.339	1489.12
471.558	1502.12
471.777	1467.12
471.997	1485.12
472.216	1454.12
472.435	1478.12
472.654	1479.12
472.873	1450.12
473.092	1460.12
473.311	1435.12
473.53	1462.12
473.749	1440.12
473.968	1454.12
474.187	1461.12
474.406	1434.12
474.625	1398.12
474.844	1462.12
475.063	1480.12
475.282	1478.12
475.501	1456.12
475.72	1482.12
475.939	1500.12
476.158	1513.12
476.377	1512.12
476.596	1530.12
476.814	1533.12
477.033	1515.12
477.252	1549.12
477.471	1601.12
477.69	1677.12
477.908	1613.12
478.127	1683.12
478.346	1674.12
478.564	1756.12
478.783	1757.12
479.002	1803.12
479.22	1828.12
479.439	1808.12
479.658	1798.12
479.876	1836.12
480.095	1825.12
480.313	1921.12
480.532	1918.12
480.751	1907.12
480.969	1896.12
481.188	1849.12
481.406	1810.12
481.624	1801.12
481.843	1801.12
482.061	1733.12
482.28	1749.12
482.498	1775.12
482.717	1761.12
482.935	1763.12
483.153	1781.12
483.372	1774.12
483.59	1817.12
483.808	1793.12
484.027	1818.12
484.245	1870.12
484.463	1853.12
484.681	1886.12
484.9	1943.12
485.118	1905.12
485.336	1947.12
485.554	1908.12
485.772	1967.12
485.99	1954.12
486.209	1961.12
486.427	1927.12
486.645	1907.12
486.863	1975.12
487.081	1922.12
487.299	1900.12
487.517	1905.12
487.735	1871.12
487.953	1896.12
488.171	1907.12
488.389	1895.12
488.607	1879.12
488.825	1915.12
489.043	1835.12
489.261	1857.12
489.479	1837.12
489.696	1819.12
489.914	1845.12
490.132	1872.12
490.35	1841.12
490.568	1808.12
490.786	1832.12
491.003	1811.12
491.221	1834.12
491.439	1850.12
491.657	1809.12
491.874	1821.12
492.092	1815.12
492.31	1825.12
492.527	1834.12
492.745	1827.12
492.963	1867.12
493.18	1822.12
493.398	1885.12
493.615	1885.12
493.833	1841.12
494.05	1854.12
494.268	1849.12
494.485	1875.12
494.703	1843.12
494.92	1869.12
495.138	1873.12
495.355	1839.12
495.573	1893.12
495.79	1889.12
496.008	1879.12
496.225	1917.12
496.442	1893.12
496.66	1929.12
496.877	1965.12
497.094	1987.12
497.312	2018.12
497.529	2025.12
497.746	2139.12
497.963	2127.12
498.181	2262.12
498.398	2327.12
498.615	2405.12
498.832	2586.12
499.049	2753.12
499.267	2927.12
499.484	3189.12
499.701	3446.12
499.918	3773.12
500.135	4115.12
500.352	4553.12
500.569	4617.12
500.786	4661.12
501.003	4419.12
501.22	4035.12
501.437	3734.12
501.654	3339.12
501.871	3071.12
502.088	2873.12
502.305	2707.12
502.522	2561.12
502.739	2476.12
502.956	2362.12
503.172	2273.12
503.389	2195.12
503.606	2146.12
503.823	2123.12
504.04	2087.12
504.256	2093.12
504.473	2113.12
504.69	2077.12
504.907	2090.12
505.123	1949.12
505.34	1851.12
505.557	1779.12
505.773	1743.12
505.99	1740.12
506.207	1715.12
506.423	1689.12
506.64	1667.12
506.856	1648.12
507.073	1629.12
507.289	1583.12
507.506	1617.12
507.722	1613.12
507.939	1558.12
508.155	1535.12
508.372	1539.12
508.588	1518.12
508.805	1517.12
509.021	1543.12
509.238	1542.12
509.454	1464.12
509.67	1486.12
509.887	1479.12
510.103	1475.12
510.319	1439.12
510.536	1469.12
510.752	1478.12
510.968	1493.12
511.184	1443.12
511.401	1444.12
511.617	1432.12
511.833	1441.12
512.049	1415.12
512.265	1438.12
512.481	1411.12
512.698	1447.12
512.914	1441.12
513.13	1441.12
513.346	1419.12
513.562	1436.12
513.778	1464.12
513.994	1463.12
514.21	1473.12
514.426	1451.12
514.642	1458.12
514.858	1493.12
515.074	1485.12
515.29	1494.12
515.506	1507.12
515.721	1539.12
515.937	1569.12
516.153	1555.12
516.369	1602.12
516.585	1635.12
516.801	1704.12
517.016	1728.12
517.232	1795.12
517.448	1826.12
517.664	1903.12
517.879	1890.12
518.095	1868.12
518.311	1851.12
518.527	1800.12
518.742	1751.12
518.958	1717.12
519.173	1658.12
519.389	1619.12
519.605	1551.12
519.82	1562.12
520.036	1523.12
520.251	1478.12
520.467	1447.12
520.682	1412.12
520.898	1432.12
521.113	1420.12
521.329	1399.12
521.544	1405.12
521.76	1410.12
521.975	1365.12
522.19	1378.12
522.406	1350.12
522.621	1365.12
522.836	1341.12
523.052	1311.12
523.267	1345.12
523.482	1336.12
523.698	1311.12
523.913	1311.12
524.128	1284.12
524.343	1330.12
524.559	1342.12
524.774	1350.12
524.989	1297.12
525.204	1326.12
525.419	1277.12
525.634	1304.12
525.849	1305.12
526.064	1314.12
526.28	1282.12
526.495	1271.12
526.71	1264.12
526.925	1281.12
527.14	1246.12
527.355	1283.12
527.57	1289.12
527.785	1272.12
527.999	1266.12
528.214	1283.12
528.429	1311.12
528.644	1280.12
528.859	1255.12
529.074	1283.12
529.289	1244.12
529.503	1298.12
529.718	1281.12
529.933	1267.12
530.148	1274.12
530.363	1257.12
530.577	1256.12
530.792	1243.12
531.007	1228.12
531.221	1249.12
531.436	1253.12
531.651	1278.12
531.865	1245.12
532.08	1243.12
532.295	1269.12
532.509	1237.12
532.724	1246.12
532.938	1242.12
533.153	1253.12
533.367	1243.12
533.582	1256.12
533.796	1251.12
534.011	1251.12
534.225	1241.12
534.44	1206.12
534.654	1185.12
534.868	1208.12
535.083	1233.12
535.297	1226.12
535.511	1197.12
535.726	1194.12
535.94	1217.12
536.154	1211.12
536.369	1169.12
536.583	1172.12
536.797	1186.12
537.011	1169.12
537.225	1165.12
537.44	1137.12
537.654	1169.12
537.868	1154.12
538.082	1145.12
538.296	1150.12
538.51	1133.12
538.724	1133.12
538.938	1141.12
539.153	1149.12
539.367	1143.12
539.581	1120.12
539.795	1158.12
540.009	1114.12
540.222	1119.12
540.436	1093.12
540.65	1128.12
540.864	1075.12
541.078	1109.12
541.292	1129.12
541.506	1138.12
541.72	1111.12
541.934	1097.12
542.147	1088.12
542.361	1099.12
542.575	1077.12
542.789	1097.12
543.002	1075.12
543.216	1116.12
543.43	1081.12
543.644	1094.12
543.857	1099.12
544.071	1108.12
544.285	1142.12
544.498	1099.12
544.712	1091.12
544.925	1107.12
545.139	1115.12
545.352	1145.12
545.566	1139.12
545.779	1115.12
545.993	1112.12
546.206	1114.12
546.42	1097.12
546.633	1127.12
546.847	1127.12
547.06	1123.12
547.274	1105.12
547.487	1124.12
547.7	1135.12
547.914	1128.12
548.127	1126.12
548.34	1151.12
548.554	1130.12
548.767	1141.12
548.98	1163.12
549.193	1109.12
549.407	1116.12
549.62	1171.12
549.833	1173.12
550.046	1155.12
550.259	1139.12
550.473	1125.12
550.686	1125.12
550.899	1104.12
551.112	1098.12
551.325	1122.12
551.538	1099.12
551.751	1114.12
551.964	1103.12
552.177	1141.12
552.39	1160.12
552.603	1161.12
552.816	1191.12
553.029	1199.12
553.242	1227.12
553.455	1209.12
553.667	1197.12
553.88	1185.12
554.093	1139.12
554.306	1140.12
554.519	1175.12
554.732	1114.12
554.944	1055.12
555.157	1053.12
555.37	1064.12
555.583	1069.12
555.795	1057.12
556.008	1000.12
556.221	1005.12
556.433	986.12
556.646	984.12
556.859	975.12
557.071	991.12
557.284	958.12
557.496	986.12
557.709	986.12
557.921	978.12
558.134	969.12
558.346	939.12
558.559	964.12
558.771	968.12
558.984	934.12
559.196	935.12
559.409	930.12
559.621	961.12
559.833	922.12
560.046	950.12
560.258	911.12
560.47	921.12
560.683	931.12
560.895	941.12
561.107	922.12
561.32	929.12
561.532	925.12
561.744	926.12
561.956	894.12
562.168	934.12
562.381	918.12
562.593	909.12
562.805	926.12
563.017	922.12
563.229	928.12
563.441	957.12
563.653	959.12
563.865	941.12
564.077	961.12
564.289	959.12
564.501	989.12
564.713	980.12
564.925	1017.12
565.137	1039.12
565.349	1011.12
565.561	1070.12
565.773	1111.12
565.985	1130.12
566.197	1227.12
566.408	1254.12
566.62	1358.12
566.832	1403.12
567.044	1421.12
567.255	1424.12
567.467	1488.12
567.679	1508.12
567.891	1606.12
568.102	1587.12
568.314	1555.12
568.526	1433.12
568.737	1335.12
568.949	1234.12
569.161	1172.12
569.372	1093.12
569.584	1066.12
569.795	1035.12
570.007	982.12
570.218	982.12
570.43	968.12
570.641	931.12
570.853	941.12
571.064	970.12
571.276	973.12
571.487	925.12
571.698	898.12
571.91	852.12
572.121	840.12
572.333	839.12
572.544	792.12
572.755	820.12
572.966	821.12
573.178	777.12
573.389	783.12
573.6	781.12
573.811	759.12
574.023	771.12
574.234	759.12
574.445	760.12
574.656	780.12
574.867	761.12
575.078	758.12
575.289	744.12
575.501	742.12
575.712	739.12
575.923	719.12
576.134	737.12
576.345	714.12
576.556	727.12
576.767	714.12
576.978	715.12
577.188	696.12
577.399	708.12
577.61	720.12
577.821	690.12
578.032	675.12
578.243	663.12
578.454	672.12
578.665	687.12
578.875	665.12
579.086	661.12
579.297	666.12
579.508	689.12
579.718	671.12
579.929	657.12
580.14	661.12
580.35	662.12
580.561	653.12
580.772	658.12
580.982	631.12
581.193	649.12
581.403	645.12
581.614	667.12
581.825	639.12
582.035	639.12
582.246	634.12
582.456	642.12
582.667	639.12
582.877	641.12
583.087	636.12
583.298	613.12
583.508	624.12
583.719	623.12
583.929	594.12
584.139	638.12
584.35	625.12
584.56	618.12
584.77	613.12
584.981	616.12
585.191	615.12
585.401	617.12
585.611	608.12
585.821	597.12
586.032	606.12
586.242	606.12
586.452	607.12
586.662	618.12
586.872	576.12
587.082	613.12
587.292	592.12
587.502	605.12
587.713	579.12
587.923	598.12
588.133	605.12
588.343	577.12
588.553	601.12
588.762	605.12
588.972	647.12
589.182	607.12
589.392	602.12
589.602	586.12
589.812	626.12
590.022	590.12
590.232	579.12
590.441	597.12
590.651	597.12
590.861	592.12
591.071	638.12
591.281	618.12
591.49	629.12
591.7	633.12
591.91	651.12
592.119	651.12
592.329	649.12
592.539	649.12
592.748	673.12
592.958	701.12
593.167	718.12
593.377	711.12
593.587	730.12
593.796	712.12
594.006	705.12
594.215	746.12
594.424	747.12
594.634	723.12
594.843	694.12
595.053	662.12
595.262	643.12
595.472	618.12
595.681	614.12
595.89	639.12
596.1	617.12
596.309	605.12
596.518	574.12
596.727	584.12
596.937	570.12
597.146	552.12
597.355	561.12
597.564	565.12
597.774	543.12
597.983	517.12
598.192	520.12
598.401	520.12
598.61	517.12
598.819	529.12
599.028	495.12
599.237	509.12
599.446	518.12
599.655	530.12
599.864	518.12
600.073	503.12
600.282	515.12
600.491	485.12
600.7	492.12
600.909	505.12
601.118	490.12
601.327	467.12
601.536	467.12
601.745	479.12
601.953	477.12
602.162	483.12
602.371	485.12
602.58	491.12
602.789	486.12
602.997	478.12
603.206	479.12
603.415	481.12
603.623	476.12
603.832	462.12
604.041	472.12
604.249	462.12
604.458	479.12
604.666	469.12
604.875	460.12
605.084	452.12
605.292	444.12
605.501	471.12
605.709	431.12
605.918	464.12
606.126	442.12
606.334	458.12
606.543	450.12
606.751	461.12
606.96	445.12
607.168	456.12
607.376	460.12
607.585	459.12
607.793	445.12
608.001	466.12
608.21	454.12
608.418	436.12
608.626	440.12
608.834	431.12
609.043	455.12
609.251	455.12
609.459	436.12
609.667	443.12
609.875	441.12
610.083	434.12
610.291	419.12
610.499	444.12
610.707	428.12
610.916	416.12
611.124	419.12
611.332	422.12
611.54	429.12
611.748	415.12
611.955	425.12
612.163	437.12
612.371	427.12
612.579	402.12
612.787	411.12
612.995	431.12
613.203	436.12
613.411	416.12
613.618	429.12
613.826	412.12
614.034	426.12
614.242	410.12
614.449	432.12
614.657	422.12
614.865	403.12
615.072	433.12
615.28	421.12
615.488	416.12
615.695	414.12
615.903	418.12
616.111	419.12
616.318	434.12
616.526	402.12
616.733	426.12
616.941	425.12
617.148	436.12
617.356	433.12
617.563	415.12
617.771	437.12
617.978	437.12
618.185	414.12
618.393	407.12
618.6	412.12
618.807	399.12
619.015	405.12
619.222	396.12
619.429	384.12
619.637	389.12
619.844	408.12
620.051	403.12
620.258	400.12
620.466	379.12
620.673	386.12
620.88	385.12
621.087	370.12
621.294	372.12
621.501	383.12
621.708	381.12
621.915	394.12
622.122	383.12
622.329	388.12
622.536	381.12
622.743	377.12
622.95	365.12
623.157	370.12
623.364	371.12
623.571	371.12
623.778	365.12
623.985	370.12
624.192	367.12
624.399	354.12
624.606	363.12
624.812	358.12
625.019	358.12
625.226	363.12
625.433	363.12
625.639	341.12
625.846	344.12
626.053	338.12
626.259	354.12
626.466	348.12
626.673	351.12
626.879	340.12
627.086	349.12
627.293	352.12
627.499	345.12
627.706	359.12
627.912	349.12
628.119	354.12
628.325	350.12
628.532	341.12
628.738	335.12
628.945	335.12
629.151	357.12
629.357	339.12
629.564	319.12
629.77	343.12
629.976	326.12
630.183	303.12
630.389	345.12
630.595	326.12
630.802	314.12
631.008	319.12
631.214	318.12
631.42	318.12
631.627	330.12
631.833	334.12
632.039	305.12
632.245	327.12
632.451	309.12
632.657	303.12
632.863	307.12
633.069	311.12
633.275	301.12
633.481	304.12
633.688	308.12
633.893	307.12
634.099	294.12
634.305	313.12
634.511	323.12
634.717	341.12
634.923	303.12
635.129	325.12
635.335	289.12
635.541	296.12
635.747	305.12
635.952	305.12
636.158	308.12
636.364	296.12
636.57	307.12
636.775	307.12
636.981	285.12
637.187	303.12
637.392	293.12
637.598	309.12
637.804	298.12
638.009	315.12
638.215	295.12
638.421	283.12
638.626	291.12
638.832	303.12
639.037	291.12
639.243	277.12
639.448	271.12
639.654	296.12
639.859	294.12
640.065	286.12
640.27	296.12
640.475	305.12
640.681	294.12
640.886	283.12
641.091	287.12
641.297	274.12
641.502	279.12
641.707	285.12
641.913	276.12
642.118	300.12
642.323	293.12
642.528	280.12
642.733	271.12
642.939	276.12
643.144	263.12
643.349	276.12
643.554	277.12
643.759	274.12
643.964	271.12
644.169	265.12
644.374	273.12
644.579	283.12
644.784	296.12
644.989	269.12
645.194	278.12
645.399	267.12
645.604	278.12
645.809	291.12
646.014	278.12
646.219	289.12
646.423	273.12
646.628	286.12
646.833	285.12
647.038	279.12
647.243	285.12
647.447	318.12
647.652	305.12
647.857	273.12
648.062	297.12
648.266	305.12
648.471	303.12
648.676	293.12
648.88	314.12
649.085	313.12
649.289	302.12
649.494	314.12
649.698	298.12
649.903	277.12
650.107	281.12
650.312	291.12
650.516	285.12
650.721	269.12
650.925	288.12
651.13	301.12
651.334	268.12
651.539	262.12
651.743	265.12
651.947	274.12
652.152	271.12
652.356	277.12
652.56	265.12
652.764	281.12
652.969	261.12
653.173	254.12
653.377	275.12
653.581	261.12
653.785	265.12
653.99	281.12
654.194	282.12
654.398	280.12
654.602	290.12
654.806	294.12
655.01	294.12
655.214	294.12
655.418	289.12
655.622	303.12
655.826	347.12
656.03	344.12
656.234	381.12
656.438	408.12
656.642	411.12
656.846	374.12
657.049	346.12
657.253	298.12
657.457	285.12
657.661	254.12
657.865	218.12
658.068	209.12
658.272	191.12
658.476	178.12
658.68	182.12
658.883	158.12
659.087	146.12
659.291	161.12
659.494	135.12
659.698	127.12
659.901	115.12
660.105	123.12
660.309	121.12
660.512	119.12
660.716	127.12
660.919	116.12
661.123	115.12
661.326	118.12
661.53	93.12
661.733	96.12
661.936	103.12
662.14	82.12
662.343	96.12
662.546	88.12
662.75	100.12
662.953	89.12
663.156	103.12
663.36	93.12
663.563	79.12
663.766	93.12
663.969	78.12
664.173	78.12
664.376	79.12
664.579	83.12
664.782	88.12
664.985	79.12
665.188	75.12
665.391	78.12
665.594	74.12
665.797	80.12
666	76.12
666.203	64.12
666.406	74.12
666.609	84.12
666.812	84.12
667.015	64.12
667.218	92.12
667.421	78.12
667.624	80.12
667.827	75.12
668.03	76.12
668.232	82.12
668.435	89.12
668.638	73.12
668.841	79.12
669.043	97.12
669.246	74.12
669.449	69.12
669.651	69.12
669.854	79.12
670.057	82.12
670.259	88.12
670.462	81.12
670.665	80.12
670.867	74.12
671.07	65.12
671.272	83.12
671.475	81.12
671.677	73.12
671.88	94.12
672.082	73.12
672.284	76.12
672.487	88.12
672.689	86.12
672.892	79.12
