Data from NiCl2@0.0625M.TitratingCurve.Agarose3%dH2O.NegLispCup.LampEnergy10.LIBS07252019_HRD10591_18-34-27-576.txt Node
Date: Thu Jul 25 18:34:27 EDT 2019
User: cochatt
Spectrometer: HR+D1059
Trigger mode: 1
Integration Time (sec): 1.000000E-1
Scans to average: 1
Electric dark correction enabled: true
Nonlinearity correction enabled: false
Boxcar width: 0
XAxis mode: Wavelengths
Number of Pixels in Spectrum: 2048
>>>>>Begin Spectral Data<<<<<
223.165	-17.38
223.4	-17.38
223.635	-17.38
223.869	-19.38
224.104	-19.38
224.338	-14.38
224.573	-27.38
224.808	-29.38
225.042	-2.38
225.277	-12.38
225.511	4.62
225.746	7.62
225.98	3.62
226.215	6.62
226.449	28.62
226.683	14.62
226.918	33.62
227.152	42.62
227.387	21.62
227.621	34.62
227.856	50.62
228.09	53.62
228.324	47.62
228.559	64.62
228.793	89.62
229.027	120.62
229.262	136.62
229.496	149.62
229.73	161.62
229.964	172.62
230.199	172.62
230.433	166.62
230.667	190.62
230.901	172.62
231.136	176.62
231.37	181.62
231.604	190.62
231.838	190.62
232.072	189.62
232.306	191.62
232.541	198.62
232.775	203.62
233.009	217.62
233.243	201.62
233.477	212.62
233.711	202.62
233.945	182.62
234.179	212.62
234.413	211.62
234.647	199.62
234.881	191.62
235.115	210.62
235.349	219.62
235.583	216.62
235.817	222.62
236.051	217.62
236.285	234.62
236.519	225.62
236.753	221.62
236.987	227.62
237.221	250.62
237.455	226.62
237.689	235.62
237.922	241.62
238.156	243.62
238.39	231.62
238.624	260.62
238.858	246.62
239.091	246.62
239.325	243.62
239.559	265.62
239.793	264.62
240.027	254.62
240.26	258.62
240.494	269.62
240.728	275.62
240.961	268.62
241.195	286.62
241.429	273.62
241.662	275.62
241.896	297.62
242.13	296.62
242.363	269.62
242.597	292.62
242.83	306.62
243.064	289.62
243.298	311.62
243.531	308.62
243.765	300.62
243.998	325.62
244.232	323.62
244.465	315.62
244.699	298.62
244.932	332.62
245.166	331.62
245.399	342.62
245.633	332.62
245.866	333.62
246.099	360.62
246.333	358.62
246.566	353.62
246.8	359.62
247.033	336.62
247.266	371.62
247.5	363.62
247.733	360.62
247.966	354.62
248.2	369.62
248.433	353.62
248.666	335.62
248.899	376.62
249.133	369.62
249.366	390.62
249.599	370.62
249.832	385.62
250.066	375.62
250.299	411.62
250.532	397.62
250.765	393.62
250.998	428.62
251.231	397.62
251.465	402.62
251.698	398.62
251.931	430.62
252.164	420.62
252.397	422.62
252.63	458.62
252.863	416.62
253.096	422.62
253.329	458.62
253.562	442.62
253.795	437.62
254.028	456.62
254.261	450.62
254.494	427.62
254.727	439.62
254.96	462.62
255.193	448.62
255.426	460.62
255.659	464.62
255.892	437.62
256.124	462.62
256.357	444.62
256.59	460.62
256.823	480.62
257.056	484.62
257.289	472.62
257.521	489.62
257.754	496.62
257.987	490.62
258.22	489.62
258.452	486.62
258.685	491.62
258.918	469.62
259.151	492.62
259.383	502.62
259.616	500.62
259.849	511.62
260.081	510.62
260.314	518.62
260.547	531.62
260.779	506.62
261.012	510.62
261.244	516.62
261.477	526.62
261.71	516.62
261.942	523.62
262.175	544.62
262.407	536.62
262.64	531.62
262.872	530.62
263.105	548.62
263.337	540.62
263.57	556.62
263.802	577.62
264.035	533.62
264.267	542.62
264.499	572.62
264.732	549.62
264.964	573.62
265.197	583.62
265.429	565.62
265.661	586.62
265.894	576.62
266.126	562.62
266.358	588.62
266.591	574.62
266.823	583.62
267.055	560.62
267.287	586.62
267.52	585.62
267.752	609.62
267.984	593.62
268.216	603.62
268.448	599.62
268.681	606.62
268.913	606.62
269.145	609.62
269.377	611.62
269.609	636.62
269.841	612.62
270.073	626.62
270.306	609.62
270.538	636.62
270.77	628.62
271.002	632.62
271.234	622.62
271.466	636.62
271.698	632.62
271.93	653.62
272.162	650.62
272.394	652.62
272.626	651.62
272.858	659.62
273.09	675.62
273.322	657.62
273.553	683.62
273.785	658.62
274.017	658.62
274.249	684.62
274.481	699.62
274.713	649.62
274.945	698.62
275.176	707.62
275.408	694.62
275.64	665.62
275.872	716.62
276.104	708.62
276.335	707.62
276.567	719.62
276.799	716.62
277.031	698.62
277.262	717.62
277.494	704.62
277.726	722.62
277.957	709.62
278.189	710.62
278.421	718.62
278.652	714.62
278.884	732.62
279.115	733.62
279.347	727.62
279.579	755.62
279.81	742.62
280.042	756.62
280.273	761.62
280.505	762.62
280.736	756.62
280.968	760.62
281.199	771.62
281.431	785.62
281.662	794.62
281.894	788.62
282.125	782.62
282.356	796.62
282.588	756.62
282.819	773.62
283.051	785.62
283.282	776.62
283.513	798.62
283.745	800.62
283.976	805.62
284.207	794.62
284.439	802.62
284.67	803.62
284.901	836.62
285.132	808.62
285.364	801.62
285.595	846.62
285.826	821.62
286.057	828.62
286.288	838.62
286.52	814.62
286.751	842.62
286.982	839.62
287.213	833.62
287.444	858.62
287.675	831.62
287.906	853.62
288.138	855.62
288.369	829.62
288.6	859.62
288.831	857.62
289.062	850.62
289.293	877.62
289.524	876.62
289.755	865.62
289.986	858.62
290.217	869.62
290.448	869.62
290.679	855.62
290.91	875.62
291.141	877.62
291.371	868.62
291.602	884.62
291.833	875.62
292.064	886.62
292.295	869.62
292.526	850.62
292.757	866.62
292.987	865.62
293.218	894.62
293.449	885.62
293.68	883.62
293.91	886.62
294.141	894.62
294.372	867.62
294.603	914.62
294.833	904.62
295.064	901.62
295.295	889.62
295.525	907.62
295.756	896.62
295.987	878.62
296.217	885.62
296.448	928.62
296.679	928.62
296.909	915.62
297.14	907.62
297.37	924.62
297.601	925.62
297.831	913.62
298.062	946.62
298.292	960.62
298.523	990.62
298.753	989.62
298.984	955.62
299.214	939.62
299.445	941.62
299.675	944.62
299.905	980.62
300.136	942.62
300.366	940.62
300.597	990.62
300.827	1004.62
301.057	1004.62
301.288	987.62
301.518	989.62
301.748	986.62
301.979	978.62
302.209	1034.62
302.439	1008.62
302.669	1021.62
302.9	1024.62
303.13	980.62
303.36	1022.62
303.59	1004.62
303.82	1008.62
304.051	994.62
304.281	978.62
304.511	1016.62
304.741	1024.62
304.971	1000.62
305.201	1010.62
305.431	1024.62
305.661	995.62
305.891	1011.62
306.121	965.62
306.352	1022.62
306.582	976.62
306.812	979.62
307.042	993.62
307.272	975.62
307.502	983.62
307.731	974.62
307.961	984.62
308.191	1002.62
308.421	999.62
308.651	1000.62
308.881	963.62
309.111	971.62
309.341	967.62
309.571	968.62
309.8	989.62
310.03	992.62
310.26	988.62
310.49	986.62
310.72	1008.62
310.949	989.62
311.179	1000.62
311.409	1002.62
311.639	1020.62
311.868	1017.62
312.098	1033.62
312.328	1042.62
312.557	1047.62
312.787	1039.62
313.017	1066.62
313.246	1053.62
313.476	1081.62
313.706	1084.62
313.935	1077.62
314.165	1080.62
314.394	1072.62
314.624	1059.62
314.853	1079.62
315.083	1074.62
315.312	1097.62
315.542	1095.62
315.771	1086.62
316.001	1074.62
316.23	1050.62
316.46	1038.62
316.689	1042.62
316.919	1050.62
317.148	1067.62
317.377	1061.62
317.607	1042.62
317.836	1056.62
318.065	1042.62
318.295	1051.62
318.524	1045.62
318.753	1046.62
318.983	1081.62
319.212	1044.62
319.441	1085.62
319.67	1054.62
319.9	1034.62
320.129	1050.62
320.358	1034.62
320.587	1067.62
320.816	1054.62
321.046	1054.62
321.275	1063.62
321.504	1060.62
321.733	1090.62
321.962	1045.62
322.191	1069.62
322.42	1084.62
322.649	1078.62
322.878	1069.62
323.108	1066.62
323.337	1104.62
323.566	1079.62
323.795	1126.62
324.024	1093.62
324.253	1111.62
324.482	1091.62
324.71	1101.62
324.939	1122.62
325.168	1091.62
325.397	1117.62
325.626	1126.62
325.855	1110.62
326.084	1164.62
326.313	1154.62
326.542	1162.62
326.77	1164.62
326.999	1149.62
327.228	1103.62
327.457	1147.62
327.686	1157.62
327.914	1167.62
328.143	1142.62
328.372	1172.62
328.6	1176.62
328.829	1157.62
329.058	1157.62
329.287	1176.62
329.515	1181.62
329.744	1176.62
329.972	1193.62
330.201	1174.62
330.43	1189.62
330.658	1201.62
330.887	1206.62
331.115	1196.62
331.344	1227.62
331.572	1218.62
331.801	1259.62
332.03	1285.62
332.258	1275.62
332.486	1282.62
332.715	1332.62
332.943	1362.62
333.172	1371.62
333.4	1449.62
333.629	1459.62
333.857	1508.62
334.085	1472.62
334.314	1468.62
334.542	1473.62
334.771	1473.62
334.999	1400.62
335.227	1432.62
335.455	1426.62
335.684	1417.62
335.912	1434.62
336.14	1418.62
336.369	1406.62
336.597	1407.62
336.825	1357.62
337.053	1398.62
337.281	1400.62
337.51	1337.62
337.738	1334.62
337.966	1320.62
338.194	1295.62
338.422	1274.62
338.65	1294.62
338.878	1282.62
339.106	1280.62
339.334	1245.62
339.562	1257.62
339.79	1211.62
340.018	1237.62
340.246	1213.62
340.474	1209.62
340.702	1219.62
340.93	1243.62
341.158	1193.62
341.386	1210.62
341.614	1214.62
341.842	1218.62
342.07	1220.62
342.298	1195.62
342.526	1175.62
342.754	1241.62
342.981	1215.62
343.209	1256.62
343.437	1287.62
343.665	1340.62
343.893	1397.62
344.12	1448.62
344.348	1380.62
344.576	1322.62
344.804	1313.62
345.031	1267.62
345.259	1257.62
345.487	1232.62
345.714	1219.62
345.942	1213.62
346.17	1183.62
346.397	1192.62
346.625	1186.62
346.853	1157.62
347.08	1163.62
347.308	1197.62
347.535	1161.62
347.763	1196.62
347.99	1172.62
348.218	1152.62
348.445	1165.62
348.673	1144.62
348.9	1146.62
349.128	1131.62
349.355	1148.62
349.583	1144.62
349.81	1128.62
350.037	1140.62
350.265	1160.62
350.492	1118.62
350.72	1107.62
350.947	1122.62
351.174	1157.62
351.402	1145.62
351.629	1117.62
351.856	1141.62
352.083	1131.62
352.311	1126.62
352.538	1099.62
352.765	1127.62
352.992	1117.62
353.22	1090.62
353.447	1100.62
353.674	1113.62
353.901	1100.62
354.128	1096.62
354.355	1083.62
354.583	1127.62
354.81	1153.62
355.037	1144.62
355.264	1152.62
355.491	1106.62
355.718	1114.62
355.945	1129.62
356.172	1139.62
356.399	1115.62
356.626	1123.62
356.853	1097.62
357.08	1129.62
357.307	1120.62
357.534	1139.62
357.761	1144.62
357.988	1135.62
358.215	1125.62
358.441	1106.62
358.668	1143.62
358.895	1112.62
359.122	1153.62
359.349	1126.62
359.576	1114.62
359.802	1146.62
360.029	1101.62
360.256	1122.62
360.483	1100.62
360.709	1116.62
360.936	1123.62
361.163	1125.62
361.39	1132.62
361.616	1133.62
361.843	1108.62
362.07	1153.62
362.296	1146.62
362.523	1148.62
362.749	1129.62
362.976	1114.62
363.203	1125.62
363.429	1125.62
363.656	1127.62
363.882	1125.62
364.109	1114.62
364.335	1132.62
364.562	1148.62
364.788	1133.62
365.015	1136.62
365.241	1127.62
365.468	1108.62
365.694	1111.62
365.92	1141.62
366.147	1110.62
366.373	1143.62
366.599	1132.62
366.826	1124.62
367.052	1140.62
367.278	1100.62
367.505	1152.62
367.731	1158.62
367.957	1113.62
368.184	1138.62
368.41	1145.62
368.636	1156.62
368.862	1173.62
369.089	1149.62
369.315	1173.62
369.541	1158.62
369.767	1169.62
369.993	1167.62
370.219	1153.62
370.445	1169.62
370.672	1176.62
370.898	1180.62
371.124	1209.62
371.35	1205.62
371.576	1234.62
371.802	1180.62
372.028	1220.62
372.254	1226.62
372.48	1258.62
372.706	1252.62
372.932	1233.62
373.158	1260.62
373.384	1238.62
373.61	1249.62
373.835	1227.62
374.061	1211.62
374.287	1227.62
374.513	1289.62
374.739	1282.62
374.965	1326.62
375.191	1330.62
375.416	1340.62
375.642	1303.62
375.868	1285.62
376.094	1256.62
376.319	1269.62
376.545	1226.62
376.771	1222.62
376.997	1250.62
377.222	1220.62
377.448	1202.62
377.674	1219.62
377.899	1213.62
378.125	1204.62
378.35	1204.62
378.576	1174.62
378.802	1239.62
379.027	1233.62
379.253	1203.62
379.478	1204.62
379.704	1198.62
379.929	1200.62
380.155	1206.62
380.38	1196.62
380.606	1180.62
380.831	1196.62
381.057	1234.62
381.282	1189.62
381.507	1224.62
381.733	1233.62
381.958	1249.62
382.184	1235.62
382.409	1278.62
382.634	1248.62
382.86	1270.62
383.085	1262.62
383.31	1301.62
383.535	1349.62
383.761	1349.62
383.986	1301.62
384.211	1372.62
384.436	1383.62
384.662	1425.62
384.887	1408.62
385.112	1419.62
385.337	1465.62
385.562	1453.62
385.787	1449.62
386.013	1489.62
386.238	1474.62
386.463	1460.62
386.688	1456.62
386.913	1461.62
387.138	1445.62
387.363	1474.62
387.588	1458.62
387.813	1448.62
388.038	1451.62
388.263	1479.62
388.488	1458.62
388.713	1426.62
388.938	1478.62
389.163	1452.62
389.387	1459.62
389.612	1432.62
389.837	1422.62
390.062	1432.62
390.287	1404.62
390.512	1422.62
390.736	1443.62
390.961	1499.62
391.186	1487.62
391.411	1534.62
391.636	1550.62
391.86	1571.62
392.085	1621.62
392.31	1599.62
392.534	1623.62
392.759	1589.62
392.984	1582.62
393.208	1571.62
393.433	1511.62
393.658	1574.62
393.882	1548.62
394.107	1526.62
394.331	1564.62
394.556	1550.62
394.78	1572.62
395.005	1538.62
395.229	1574.62
395.454	1612.62
395.678	1627.62
395.903	1645.62
396.127	1619.62
396.352	1559.62
396.576	1553.62
396.801	1542.62
397.025	1593.62
397.249	1597.62
397.474	1623.62
397.698	1642.62
397.922	1658.62
398.147	1660.62
398.371	1700.62
398.595	1745.62
398.82	1803.62
399.044	1888.62
399.268	2035.62
399.492	2304.62
399.717	2527.62
399.941	2555.62
400.165	2371.62
400.389	2192.62
400.613	2040.62
400.837	1929.62
401.062	1854.62
401.286	1818.62
401.51	1805.62
401.734	1807.62
401.958	1828.62
402.182	1826.62
402.406	1833.62
402.63	1820.62
402.854	1913.62
403.078	1870.62
403.302	1944.62
403.526	1924.62
403.75	1965.62
403.974	1944.62
404.198	1966.62
404.422	1998.62
404.645	1979.62
404.869	1961.62
405.093	1973.62
405.317	1945.62
405.541	1962.62
405.765	1958.62
405.988	1940.62
406.212	1962.62
406.436	1978.62
406.66	2043.62
406.883	2060.62
407.107	2138.62
407.331	2245.62
407.555	2309.62
407.778	2260.62
408.002	2249.62
408.226	2176.62
408.449	2139.62
408.673	2098.62
408.896	2078.62
409.12	2054.62
409.344	2052.62
409.567	2013.62
409.791	2031.62
410.014	1982.62
410.238	1975.62
410.461	1991.62
410.685	1960.62
410.908	1888.62
411.132	1928.62
411.355	1874.62
411.578	1888.62
411.802	1880.62
412.025	1909.62
412.249	1941.62
412.472	1926.62
412.695	1862.62
412.919	1848.62
413.142	1809.62
413.365	1821.62
413.589	1848.62
413.812	1823.62
414.035	1782.62
414.258	1807.62
414.482	1810.62
414.705	1862.62
414.928	1812.62
415.151	1824.62
415.374	1786.62
415.597	1820.62
415.821	1758.62
416.044	1782.62
416.267	1707.62
416.49	1713.62
416.713	1760.62
416.936	1736.62
417.159	1742.62
417.382	1716.62
417.605	1732.62
417.828	1724.62
418.051	1748.62
418.274	1765.62
418.497	1746.62
418.72	1773.62
418.943	1757.62
419.166	1893.62
419.389	2028.62
419.611	1966.62
419.834	1896.62
420.057	1842.62
420.28	1771.62
420.503	1728.62
420.726	1740.62
420.948	1734.62
421.171	1771.62
421.394	1721.62
421.617	1721.62
421.839	1729.62
422.062	1729.62
422.285	1735.62
422.507	1794.62
422.73	1746.62
422.953	1764.62
423.175	1792.62
423.398	1781.62
423.621	1796.62
423.843	1831.62
424.066	1805.62
424.288	1773.62
424.511	1800.62
424.733	1770.62
424.956	1769.62
425.178	1726.62
425.401	1761.62
425.623	1732.62
425.846	1676.62
426.068	1683.62
426.291	1737.62
426.513	1677.62
426.735	1673.62
426.958	1665.62
427.18	1631.62
427.402	1633.62
427.625	1658.62
427.847	1610.62
428.069	1617.62
428.292	1592.62
428.514	1588.62
428.736	1558.62
428.958	1624.62
429.181	1517.62
429.403	1591.62
429.625	1568.62
429.847	1570.62
430.069	1558.62
430.292	1549.62
430.514	1540.62
430.736	1565.62
430.958	1569.62
431.18	1578.62
431.402	1557.62
431.624	1566.62
431.846	1584.62
432.068	1621.62
432.29	1629.62
432.512	1587.62
432.734	1640.62
432.956	1574.62
433.178	1618.62
433.4	1620.62
433.622	1609.62
433.844	1648.62
434.066	1688.62
434.287	1688.62
434.509	1711.62
434.731	1778.62
434.953	1793.62
435.175	1799.62
435.397	1758.62
435.618	1672.62
435.84	1679.62
436.062	1637.62
436.284	1642.62
436.505	1571.62
436.727	1587.62
436.949	1595.62
437.17	1581.62
437.392	1566.62
437.614	1560.62
437.835	1499.62
438.057	1523.62
438.278	1519.62
438.5	1497.62
438.721	1526.62
438.943	1525.62
439.165	1524.62
439.386	1546.62
439.608	1531.62
439.829	1551.62
440.05	1571.62
440.272	1547.62
440.493	1575.62
440.715	1599.62
440.936	1644.62
441.158	1594.62
441.379	1648.62
441.6	1707.62
441.822	1767.62
442.043	1737.62
442.264	1690.62
442.486	1685.62
442.707	1715.62
442.928	1715.62
443.149	1719.62
443.371	1691.62
443.592	1695.62
443.813	1698.62
444.034	1692.62
444.255	1779.62
444.476	1846.62
444.698	1941.62
444.919	1965.62
445.14	1997.62
445.361	1891.62
445.582	1756.62
445.803	1727.62
446.024	1633.62
446.245	1630.62
446.466	1636.62
446.687	1607.62
446.908	1550.62
447.129	1555.62
447.35	1540.62
447.571	1505.62
447.792	1428.62
448.013	1505.62
448.234	1434.62
448.455	1417.62
448.675	1432.62
448.896	1440.62
449.117	1403.62
449.338	1425.62
449.559	1386.62
449.779	1387.62
450	1405.62
450.221	1396.62
450.442	1423.62
450.662	1406.62
450.883	1392.62
451.104	1450.62
451.324	1421.62
451.545	1416.62
451.766	1417.62
451.986	1392.62
452.207	1443.62
452.428	1417.62
452.648	1383.62
452.869	1386.62
453.089	1371.62
453.31	1390.62
453.53	1375.62
453.751	1373.62
453.971	1360.62
454.192	1366.62
454.412	1342.62
454.633	1355.62
454.853	1336.62
455.073	1310.62
455.294	1352.62
455.514	1287.62
455.734	1314.62
455.955	1307.62
456.175	1308.62
456.395	1295.62
456.616	1323.62
456.836	1324.62
457.056	1355.62
457.276	1295.62
457.497	1357.62
457.717	1348.62
457.937	1343.62
458.157	1372.62
458.377	1381.62
458.598	1457.62
458.818	1460.62
459.038	1460.62
459.258	1477.62
459.478	1565.62
459.698	1608.62
459.918	1639.62
460.138	1693.62
460.358	1723.62
460.578	1793.62
460.798	1809.62
461.018	1812.62
461.238	1805.62
461.458	1761.62
461.678	1765.62
461.898	1800.62
462.118	1816.62
462.338	1883.62
462.558	1948.62
462.777	2013.62
462.997	2157.62
463.217	2261.62
463.437	2280.62
463.657	2159.62
463.876	2077.62
464.096	2125.62
464.316	2054.62
464.536	2048.62
464.755	1987.62
464.975	1924.62
465.195	1886.62
465.414	1787.62
465.634	1655.62
465.854	1621.62
466.073	1578.62
466.293	1597.62
466.512	1533.62
466.732	1468.62
466.951	1499.62
467.171	1487.62
467.391	1506.62
467.61	1468.62
467.829	1476.62
468.049	1446.62
468.268	1431.62
468.488	1422.62
468.707	1403.62
468.927	1451.62
469.146	1439.62
469.365	1430.62
469.585	1453.62
469.804	1466.62
470.023	1518.62
470.243	1494.62
470.462	1541.62
470.681	1526.62
470.901	1533.62
471.12	1510.62
471.339	1522.62
471.558	1454.62
471.777	1472.62
471.997	1436.62
472.216	1456.62
472.435	1430.62
472.654	1421.62
472.873	1421.62
473.092	1398.62
473.311	1417.62
473.53	1424.62
473.749	1405.62
473.968	1431.62
474.187	1412.62
474.406	1389.62
474.625	1408.62
474.844	1418.62
475.063	1387.62
475.282	1397.62
475.501	1454.62
475.72	1448.62
475.939	1444.62
476.158	1474.62
476.377	1494.62
476.596	1484.62
476.814	1511.62
477.033	1515.62
477.252	1546.62
477.471	1545.62
477.69	1586.62
477.908	1633.62
478.127	1668.62
478.346	1666.62
478.564	1712.62
478.783	1726.62
479.002	1783.62
479.22	1788.62
479.439	1776.62
479.658	1754.62
479.876	1788.62
480.095	1835.62
480.313	1868.62
480.532	1901.62
480.751	1879.62
480.969	1835.62
481.188	1834.62
481.406	1788.62
481.624	1753.62
481.843	1725.62
482.061	1709.62
482.28	1694.62
482.498	1699.62
482.717	1746.62
482.935	1725.62
483.153	1706.62
483.372	1704.62
483.59	1764.62
483.808	1748.62
484.027	1781.62
484.245	1772.62
484.463	1812.62
484.681	1859.62
484.9	1870.62
485.118	1881.62
485.336	1848.62
485.554	1904.62
485.772	1877.62
485.99	1920.62
486.209	1924.62
486.427	1911.62
486.645	1910.62
486.863	1899.62
487.081	1907.62
487.299	1880.62
487.517	1872.62
487.735	1853.62
487.953	1883.62
488.171	1878.62
488.389	1844.62
488.607	1831.62
488.825	1843.62
489.043	1842.62
489.261	1805.62
489.479	1813.62
489.696	1834.62
489.914	1772.62
490.132	1768.62
490.35	1793.62
490.568	1835.62
490.786	1779.62
491.003	1784.62
491.221	1762.62
491.439	1787.62
491.657	1747.62
491.874	1793.62
492.092	1779.62
492.31	1773.62
492.527	1786.62
492.745	1802.62
492.963	1788.62
493.18	1793.62
493.398	1833.62
493.615	1826.62
493.833	1785.62
494.05	1798.62
494.268	1861.62
494.485	1851.62
494.703	1816.62
494.92	1806.62
495.138	1793.62
495.355	1835.62
495.573	1810.62
495.79	1810.62
496.008	1862.62
496.225	1885.62
496.442	1889.62
496.66	1930.62
496.877	1914.62
497.094	1959.62
497.312	2007.62
497.529	2032.62
497.746	2037.62
497.963	2100.62
498.181	2200.62
498.398	2341.62
498.615	2404.62
498.832	2516.62
499.049	2739.62
499.267	2874.62
499.484	3136.62
499.701	3413.62
499.918	3762.62
500.135	4113.62
500.352	4506.62
500.569	4635.62
500.786	4612.62
501.003	4361.62
501.22	4049.62
501.437	3665.62
501.654	3355.62
501.871	3072.62
502.088	2832.62
502.305	2704.62
502.522	2524.62
502.739	2461.62
502.956	2318.62
503.172	2238.62
503.389	2134.62
503.606	2090.62
503.823	2057.62
504.04	2026.62
504.256	2055.62
504.473	2074.62
504.69	2068.62
504.907	2017.62
505.123	1958.62
505.34	1834.62
505.557	1806.62
505.773	1743.62
505.99	1702.62
506.207	1688.62
506.423	1628.62
506.64	1649.62
506.856	1604.62
507.073	1581.62
507.289	1588.62
507.506	1577.62
507.722	1586.62
507.939	1540.62
508.155	1503.62
508.372	1513.62
508.588	1513.62
508.805	1486.62
509.021	1470.62
509.238	1499.62
509.454	1452.62
509.67	1479.62
509.887	1430.62
510.103	1472.62
510.319	1416.62
510.536	1426.62
510.752	1412.62
510.968	1409.62
511.184	1382.62
511.401	1430.62
511.617	1434.62
511.833	1437.62
512.049	1413.62
512.265	1403.62
512.481	1397.62
512.698	1410.62
512.914	1432.62
513.13	1416.62
513.346	1414.62
513.562	1432.62
513.778	1423.62
513.994	1403.62
514.21	1432.62
514.426	1425.62
514.642	1445.62
514.858	1445.62
515.074	1464.62
515.29	1468.62
515.506	1504.62
515.721	1510.62
515.937	1543.62
516.153	1558.62
516.369	1563.62
516.585	1610.62
516.801	1672.62
517.016	1703.62
517.232	1763.62
517.448	1814.62
517.664	1860.62
517.879	1884.62
518.095	1848.62
518.311	1882.62
518.527	1779.62
518.742	1731.62
518.958	1659.62
519.173	1656.62
519.389	1600.62
519.605	1548.62
519.82	1538.62
520.036	1544.62
520.251	1471.62
520.467	1420.62
520.682	1404.62
520.898	1403.62
521.113	1408.62
521.329	1387.62
521.544	1377.62
521.76	1377.62
521.975	1357.62
522.19	1337.62
522.406	1347.62
522.621	1330.62
522.836	1340.62
523.052	1350.62
523.267	1322.62
523.482	1302.62
523.698	1306.62
523.913	1265.62
524.128	1305.62
524.343	1268.62
524.559	1289.62
524.774	1302.62
524.989	1290.62
525.204	1284.62
525.419	1252.62
525.634	1247.62
525.849	1248.62
526.064	1272.62
526.28	1253.62
526.495	1259.62
526.71	1266.62
526.925	1280.62
527.14	1238.62
527.355	1230.62
527.57	1233.62
527.785	1248.62
527.999	1233.62
528.214	1235.62
528.429	1251.62
528.644	1247.62
528.859	1209.62
529.074	1238.62
529.289	1249.62
529.503	1243.62
529.718	1216.62
529.933	1218.62
530.148	1236.62
530.363	1234.62
530.577	1228.62
530.792	1232.62
531.007	1238.62
531.221	1248.62
531.436	1241.62
531.651	1233.62
531.865	1224.62
532.08	1239.62
532.295	1248.62
532.509	1221.62
532.724	1229.62
532.938	1249.62
533.153	1276.62
533.367	1210.62
533.582	1236.62
533.796	1232.62
534.011	1220.62
534.225	1235.62
534.44	1227.62
534.654	1215.62
534.868	1194.62
535.083	1214.62
535.297	1232.62
535.511	1212.62
535.726	1179.62
535.94	1183.62
536.154	1165.62
536.369	1157.62
536.583	1210.62
536.797	1160.62
537.011	1144.62
537.225	1165.62
537.44	1139.62
537.654	1162.62
537.868	1159.62
538.082	1140.62
538.296	1164.62
538.51	1145.62
538.724	1096.62
538.938	1120.62
539.153	1109.62
539.367	1129.62
539.581	1078.62
539.795	1126.62
540.009	1116.62
540.222	1127.62
540.436	1105.62
540.65	1132.62
540.864	1100.62
541.078	1092.62
541.292	1080.62
541.506	1137.62
541.72	1095.62
541.934	1094.62
542.147	1094.62
542.361	1118.62
542.575	1099.62
542.789	1095.62
543.002	1067.62
543.216	1093.62
543.43	1092.62
543.644	1088.62
543.857	1109.62
544.071	1095.62
544.285	1099.62
544.498	1096.62
544.712	1090.62
544.925	1090.62
545.139	1126.62
545.352	1105.62
545.566	1113.62
545.779	1081.62
545.993	1113.62
546.206	1110.62
546.42	1106.62
546.633	1115.62
546.847	1108.62
547.06	1096.62
547.274	1105.62
547.487	1093.62
547.7	1091.62
547.914	1119.62
548.127	1106.62
548.34	1094.62
548.554	1110.62
548.767	1101.62
548.98	1129.62
549.193	1118.62
549.407	1101.62
549.62	1147.62
549.833	1128.62
550.046	1100.62
550.259	1125.62
550.473	1117.62
550.686	1130.62
550.899	1132.62
551.112	1056.62
551.325	1108.62
551.538	1089.62
551.751	1104.62
551.964	1122.62
552.177	1132.62
552.39	1144.62
552.603	1139.62
552.816	1164.62
553.029	1164.62
553.242	1181.62
553.455	1189.62
553.667	1191.62
553.88	1166.62
554.093	1140.62
554.306	1118.62
554.519	1098.62
554.732	1113.62
554.944	1098.62
555.157	1070.62
555.37	1042.62
555.583	1041.62
555.795	1045.62
556.008	1019.62
556.221	993.62
556.433	1008.62
556.646	978.62
556.859	990.62
557.071	966.62
557.284	964.62
557.496	955.62
557.709	950.62
557.921	911.62
558.134	934.62
558.346	963.62
558.559	953.62
558.771	934.62
558.984	934.62
559.196	909.62
559.409	947.62
559.621	921.62
559.833	918.62
560.046	918.62
560.258	925.62
560.47	942.62
560.683	867.62
560.895	920.62
561.107	896.62
561.32	912.62
561.532	886.62
561.744	951.62
561.956	905.62
562.168	902.62
562.381	934.62
562.593	930.62
562.805	926.62
563.017	895.62
563.229	898.62
563.441	937.62
563.653	939.62
563.865	919.62
564.077	953.62
564.289	971.62
564.501	983.62
564.713	974.62
564.925	1007.62
565.137	1036.62
565.349	1004.62
565.561	1056.62
565.773	1085.62
565.985	1124.62
566.197	1195.62
566.408	1257.62
566.62	1324.62
566.832	1389.62
567.044	1413.62
567.255	1434.62
567.467	1479.62
567.679	1501.62
567.891	1618.62
568.102	1596.62
568.314	1585.62
568.526	1410.62
568.737	1316.62
568.949	1233.62
569.161	1136.62
569.372	1104.62
569.584	1025.62
569.795	1008.62
570.007	971.62
570.218	956.62
570.43	926.62
570.641	912.62
570.853	957.62
571.064	942.62
571.276	917.62
571.487	892.62
571.698	868.62
571.91	869.62
572.121	857.62
572.333	817.62
572.544	813.62
572.755	800.62
572.966	784.62
573.178	814.62
573.389	766.62
573.6	775.62
573.811	771.62
574.023	747.62
574.234	742.62
574.445	748.62
574.656	740.62
574.867	745.62
575.078	752.62
575.289	736.62
575.501	749.62
575.712	734.62
575.923	709.62
576.134	705.62
576.345	716.62
576.556	702.62
576.767	696.62
576.978	716.62
577.188	725.62
577.399	701.62
577.61	683.62
577.821	676.62
578.032	682.62
578.243	705.62
578.454	676.62
578.665	631.62
578.875	658.62
579.086	648.62
579.297	649.62
579.508	648.62
579.718	680.62
579.929	655.62
580.14	640.62
580.35	640.62
580.561	626.62
580.772	621.62
580.982	653.62
581.193	633.62
581.403	648.62
581.614	642.62
581.825	635.62
582.035	644.62
582.246	630.62
582.456	592.62
582.667	625.62
582.877	614.62
583.087	629.62
583.298	603.62
583.508	616.62
583.719	627.62
583.929	640.62
584.139	604.62
584.35	615.62
584.56	604.62
584.77	603.62
584.981	575.62
585.191	608.62
585.401	596.62
585.611	591.62
585.821	580.62
586.032	590.62
586.242	598.62
586.452	612.62
586.662	602.62
586.872	610.62
587.082	602.62
587.292	583.62
587.502	592.62
587.713	597.62
587.923	578.62
588.133	598.62
588.343	582.62
588.553	584.62
588.762	581.62
588.972	594.62
589.182	617.62
589.392	600.62
589.602	600.62
589.812	605.62
590.022	587.62
590.232	588.62
590.441	598.62
590.651	604.62
590.861	594.62
591.071	616.62
591.281	607.62
591.49	618.62
591.7	618.62
591.91	626.62
592.119	621.62
592.329	640.62
592.539	674.62
592.748	675.62
592.958	699.62
593.167	706.62
593.377	723.62
593.587	734.62
593.796	712.62
594.006	733.62
594.215	724.62
594.424	720.62
594.634	720.62
594.843	678.62
595.053	674.62
595.262	659.62
595.472	630.62
595.681	609.62
595.89	619.62
596.1	586.62
596.309	593.62
596.518	552.62
596.727	561.62
596.937	571.62
597.146	542.62
597.355	569.62
597.564	540.62
597.774	547.62
597.983	526.62
598.192	505.62
598.401	507.62
598.61	519.62
598.819	490.62
599.028	502.62
599.237	495.62
599.446	508.62
599.655	500.62
599.864	489.62
600.073	489.62
600.282	487.62
600.491	504.62
600.7	500.62
600.909	494.62
601.118	491.62
601.327	500.62
601.536	512.62
601.745	496.62
601.953	475.62
602.162	464.62
602.371	482.62
602.58	473.62
602.789	465.62
602.997	455.62
603.206	475.62
603.415	471.62
603.623	483.62
603.832	460.62
604.041	446.62
604.249	444.62
604.458	460.62
604.666	442.62
604.875	464.62
605.084	466.62
605.292	452.62
605.501	440.62
605.709	463.62
605.918	448.62
606.126	433.62
606.334	448.62
606.543	433.62
606.751	448.62
606.96	437.62
607.168	458.62
607.376	434.62
607.585	431.62
607.793	448.62
608.001	454.62
608.21	441.62
608.418	438.62
608.626	429.62
608.834	430.62
609.043	439.62
609.251	434.62
609.459	431.62
609.667	418.62
609.875	438.62
610.083	430.62
610.291	407.62
610.499	415.62
610.707	429.62
610.916	425.62
611.124	426.62
611.332	420.62
611.54	418.62
611.748	420.62
611.955	429.62
612.163	415.62
612.371	425.62
612.579	418.62
612.787	410.62
612.995	428.62
613.203	422.62
613.411	427.62
613.618	424.62
613.826	416.62
614.034	420.62
614.242	412.62
614.449	414.62
614.657	418.62
614.865	420.62
615.072	417.62
615.28	390.62
615.488	418.62
615.695	395.62
615.903	416.62
616.111	421.62
616.318	424.62
616.526	422.62
616.733	401.62
616.941	428.62
617.148	445.62
617.356	416.62
617.563	415.62
617.771	416.62
617.978	407.62
618.185	401.62
618.393	419.62
618.6	399.62
618.807	416.62
619.015	436.62
619.222	417.62
619.429	422.62
619.637	398.62
619.844	398.62
620.051	393.62
620.258	397.62
620.466	358.62
620.673	392.62
620.88	382.62
621.087	387.62
621.294	372.62
621.501	373.62
621.708	364.62
621.915	380.62
622.122	384.62
622.329	381.62
622.536	370.62
622.743	374.62
622.95	374.62
623.157	357.62
623.364	374.62
623.571	387.62
623.778	377.62
623.985	359.62
624.192	351.62
624.399	355.62
624.606	374.62
624.812	352.62
625.019	366.62
625.226	358.62
625.433	362.62
625.639	360.62
625.846	349.62
626.053	337.62
626.259	333.62
626.466	347.62
626.673	333.62
626.879	339.62
627.086	351.62
627.293	345.62
627.499	329.62
627.706	337.62
627.912	347.62
628.119	340.62
628.325	354.62
628.532	341.62
628.738	330.62
628.945	350.62
629.151	318.62
629.357	334.62
629.564	325.62
629.77	325.62
629.976	287.62
630.183	291.62
630.389	309.62
630.595	316.62
630.802	320.62
631.008	319.62
631.214	323.62
631.42	323.62
631.627	309.62
631.833	311.62
632.039	308.62
632.245	313.62
632.451	304.62
632.657	303.62
632.863	310.62
633.069	298.62
633.275	308.62
633.481	297.62
633.688	306.62
633.893	301.62
634.099	308.62
634.305	304.62
634.511	314.62
634.717	295.62
634.923	298.62
635.129	304.62
635.335	308.62
635.541	316.62
635.747	306.62
635.952	294.62
636.158	276.62
636.364	290.62
636.57	295.62
636.775	304.62
636.981	289.62
637.187	302.62
637.392	273.62
637.598	275.62
637.804	297.62
638.009	272.62
638.215	277.62
638.421	298.62
638.626	281.62
638.832	277.62
639.037	301.62
639.243	272.62
639.448	294.62
639.654	272.62
639.859	277.62
640.065	283.62
640.27	276.62
640.475	264.62
640.681	289.62
640.886	267.62
641.091	265.62
641.297	283.62
641.502	276.62
641.707	292.62
641.913	279.62
642.118	280.62
642.323	276.62
642.528	268.62
642.733	277.62
642.939	260.62
643.144	282.62
643.349	264.62
643.554	269.62
643.759	283.62
643.964	278.62
644.169	296.62
644.374	270.62
644.579	291.62
644.784	291.62
644.989	266.62
645.194	294.62
645.399	266.62
645.604	273.62
645.809	269.62
646.014	272.62
646.219	272.62
646.423	287.62
646.628	281.62
646.833	281.62
647.038	292.62
647.243	278.62
647.447	283.62
647.652	301.62
647.857	296.62
648.062	270.62
648.266	308.62
648.471	296.62
648.676	302.62
648.88	316.62
649.085	289.62
649.289	283.62
649.494	281.62
649.698	294.62
649.903	285.62
650.107	270.62
650.312	292.62
650.516	282.62
650.721	277.62
650.925	269.62
651.13	252.62
651.334	263.62
651.539	280.62
651.743	270.62
651.947	264.62
652.152	260.62
652.356	256.62
652.56	267.62
652.764	257.62
652.969	263.62
653.173	257.62
653.377	250.62
653.581	244.62
653.785	273.62
653.99	268.62
654.194	273.62
654.398	273.62
654.602	268.62
654.806	285.62
655.01	280.62
655.214	276.62
655.418	283.62
655.622	308.62
655.826	315.62
656.03	350.62
656.234	380.62
656.438	398.62
656.642	396.62
656.846	368.62
657.049	328.62
657.253	281.62
657.457	274.62
657.661	237.62
657.865	216.62
658.068	188.62
658.272	185.62
658.476	171.62
658.68	153.62
658.883	168.62
659.087	152.62
659.291	152.62
659.494	135.62
659.698	136.62
659.901	124.62
660.105	116.62
660.309	120.62
660.512	107.62
660.716	114.62
660.919	111.62
661.123	105.62
661.326	103.62
661.53	93.62
661.733	107.62
661.936	104.62
662.14	87.62
662.343	91.62
662.546	90.62
662.75	103.62
662.953	84.62
663.156	78.62
663.36	82.62
663.563	96.62
663.766	77.62
663.969	85.62
664.173	71.62
664.376	76.62
664.579	82.62
664.782	90.62
664.985	77.62
665.188	89.62
665.391	82.62
665.594	97.62
665.797	80.62
666	64.62
666.203	77.62
666.406	81.62
666.609	88.62
666.812	84.62
667.015	82.62
667.218	77.62
667.421	84.62
667.624	74.62
667.827	86.62
668.03	77.62
668.232	76.62
668.435	71.62
668.638	86.62
668.841	84.62
669.043	80.62
669.246	82.62
669.449	81.62
669.651	77.62
669.854	84.62
670.057	78.62
670.259	76.62
670.462	87.62
670.665	76.62
670.867	85.62
671.07	89.62
671.272	93.62
671.475	98.62
671.677	94.62
671.88	89.62
672.082	83.62
672.284	93.62
672.487	75.62
672.689	86.62
672.892	82.62
