Data from NiCl2@0.25M.TitratingCurve.Agarose3%dH2O.NegLispCup.LampEnergy10.LIBS07252019_HRD10591_18-23-02-586.txt Node
Date: Thu Jul 25 18:23:02 EDT 2019
User: cochatt
Spectrometer: HR+D1059
Trigger mode: 1
Integration Time (sec): 1.000000E-1
Scans to average: 1
Electric dark correction enabled: true
Nonlinearity correction enabled: false
Boxcar width: 0
XAxis mode: Wavelengths
Number of Pixels in Spectrum: 2048
>>>>>Begin Spectral Data<<<<<
223.165	-10.12
223.4	-10.12
223.635	-10.12
223.869	-11.12
224.104	-19.12
224.338	-8.12
224.573	-8.12
224.808	-14.12
225.042	-16.12
225.277	6.88
225.511	2.88
225.746	-2.12
225.98	7.88
226.215	8.88
226.449	6.88
226.683	17.88
226.918	14.88
227.152	22.88
227.387	25.88
227.621	44.88
227.856	37.88
228.09	48.88
228.324	49.88
228.559	55.88
228.793	68.88
229.027	73.88
229.262	97.88
229.496	93.88
229.73	101.88
229.964	115.88
230.199	109.88
230.433	109.88
230.667	112.88
230.901	110.88
231.136	101.88
231.37	116.88
231.604	137.88
231.838	122.88
232.072	119.88
232.306	120.88
232.541	119.88
232.775	128.88
233.009	124.88
233.243	112.88
233.477	120.88
233.711	132.88
233.945	119.88
234.179	124.88
234.413	135.88
234.647	121.88
234.881	126.88
235.115	136.88
235.349	131.88
235.583	127.88
235.817	130.88
236.051	128.88
236.285	138.88
236.519	126.88
236.753	131.88
236.987	112.88
237.221	131.88
237.455	132.88
237.689	138.88
237.922	141.88
238.156	138.88
238.39	141.88
238.624	136.88
238.858	137.88
239.091	130.88
239.325	126.88
239.559	130.88
239.793	142.88
240.027	143.88
240.26	149.88
240.494	126.88
240.728	158.88
240.961	133.88
241.195	129.88
241.429	156.88
241.662	124.88
241.896	149.88
242.13	151.88
242.363	158.88
242.597	163.88
242.83	148.88
243.064	155.88
243.298	164.88
243.531	152.88
243.765	152.88
243.998	148.88
244.232	175.88
244.465	150.88
244.699	151.88
244.932	164.88
245.166	143.88
245.399	149.88
245.633	177.88
245.866	155.88
246.099	153.88
246.333	161.88
246.566	178.88
246.8	175.88
247.033	164.88
247.266	175.88
247.5	162.88
247.733	178.88
247.966	173.88
248.2	179.88
248.433	178.88
248.666	184.88
248.899	187.88
249.133	183.88
249.366	190.88
249.599	188.88
249.832	178.88
250.066	183.88
250.299	183.88
250.532	182.88
250.765	192.88
250.998	199.88
251.231	199.88
251.465	197.88
251.698	197.88
251.931	211.88
252.164	199.88
252.397	206.88
252.63	200.88
252.863	207.88
253.096	199.88
253.329	191.88
253.562	197.88
253.795	192.88
254.028	214.88
254.261	197.88
254.494	207.88
254.727	206.88
254.96	200.88
255.193	204.88
255.426	219.88
255.659	201.88
255.892	202.88
256.124	212.88
256.357	222.88
256.59	229.88
256.823	229.88
257.056	236.88
257.289	220.88
257.521	208.88
257.754	233.88
257.987	224.88
258.22	230.88
258.452	223.88
258.685	230.88
258.918	224.88
259.151	234.88
259.383	217.88
259.616	231.88
259.849	229.88
260.081	228.88
260.314	237.88
260.547	233.88
260.779	238.88
261.012	239.88
261.244	248.88
261.477	225.88
261.71	236.88
261.942	231.88
262.175	216.88
262.407	243.88
262.64	236.88
262.872	251.88
263.105	227.88
263.337	253.88
263.57	243.88
263.802	254.88
264.035	234.88
264.267	264.88
264.499	257.88
264.732	258.88
264.964	258.88
265.197	256.88
265.429	268.88
265.661	255.88
265.894	267.88
266.126	262.88
266.358	246.88
266.591	274.88
266.823	266.88
267.055	275.88
267.287	261.88
267.52	256.88
267.752	266.88
267.984	271.88
268.216	263.88
268.448	277.88
268.681	257.88
268.913	280.88
269.145	265.88
269.377	273.88
269.609	274.88
269.841	284.88
270.073	285.88
270.306	292.88
270.538	285.88
270.77	274.88
271.002	263.88
271.234	284.88
271.466	287.88
271.698	274.88
271.93	289.88
272.162	291.88
272.394	277.88
272.626	284.88
272.858	283.88
273.09	295.88
273.322	292.88
273.553	300.88
273.785	306.88
274.017	287.88
274.249	302.88
274.481	309.88
274.713	307.88
274.945	302.88
275.176	302.88
275.408	305.88
275.64	296.88
275.872	290.88
276.104	314.88
276.335	309.88
276.567	314.88
276.799	296.88
277.031	325.88
277.262	302.88
277.494	314.88
277.726	330.88
277.957	326.88
278.189	320.88
278.421	317.88
278.652	315.88
278.884	325.88
279.115	314.88
279.347	328.88
279.579	323.88
279.81	335.88
280.042	336.88
280.273	319.88
280.505	331.88
280.736	317.88
280.968	341.88
281.199	327.88
281.431	336.88
281.662	324.88
281.894	324.88
282.125	336.88
282.356	333.88
282.588	334.88
282.819	331.88
283.051	329.88
283.282	326.88
283.513	338.88
283.745	364.88
283.976	352.88
284.207	334.88
284.439	360.88
284.67	338.88
284.901	365.88
285.132	346.88
285.364	351.88
285.595	354.88
285.826	359.88
286.057	356.88
286.288	356.88
286.52	357.88
286.751	384.88
286.982	364.88
287.213	357.88
287.444	370.88
287.675	374.88
287.906	360.88
288.138	374.88
288.369	374.88
288.6	365.88
288.831	377.88
289.062	359.88
289.293	398.88
289.524	390.88
289.755	376.88
289.986	372.88
290.217	386.88
290.448	374.88
290.679	373.88
290.91	402.88
291.141	400.88
291.371	373.88
291.602	380.88
291.833	381.88
292.064	366.88
292.295	391.88
292.526	369.88
292.757	367.88
292.987	375.88
293.218	373.88
293.449	373.88
293.68	368.88
293.91	380.88
294.141	373.88
294.372	373.88
294.603	395.88
294.833	394.88
295.064	400.88
295.295	389.88
295.525	387.88
295.756	395.88
295.987	391.88
296.217	394.88
296.448	391.88
296.679	389.88
296.909	401.88
297.14	406.88
297.37	419.88
297.601	413.88
297.831	406.88
298.062	395.88
298.292	398.88
298.523	423.88
298.753	428.88
298.984	418.88
299.214	424.88
299.445	422.88
299.675	394.88
299.905	413.88
300.136	407.88
300.366	416.88
300.597	420.88
300.827	419.88
301.057	437.88
301.288	444.88
301.518	432.88
301.748	447.88
301.979	448.88
302.209	444.88
302.439	442.88
302.669	425.88
302.9	450.88
303.13	436.88
303.36	441.88
303.59	418.88
303.82	430.88
304.051	441.88
304.281	430.88
304.511	430.88
304.741	412.88
304.971	440.88
305.201	436.88
305.431	451.88
305.661	418.88
305.891	433.88
306.121	420.88
306.352	421.88
306.582	432.88
306.812	428.88
307.042	425.88
307.272	421.88
307.502	418.88
307.731	424.88
307.961	437.88
308.191	434.88
308.421	414.88
308.651	438.88
308.881	422.88
309.111	439.88
309.341	444.88
309.571	423.88
309.8	419.88
310.03	436.88
310.26	424.88
310.49	429.88
310.72	430.88
310.949	447.88
311.179	429.88
311.409	440.88
311.639	443.88
311.868	455.88
312.098	460.88
312.328	456.88
312.557	445.88
312.787	454.88
313.017	454.88
313.246	481.88
313.476	469.88
313.706	442.88
313.935	451.88
314.165	503.88
314.394	473.88
314.624	468.88
314.853	463.88
315.083	457.88
315.312	456.88
315.542	465.88
315.771	466.88
316.001	451.88
316.23	461.88
316.46	478.88
316.689	435.88
316.919	455.88
317.148	445.88
317.377	455.88
317.607	470.88
317.836	442.88
318.065	458.88
318.295	471.88
318.524	470.88
318.753	468.88
318.983	456.88
319.212	462.88
319.441	466.88
319.67	467.88
319.9	457.88
320.129	452.88
320.358	465.88
320.587	445.88
320.816	460.88
321.046	457.88
321.275	471.88
321.504	460.88
321.733	482.88
321.962	464.88
322.191	471.88
322.42	471.88
322.649	485.88
322.878	486.88
323.108	468.88
323.337	473.88
323.566	482.88
323.795	492.88
324.024	494.88
324.253	483.88
324.482	479.88
324.71	470.88
324.939	473.88
325.168	465.88
325.397	476.88
325.626	476.88
325.855	501.88
326.084	488.88
326.313	496.88
326.542	491.88
326.77	511.88
326.999	512.88
327.228	497.88
327.457	514.88
327.686	490.88
327.914	505.88
328.143	510.88
328.372	488.88
328.6	485.88
328.829	516.88
329.058	493.88
329.287	489.88
329.515	485.88
329.744	487.88
329.972	526.88
330.201	530.88
330.43	544.88
330.658	512.88
330.887	518.88
331.115	527.88
331.344	552.88
331.572	538.88
331.801	570.88
332.03	567.88
332.258	541.88
332.486	574.88
332.715	570.88
332.943	611.88
333.172	624.88
333.4	664.88
333.629	657.88
333.857	660.88
334.085	674.88
334.314	639.88
334.542	663.88
334.771	629.88
334.999	633.88
335.227	645.88
335.455	618.88
335.684	615.88
335.912	630.88
336.14	574.88
336.369	609.88
336.597	616.88
336.825	611.88
337.053	609.88
337.281	582.88
337.51	603.88
337.738	566.88
337.966	586.88
338.194	562.88
338.422	565.88
338.65	570.88
338.878	566.88
339.106	556.88
339.334	555.88
339.562	580.88
339.79	560.88
340.018	513.88
340.246	544.88
340.474	538.88
340.702	556.88
340.93	545.88
341.158	544.88
341.386	537.88
341.614	552.88
341.842	546.88
342.07	552.88
342.298	550.88
342.526	530.88
342.754	558.88
342.981	541.88
343.209	534.88
343.437	574.88
343.665	609.88
343.893	626.88
344.12	629.88
344.348	612.88
344.576	596.88
344.804	596.88
345.031	538.88
345.259	545.88
345.487	568.88
345.714	548.88
345.942	532.88
346.17	557.88
346.397	557.88
346.625	542.88
346.853	528.88
347.08	504.88
347.308	552.88
347.535	514.88
347.763	541.88
347.99	536.88
348.218	516.88
348.445	549.88
348.673	507.88
348.9	516.88
349.128	518.88
349.355	527.88
349.583	516.88
349.81	522.88
350.037	531.88
350.265	517.88
350.492	514.88
350.72	508.88
350.947	505.88
351.174	512.88
351.402	487.88
351.629	512.88
351.856	513.88
352.083	507.88
352.311	527.88
352.538	524.88
352.765	522.88
352.992	510.88
353.22	510.88
353.447	515.88
353.674	493.88
353.901	489.88
354.128	505.88
354.355	505.88
354.583	496.88
354.81	500.88
355.037	483.88
355.264	481.88
355.491	503.88
355.718	527.88
355.945	485.88
356.172	498.88
356.399	523.88
356.626	509.88
356.853	506.88
357.08	512.88
357.307	517.88
357.534	535.88
357.761	488.88
357.988	526.88
358.215	517.88
358.441	509.88
358.668	502.88
358.895	497.88
359.122	486.88
359.349	479.88
359.576	518.88
359.802	500.88
360.029	493.88
360.256	502.88
360.483	501.88
360.709	517.88
360.936	501.88
361.163	498.88
361.39	504.88
361.616	525.88
361.843	503.88
362.07	533.88
362.296	513.88
362.523	512.88
362.749	496.88
362.976	520.88
363.203	493.88
363.429	510.88
363.656	509.88
363.882	522.88
364.109	523.88
364.335	520.88
364.562	488.88
364.788	508.88
365.015	497.88
365.241	514.88
365.468	512.88
365.694	516.88
365.92	522.88
366.147	495.88
366.373	505.88
366.599	501.88
366.826	497.88
367.052	530.88
367.278	508.88
367.505	516.88
367.731	515.88
367.957	508.88
368.184	527.88
368.41	526.88
368.636	524.88
368.862	510.88
369.089	485.88
369.315	537.88
369.541	529.88
369.767	521.88
369.993	519.88
370.219	512.88
370.445	531.88
370.672	541.88
370.898	550.88
371.124	537.88
371.35	556.88
371.576	548.88
371.802	554.88
372.028	540.88
372.254	551.88
372.48	576.88
372.706	577.88
372.932	565.88
373.158	572.88
373.384	570.88
373.61	564.88
373.835	564.88
374.061	541.88
374.287	566.88
374.513	582.88
374.739	591.88
374.965	569.88
375.191	578.88
375.416	583.88
375.642	581.88
375.868	583.88
376.094	556.88
376.319	541.88
376.545	565.88
376.771	550.88
376.997	556.88
377.222	551.88
377.448	534.88
377.674	545.88
377.899	536.88
378.125	520.88
378.35	558.88
378.576	542.88
378.802	547.88
379.027	541.88
379.253	562.88
379.478	526.88
379.704	535.88
379.929	553.88
380.155	548.88
380.38	548.88
380.606	554.88
380.831	547.88
381.057	554.88
381.282	544.88
381.507	534.88
381.733	556.88
381.958	534.88
382.184	551.88
382.409	574.88
382.634	580.88
382.86	587.88
383.085	586.88
383.31	587.88
383.535	590.88
383.761	606.88
383.986	632.88
384.211	617.88
384.436	634.88
384.662	622.88
384.887	650.88
385.112	619.88
385.337	624.88
385.562	632.88
385.787	634.88
386.013	655.88
386.238	660.88
386.463	663.88
386.688	644.88
386.913	647.88
387.138	634.88
387.363	641.88
387.588	639.88
387.813	638.88
388.038	631.88
388.263	648.88
388.488	635.88
388.713	648.88
388.938	620.88
389.163	617.88
389.387	608.88
389.612	624.88
389.837	630.88
390.062	636.88
390.287	642.88
390.512	641.88
390.736	649.88
390.961	661.88
391.186	657.88
391.411	689.88
391.636	688.88
391.86	709.88
392.085	727.88
392.31	734.88
392.534	682.88
392.759	712.88
392.984	656.88
393.208	689.88
393.433	676.88
393.658	680.88
393.882	651.88
394.107	689.88
394.331	703.88
394.556	652.88
394.78	674.88
395.005	704.88
395.229	681.88
395.454	709.88
395.678	700.88
395.903	728.88
396.127	696.88
396.352	713.88
396.576	686.88
396.801	669.88
397.025	699.88
397.249	707.88
397.474	730.88
397.698	732.88
397.922	724.88
398.147	721.88
398.371	764.88
398.595	774.88
398.82	807.88
399.044	870.88
399.268	903.88
399.492	1070.88
399.717	1164.88
399.941	1143.88
400.165	1008.88
400.389	948.88
400.613	900.88
400.837	852.88
401.062	808.88
401.286	827.88
401.51	792.88
401.734	796.88
401.958	807.88
402.182	830.88
402.406	812.88
402.63	828.88
402.854	852.88
403.078	847.88
403.302	889.88
403.526	884.88
403.75	907.88
403.974	905.88
404.198	903.88
404.422	907.88
404.645	882.88
404.869	900.88
405.093	896.88
405.317	876.88
405.541	874.88
405.765	874.88
405.988	888.88
406.212	882.88
406.436	881.88
406.66	893.88
406.883	895.88
407.107	934.88
407.331	975.88
407.555	998.88
407.778	978.88
408.002	988.88
408.226	970.88
408.449	941.88
408.673	925.88
408.896	898.88
409.12	914.88
409.344	908.88
409.567	858.88
409.791	885.88
410.014	873.88
410.238	885.88
410.461	876.88
410.685	861.88
410.908	833.88
411.132	851.88
411.355	834.88
411.578	844.88
411.802	847.88
412.025	839.88
412.249	830.88
412.472	840.88
412.695	840.88
412.919	817.88
413.142	806.88
413.365	824.88
413.589	804.88
413.812	801.88
414.035	797.88
414.258	793.88
414.482	802.88
414.705	807.88
414.928	835.88
415.151	815.88
415.374	793.88
415.597	768.88
415.821	780.88
416.044	773.88
416.267	779.88
416.49	766.88
416.713	792.88
416.936	771.88
417.159	807.88
417.382	773.88
417.605	788.88
417.828	772.88
418.051	791.88
418.274	782.88
418.497	780.88
418.72	812.88
418.943	805.88
419.166	843.88
419.389	899.88
419.611	874.88
419.834	844.88
420.057	841.88
420.28	792.88
420.503	761.88
420.726	794.88
420.948	774.88
421.171	795.88
421.394	771.88
421.617	777.88
421.839	793.88
422.062	778.88
422.285	794.88
422.507	825.88
422.73	794.88
422.953	806.88
423.175	820.88
423.398	841.88
423.621	834.88
423.843	834.88
424.066	829.88
424.288	851.88
424.511	824.88
424.733	802.88
424.956	798.88
425.178	792.88
425.401	801.88
425.623	794.88
425.846	771.88
426.068	759.88
426.291	750.88
426.513	734.88
426.735	739.88
426.958	746.88
427.18	727.88
427.402	743.88
427.625	732.88
427.847	718.88
428.069	727.88
428.292	730.88
428.514	714.88
428.736	717.88
428.958	703.88
429.181	694.88
429.403	698.88
429.625	708.88
429.847	712.88
430.069	700.88
430.292	707.88
430.514	692.88
430.736	713.88
430.958	689.88
431.18	711.88
431.402	710.88
431.624	720.88
431.846	734.88
432.068	727.88
432.29	710.88
432.512	709.88
432.734	727.88
432.956	716.88
433.178	714.88
433.4	724.88
433.622	740.88
433.844	719.88
434.066	720.88
434.287	733.88
434.509	756.88
434.731	789.88
434.953	815.88
435.175	783.88
435.397	814.88
435.618	762.88
435.84	744.88
436.062	686.88
436.284	729.88
436.505	740.88
436.727	725.88
436.949	713.88
437.17	705.88
437.392	703.88
437.614	710.88
437.835	701.88
438.057	673.88
438.278	679.88
438.5	691.88
438.721	669.88
438.943	685.88
439.165	701.88
439.386	692.88
439.608	692.88
439.829	702.88
440.05	706.88
440.272	712.88
440.493	711.88
440.715	739.88
440.936	741.88
441.158	756.88
441.379	750.88
441.6	793.88
441.822	809.88
442.043	819.88
442.264	761.88
442.486	737.88
442.707	753.88
442.928	797.88
443.149	783.88
443.371	793.88
443.592	784.88
443.813	809.88
444.034	779.88
444.255	828.88
444.476	848.88
444.698	873.88
444.919	930.88
445.14	1048.88
445.361	883.88
445.582	806.88
445.803	770.88
446.024	730.88
446.245	745.88
446.466	722.88
446.687	708.88
446.908	718.88
447.129	712.88
447.35	691.88
447.571	701.88
447.792	684.88
448.013	672.88
448.234	671.88
448.455	667.88
448.675	646.88
448.896	664.88
449.117	641.88
449.338	651.88
449.559	633.88
449.779	618.88
450	648.88
450.221	680.88
450.442	640.88
450.662	651.88
450.883	654.88
451.104	662.88
451.324	669.88
451.545	656.88
451.766	661.88
451.986	678.88
452.207	665.88
452.428	633.88
452.648	653.88
452.869	658.88
453.089	645.88
453.31	665.88
453.53	631.88
453.751	630.88
453.971	633.88
454.192	632.88
454.412	621.88
454.633	620.88
454.853	621.88
455.073	629.88
455.294	619.88
455.514	611.88
455.734	619.88
455.955	614.88
456.175	640.88
456.395	622.88
456.616	611.88
456.836	622.88
457.056	631.88
457.276	604.88
457.497	632.88
457.717	628.88
457.937	646.88
458.157	638.88
458.377	633.88
458.598	658.88
458.818	689.88
459.038	702.88
459.258	717.88
459.478	717.88
459.698	732.88
459.918	768.88
460.138	800.88
460.358	814.88
460.578	824.88
460.798	867.88
461.018	848.88
461.238	823.88
461.458	833.88
461.678	809.88
461.898	822.88
462.118	867.88
462.338	867.88
462.558	899.88
462.777	953.88
462.997	970.88
463.217	1095.88
463.437	1064.88
463.657	983.88
463.876	976.88
464.096	940.88
464.316	948.88
464.536	946.88
464.755	915.88
464.975	893.88
465.195	853.88
465.414	816.88
465.634	782.88
465.854	733.88
466.073	729.88
466.293	739.88
466.512	712.88
466.732	694.88
466.951	708.88
467.171	697.88
467.391	694.88
467.61	700.88
467.829	668.88
468.049	674.88
468.268	664.88
468.488	680.88
468.707	670.88
468.927	675.88
469.146	675.88
469.365	694.88
469.585	684.88
469.804	704.88
470.023	720.88
470.243	712.88
470.462	726.88
470.681	739.88
470.901	724.88
471.12	730.88
471.339	700.88
471.558	692.88
471.777	710.88
471.997	679.88
472.216	672.88
472.435	683.88
472.654	636.88
472.873	657.88
473.092	645.88
473.311	643.88
473.53	649.88
473.749	666.88
473.968	654.88
474.187	667.88
474.406	656.88
474.625	673.88
474.844	659.88
475.063	656.88
475.282	669.88
475.501	673.88
475.72	704.88
475.939	690.88
476.158	713.88
476.377	680.88
476.596	697.88
476.814	688.88
477.033	700.88
477.252	689.88
477.471	737.88
477.69	726.88
477.908	770.88
478.127	766.88
478.346	755.88
478.564	803.88
478.783	822.88
479.002	806.88
479.22	816.88
479.439	841.88
479.658	819.88
479.876	801.88
480.095	815.88
480.313	857.88
480.532	860.88
480.751	864.88
480.969	849.88
481.188	812.88
481.406	767.88
481.624	779.88
481.843	791.88
482.061	741.88
482.28	750.88
482.498	776.88
482.717	746.88
482.935	766.88
483.153	748.88
483.372	787.88
483.59	772.88
483.808	760.88
484.027	755.88
484.245	759.88
484.463	773.88
484.681	769.88
484.9	790.88
485.118	779.88
485.336	772.88
485.554	794.88
485.772	781.88
485.99	798.88
486.209	793.88
486.427	790.88
486.645	805.88
486.863	773.88
487.081	777.88
487.299	800.88
487.517	788.88
487.735	795.88
487.953	796.88
488.171	807.88
488.389	798.88
488.607	798.88
488.825	790.88
489.043	803.88
489.261	775.88
489.479	801.88
489.696	785.88
489.914	778.88
490.132	793.88
490.35	806.88
490.568	805.88
490.786	810.88
491.003	825.88
491.221	841.88
491.439	816.88
491.657	810.88
491.874	821.88
492.092	825.88
492.31	832.88
492.527	827.88
492.745	823.88
492.963	829.88
493.18	829.88
493.398	809.88
493.615	839.88
493.833	846.88
494.05	879.88
494.268	869.88
494.485	871.88
494.703	866.88
494.92	884.88
495.138	856.88
495.355	869.88
495.573	868.88
495.79	858.88
496.008	880.88
496.225	914.88
496.442	912.88
496.66	863.88
496.877	906.88
497.094	926.88
497.312	922.88
497.529	949.88
497.746	967.88
497.963	980.88
498.181	1047.88
498.398	1052.88
498.615	1118.88
498.832	1210.88
499.049	1307.88
499.267	1413.88
499.484	1502.88
499.701	1605.88
499.918	1751.88
500.135	1960.88
500.352	2183.88
500.569	2303.88
500.786	2246.88
501.003	2118.88
501.22	1929.88
501.437	1744.88
501.654	1544.88
501.871	1435.88
502.088	1338.88
502.305	1247.88
502.522	1172.88
502.739	1130.88
502.956	1097.88
503.172	1064.88
503.389	993.88
503.606	998.88
503.823	990.88
504.04	958.88
504.256	932.88
504.473	973.88
504.69	1017.88
504.907	950.88
505.123	909.88
505.34	881.88
505.557	856.88
505.773	839.88
505.99	838.88
506.207	796.88
506.423	790.88
506.64	799.88
506.856	777.88
507.073	769.88
507.289	754.88
507.506	732.88
507.722	749.88
507.939	710.88
508.155	736.88
508.372	733.88
508.588	754.88
508.805	739.88
509.021	701.88
509.238	694.88
509.454	712.88
509.67	712.88
509.887	718.88
510.103	681.88
510.319	694.88
510.536	691.88
510.752	706.88
510.968	695.88
511.184	683.88
511.401	684.88
511.617	673.88
511.833	688.88
512.049	678.88
512.265	696.88
512.481	700.88
512.698	702.88
512.914	686.88
513.13	701.88
513.346	692.88
513.562	698.88
513.778	691.88
513.994	678.88
514.21	706.88
514.426	689.88
514.642	700.88
514.858	710.88
515.074	714.88
515.29	688.88
515.506	722.88
515.721	722.88
515.937	720.88
516.153	748.88
516.369	744.88
516.585	753.88
516.801	797.88
517.016	839.88
517.232	859.88
517.448	862.88
517.664	912.88
517.879	886.88
518.095	899.88
518.311	884.88
518.527	845.88
518.742	826.88
518.958	783.88
519.173	774.88
519.389	747.88
519.605	730.88
519.82	714.88
520.036	702.88
520.251	703.88
520.467	702.88
520.682	673.88
520.898	689.88
521.113	694.88
521.329	695.88
521.544	649.88
521.76	666.88
521.975	668.88
522.19	671.88
522.406	660.88
522.621	634.88
522.836	636.88
523.052	646.88
523.267	649.88
523.482	648.88
523.698	630.88
523.913	628.88
524.128	642.88
524.343	633.88
524.559	640.88
524.774	626.88
524.989	634.88
525.204	624.88
525.419	642.88
525.634	653.88
525.849	601.88
526.064	621.88
526.28	650.88
526.495	634.88
526.71	623.88
526.925	614.88
527.14	628.88
527.355	608.88
527.57	620.88
527.785	628.88
527.999	617.88
528.214	621.88
528.429	616.88
528.644	608.88
528.859	641.88
529.074	628.88
529.289	628.88
529.503	628.88
529.718	616.88
529.933	653.88
530.148	617.88
530.363	625.88
530.577	609.88
530.792	578.88
531.007	608.88
531.221	619.88
531.436	622.88
531.651	609.88
531.865	632.88
532.08	624.88
532.295	610.88
532.509	604.88
532.724	596.88
532.938	625.88
533.153	609.88
533.367	605.88
533.582	628.88
533.796	609.88
534.011	607.88
534.225	629.88
534.44	591.88
534.654	581.88
534.868	575.88
535.083	588.88
535.297	615.88
535.511	593.88
535.726	588.88
535.94	584.88
536.154	562.88
536.369	578.88
536.583	585.88
536.797	577.88
537.011	559.88
537.225	590.88
537.44	553.88
537.654	584.88
537.868	576.88
538.082	578.88
538.296	559.88
538.51	544.88
538.724	580.88
538.938	569.88
539.153	550.88
539.367	556.88
539.581	578.88
539.795	545.88
540.009	574.88
540.222	546.88
540.436	573.88
540.65	562.88
540.864	560.88
541.078	578.88
541.292	565.88
541.506	571.88
541.72	554.88
541.934	569.88
542.147	576.88
542.361	556.88
542.575	535.88
542.789	553.88
543.002	563.88
543.216	572.88
543.43	580.88
543.644	561.88
543.857	541.88
544.071	565.88
544.285	576.88
544.498	584.88
544.712	556.88
544.925	568.88
545.139	574.88
545.352	572.88
545.566	562.88
545.779	565.88
545.993	585.88
546.206	584.88
546.42	588.88
546.633	580.88
546.847	577.88
547.06	536.88
547.274	583.88
547.487	583.88
547.7	561.88
547.914	578.88
548.127	557.88
548.34	568.88
548.554	560.88
548.767	571.88
548.98	554.88
549.193	571.88
549.407	580.88
549.62	572.88
549.833	568.88
550.046	560.88
550.259	568.88
550.473	563.88
550.686	563.88
550.899	574.88
551.112	560.88
551.325	556.88
551.538	549.88
551.751	544.88
551.964	540.88
552.177	556.88
552.39	570.88
552.603	608.88
552.816	609.88
553.029	607.88
553.242	622.88
553.455	605.88
553.667	631.88
553.88	599.88
554.093	580.88
554.306	565.88
554.519	575.88
554.732	579.88
554.944	537.88
555.157	549.88
555.37	531.88
555.583	542.88
555.795	545.88
556.008	514.88
556.221	516.88
556.433	496.88
556.646	494.88
556.859	487.88
557.071	481.88
557.284	502.88
557.496	476.88
557.709	484.88
557.921	493.88
558.134	494.88
558.346	490.88
558.559	483.88
558.771	479.88
558.984	477.88
559.196	457.88
559.409	462.88
559.621	468.88
559.833	482.88
560.046	469.88
560.258	455.88
560.47	469.88
560.683	489.88
560.895	506.88
561.107	478.88
561.32	458.88
561.532	478.88
561.744	462.88
561.956	473.88
562.168	464.88
562.381	484.88
562.593	473.88
562.805	470.88
563.017	480.88
563.229	474.88
563.441	454.88
563.653	460.88
563.865	479.88
564.077	474.88
564.289	484.88
564.501	504.88
564.713	496.88
564.925	526.88
565.137	518.88
565.349	504.88
565.561	520.88
565.773	549.88
565.985	576.88
566.197	592.88
566.408	625.88
566.62	686.88
566.832	699.88
567.044	695.88
567.255	737.88
567.467	761.88
567.679	778.88
567.891	849.88
568.102	817.88
568.314	791.88
568.526	726.88
568.737	664.88
568.949	629.88
569.161	574.88
569.372	557.88
569.584	525.88
569.795	524.88
570.007	484.88
570.218	489.88
570.43	467.88
570.641	492.88
570.853	482.88
571.064	466.88
571.276	468.88
571.487	479.88
571.698	436.88
571.91	449.88
572.121	422.88
572.333	440.88
572.544	408.88
572.755	420.88
572.966	409.88
573.178	393.88
573.389	407.88
573.6	404.88
573.811	402.88
574.023	396.88
574.234	421.88
574.445	395.88
574.656	382.88
574.867	398.88
575.078	394.88
575.289	389.88
575.501	388.88
575.712	371.88
575.923	373.88
576.134	363.88
576.345	374.88
576.556	371.88
576.767	367.88
576.978	395.88
577.188	351.88
577.399	367.88
577.61	376.88
577.821	374.88
578.032	350.88
578.243	352.88
578.454	332.88
578.665	361.88
578.875	342.88
579.086	334.88
579.297	334.88
579.508	338.88
579.718	356.88
579.929	346.88
580.14	339.88
580.35	349.88
580.561	337.88
580.772	320.88
580.982	332.88
581.193	338.88
581.403	353.88
581.614	341.88
581.825	353.88
582.035	337.88
582.246	324.88
582.456	322.88
582.667	323.88
582.877	318.88
583.087	329.88
583.298	333.88
583.508	316.88
583.719	340.88
583.929	308.88
584.139	335.88
584.35	321.88
584.56	344.88
584.77	335.88
584.981	318.88
585.191	316.88
585.401	303.88
585.611	318.88
585.821	306.88
586.032	308.88
586.242	314.88
586.452	310.88
586.662	302.88
586.872	294.88
587.082	305.88
587.292	305.88
587.502	321.88
587.713	307.88
587.923	315.88
588.133	300.88
588.343	320.88
588.553	289.88
588.762	304.88
588.972	324.88
589.182	341.88
589.392	347.88
589.602	324.88
589.812	354.88
590.022	326.88
590.232	331.88
590.441	333.88
590.651	316.88
590.861	327.88
591.071	317.88
591.281	333.88
591.49	336.88
591.7	334.88
591.91	340.88
592.119	346.88
592.329	338.88
592.539	334.88
592.748	367.88
592.958	370.88
593.167	371.88
593.377	384.88
593.587	372.88
593.796	386.88
594.006	384.88
594.215	384.88
594.424	386.88
594.634	373.88
594.843	351.88
595.053	364.88
595.262	352.88
595.472	329.88
595.681	323.88
595.89	322.88
596.1	310.88
596.309	308.88
596.518	308.88
596.727	287.88
596.937	296.88
597.146	292.88
597.355	295.88
597.564	288.88
597.774	290.88
597.983	280.88
598.192	290.88
598.401	278.88
598.61	292.88
598.819	282.88
599.028	272.88
599.237	284.88
599.446	267.88
599.655	279.88
599.864	280.88
600.073	265.88
600.282	277.88
600.491	262.88
600.7	255.88
600.909	266.88
601.118	259.88
601.327	276.88
601.536	262.88
601.745	264.88
601.953	281.88
602.162	256.88
602.371	254.88
602.58	254.88
602.789	254.88
602.997	267.88
603.206	259.88
603.415	259.88
603.623	266.88
603.832	247.88
604.041	260.88
604.249	264.88
604.458	257.88
604.666	245.88
604.875	249.88
605.084	254.88
605.292	261.88
605.501	236.88
605.709	239.88
605.918	251.88
606.126	256.88
606.334	247.88
606.543	230.88
606.751	237.88
606.96	248.88
607.168	244.88
607.376	232.88
607.585	232.88
607.793	237.88
608.001	233.88
608.21	249.88
608.418	232.88
608.626	266.88
608.834	268.88
609.043	238.88
609.251	255.88
609.459	241.88
609.667	245.88
609.875	236.88
610.083	241.88
610.291	229.88
610.499	236.88
610.707	241.88
610.916	234.88
611.124	236.88
611.332	244.88
611.54	228.88
611.748	244.88
611.955	220.88
612.163	224.88
612.371	236.88
612.579	231.88
612.787	227.88
612.995	221.88
613.203	232.88
613.411	240.88
613.618	246.88
613.826	241.88
614.034	216.88
614.242	232.88
614.449	229.88
614.657	234.88
614.865	228.88
615.072	245.88
615.28	231.88
615.488	233.88
615.695	234.88
615.903	225.88
616.111	237.88
616.318	241.88
616.526	243.88
616.733	234.88
616.941	230.88
617.148	252.88
617.356	225.88
617.563	241.88
617.771	238.88
617.978	244.88
618.185	237.88
618.393	222.88
618.6	224.88
618.807	238.88
619.015	225.88
619.222	222.88
619.429	230.88
619.637	225.88
619.844	218.88
620.051	224.88
620.258	228.88
620.466	225.88
620.673	224.88
620.88	215.88
621.087	217.88
621.294	228.88
621.501	239.88
621.708	222.88
621.915	236.88
622.122	219.88
622.329	219.88
622.536	213.88
622.743	225.88
622.95	217.88
623.157	218.88
623.364	214.88
623.571	203.88
623.778	236.88
623.985	213.88
624.192	210.88
624.399	211.88
624.606	213.88
624.812	213.88
625.019	211.88
625.226	205.88
625.433	229.88
625.639	200.88
625.846	200.88
626.053	190.88
626.259	217.88
626.466	201.88
626.673	205.88
626.879	198.88
627.086	203.88
627.293	198.88
627.499	206.88
627.706	215.88
627.912	208.88
628.119	205.88
628.325	190.88
628.532	197.88
628.738	186.88
628.945	199.88
629.151	201.88
629.357	210.88
629.564	174.88
629.77	196.88
629.976	198.88
630.183	191.88
630.389	190.88
630.595	199.88
630.802	191.88
631.008	185.88
631.214	188.88
631.42	191.88
631.627	189.88
631.833	181.88
632.039	200.88
632.245	192.88
632.451	180.88
632.657	191.88
632.863	206.88
633.069	186.88
633.275	175.88
633.481	178.88
633.688	185.88
633.893	188.88
634.099	203.88
634.305	182.88
634.511	179.88
634.717	183.88
634.923	186.88
635.129	166.88
635.335	197.88
635.541	163.88
635.747	188.88
635.952	182.88
636.158	184.88
636.364	185.88
636.57	173.88
636.775	174.88
636.981	180.88
637.187	166.88
637.392	183.88
637.598	181.88
637.804	183.88
638.009	169.88
638.215	170.88
638.421	176.88
638.626	178.88
638.832	166.88
639.037	156.88
639.243	170.88
639.448	176.88
639.654	178.88
639.859	162.88
640.065	169.88
640.27	186.88
640.475	165.88
640.681	177.88
640.886	163.88
641.091	154.88
641.297	164.88
641.502	162.88
641.707	172.88
641.913	160.88
642.118	148.88
642.323	149.88
642.528	158.88
642.733	154.88
642.939	186.88
643.144	164.88
643.349	168.88
643.554	155.88
643.759	157.88
643.964	178.88
644.169	167.88
644.374	174.88
644.579	167.88
644.784	164.88
644.989	174.88
645.194	172.88
645.399	170.88
645.604	175.88
645.809	160.88
646.014	151.88
646.219	163.88
646.423	162.88
646.628	155.88
646.833	182.88
647.038	172.88
647.243	175.88
647.447	172.88
647.652	161.88
647.857	165.88
648.062	179.88
648.266	174.88
648.471	170.88
648.676	177.88
648.88	168.88
649.085	174.88
649.289	167.88
649.494	152.88
649.698	145.88
649.903	183.88
650.107	168.88
650.312	168.88
650.516	166.88
650.721	160.88
650.925	153.88
651.13	153.88
651.334	132.88
651.539	156.88
651.743	152.88
651.947	153.88
652.152	142.88
652.356	140.88
652.56	140.88
652.764	136.88
652.969	146.88
653.173	138.88
653.377	130.88
653.581	137.88
653.785	150.88
653.99	132.88
654.194	144.88
654.398	132.88
654.602	142.88
654.806	132.88
655.01	137.88
655.214	142.88
655.418	131.88
655.622	130.88
655.826	136.88
656.03	129.88
656.234	144.88
656.438	134.88
656.642	131.88
656.846	116.88
657.049	113.88
657.253	128.88
657.457	106.88
657.661	117.88
657.865	128.88
658.068	116.88
658.272	111.88
658.476	109.88
658.68	105.88
658.883	107.88
659.087	104.88
659.291	116.88
659.494	112.88
659.698	93.88
659.901	101.88
660.105	94.88
660.309	74.88
660.512	85.88
660.716	98.88
660.919	89.88
661.123	83.88
661.326	87.88
661.53	89.88
661.733	92.88
661.936	100.88
662.14	78.88
662.343	91.88
662.546	96.88
662.75	94.88
662.953	95.88
663.156	81.88
663.36	69.88
663.563	80.88
663.766	79.88
663.969	77.88
664.173	89.88
664.376	83.88
664.579	69.88
664.782	84.88
664.985	74.88
665.188	78.88
665.391	80.88
665.594	82.88
665.797	74.88
666	99.88
666.203	89.88
666.406	75.88
666.609	80.88
666.812	88.88
667.015	76.88
667.218	82.88
667.421	89.88
667.624	81.88
667.827	92.88
668.03	88.88
668.232	80.88
668.435	81.88
668.638	80.88
668.841	69.88
669.043	86.88
669.246	83.88
669.449	74.88
669.651	78.88
669.854	73.88
670.057	81.88
670.259	95.88
670.462	76.88
670.665	66.88
670.867	96.88
671.07	77.88
671.272	78.88
671.475	74.88
671.677	82.88
671.88	75.88
672.082	92.88
672.284	77.88
672.487	73.88
672.689	80.88
672.892	72.88
