Data from NiCl2@0.0625M.TitratingCurve.Agarose3%dH2O.NegLispCup.LampEnergy10.LIBS07252019_HRD10591_18-33-31-576.txt Node
Date: Thu Jul 25 18:33:31 EDT 2019
User: cochatt
Spectrometer: HR+D1059
Trigger mode: 1
Integration Time (sec): 1.000000E-1
Scans to average: 1
Electric dark correction enabled: true
Nonlinearity correction enabled: false
Boxcar width: 0
XAxis mode: Wavelengths
Number of Pixels in Spectrum: 2048
>>>>>Begin Spectral Data<<<<<
223.165	-25.19
223.4	-25.19
223.635	-25.19
223.869	-19.19
224.104	-17.19
224.338	-25.19
224.573	-10.19
224.808	-19.19
225.042	-12.19
225.277	8.81
225.511	2.81
225.746	2.81
225.98	9.81
226.215	9.81
226.449	17.81
226.683	21.81
226.918	14.81
227.152	39.81
227.387	52.81
227.621	39.81
227.856	47.81
228.09	42.81
228.324	59.81
228.559	43.81
228.793	82.81
229.027	148.81
229.262	178.81
229.496	172.81
229.73	191.81
229.964	198.81
230.199	187.81
230.433	204.81
230.667	172.81
230.901	189.81
231.136	198.81
231.37	203.81
231.604	190.81
231.838	214.81
232.072	208.81
232.306	204.81
232.541	202.81
232.775	220.81
233.009	224.81
233.243	209.81
233.477	212.81
233.711	212.81
233.945	217.81
234.179	220.81
234.413	248.81
234.647	235.81
234.881	216.81
235.115	237.81
235.349	244.81
235.583	243.81
235.817	227.81
236.051	229.81
236.285	248.81
236.519	235.81
236.753	257.81
236.987	257.81
237.221	246.81
237.455	246.81
237.689	246.81
237.922	252.81
238.156	273.81
238.39	275.81
238.624	249.81
238.858	275.81
239.091	272.81
239.325	265.81
239.559	268.81
239.793	252.81
240.027	283.81
240.26	292.81
240.494	301.81
240.728	293.81
240.961	305.81
241.195	297.81
241.429	295.81
241.662	327.81
241.896	320.81
242.13	322.81
242.363	328.81
242.597	330.81
242.83	322.81
243.064	328.81
243.298	312.81
243.531	330.81
243.765	334.81
243.998	353.81
244.232	344.81
244.465	349.81
244.699	351.81
244.932	354.81
245.166	358.81
245.399	360.81
245.633	381.81
245.866	368.81
246.099	366.81
246.333	375.81
246.566	377.81
246.8	369.81
247.033	378.81
247.266	386.81
247.5	382.81
247.733	396.81
247.966	377.81
248.2	428.81
248.433	402.81
248.666	401.81
248.899	404.81
249.133	410.81
249.366	419.81
249.599	413.81
249.832	436.81
250.066	444.81
250.299	442.81
250.532	422.81
250.765	461.81
250.998	456.81
251.231	453.81
251.465	446.81
251.698	445.81
251.931	470.81
252.164	473.81
252.397	468.81
252.63	457.81
252.863	464.81
253.096	470.81
253.329	463.81
253.562	466.81
253.795	495.81
254.028	491.81
254.261	510.81
254.494	495.81
254.727	482.81
254.96	467.81
255.193	500.81
255.426	481.81
255.659	510.81
255.892	518.81
256.124	516.81
256.357	515.81
256.59	531.81
256.823	531.81
257.056	508.81
257.289	516.81
257.521	546.81
257.754	515.81
257.987	553.81
258.22	533.81
258.452	530.81
258.685	547.81
258.918	524.81
259.151	545.81
259.383	538.81
259.616	553.81
259.849	557.81
260.081	555.81
260.314	561.81
260.547	557.81
260.779	572.81
261.012	586.81
261.244	586.81
261.477	581.81
261.71	568.81
261.942	580.81
262.175	554.81
262.407	578.81
262.64	592.81
262.872	610.81
263.105	604.81
263.337	614.81
263.57	594.81
263.802	597.81
264.035	594.81
264.267	606.81
264.499	603.81
264.732	621.81
264.964	609.81
265.197	624.81
265.429	620.81
265.661	646.81
265.894	642.81
266.126	627.81
266.358	626.81
266.591	630.81
266.823	649.81
267.055	629.81
267.287	643.81
267.52	636.81
267.752	668.81
267.984	646.81
268.216	649.81
268.448	661.81
268.681	672.81
268.913	677.81
269.145	682.81
269.377	670.81
269.609	683.81
269.841	704.81
270.073	670.81
270.306	686.81
270.538	692.81
270.77	704.81
271.002	691.81
271.234	694.81
271.466	710.81
271.698	708.81
271.93	722.81
272.162	714.81
272.394	718.81
272.626	729.81
272.858	697.81
273.09	709.81
273.322	739.81
273.553	737.81
273.785	737.81
274.017	730.81
274.249	760.81
274.481	749.81
274.713	757.81
274.945	762.81
275.176	742.81
275.408	757.81
275.64	753.81
275.872	760.81
276.104	755.81
276.335	768.81
276.567	752.81
276.799	793.81
277.031	800.81
277.262	808.81
277.494	796.81
277.726	802.81
277.957	763.81
278.189	790.81
278.421	813.81
278.652	812.81
278.884	782.81
279.115	809.81
279.347	826.81
279.579	813.81
279.81	838.81
280.042	824.81
280.273	845.81
280.505	812.81
280.736	867.81
280.968	827.81
281.199	838.81
281.431	837.81
281.662	860.81
281.894	852.81
282.125	860.81
282.356	873.81
282.588	875.81
282.819	845.81
283.051	859.81
283.282	870.81
283.513	860.81
283.745	859.81
283.976	892.81
284.207	889.81
284.439	885.81
284.67	923.81
284.901	902.81
285.132	925.81
285.364	886.81
285.595	917.81
285.826	909.81
286.057	930.81
286.288	881.81
286.52	907.81
286.751	913.81
286.982	934.81
287.213	906.81
287.444	932.81
287.675	933.81
287.906	917.81
288.138	948.81
288.369	939.81
288.6	931.81
288.831	936.81
289.062	946.81
289.293	942.81
289.524	923.81
289.755	954.81
289.986	947.81
290.217	942.81
290.448	951.81
290.679	963.81
290.91	961.81
291.141	980.81
291.371	956.81
291.602	957.81
291.833	987.81
292.064	958.81
292.295	959.81
292.526	961.81
292.757	968.81
292.987	970.81
293.218	945.81
293.449	993.81
293.68	982.81
293.91	968.81
294.141	962.81
294.372	963.81
294.603	990.81
294.833	975.81
295.064	1016.81
295.295	998.81
295.525	1008.81
295.756	993.81
295.987	1012.81
296.217	1004.81
296.448	1026.81
296.679	1010.81
296.909	1009.81
297.14	1016.81
297.37	1034.81
297.601	1059.81
297.831	1041.81
298.062	1056.81
298.292	1076.81
298.523	1052.81
298.753	1056.81
298.984	1048.81
299.214	1061.81
299.445	1072.81
299.675	1044.81
299.905	1069.81
300.136	1065.81
300.366	1077.81
300.597	1051.81
300.827	1068.81
301.057	1072.81
301.288	1120.81
301.518	1090.81
301.748	1104.81
301.979	1155.81
302.209	1116.81
302.439	1113.81
302.669	1089.81
302.9	1095.81
303.13	1080.81
303.36	1138.81
303.59	1114.81
303.82	1112.81
304.051	1110.81
304.281	1120.81
304.511	1099.81
304.741	1087.81
304.971	1093.81
305.201	1113.81
305.431	1090.81
305.661	1088.81
305.891	1074.81
306.121	1096.81
306.352	1095.81
306.582	1100.81
306.812	1093.81
307.042	1091.81
307.272	1091.81
307.502	1073.81
307.731	1106.81
307.961	1116.81
308.191	1114.81
308.421	1085.81
308.651	1104.81
308.881	1073.81
309.111	1098.81
309.341	1081.81
309.571	1099.81
309.8	1092.81
310.03	1091.81
310.26	1122.81
310.49	1088.81
310.72	1126.81
310.949	1134.81
311.179	1116.81
311.409	1138.81
311.639	1110.81
311.868	1144.81
312.098	1133.81
312.328	1146.81
312.557	1164.81
312.787	1125.81
313.017	1151.81
313.246	1181.81
313.476	1162.81
313.706	1149.81
313.935	1161.81
314.165	1173.81
314.394	1167.81
314.624	1194.81
314.853	1173.81
315.083	1158.81
315.312	1218.81
315.542	1181.81
315.771	1174.81
316.001	1175.81
316.23	1180.81
316.46	1162.81
316.689	1191.81
316.919	1180.81
317.148	1162.81
317.377	1170.81
317.607	1194.81
317.836	1174.81
318.065	1170.81
318.295	1160.81
318.524	1156.81
318.753	1163.81
318.983	1182.81
319.212	1170.81
319.441	1148.81
319.67	1184.81
319.9	1163.81
320.129	1182.81
320.358	1162.81
320.587	1160.81
320.816	1164.81
321.046	1212.81
321.275	1186.81
321.504	1182.81
321.733	1189.81
321.962	1202.81
322.191	1202.81
322.42	1195.81
322.649	1232.81
322.878	1202.81
323.108	1192.81
323.337	1234.81
323.566	1249.81
323.795	1231.81
324.024	1220.81
324.253	1217.81
324.482	1184.81
324.71	1219.81
324.939	1209.81
325.168	1218.81
325.397	1206.81
325.626	1258.81
325.855	1272.81
326.084	1280.81
326.313	1285.81
326.542	1295.81
326.77	1267.81
326.999	1287.81
327.228	1275.81
327.457	1283.81
327.686	1301.81
327.914	1310.81
328.143	1291.81
328.372	1277.81
328.6	1264.81
328.829	1285.81
329.058	1288.81
329.287	1326.81
329.515	1305.81
329.744	1317.81
329.972	1292.81
330.201	1305.81
330.43	1314.81
330.658	1348.81
330.887	1330.81
331.115	1354.81
331.344	1371.81
331.572	1338.81
331.801	1356.81
332.03	1376.81
332.258	1412.81
332.486	1434.81
332.715	1458.81
332.943	1502.81
333.172	1539.81
333.4	1618.81
333.629	1643.81
333.857	1599.81
334.085	1658.81
334.314	1594.81
334.542	1614.81
334.771	1617.81
334.999	1577.81
335.227	1567.81
335.455	1568.81
335.684	1609.81
335.912	1573.81
336.14	1577.81
336.369	1538.81
336.597	1523.81
336.825	1533.81
337.053	1520.81
337.281	1526.81
337.51	1469.81
337.738	1460.81
337.966	1443.81
338.194	1434.81
338.422	1394.81
338.65	1406.81
338.878	1416.81
339.106	1402.81
339.334	1418.81
339.562	1416.81
339.79	1413.81
340.018	1399.81
340.246	1354.81
340.474	1322.81
340.702	1368.81
340.93	1365.81
341.158	1356.81
341.386	1338.81
341.614	1362.81
341.842	1367.81
342.07	1355.81
342.298	1346.81
342.526	1326.81
342.754	1320.81
342.981	1350.81
343.209	1332.81
343.437	1420.81
343.665	1492.81
343.893	1502.81
344.12	1569.81
344.348	1579.81
344.576	1501.81
344.804	1462.81
345.031	1381.81
345.259	1402.81
345.487	1400.81
345.714	1359.81
345.942	1336.81
346.17	1353.81
346.397	1308.81
346.625	1306.81
346.853	1306.81
347.08	1312.81
347.308	1291.81
347.535	1284.81
347.763	1304.81
347.99	1292.81
348.218	1298.81
348.445	1285.81
348.673	1311.81
348.9	1322.81
349.128	1275.81
349.355	1286.81
349.583	1273.81
349.81	1282.81
350.037	1244.81
350.265	1267.81
350.492	1270.81
350.72	1261.81
350.947	1227.81
351.174	1261.81
351.402	1251.81
351.629	1248.81
351.856	1274.81
352.083	1243.81
352.311	1236.81
352.538	1205.81
352.765	1245.81
352.992	1266.81
353.22	1240.81
353.447	1227.81
353.674	1241.81
353.901	1221.81
354.128	1204.81
354.355	1218.81
354.583	1269.81
354.81	1229.81
355.037	1249.81
355.264	1275.81
355.491	1271.81
355.718	1235.81
355.945	1260.81
356.172	1267.81
356.399	1230.81
356.626	1270.81
356.853	1267.81
357.08	1278.81
357.307	1284.81
357.534	1221.81
357.761	1261.81
357.988	1268.81
358.215	1255.81
358.441	1273.81
358.668	1235.81
358.895	1230.81
359.122	1219.81
359.349	1278.81
359.576	1288.81
359.802	1277.81
360.029	1268.81
360.256	1252.81
360.483	1260.81
360.709	1229.81
360.936	1251.81
361.163	1278.81
361.39	1269.81
361.616	1255.81
361.843	1271.81
362.07	1304.81
362.296	1285.81
362.523	1255.81
362.749	1242.81
362.976	1254.81
363.203	1282.81
363.429	1253.81
363.656	1264.81
363.882	1259.81
364.109	1274.81
364.335	1241.81
364.562	1255.81
364.788	1246.81
365.015	1232.81
365.241	1219.81
365.468	1240.81
365.694	1239.81
365.92	1213.81
366.147	1268.81
366.373	1314.81
366.599	1274.81
366.826	1258.81
367.052	1254.81
367.278	1259.81
367.505	1291.81
367.731	1250.81
367.957	1240.81
368.184	1284.81
368.41	1286.81
368.636	1281.81
368.862	1266.81
369.089	1289.81
369.315	1293.81
369.541	1288.81
369.767	1275.81
369.993	1293.81
370.219	1313.81
370.445	1331.81
370.672	1326.81
370.898	1325.81
371.124	1314.81
371.35	1338.81
371.576	1344.81
371.802	1330.81
372.028	1319.81
372.254	1394.81
372.48	1408.81
372.706	1416.81
372.932	1400.81
373.158	1418.81
373.384	1382.81
373.61	1396.81
373.835	1365.81
374.061	1349.81
374.287	1383.81
374.513	1416.81
374.739	1418.81
374.965	1447.81
375.191	1477.81
375.416	1479.81
375.642	1433.81
375.868	1454.81
376.094	1379.81
376.319	1384.81
376.545	1392.81
376.771	1349.81
376.997	1378.81
377.222	1360.81
377.448	1324.81
377.674	1358.81
377.899	1333.81
378.125	1347.81
378.35	1340.81
378.576	1339.81
378.802	1344.81
379.027	1357.81
379.253	1364.81
379.478	1314.81
379.704	1313.81
379.929	1365.81
380.155	1349.81
380.38	1331.81
380.606	1345.81
380.831	1347.81
381.057	1370.81
381.282	1354.81
381.507	1373.81
381.733	1392.81
381.958	1364.81
382.184	1382.81
382.409	1391.81
382.634	1416.81
382.86	1430.81
383.085	1421.81
383.31	1434.81
383.535	1472.81
383.761	1482.81
383.986	1518.81
384.211	1528.81
384.436	1508.81
384.662	1573.81
384.887	1568.81
385.112	1595.81
385.337	1611.81
385.562	1571.81
385.787	1612.81
386.013	1640.81
386.238	1638.81
386.463	1617.81
386.688	1590.81
386.913	1588.81
387.138	1596.81
387.363	1606.81
387.588	1607.81
387.813	1609.81
388.038	1601.81
388.263	1586.81
388.488	1601.81
388.713	1598.81
388.938	1630.81
389.163	1596.81
389.387	1634.81
389.612	1594.81
389.837	1605.81
390.062	1596.81
390.287	1627.81
390.512	1580.81
390.736	1606.81
390.961	1637.81
391.186	1664.81
391.411	1680.81
391.636	1751.81
391.86	1760.81
392.085	1782.81
392.31	1792.81
392.534	1770.81
392.759	1738.81
392.984	1709.81
393.208	1701.81
393.433	1709.81
393.658	1736.81
393.882	1708.81
394.107	1705.81
394.331	1707.81
394.556	1701.81
394.78	1699.81
395.005	1722.81
395.229	1750.81
395.454	1782.81
395.678	1758.81
395.903	1851.81
396.127	1790.81
396.352	1757.81
396.576	1765.81
396.801	1732.81
397.025	1759.81
397.249	1815.81
397.474	1784.81
397.698	1850.81
397.922	1838.81
398.147	1837.81
398.371	1883.81
398.595	1919.81
398.82	1980.81
399.044	2068.81
399.268	2235.81
399.492	2490.81
399.717	2678.81
399.941	2740.81
400.165	2530.81
400.389	2363.81
400.613	2190.81
400.837	2134.81
401.062	2097.81
401.286	2041.81
401.51	2069.81
401.734	1996.81
401.958	2005.81
402.182	2002.81
402.406	2034.81
402.63	2020.81
402.854	2050.81
403.078	2068.81
403.302	2108.81
403.526	2120.81
403.75	2153.81
403.974	2153.81
404.198	2159.81
404.422	2190.81
404.645	2157.81
404.869	2145.81
405.093	2205.81
405.317	2128.81
405.541	2150.81
405.765	2154.81
405.988	2122.81
406.212	2173.81
406.436	2147.81
406.66	2266.81
406.883	2262.81
407.107	2345.81
407.331	2373.81
407.555	2542.81
407.778	2484.81
408.002	2468.81
408.226	2394.81
408.449	2386.81
408.673	2308.81
408.896	2220.81
409.12	2210.81
409.344	2214.81
409.567	2254.81
409.791	2210.81
410.014	2208.81
410.238	2169.81
410.461	2172.81
410.685	2192.81
410.908	2157.81
411.132	2116.81
411.355	2055.81
411.578	2078.81
411.802	2019.81
412.025	2093.81
412.249	2091.81
412.472	2085.81
412.695	2050.81
412.919	2002.81
413.142	2013.81
413.365	2019.81
413.589	2011.81
413.812	1978.81
414.035	1934.81
414.258	2008.81
414.482	1961.81
414.705	2046.81
414.928	1988.81
415.151	2013.81
415.374	2006.81
415.597	1953.81
415.821	1959.81
416.044	1947.81
416.267	1921.81
416.49	1919.81
416.713	1920.81
416.936	1935.81
417.159	1903.81
417.382	1935.81
417.605	1921.81
417.828	1898.81
418.051	1926.81
418.274	1932.81
418.497	1922.81
418.72	1952.81
418.943	1938.81
419.166	2076.81
419.389	2217.81
419.611	2148.81
419.834	2075.81
420.057	2057.81
420.28	1953.81
420.503	1868.81
420.726	1873.81
420.948	1876.81
421.171	1881.81
421.394	1945.81
421.617	1890.81
421.839	1908.81
422.062	1910.81
422.285	1897.81
422.507	1954.81
422.73	1980.81
422.953	1944.81
423.175	1916.81
423.398	1957.81
423.621	1968.81
423.843	1985.81
424.066	1991.81
424.288	1958.81
424.511	1969.81
424.733	1987.81
424.956	1974.81
425.178	1933.81
425.401	1916.81
425.623	1911.81
425.846	1881.81
426.068	1877.81
426.291	1837.81
426.513	1776.81
426.735	1846.81
426.958	1822.81
427.18	1772.81
427.402	1798.81
427.625	1800.81
427.847	1778.81
428.069	1779.81
428.292	1781.81
428.514	1769.81
428.736	1739.81
428.958	1756.81
429.181	1717.81
429.403	1728.81
429.625	1752.81
429.847	1682.81
430.069	1665.81
430.292	1744.81
430.514	1713.81
430.736	1713.81
430.958	1737.81
431.18	1700.81
431.402	1748.81
431.624	1778.81
431.846	1785.81
432.068	1822.81
432.29	1802.81
432.512	1774.81
432.734	1779.81
432.956	1768.81
433.178	1798.81
433.4	1768.81
433.622	1821.81
433.844	1800.81
434.066	1826.81
434.287	1797.81
434.509	1889.81
434.731	1899.81
434.953	1954.81
435.175	1939.81
435.397	1906.81
435.618	1896.81
435.84	1846.81
436.062	1811.81
436.284	1783.81
436.505	1745.81
436.727	1766.81
436.949	1777.81
437.17	1784.81
437.392	1726.81
437.614	1729.81
437.835	1654.81
438.057	1706.81
438.278	1646.81
438.5	1670.81
438.721	1691.81
438.943	1651.81
439.165	1706.81
439.386	1654.81
439.608	1706.81
439.829	1691.81
440.05	1707.81
440.272	1693.81
440.493	1708.81
440.715	1743.81
440.936	1770.81
441.158	1792.81
441.379	1833.81
441.6	1898.81
441.822	1897.81
442.043	1937.81
442.264	1831.81
442.486	1817.81
442.707	1831.81
442.928	1853.81
443.149	1876.81
443.371	1833.81
443.592	1874.81
443.813	1890.81
444.034	1921.81
444.255	1968.81
444.476	2032.81
444.698	2090.81
444.919	2143.81
445.14	2233.81
445.361	2070.81
445.582	1935.81
445.803	1886.81
446.024	1804.81
446.245	1766.81
446.466	1769.81
446.687	1697.81
446.908	1759.81
447.129	1653.81
447.35	1637.81
447.571	1644.81
447.792	1592.81
448.013	1608.81
448.234	1606.81
448.455	1575.81
448.675	1586.81
448.896	1573.81
449.117	1523.81
449.338	1564.81
449.559	1542.81
449.779	1539.81
450	1548.81
450.221	1561.81
450.442	1557.81
450.662	1536.81
450.883	1545.81
451.104	1603.81
451.324	1575.81
451.545	1609.81
451.766	1597.81
451.986	1548.81
452.207	1510.81
452.428	1514.81
452.648	1548.81
452.869	1537.81
453.089	1473.81
453.31	1529.81
453.53	1499.81
453.751	1478.81
453.971	1505.81
454.192	1484.81
454.412	1479.81
454.633	1457.81
454.853	1483.81
455.073	1477.81
455.294	1469.81
455.514	1432.81
455.734	1442.81
455.955	1428.81
456.175	1477.81
456.395	1455.81
456.616	1458.81
456.836	1460.81
457.056	1450.81
457.276	1430.81
457.497	1450.81
457.717	1460.81
457.937	1510.81
458.157	1498.81
458.377	1488.81
458.598	1559.81
458.818	1574.81
459.038	1609.81
459.258	1653.81
459.478	1730.81
459.698	1788.81
459.918	1819.81
460.138	1856.81
460.358	1913.81
460.578	1898.81
460.798	1993.81
461.018	1961.81
461.238	1949.81
461.458	1946.81
461.678	1934.81
461.898	2017.81
462.118	1991.81
462.338	2103.81
462.558	2130.81
462.777	2145.81
462.997	2327.81
463.217	2409.81
463.437	2462.81
463.657	2340.81
463.876	2275.81
464.096	2257.81
464.316	2272.81
464.536	2236.81
464.755	2134.81
464.975	2090.81
465.195	2018.81
465.414	1908.81
465.634	1760.81
465.854	1800.81
466.073	1772.81
466.293	1743.81
466.512	1669.81
466.732	1676.81
466.951	1686.81
467.171	1641.81
467.391	1653.81
467.61	1658.81
467.829	1599.81
468.049	1646.81
468.268	1580.81
468.488	1560.81
468.707	1623.81
468.927	1628.81
469.146	1558.81
469.365	1604.81
469.585	1618.81
469.804	1641.81
470.023	1668.81
470.243	1675.81
470.462	1693.81
470.681	1640.81
470.901	1676.81
471.12	1653.81
471.339	1660.81
471.558	1636.81
471.777	1626.81
471.997	1571.81
472.216	1586.81
472.435	1568.81
472.654	1580.81
472.873	1565.81
473.092	1578.81
473.311	1600.81
473.53	1546.81
473.749	1573.81
473.968	1576.81
474.187	1554.81
474.406	1556.81
474.625	1573.81
474.844	1575.81
475.063	1565.81
475.282	1584.81
475.501	1632.81
475.72	1628.81
475.939	1641.81
476.158	1666.81
476.377	1670.81
476.596	1656.81
476.814	1726.81
477.033	1716.81
477.252	1702.81
477.471	1774.81
477.69	1765.81
477.908	1812.81
478.127	1856.81
478.346	1880.81
478.564	1889.81
478.783	1922.81
479.002	1969.81
479.22	2000.81
479.439	2003.81
479.658	1953.81
479.876	1973.81
480.095	2001.81
480.313	2064.81
480.532	2132.81
480.751	2120.81
480.969	2060.81
481.188	2032.81
481.406	1969.81
481.624	1953.81
481.843	1977.81
482.061	1914.81
482.28	1937.81
482.498	1913.81
482.717	1928.81
482.935	1936.81
483.153	1953.81
483.372	1971.81
483.59	1981.81
483.808	1974.81
484.027	1998.81
484.245	2031.81
484.463	2062.81
484.681	2051.81
484.9	2115.81
485.118	2098.81
485.336	2125.81
485.554	2142.81
485.772	2134.81
485.99	2130.81
486.209	2173.81
486.427	2120.81
486.645	2118.81
486.863	2169.81
487.081	2130.81
487.299	2124.81
487.517	2107.81
487.735	2107.81
487.953	2115.81
488.171	2093.81
488.389	2087.81
488.607	2053.81
488.825	2008.81
489.043	2012.81
489.261	1981.81
489.479	2033.81
489.696	1988.81
489.914	2022.81
490.132	2008.81
490.35	2039.81
490.568	2030.81
490.786	2001.81
491.003	2015.81
491.221	2017.81
491.439	2028.81
491.657	2004.81
491.874	2014.81
492.092	2001.81
492.31	1975.81
492.527	2037.81
492.745	2009.81
492.963	2006.81
493.18	1977.81
493.398	2003.81
493.615	2025.81
493.833	1998.81
494.05	2021.81
494.268	2050.81
494.485	2050.81
494.703	2097.81
494.92	2093.81
495.138	1995.81
495.355	2068.81
495.573	2052.81
495.79	2061.81
496.008	2142.81
496.225	2080.81
496.442	2076.81
496.66	2096.81
496.877	2144.81
497.094	2153.81
497.312	2210.81
497.529	2180.81
497.746	2305.81
497.963	2376.81
498.181	2442.81
498.398	2496.81
498.615	2676.81
498.832	2777.81
499.049	2976.81
499.267	3184.81
499.484	3433.81
499.701	3723.81
499.918	4036.81
500.135	4376.81
500.352	4796.81
500.569	4954.81
500.786	4860.81
501.003	4721.81
501.22	4336.81
501.437	3959.81
501.654	3642.81
501.871	3280.81
502.088	3145.81
502.305	2909.81
502.522	2785.81
502.739	2690.81
502.956	2560.81
503.172	2482.81
503.389	2403.81
503.606	2277.81
503.823	2277.81
504.04	2241.81
504.256	2278.81
504.473	2310.81
504.69	2234.81
504.907	2226.81
505.123	2114.81
505.34	2004.81
505.557	1984.81
505.773	1923.81
505.99	1865.81
506.207	1888.81
506.423	1841.81
506.64	1841.81
506.856	1783.81
507.073	1792.81
507.289	1773.81
507.506	1711.81
507.722	1722.81
507.939	1681.81
508.155	1673.81
508.372	1653.81
508.588	1695.81
508.805	1640.81
509.021	1648.81
509.238	1638.81
509.454	1632.81
509.67	1633.81
509.887	1641.81
510.103	1606.81
510.319	1578.81
510.536	1608.81
510.752	1592.81
510.968	1579.81
511.184	1541.81
511.401	1568.81
511.617	1573.81
511.833	1558.81
512.049	1564.81
512.265	1569.81
512.481	1558.81
512.698	1581.81
512.914	1591.81
513.13	1576.81
513.346	1557.81
513.562	1547.81
513.778	1575.81
513.994	1586.81
514.21	1537.81
514.426	1577.81
514.642	1606.81
514.858	1599.81
515.074	1610.81
515.29	1615.81
515.506	1654.81
515.721	1645.81
515.937	1679.81
516.153	1690.81
516.369	1769.81
516.585	1780.81
516.801	1792.81
517.016	1874.81
517.232	1920.81
517.448	1994.81
517.664	1989.81
517.879	2046.81
518.095	2040.81
518.311	2023.81
518.527	1948.81
518.742	1877.81
518.958	1842.81
519.173	1762.81
519.389	1780.81
519.605	1725.81
519.82	1689.81
520.036	1684.81
520.251	1616.81
520.467	1603.81
520.682	1564.81
520.898	1562.81
521.113	1580.81
521.329	1497.81
521.544	1496.81
521.76	1520.81
521.975	1477.81
522.19	1479.81
522.406	1487.81
522.621	1486.81
522.836	1441.81
523.052	1466.81
523.267	1431.81
523.482	1433.81
523.698	1418.81
523.913	1428.81
524.128	1466.81
524.343	1407.81
524.559	1399.81
524.774	1433.81
524.989	1424.81
525.204	1408.81
525.419	1387.81
525.634	1418.81
525.849	1400.81
526.064	1428.81
526.28	1399.81
526.495	1362.81
526.71	1396.81
526.925	1381.81
527.14	1364.81
527.355	1405.81
527.57	1369.81
527.785	1359.81
527.999	1388.81
528.214	1368.81
528.429	1398.81
528.644	1387.81
528.859	1373.81
529.074	1406.81
529.289	1374.81
529.503	1399.81
529.718	1353.81
529.933	1376.81
530.148	1378.81
530.363	1366.81
530.577	1356.81
530.792	1346.81
531.007	1361.81
531.221	1364.81
531.436	1389.81
531.651	1384.81
531.865	1337.81
532.08	1404.81
532.295	1361.81
532.509	1352.81
532.724	1393.81
532.938	1413.81
533.153	1373.81
533.367	1390.81
533.582	1374.81
533.796	1358.81
534.011	1377.81
534.225	1350.81
534.44	1303.81
534.654	1344.81
534.868	1315.81
535.083	1336.81
535.297	1347.81
535.511	1280.81
535.726	1310.81
535.94	1336.81
536.154	1334.81
536.369	1279.81
536.583	1273.81
536.797	1294.81
537.011	1256.81
537.225	1279.81
537.44	1241.81
537.654	1253.81
537.868	1271.81
538.082	1247.81
538.296	1256.81
538.51	1257.81
538.724	1264.81
538.938	1248.81
539.153	1252.81
539.367	1240.81
539.581	1229.81
539.795	1193.81
540.009	1237.81
540.222	1205.81
540.436	1221.81
540.65	1216.81
540.864	1193.81
541.078	1221.81
541.292	1244.81
541.506	1210.81
541.72	1234.81
541.934	1196.81
542.147	1209.81
542.361	1195.81
542.575	1202.81
542.789	1208.81
543.002	1203.81
543.216	1193.81
543.43	1214.81
543.644	1208.81
543.857	1162.81
544.071	1206.81
544.285	1194.81
544.498	1198.81
544.712	1200.81
544.925	1237.81
545.139	1248.81
545.352	1204.81
545.566	1269.81
545.779	1176.81
545.993	1228.81
546.206	1212.81
546.42	1219.81
546.633	1212.81
546.847	1214.81
547.06	1228.81
547.274	1216.81
547.487	1226.81
547.7	1226.81
547.914	1221.81
548.127	1214.81
548.34	1238.81
548.554	1210.81
548.767	1212.81
548.98	1250.81
549.193	1211.81
549.407	1221.81
549.62	1269.81
549.833	1245.81
550.046	1225.81
550.259	1234.81
550.473	1210.81
550.686	1182.81
550.899	1226.81
551.112	1209.81
551.325	1178.81
551.538	1165.81
551.751	1197.81
551.964	1190.81
552.177	1242.81
552.39	1212.81
552.603	1242.81
552.816	1266.81
553.029	1287.81
553.242	1328.81
553.455	1289.81
553.667	1289.81
553.88	1240.81
554.093	1253.81
554.306	1261.81
554.519	1250.81
554.732	1206.81
554.944	1178.81
555.157	1178.81
555.37	1130.81
555.583	1172.81
555.795	1130.81
556.008	1096.81
556.221	1081.81
556.433	1095.81
556.646	1093.81
556.859	1062.81
557.071	1038.81
557.284	1059.81
557.496	1034.81
557.709	1024.81
557.921	1046.81
558.134	1029.81
558.346	1028.81
558.559	1047.81
558.771	1003.81
558.984	1050.81
559.196	997.81
559.409	1049.81
559.621	1013.81
559.833	998.81
560.046	995.81
560.258	994.81
560.47	989.81
560.683	1003.81
560.895	973.81
561.107	990.81
561.32	1002.81
561.532	1001.81
561.744	1005.81
561.956	1008.81
562.168	1001.81
562.381	1013.81
562.593	1054.81
562.805	1001.81
563.017	1024.81
563.229	1002.81
563.441	1039.81
563.653	1021.81
563.865	1030.81
564.077	1047.81
564.289	1059.81
564.501	1047.81
564.713	1062.81
564.925	1087.81
565.137	1088.81
565.349	1110.81
565.561	1148.81
565.773	1209.81
565.985	1224.81
566.197	1286.81
566.408	1357.81
566.62	1432.81
566.832	1508.81
567.044	1548.81
567.255	1574.81
567.467	1570.81
567.679	1622.81
567.891	1712.81
568.102	1732.81
568.314	1618.81
568.526	1522.81
568.737	1433.81
568.949	1350.81
569.161	1255.81
569.372	1218.81
569.584	1131.81
569.795	1116.81
570.007	1047.81
570.218	1032.81
570.43	1005.81
570.641	1010.81
570.853	1033.81
571.064	1033.81
571.276	1047.81
571.487	1002.81
571.698	955.81
571.91	949.81
572.121	944.81
572.333	890.81
572.544	881.81
572.755	855.81
572.966	856.81
573.178	844.81
573.389	865.81
573.6	852.81
573.811	834.81
574.023	816.81
574.234	821.81
574.445	822.81
574.656	822.81
574.867	835.81
575.078	808.81
575.289	836.81
575.501	804.81
575.712	794.81
575.923	795.81
576.134	763.81
576.345	796.81
576.556	756.81
576.767	747.81
576.978	775.81
577.188	782.81
577.399	746.81
577.61	754.81
577.821	730.81
578.032	721.81
578.243	726.81
578.454	753.81
578.665	749.81
578.875	715.81
579.086	733.81
579.297	718.81
579.508	732.81
579.718	695.81
579.929	697.81
580.14	670.81
580.35	691.81
580.561	702.81
580.772	688.81
580.982	725.81
581.193	700.81
581.403	711.81
581.614	682.81
581.825	682.81
582.035	701.81
582.246	696.81
582.456	708.81
582.667	701.81
582.877	704.81
583.087	700.81
583.298	677.81
583.508	671.81
583.719	675.81
583.929	680.81
584.139	662.81
584.35	684.81
584.56	681.81
584.77	676.81
584.981	658.81
585.191	648.81
585.401	688.81
585.611	672.81
585.821	674.81
586.032	667.81
586.242	654.81
586.452	667.81
586.662	658.81
586.872	661.81
587.082	646.81
587.292	660.81
587.502	648.81
587.713	647.81
587.923	634.81
588.133	635.81
588.343	653.81
588.553	642.81
588.762	640.81
588.972	655.81
589.182	666.81
589.392	670.81
589.602	645.81
589.812	640.81
590.022	652.81
590.232	646.81
590.441	661.81
590.651	670.81
590.861	663.81
591.071	670.81
591.281	656.81
591.49	659.81
591.7	677.81
591.91	717.81
592.119	684.81
592.329	695.81
592.539	711.81
592.748	710.81
592.958	746.81
593.167	740.81
593.377	778.81
593.587	761.81
593.796	765.81
594.006	774.81
594.215	795.81
594.424	792.81
594.634	757.81
594.843	725.81
595.053	702.81
595.262	704.81
595.472	690.81
595.681	650.81
595.89	651.81
596.1	654.81
596.309	635.81
596.518	614.81
596.727	613.81
596.937	609.81
597.146	609.81
597.355	594.81
597.564	605.81
597.774	557.81
597.983	552.81
598.192	577.81
598.401	568.81
598.61	567.81
598.819	586.81
599.028	565.81
599.237	552.81
599.446	541.81
599.655	557.81
599.864	548.81
600.073	547.81
600.282	548.81
600.491	545.81
600.7	529.81
600.909	545.81
601.118	523.81
601.327	522.81
601.536	531.81
601.745	530.81
601.953	527.81
602.162	518.81
602.371	515.81
602.58	526.81
602.789	525.81
602.997	534.81
603.206	514.81
603.415	518.81
603.623	526.81
603.832	492.81
604.041	506.81
604.249	518.81
604.458	518.81
604.666	492.81
604.875	506.81
605.084	500.81
605.292	511.81
605.501	496.81
605.709	495.81
605.918	487.81
606.126	475.81
606.334	480.81
606.543	490.81
606.751	492.81
606.96	468.81
607.168	498.81
607.376	469.81
607.585	472.81
607.793	476.81
608.001	474.81
608.21	474.81
608.418	478.81
608.626	462.81
608.834	462.81
609.043	465.81
609.251	470.81
609.459	490.81
609.667	453.81
609.875	466.81
610.083	461.81
610.291	474.81
610.499	473.81
610.707	492.81
610.916	442.81
611.124	462.81
611.332	458.81
611.54	461.81
611.748	452.81
611.955	438.81
612.163	444.81
612.371	455.81
612.579	458.81
612.787	451.81
612.995	474.81
613.203	455.81
613.411	460.81
613.618	468.81
613.826	457.81
614.034	467.81
614.242	452.81
614.449	453.81
614.657	461.81
614.865	436.81
615.072	436.81
615.28	451.81
615.488	443.81
615.695	443.81
615.903	448.81
616.111	463.81
616.318	458.81
616.526	477.81
616.733	459.81
616.941	450.81
617.148	461.81
617.356	443.81
617.563	441.81
617.771	444.81
617.978	465.81
618.185	446.81
618.393	449.81
618.6	436.81
618.807	446.81
619.015	450.81
619.222	423.81
619.429	434.81
619.637	452.81
619.844	424.81
620.051	422.81
620.258	439.81
620.466	432.81
620.673	402.81
620.88	426.81
621.087	399.81
621.294	401.81
621.501	426.81
621.708	407.81
621.915	422.81
622.122	411.81
622.329	422.81
622.536	413.81
622.743	395.81
622.95	412.81
623.157	391.81
623.364	394.81
623.571	394.81
623.778	395.81
623.985	397.81
624.192	380.81
624.399	393.81
624.606	388.81
624.812	408.81
625.019	401.81
625.226	394.81
625.433	405.81
625.639	391.81
625.846	370.81
626.053	364.81
626.259	366.81
626.466	379.81
626.673	395.81
626.879	379.81
627.086	368.81
627.293	375.81
627.499	369.81
627.706	383.81
627.912	358.81
628.119	365.81
628.325	368.81
628.532	375.81
628.738	348.81
628.945	364.81
629.151	372.81
629.357	362.81
629.564	373.81
629.77	365.81
629.976	340.81
630.183	364.81
630.389	361.81
630.595	340.81
630.802	328.81
631.008	348.81
631.214	345.81
631.42	348.81
631.627	350.81
631.833	356.81
632.039	350.81
632.245	327.81
632.451	337.81
632.657	334.81
632.863	360.81
633.069	333.81
633.275	335.81
633.481	326.81
633.688	339.81
633.893	331.81
634.099	344.81
634.305	341.81
634.511	341.81
634.717	331.81
634.923	333.81
635.129	331.81
635.335	318.81
635.541	336.81
635.747	338.81
635.952	320.81
636.158	338.81
636.364	310.81
636.57	328.81
636.775	332.81
636.981	333.81
637.187	339.81
637.392	316.81
637.598	315.81
637.804	319.81
638.009	317.81
638.215	344.81
638.421	336.81
638.626	295.81
638.832	304.81
639.037	323.81
639.243	318.81
639.448	304.81
639.654	301.81
639.859	306.81
640.065	308.81
640.27	316.81
640.475	292.81
640.681	306.81
640.886	294.81
641.091	296.81
641.297	312.81
641.502	302.81
641.707	295.81
641.913	311.81
642.118	288.81
642.323	281.81
642.528	284.81
642.733	292.81
642.939	299.81
643.144	308.81
643.349	294.81
643.554	300.81
643.759	294.81
643.964	294.81
644.169	295.81
644.374	301.81
644.579	309.81
644.784	314.81
644.989	314.81
645.194	295.81
645.399	302.81
645.604	291.81
645.809	297.81
646.014	294.81
646.219	313.81
646.423	290.81
646.628	314.81
646.833	311.81
647.038	320.81
647.243	324.81
647.447	329.81
647.652	324.81
647.857	320.81
648.062	314.81
648.266	314.81
648.471	329.81
648.676	334.81
648.88	319.81
649.085	324.81
649.289	328.81
649.494	339.81
649.698	309.81
649.903	306.81
650.107	318.81
650.312	323.81
650.516	317.81
650.721	314.81
650.925	301.81
651.13	302.81
651.334	315.81
651.539	301.81
651.743	318.81
651.947	299.81
652.152	300.81
652.356	312.81
652.56	290.81
652.764	324.81
652.969	289.81
653.173	328.81
653.377	310.81
653.581	297.81
653.785	291.81
653.99	309.81
654.194	305.81
654.398	290.81
654.602	302.81
654.806	308.81
655.01	330.81
655.214	331.81
655.418	354.81
655.622	373.81
655.826	364.81
656.03	378.81
656.234	409.81
656.438	471.81
656.642	450.81
656.846	433.81
657.049	402.81
657.253	337.81
657.457	297.81
657.661	276.81
657.865	250.81
658.068	249.81
658.272	209.81
658.476	218.81
658.68	185.81
658.883	171.81
659.087	169.81
659.291	167.81
659.494	163.81
659.698	161.81
659.901	152.81
660.105	130.81
660.309	124.81
660.512	114.81
660.716	112.81
660.919	133.81
661.123	126.81
661.326	111.81
661.53	120.81
661.733	100.81
661.936	105.81
662.14	107.81
662.343	94.81
662.546	96.81
662.75	86.81
662.953	100.81
663.156	103.81
663.36	79.81
663.563	91.81
663.766	97.81
663.969	95.81
664.173	89.81
664.376	79.81
664.579	93.81
664.782	94.81
664.985	81.81
665.188	98.81
665.391	86.81
665.594	80.81
665.797	76.81
666	69.81
666.203	78.81
666.406	77.81
666.609	77.81
666.812	74.81
667.015	80.81
667.218	86.81
667.421	83.81
667.624	72.81
667.827	89.81
668.03	84.81
668.232	78.81
668.435	83.81
668.638	85.81
668.841	78.81
669.043	80.81
669.246	81.81
669.449	77.81
669.651	87.81
669.854	80.81
670.057	84.81
670.259	89.81
670.462	88.81
670.665	88.81
670.867	96.81
671.07	78.81
671.272	78.81
671.475	100.81
671.677	86.81
671.88	81.81
672.082	97.81
672.284	83.81
672.487	75.81
672.689	82.81
672.892	76.81
