Data from NiCl2@0.125M.TitratingCurve.Agarose3%dH2O.NegLispCup.LampEnergy10.LIBS07252019_HRD10591_18-27-43-574.txt Node
Date: Thu Jul 25 18:27:43 EDT 2019
User: cochatt
Spectrometer: HR+D1059
Trigger mode: 1
Integration Time (sec): 1.000000E-1
Scans to average: 1
Electric dark correction enabled: true
Nonlinearity correction enabled: false
Boxcar width: 0
XAxis mode: Wavelengths
Number of Pixels in Spectrum: 2048
>>>>>Begin Spectral Data<<<<<
223.165	-13.19
223.4	-13.19
223.635	-13.19
223.869	-7.19
224.104	-12.19
224.338	-5.19
224.573	-11.19
224.808	-18.19
225.042	-6.19
225.277	-27.19
225.511	8.81
225.746	-11.19
225.98	0.81
226.215	14.81
226.449	1.81
226.683	22.81
226.918	32.81
227.152	29.81
227.387	25.81
227.621	41.81
227.856	51.81
228.09	52.81
228.324	49.81
228.559	60.81
228.793	83.81
229.027	125.81
229.262	128.81
229.496	147.81
229.73	142.81
229.964	137.81
230.199	142.81
230.433	145.81
230.667	157.81
230.901	154.81
231.136	159.81
231.37	138.81
231.604	163.81
231.838	165.81
232.072	168.81
232.306	192.81
232.541	181.81
232.775	172.81
233.009	182.81
233.243	166.81
233.477	180.81
233.711	173.81
233.945	180.81
234.179	183.81
234.413	182.81
234.647	205.81
234.881	185.81
235.115	180.81
235.349	176.81
235.583	193.81
235.817	181.81
236.051	189.81
236.285	204.81
236.519	189.81
236.753	186.81
236.987	202.81
237.221	203.81
237.455	192.81
237.689	196.81
237.922	200.81
238.156	210.81
238.39	188.81
238.624	216.81
238.858	201.81
239.091	205.81
239.325	222.81
239.559	233.81
239.793	219.81
240.027	225.81
240.26	232.81
240.494	225.81
240.728	233.81
240.961	227.81
241.195	228.81
241.429	220.81
241.662	240.81
241.896	252.81
242.13	259.81
242.363	232.81
242.597	229.81
242.83	244.81
243.064	230.81
243.298	240.81
243.531	246.81
243.765	238.81
243.998	272.81
244.232	253.81
244.465	274.81
244.699	257.81
244.932	267.81
245.166	284.81
245.399	282.81
245.633	259.81
245.866	276.81
246.099	309.81
246.333	274.81
246.566	279.81
246.8	285.81
247.033	283.81
247.266	296.81
247.5	290.81
247.733	299.81
247.966	289.81
248.2	304.81
248.433	306.81
248.666	292.81
248.899	309.81
249.133	316.81
249.366	332.81
249.599	324.81
249.832	336.81
250.066	315.81
250.299	330.81
250.532	319.81
250.765	324.81
250.998	332.81
251.231	333.81
251.465	316.81
251.698	350.81
251.931	339.81
252.164	343.81
252.397	360.81
252.63	349.81
252.863	366.81
253.096	359.81
253.329	363.81
253.562	383.81
253.795	344.81
254.028	356.81
254.261	364.81
254.494	350.81
254.727	354.81
254.96	355.81
255.193	371.81
255.426	372.81
255.659	371.81
255.892	356.81
256.124	380.81
256.357	374.81
256.59	381.81
256.823	364.81
257.056	370.81
257.289	392.81
257.521	393.81
257.754	372.81
257.987	389.81
258.22	409.81
258.452	386.81
258.685	390.81
258.918	404.81
259.151	404.81
259.383	393.81
259.616	394.81
259.849	387.81
260.081	406.81
260.314	397.81
260.547	395.81
260.779	404.81
261.012	429.81
261.244	427.81
261.477	419.81
261.71	435.81
261.942	427.81
262.175	436.81
262.407	416.81
262.64	415.81
262.872	418.81
263.105	417.81
263.337	440.81
263.57	440.81
263.802	449.81
264.035	436.81
264.267	445.81
264.499	444.81
264.732	425.81
264.964	458.81
265.197	450.81
265.429	453.81
265.661	450.81
265.894	453.81
266.126	454.81
266.358	443.81
266.591	457.81
266.823	462.81
267.055	456.81
267.287	457.81
267.52	467.81
267.752	502.81
267.984	485.81
268.216	473.81
268.448	482.81
268.681	459.81
268.913	496.81
269.145	493.81
269.377	485.81
269.609	478.81
269.841	481.81
270.073	486.81
270.306	484.81
270.538	482.81
270.77	506.81
271.002	476.81
271.234	488.81
271.466	480.81
271.698	499.81
271.93	504.81
272.162	531.81
272.394	530.81
272.626	517.81
272.858	505.81
273.09	514.81
273.322	518.81
273.553	532.81
273.785	533.81
274.017	533.81
274.249	531.81
274.481	523.81
274.713	517.81
274.945	544.81
275.176	545.81
275.408	539.81
275.64	541.81
275.872	531.81
276.104	569.81
276.335	566.81
276.567	546.81
276.799	564.81
277.031	570.81
277.262	571.81
277.494	559.81
277.726	548.81
277.957	559.81
278.189	568.81
278.421	586.81
278.652	578.81
278.884	594.81
279.115	571.81
279.347	578.81
279.579	594.81
279.81	603.81
280.042	596.81
280.273	590.81
280.505	595.81
280.736	589.81
280.968	603.81
281.199	616.81
281.431	613.81
281.662	612.81
281.894	591.81
282.125	628.81
282.356	632.81
282.588	617.81
282.819	617.81
283.051	608.81
283.282	608.81
283.513	625.81
283.745	629.81
283.976	658.81
284.207	647.81
284.439	642.81
284.67	635.81
284.901	644.81
285.132	650.81
285.364	641.81
285.595	655.81
285.826	640.81
286.057	634.81
286.288	662.81
286.52	682.81
286.751	660.81
286.982	665.81
287.213	669.81
287.444	646.81
287.675	667.81
287.906	684.81
288.138	688.81
288.369	678.81
288.6	682.81
288.831	654.81
289.062	685.81
289.293	662.81
289.524	680.81
289.755	685.81
289.986	669.81
290.217	677.81
290.448	718.81
290.679	689.81
290.91	711.81
291.141	692.81
291.371	710.81
291.602	714.81
291.833	684.81
292.064	695.81
292.295	699.81
292.526	686.81
292.757	706.81
292.987	691.81
293.218	696.81
293.449	720.81
293.68	722.81
293.91	702.81
294.141	709.81
294.372	671.81
294.603	694.81
294.833	717.81
295.064	694.81
295.295	715.81
295.525	740.81
295.756	725.81
295.987	699.81
296.217	699.81
296.448	707.81
296.679	731.81
296.909	754.81
297.14	758.81
297.37	724.81
297.601	769.81
297.831	746.81
298.062	760.81
298.292	760.81
298.523	760.81
298.753	779.81
298.984	749.81
299.214	740.81
299.445	750.81
299.675	762.81
299.905	760.81
300.136	757.81
300.366	763.81
300.597	764.81
300.827	782.81
301.057	788.81
301.288	818.81
301.518	805.81
301.748	798.81
301.979	821.81
302.209	809.81
302.439	790.81
302.669	793.81
302.9	771.81
303.13	800.81
303.36	790.81
303.59	800.81
303.82	806.81
304.051	774.81
304.281	757.81
304.511	791.81
304.741	783.81
304.971	792.81
305.201	781.81
305.431	800.81
305.661	797.81
305.891	793.81
306.121	763.81
306.352	778.81
306.582	767.81
306.812	782.81
307.042	764.81
307.272	771.81
307.502	746.81
307.731	785.81
307.961	788.81
308.191	776.81
308.421	786.81
308.651	773.81
308.881	749.81
309.111	781.81
309.341	760.81
309.571	773.81
309.8	780.81
310.03	776.81
310.26	779.81
310.49	779.81
310.72	799.81
310.949	793.81
311.179	766.81
311.409	808.81
311.639	816.81
311.868	786.81
312.098	809.81
312.328	820.81
312.557	778.81
312.787	822.81
313.017	817.81
313.246	830.81
313.476	806.81
313.706	853.81
313.935	844.81
314.165	862.81
314.394	849.81
314.624	848.81
314.853	875.81
315.083	842.81
315.312	854.81
315.542	857.81
315.771	832.81
316.001	811.81
316.23	820.81
316.46	822.81
316.689	809.81
316.919	826.81
317.148	808.81
317.377	819.81
317.607	804.81
317.836	827.81
318.065	833.81
318.295	838.81
318.524	849.81
318.753	845.81
318.983	821.81
319.212	785.81
319.441	816.81
319.67	803.81
319.9	826.81
320.129	834.81
320.358	826.81
320.587	806.81
320.816	829.81
321.046	806.81
321.275	834.81
321.504	808.81
321.733	820.81
321.962	800.81
322.191	827.81
322.42	818.81
322.649	835.81
322.878	820.81
323.108	819.81
323.337	834.81
323.566	844.81
323.795	842.81
324.024	867.81
324.253	865.81
324.482	878.81
324.71	844.81
324.939	863.81
325.168	832.81
325.397	843.81
325.626	861.81
325.855	880.81
326.084	914.81
326.313	897.81
326.542	915.81
326.77	936.81
326.999	868.81
327.228	902.81
327.457	889.81
327.686	877.81
327.914	884.81
328.143	916.81
328.372	901.81
328.6	893.81
328.829	875.81
329.058	899.81
329.287	888.81
329.515	928.81
329.744	898.81
329.972	907.81
330.201	915.81
330.43	917.81
330.658	935.81
330.887	941.81
331.115	946.81
331.344	946.81
331.572	975.81
331.801	965.81
332.03	997.81
332.258	1072.81
332.486	1074.81
332.715	1095.81
332.943	1170.81
333.172	1188.81
333.4	1241.81
333.629	1274.81
333.857	1249.81
334.085	1250.81
334.314	1234.81
334.542	1196.81
334.771	1139.81
334.999	1135.81
335.227	1134.81
335.455	1136.81
335.684	1141.81
335.912	1108.81
336.14	1081.81
336.369	1094.81
336.597	1134.81
336.825	1098.81
337.053	1084.81
337.281	1056.81
337.51	1038.81
337.738	1024.81
337.966	1047.81
338.194	1024.81
338.422	986.81
338.65	981.81
338.878	982.81
339.106	978.81
339.334	994.81
339.562	987.81
339.79	953.81
340.018	962.81
340.246	951.81
340.474	926.81
340.702	929.81
340.93	936.81
341.158	954.81
341.386	949.81
341.614	954.81
341.842	937.81
342.07	933.81
342.298	942.81
342.526	957.81
342.754	924.81
342.981	942.81
343.209	973.81
343.437	1002.81
343.665	1080.81
343.893	1186.81
344.12	1212.81
344.348	1162.81
344.576	1090.81
344.804	1029.81
345.031	982.81
345.259	968.81
345.487	944.81
345.714	935.81
345.942	945.81
346.17	933.81
346.397	913.81
346.625	906.81
346.853	886.81
347.08	915.81
347.308	930.81
347.535	920.81
347.763	918.81
347.99	904.81
348.218	928.81
348.445	907.81
348.673	906.81
348.9	896.81
349.128	882.81
349.355	885.81
349.583	918.81
349.81	887.81
350.037	892.81
350.265	877.81
350.492	883.81
350.72	897.81
350.947	878.81
351.174	873.81
351.402	887.81
351.629	877.81
351.856	873.81
352.083	865.81
352.311	854.81
352.538	863.81
352.765	850.81
352.992	843.81
353.22	842.81
353.447	845.81
353.674	838.81
353.901	852.81
354.128	866.81
354.355	894.81
354.583	896.81
354.81	870.81
355.037	870.81
355.264	871.81
355.491	859.81
355.718	882.81
355.945	890.81
356.172	880.81
356.399	888.81
356.626	882.81
356.853	889.81
357.08	873.81
357.307	880.81
357.534	869.81
357.761	873.81
357.988	882.81
358.215	900.81
358.441	876.81
358.668	866.81
358.895	882.81
359.122	891.81
359.349	869.81
359.576	877.81
359.802	888.81
360.029	873.81
360.256	864.81
360.483	868.81
360.709	881.81
360.936	886.81
361.163	886.81
361.39	887.81
361.616	883.81
361.843	889.81
362.07	860.81
362.296	848.81
362.523	901.81
362.749	871.81
362.976	871.81
363.203	846.81
363.429	855.81
363.656	887.81
363.882	857.81
364.109	877.81
364.335	861.81
364.562	877.81
364.788	883.81
365.015	890.81
365.241	879.81
365.468	855.81
365.694	885.81
365.92	856.81
366.147	875.81
366.373	868.81
366.599	888.81
366.826	875.81
367.052	864.81
367.278	875.81
367.505	880.81
367.731	884.81
367.957	867.81
368.184	882.81
368.41	870.81
368.636	900.81
368.862	893.81
369.089	855.81
369.315	886.81
369.541	902.81
369.767	907.81
369.993	899.81
370.219	891.81
370.445	905.81
370.672	892.81
370.898	901.81
371.124	924.81
371.35	964.81
371.576	951.81
371.802	943.81
372.028	939.81
372.254	977.81
372.48	1014.81
372.706	971.81
372.932	997.81
373.158	979.81
373.384	989.81
373.61	939.81
373.835	966.81
374.061	974.81
374.287	968.81
374.513	983.81
374.739	1008.81
374.965	1045.81
375.191	1052.81
375.416	1066.81
375.642	1015.81
375.868	992.81
376.094	974.81
376.319	989.81
376.545	945.81
376.771	981.81
376.997	968.81
377.222	948.81
377.448	964.81
377.674	947.81
377.899	947.81
378.125	907.81
378.35	936.81
378.576	956.81
378.802	925.81
379.027	919.81
379.253	941.81
379.478	938.81
379.704	909.81
379.929	949.81
380.155	931.81
380.38	940.81
380.606	941.81
380.831	958.81
381.057	958.81
381.282	937.81
381.507	947.81
381.733	948.81
381.958	958.81
382.184	953.81
382.409	956.81
382.634	973.81
382.86	983.81
383.085	996.81
383.31	1027.81
383.535	1045.81
383.761	1082.81
383.986	1108.81
384.211	1152.81
384.436	1136.81
384.662	1158.81
384.887	1179.81
385.112	1165.81
385.337	1164.81
385.562	1156.81
385.787	1157.81
386.013	1182.81
386.238	1186.81
386.463	1194.81
386.688	1173.81
386.913	1156.81
387.138	1140.81
387.363	1136.81
387.588	1115.81
387.813	1129.81
388.038	1129.81
388.263	1137.81
388.488	1153.81
388.713	1114.81
388.938	1128.81
389.163	1112.81
389.387	1124.81
389.612	1133.81
389.837	1108.81
390.062	1126.81
390.287	1121.81
390.512	1144.81
390.736	1150.81
390.961	1149.81
391.186	1185.81
391.411	1233.81
391.636	1257.81
391.86	1316.81
392.085	1326.81
392.31	1332.81
392.534	1253.81
392.759	1221.81
392.984	1201.81
393.208	1223.81
393.433	1244.81
393.658	1194.81
393.882	1212.81
394.107	1226.81
394.331	1231.81
394.556	1235.81
394.78	1238.81
395.005	1216.81
395.229	1265.81
395.454	1302.81
395.678	1330.81
395.903	1338.81
396.127	1260.81
396.352	1247.81
396.576	1222.81
396.801	1219.81
397.025	1226.81
397.249	1251.81
397.474	1285.81
397.698	1304.81
397.922	1306.81
398.147	1312.81
398.371	1361.81
398.595	1394.81
398.82	1414.81
399.044	1509.81
399.268	1735.81
399.492	2082.81
399.717	2324.81
399.941	2322.81
400.165	2021.81
400.389	1776.81
400.613	1632.81
400.837	1544.81
401.062	1467.81
401.286	1468.81
401.51	1449.81
401.734	1440.81
401.958	1483.81
402.182	1482.81
402.406	1488.81
402.63	1537.81
402.854	1543.81
403.078	1631.81
403.302	1653.81
403.526	1709.81
403.75	1683.81
403.974	1746.81
404.198	1744.81
404.422	1714.81
404.645	1701.81
404.869	1660.81
405.093	1673.81
405.317	1649.81
405.541	1635.81
405.765	1603.81
405.988	1600.81
406.212	1624.81
406.436	1603.81
406.66	1638.81
406.883	1664.81
407.107	1803.81
407.331	1869.81
407.555	1926.81
407.778	1912.81
408.002	1864.81
408.226	1797.81
408.449	1766.81
408.673	1724.81
408.896	1654.81
409.12	1650.81
409.344	1613.81
409.567	1642.81
409.791	1653.81
410.014	1682.81
410.238	1619.81
410.461	1615.81
410.685	1619.81
410.908	1568.81
411.132	1531.81
411.355	1521.81
411.578	1513.81
411.802	1504.81
412.025	1498.81
412.249	1542.81
412.472	1481.81
412.695	1508.81
412.919	1453.81
413.142	1479.81
413.365	1470.81
413.589	1487.81
413.812	1427.81
414.035	1429.81
414.258	1438.81
414.482	1446.81
414.705	1485.81
414.928	1500.81
415.151	1438.81
415.374	1434.81
415.597	1477.81
415.821	1442.81
416.044	1416.81
416.267	1421.81
416.49	1431.81
416.713	1426.81
416.936	1441.81
417.159	1406.81
417.382	1400.81
417.605	1439.81
417.828	1432.81
418.051	1445.81
418.274	1450.81
418.497	1457.81
418.72	1520.81
418.943	1509.81
419.166	1588.81
419.389	1701.81
419.611	1633.81
419.834	1538.81
420.057	1489.81
420.28	1488.81
420.503	1426.81
420.726	1426.81
420.948	1409.81
421.171	1420.81
421.394	1428.81
421.617	1447.81
421.839	1444.81
422.062	1433.81
422.285	1416.81
422.507	1483.81
422.73	1483.81
422.953	1483.81
423.175	1539.81
423.398	1547.81
423.621	1526.81
423.843	1576.81
424.066	1597.81
424.288	1573.81
424.511	1532.81
424.733	1491.81
424.956	1449.81
425.178	1480.81
425.401	1466.81
425.623	1483.81
425.846	1394.81
426.068	1382.81
426.291	1357.81
426.513	1364.81
426.735	1340.81
426.958	1333.81
427.18	1313.81
427.402	1332.81
427.625	1301.81
427.847	1286.81
428.069	1304.81
428.292	1289.81
428.514	1272.81
428.736	1253.81
428.958	1276.81
429.181	1242.81
429.403	1229.81
429.625	1249.81
429.847	1252.81
430.069	1238.81
430.292	1245.81
430.514	1218.81
430.736	1212.81
430.958	1208.81
431.18	1228.81
431.402	1231.81
431.624	1246.81
431.846	1254.81
432.068	1289.81
432.29	1290.81
432.512	1245.81
432.734	1255.81
432.956	1266.81
433.178	1282.81
433.4	1255.81
433.622	1304.81
433.844	1298.81
434.066	1284.81
434.287	1291.81
434.509	1311.81
434.731	1401.81
434.953	1420.81
435.175	1423.81
435.397	1416.81
435.618	1337.81
435.84	1306.81
436.062	1265.81
436.284	1250.81
436.505	1250.81
436.727	1260.81
436.949	1257.81
437.17	1245.81
437.392	1233.81
437.614	1245.81
437.835	1184.81
438.057	1193.81
438.278	1196.81
438.5	1190.81
438.721	1198.81
438.943	1228.81
439.165	1195.81
439.386	1185.81
439.608	1252.81
439.829	1248.81
440.05	1260.81
440.272	1270.81
440.493	1284.81
440.715	1269.81
440.936	1271.81
441.158	1322.81
441.379	1402.81
441.6	1437.81
441.822	1477.81
442.043	1461.81
442.264	1437.81
442.486	1412.81
442.707	1445.81
442.928	1438.81
443.149	1440.81
443.371	1426.81
443.592	1415.81
443.813	1447.81
444.034	1480.81
444.255	1562.81
444.476	1593.81
444.698	1711.81
444.919	1792.81
445.14	1866.81
445.361	1642.81
445.582	1521.81
445.803	1384.81
446.024	1326.81
446.245	1345.81
446.466	1285.81
446.687	1283.81
446.908	1306.81
447.129	1206.81
447.35	1213.81
447.571	1198.81
447.792	1174.81
448.013	1187.81
448.234	1176.81
448.455	1164.81
448.675	1176.81
448.896	1149.81
449.117	1130.81
449.338	1156.81
449.559	1132.81
449.779	1107.81
450	1164.81
450.221	1160.81
450.442	1161.81
450.662	1149.81
450.883	1173.81
451.104	1222.81
451.324	1185.81
451.545	1164.81
451.766	1161.81
451.986	1112.81
452.207	1144.81
452.428	1152.81
452.648	1160.81
452.869	1142.81
453.089	1114.81
453.31	1136.81
453.53	1114.81
453.751	1088.81
453.971	1092.81
454.192	1131.81
454.412	1103.81
454.633	1099.81
454.853	1094.81
455.073	1088.81
455.294	1090.81
455.514	1060.81
455.734	1061.81
455.955	1051.81
456.175	1042.81
456.395	1062.81
456.616	1046.81
456.836	1082.81
457.056	1076.81
457.276	1048.81
457.497	1074.81
457.717	1092.81
457.937	1061.81
458.157	1097.81
458.377	1106.81
458.598	1156.81
458.818	1140.81
459.038	1208.81
459.258	1244.81
459.478	1274.81
459.698	1297.81
459.918	1363.81
460.138	1376.81
460.358	1494.81
460.578	1492.81
460.798	1526.81
461.018	1531.81
461.238	1486.81
461.458	1528.81
461.678	1503.81
461.898	1466.81
462.118	1520.81
462.338	1620.81
462.558	1636.81
462.777	1685.81
462.997	1906.81
463.217	2103.81
463.437	2081.81
463.657	1842.81
463.876	1795.81
464.096	1756.81
464.316	1755.81
464.536	1798.81
464.755	1728.81
464.975	1670.81
465.195	1582.81
465.414	1467.81
465.634	1381.81
465.854	1350.81
466.073	1283.81
466.293	1259.81
466.512	1277.81
466.732	1217.81
466.951	1255.81
467.171	1211.81
467.391	1226.81
467.61	1191.81
467.829	1200.81
468.049	1220.81
468.268	1157.81
468.488	1170.81
468.707	1153.81
468.927	1178.81
469.146	1149.81
469.365	1215.81
469.585	1182.81
469.804	1208.81
470.023	1241.81
470.243	1225.81
470.462	1243.81
470.681	1268.81
470.901	1254.81
471.12	1218.81
471.339	1220.81
471.558	1202.81
471.777	1185.81
471.997	1147.81
472.216	1162.81
472.435	1164.81
472.654	1143.81
472.873	1107.81
473.092	1129.81
473.311	1109.81
473.53	1096.81
473.749	1106.81
473.968	1103.81
474.187	1125.81
474.406	1097.81
474.625	1103.81
474.844	1110.81
475.063	1122.81
475.282	1088.81
475.501	1107.81
475.72	1126.81
475.939	1129.81
476.158	1172.81
476.377	1154.81
476.596	1141.81
476.814	1190.81
477.033	1165.81
477.252	1177.81
477.471	1229.81
477.69	1272.81
477.908	1288.81
478.127	1332.81
478.346	1382.81
478.564	1398.81
478.783	1381.81
479.002	1424.81
479.22	1420.81
479.439	1415.81
479.658	1381.81
479.876	1414.81
480.095	1440.81
480.313	1467.81
480.532	1578.81
480.751	1544.81
480.969	1429.81
481.188	1380.81
481.406	1325.81
481.624	1317.81
481.843	1243.81
482.061	1284.81
482.28	1244.81
482.498	1230.81
482.717	1249.81
482.935	1272.81
483.153	1253.81
483.372	1256.81
483.59	1249.81
483.808	1259.81
484.027	1232.81
484.245	1292.81
484.463	1293.81
484.681	1319.81
484.9	1261.81
485.118	1318.81
485.336	1321.81
485.554	1306.81
485.772	1314.81
485.99	1316.81
486.209	1320.81
486.427	1324.81
486.645	1333.81
486.863	1325.81
487.081	1300.81
487.299	1312.81
487.517	1298.81
487.735	1306.81
487.953	1339.81
488.171	1338.81
488.389	1306.81
488.607	1307.81
488.825	1310.81
489.043	1302.81
489.261	1291.81
489.479	1296.81
489.696	1332.81
489.914	1297.81
490.132	1302.81
490.35	1329.81
490.568	1329.81
490.786	1291.81
491.003	1337.81
491.221	1371.81
491.439	1328.81
491.657	1330.81
491.874	1335.81
492.092	1338.81
492.31	1358.81
492.527	1363.81
492.745	1381.81
492.963	1357.81
493.18	1370.81
493.398	1389.81
493.615	1397.81
493.833	1392.81
494.05	1377.81
494.268	1410.81
494.485	1412.81
494.703	1428.81
494.92	1417.81
495.138	1393.81
495.355	1395.81
495.573	1389.81
495.79	1430.81
496.008	1402.81
496.225	1410.81
496.442	1437.81
496.66	1474.81
496.877	1453.81
497.094	1515.81
497.312	1568.81
497.529	1580.81
497.746	1646.81
497.963	1656.81
498.181	1738.81
498.398	1783.81
498.615	1915.81
498.832	2047.81
499.049	2224.81
499.267	2401.81
499.484	2634.81
499.701	2976.81
499.918	3269.81
500.135	3791.81
500.352	4479.81
500.569	4660.81
500.786	4597.81
501.003	4251.81
501.22	3712.81
501.437	3243.81
501.654	2811.81
501.871	2573.81
502.088	2331.81
502.305	2197.81
502.522	2032.81
502.739	2020.81
502.956	1874.81
503.172	1778.81
503.389	1730.81
503.606	1619.81
503.823	1645.81
504.04	1584.81
504.256	1634.81
504.473	1741.81
504.69	1776.81
504.907	1705.81
505.123	1564.81
505.34	1475.81
505.557	1419.81
505.773	1362.81
505.99	1377.81
506.207	1295.81
506.423	1269.81
506.64	1269.81
506.856	1259.81
507.073	1246.81
507.289	1250.81
507.506	1241.81
507.722	1264.81
507.939	1200.81
508.155	1191.81
508.372	1177.81
508.588	1192.81
508.805	1182.81
509.021	1176.81
509.238	1186.81
509.454	1170.81
509.67	1123.81
509.887	1150.81
510.103	1118.81
510.319	1129.81
510.536	1130.81
510.752	1099.81
510.968	1110.81
511.184	1131.81
511.401	1134.81
511.617	1105.81
511.833	1145.81
512.049	1098.81
512.265	1120.81
512.481	1092.81
512.698	1122.81
512.914	1115.81
513.13	1117.81
513.346	1119.81
513.562	1129.81
513.778	1104.81
513.994	1150.81
514.21	1158.81
514.426	1148.81
514.642	1136.81
514.858	1168.81
515.074	1184.81
515.29	1189.81
515.506	1177.81
515.721	1214.81
515.937	1229.81
516.153	1219.81
516.369	1240.81
516.585	1331.81
516.801	1390.81
517.016	1440.81
517.232	1501.81
517.448	1530.81
517.664	1640.81
517.879	1632.81
518.095	1615.81
518.311	1623.81
518.527	1507.81
518.742	1470.81
518.958	1390.81
519.173	1316.81
519.389	1278.81
519.605	1233.81
519.82	1171.81
520.036	1193.81
520.251	1146.81
520.467	1156.81
520.682	1144.81
520.898	1133.81
521.113	1113.81
521.329	1110.81
521.544	1096.81
521.76	1117.81
521.975	1083.81
522.19	1084.81
522.406	1078.81
522.621	1076.81
522.836	1020.81
523.052	1033.81
523.267	1058.81
523.482	1061.81
523.698	1037.81
523.913	1034.81
524.128	1056.81
524.343	1048.81
524.559	1039.81
524.774	1028.81
524.989	1057.81
525.204	1051.81
525.419	1026.81
525.634	1026.81
525.849	1031.81
526.064	1033.81
526.28	1013.81
526.495	1032.81
526.71	1008.81
526.925	1020.81
527.14	982.81
527.355	1010.81
527.57	1014.81
527.785	986.81
527.999	1004.81
528.214	1006.81
528.429	1001.81
528.644	1029.81
528.859	982.81
529.074	1048.81
529.289	1017.81
529.503	1011.81
529.718	1011.81
529.933	1027.81
530.148	1036.81
530.363	1007.81
530.577	984.81
530.792	980.81
531.007	980.81
531.221	1014.81
531.436	1027.81
531.651	1033.81
531.865	1017.81
532.08	1031.81
532.295	1028.81
532.509	995.81
532.724	1012.81
532.938	1018.81
533.153	988.81
533.367	1022.81
533.582	989.81
533.796	1011.81
534.011	999.81
534.225	1015.81
534.44	995.81
534.654	999.81
534.868	979.81
535.083	988.81
535.297	984.81
535.511	944.81
535.726	955.81
535.94	944.81
536.154	974.81
536.369	947.81
536.583	941.81
536.797	918.81
537.011	961.81
537.225	929.81
537.44	948.81
537.654	937.81
537.868	928.81
538.082	900.81
538.296	928.81
538.51	904.81
538.724	911.81
538.938	926.81
539.153	911.81
539.367	944.81
539.581	921.81
539.795	906.81
540.009	898.81
540.222	900.81
540.436	907.81
540.65	868.81
540.864	883.81
541.078	892.81
541.292	887.81
541.506	923.81
541.72	887.81
541.934	897.81
542.147	918.81
542.361	898.81
542.575	900.81
542.789	870.81
543.002	906.81
543.216	890.81
543.43	895.81
543.644	887.81
543.857	900.81
544.071	870.81
544.285	917.81
544.498	879.81
544.712	884.81
544.925	901.81
545.139	903.81
545.352	932.81
545.566	915.81
545.779	941.81
545.993	922.81
546.206	909.81
546.42	924.81
546.633	937.81
546.847	921.81
547.06	923.81
547.274	892.81
547.487	932.81
547.7	912.81
547.914	933.81
548.127	951.81
548.34	924.81
548.554	939.81
548.767	944.81
548.98	930.81
549.193	928.81
549.407	953.81
549.62	964.81
549.833	970.81
550.046	952.81
550.259	958.81
550.473	916.81
550.686	929.81
550.899	902.81
551.112	913.81
551.325	906.81
551.538	889.81
551.751	899.81
551.964	875.81
552.177	898.81
552.39	928.81
552.603	946.81
552.816	998.81
553.029	1008.81
553.242	1034.81
553.455	1047.81
553.667	1017.81
553.88	1021.81
554.093	982.81
554.306	978.81
554.519	937.81
554.732	934.81
554.944	906.81
555.157	892.81
555.37	892.81
555.583	877.81
555.795	866.81
556.008	842.81
556.221	792.81
556.433	791.81
556.646	787.81
556.859	794.81
557.071	818.81
557.284	787.81
557.496	795.81
557.709	768.81
557.921	769.81
558.134	775.81
558.346	805.81
558.559	790.81
558.771	773.81
558.984	746.81
559.196	756.81
559.409	765.81
559.621	757.81
559.833	755.81
560.046	742.81
560.258	765.81
560.47	739.81
560.683	723.81
560.895	725.81
561.107	728.81
561.32	748.81
561.532	766.81
561.744	770.81
561.956	777.81
562.168	767.81
562.381	772.81
562.593	779.81
562.805	789.81
563.017	744.81
563.229	744.81
563.441	751.81
563.653	772.81
563.865	768.81
564.077	793.81
564.289	782.81
564.501	792.81
564.713	797.81
564.925	814.81
565.137	824.81
565.349	846.81
565.561	862.81
565.773	874.81
565.985	961.81
566.197	994.81
566.408	1085.81
566.62	1214.81
566.832	1323.81
567.044	1319.81
567.255	1301.81
567.467	1318.81
567.679	1446.81
567.891	1588.81
568.102	1604.81
568.314	1542.81
568.526	1308.81
568.737	1204.81
568.949	1092.81
569.161	986.81
569.372	894.81
569.584	893.81
569.795	846.81
570.007	833.81
570.218	791.81
570.43	762.81
570.641	755.81
570.853	787.81
571.064	796.81
571.276	808.81
571.487	759.81
571.698	741.81
571.91	728.81
572.121	696.81
572.333	672.81
572.544	663.81
572.755	647.81
572.966	683.81
573.178	651.81
573.389	624.81
573.6	614.81
573.811	622.81
574.023	631.81
574.234	632.81
574.445	621.81
574.656	636.81
574.867	620.81
575.078	625.81
575.289	608.81
575.501	599.81
575.712	605.81
575.923	570.81
576.134	562.81
576.345	596.81
576.556	596.81
576.767	590.81
576.978	573.81
577.188	589.81
577.399	585.81
577.61	584.81
577.821	558.81
578.032	574.81
578.243	568.81
578.454	549.81
578.665	558.81
578.875	558.81
579.086	516.81
579.297	537.81
579.508	536.81
579.718	536.81
579.929	535.81
580.14	530.81
580.35	539.81
580.561	538.81
580.772	537.81
580.982	549.81
581.193	525.81
581.403	526.81
581.614	537.81
581.825	531.81
582.035	507.81
582.246	512.81
582.456	515.81
582.667	521.81
582.877	489.81
583.087	498.81
583.298	487.81
583.508	496.81
583.719	517.81
583.929	501.81
584.139	497.81
584.35	497.81
584.56	504.81
584.77	497.81
584.981	480.81
585.191	524.81
585.401	512.81
585.611	499.81
585.821	489.81
586.032	507.81
586.242	500.81
586.452	481.81
586.662	512.81
586.872	510.81
587.082	514.81
587.292	493.81
587.502	490.81
587.713	453.81
587.923	522.81
588.133	490.81
588.343	489.81
588.553	491.81
588.762	490.81
588.972	499.81
589.182	496.81
589.392	509.81
589.602	480.81
589.812	501.81
590.022	495.81
590.232	489.81
590.441	496.81
590.651	497.81
590.861	488.81
591.071	494.81
591.281	517.81
591.49	517.81
591.7	541.81
591.91	532.81
592.119	526.81
592.329	541.81
592.539	567.81
592.748	590.81
592.958	625.81
593.167	626.81
593.377	618.81
593.587	653.81
593.796	648.81
594.006	668.81
594.215	665.81
594.424	654.81
594.634	658.81
594.843	616.81
595.053	560.81
595.262	576.81
595.472	533.81
595.681	529.81
595.89	497.81
596.1	470.81
596.309	488.81
596.518	471.81
596.727	494.81
596.937	466.81
597.146	488.81
597.355	455.81
597.564	445.81
597.774	456.81
597.983	457.81
598.192	438.81
598.401	430.81
598.61	432.81
598.819	434.81
599.028	429.81
599.237	398.81
599.446	436.81
599.655	439.81
599.864	416.81
600.073	413.81
600.282	429.81
600.491	425.81
600.7	401.81
600.909	397.81
601.118	411.81
601.327	417.81
601.536	407.81
601.745	413.81
601.953	404.81
602.162	410.81
602.371	396.81
602.58	388.81
602.789	403.81
602.997	390.81
603.206	406.81
603.415	414.81
603.623	385.81
603.832	401.81
604.041	386.81
604.249	374.81
604.458	398.81
604.666	373.81
604.875	379.81
605.084	360.81
605.292	394.81
605.501	380.81
605.709	378.81
605.918	399.81
606.126	379.81
606.334	360.81
606.543	372.81
606.751	372.81
606.96	380.81
607.168	378.81
607.376	368.81
607.585	367.81
607.793	349.81
608.001	382.81
608.21	365.81
608.418	382.81
608.626	371.81
608.834	376.81
609.043	372.81
609.251	355.81
609.459	363.81
609.667	375.81
609.875	362.81
610.083	384.81
610.291	348.81
610.499	342.81
610.707	354.81
610.916	347.81
611.124	355.81
611.332	358.81
611.54	355.81
611.748	361.81
611.955	368.81
612.163	367.81
612.371	363.81
612.579	358.81
612.787	373.81
612.995	358.81
613.203	368.81
613.411	362.81
613.618	350.81
613.826	346.81
614.034	363.81
614.242	361.81
614.449	348.81
614.657	341.81
614.865	349.81
615.072	337.81
615.28	356.81
615.488	351.81
615.695	341.81
615.903	356.81
616.111	370.81
616.318	354.81
616.526	355.81
616.733	341.81
616.941	363.81
617.148	376.81
617.356	370.81
617.563	368.81
617.771	372.81
617.978	336.81
618.185	347.81
618.393	345.81
618.6	357.81
618.807	370.81
619.015	361.81
619.222	366.81
619.429	358.81
619.637	342.81
619.844	337.81
620.051	327.81
620.258	326.81
620.466	318.81
620.673	338.81
620.88	316.81
621.087	336.81
621.294	329.81
621.501	321.81
621.708	333.81
621.915	345.81
622.122	316.81
622.329	312.81
622.536	330.81
622.743	340.81
622.95	317.81
623.157	332.81
623.364	325.81
623.571	312.81
623.778	310.81
623.985	317.81
624.192	315.81
624.399	320.81
624.606	309.81
624.812	320.81
625.019	311.81
625.226	310.81
625.433	310.81
625.639	307.81
625.846	307.81
626.053	282.81
626.259	306.81
626.466	321.81
626.673	300.81
626.879	284.81
627.086	311.81
627.293	300.81
627.499	283.81
627.706	281.81
627.912	293.81
628.119	290.81
628.325	276.81
628.532	295.81
628.738	277.81
628.945	269.81
629.151	296.81
629.357	273.81
629.564	272.81
629.77	284.81
629.976	264.81
630.183	259.81
630.389	262.81
630.595	262.81
630.802	260.81
631.008	268.81
631.214	268.81
631.42	266.81
631.627	274.81
631.833	276.81
632.039	250.81
632.245	256.81
632.451	262.81
632.657	261.81
632.863	289.81
633.069	243.81
633.275	238.81
633.481	244.81
633.688	266.81
633.893	268.81
634.099	252.81
634.305	278.81
634.511	276.81
634.717	273.81
634.923	229.81
635.129	250.81
635.335	252.81
635.541	241.81
635.747	265.81
635.952	265.81
636.158	259.81
636.364	261.81
636.57	254.81
636.775	249.81
636.981	257.81
637.187	231.81
637.392	240.81
637.598	245.81
637.804	226.81
638.009	244.81
638.215	234.81
638.421	243.81
638.626	244.81
638.832	234.81
639.037	228.81
639.243	233.81
639.448	247.81
639.654	251.81
639.859	245.81
640.065	241.81
640.27	242.81
640.475	225.81
640.681	234.81
640.886	237.81
641.091	227.81
641.297	224.81
641.502	233.81
641.707	242.81
641.913	206.81
642.118	221.81
642.323	229.81
642.528	236.81
642.733	230.81
642.939	212.81
643.144	222.81
643.349	229.81
643.554	242.81
643.759	224.81
643.964	219.81
644.169	231.81
644.374	225.81
644.579	224.81
644.784	211.81
644.989	215.81
645.194	229.81
645.399	222.81
645.604	217.81
645.809	217.81
646.014	222.81
646.219	225.81
646.423	225.81
646.628	222.81
646.833	200.81
647.038	217.81
647.243	206.81
647.447	228.81
647.652	230.81
647.857	237.81
648.062	234.81
648.266	257.81
648.471	240.81
648.676	229.81
648.88	233.81
649.085	226.81
649.289	230.81
649.494	226.81
649.698	211.81
649.903	221.81
650.107	214.81
650.312	184.81
650.516	214.81
650.721	212.81
650.925	192.81
651.13	199.81
651.334	201.81
651.539	198.81
651.743	202.81
651.947	192.81
652.152	172.81
652.356	182.81
652.56	177.81
652.764	171.81
652.969	169.81
653.173	167.81
653.377	177.81
653.581	172.81
653.785	179.81
653.99	177.81
654.194	156.81
654.398	165.81
654.602	166.81
654.806	151.81
655.01	165.81
655.214	156.81
655.418	158.81
655.622	150.81
655.826	162.81
656.03	160.81
656.234	130.81
656.438	147.81
656.642	148.81
656.846	152.81
657.049	142.81
657.253	143.81
657.457	163.81
657.661	137.81
657.865	123.81
658.068	119.81
658.272	122.81
658.476	123.81
658.68	124.81
658.883	104.81
659.087	107.81
659.291	107.81
659.494	108.81
659.698	113.81
659.901	100.81
660.105	113.81
660.309	108.81
660.512	112.81
660.716	106.81
660.919	115.81
661.123	113.81
661.326	90.81
661.53	90.81
661.733	91.81
661.936	87.81
662.14	78.81
662.343	87.81
662.546	91.81
662.75	82.81
662.953	89.81
663.156	78.81
663.36	84.81
663.563	91.81
663.766	85.81
663.969	85.81
664.173	87.81
664.376	76.81
664.579	77.81
664.782	92.81
664.985	85.81
665.188	95.81
665.391	93.81
665.594	72.81
665.797	80.81
666	85.81
666.203	91.81
666.406	82.81
666.609	85.81
666.812	85.81
667.015	84.81
667.218	74.81
667.421	75.81
667.624	80.81
667.827	73.81
668.03	90.81
668.232	92.81
668.435	74.81
668.638	84.81
668.841	86.81
669.043	65.81
669.246	76.81
669.449	95.81
669.651	86.81
669.854	83.81
670.057	83.81
670.259	81.81
670.462	98.81
670.665	85.81
670.867	68.81
671.07	76.81
671.272	83.81
671.475	83.81
671.677	83.81
671.88	80.81
672.082	91.81
672.284	94.81
672.487	72.81
672.689	81.81
672.892	84.81
