Data from NiCl2@0.5M.TitratingCurve.Agarose3%dH2O.NegLispCup.LampEnergy10.LIBS07252019_HRD10591_18-19-49-571.txt Node
Date: Thu Jul 25 18:19:49 EDT 2019
User: cochatt
Spectrometer: HR+D1059
Trigger mode: 1
Integration Time (sec): 1.000000E-1
Scans to average: 1
Electric dark correction enabled: true
Nonlinearity correction enabled: false
Boxcar width: 0
XAxis mode: Wavelengths
Number of Pixels in Spectrum: 2048
>>>>>Begin Spectral Data<<<<<
223.165	-13.25
223.4	-13.25
223.635	-13.25
223.869	-21.25
224.104	-27.25
224.338	-28.25
224.573	-17.25
224.808	2.75
225.042	4.75
225.277	-4.25
225.511	1.75
225.746	-1.25
225.98	-2.25
226.215	11.75
226.449	16.75
226.683	23.75
226.918	23.75
227.152	29.75
227.387	52.75
227.621	28.75
227.856	49.75
228.09	45.75
228.324	58.75
228.559	52.75
228.793	83.75
229.027	97.75
229.262	119.75
229.496	123.75
229.73	122.75
229.964	114.75
230.199	126.75
230.433	141.75
230.667	144.75
230.901	123.75
231.136	127.75
231.37	134.75
231.604	147.75
231.838	134.75
232.072	163.75
232.306	143.75
232.541	149.75
232.775	154.75
233.009	137.75
233.243	164.75
233.477	148.75
233.711	135.75
233.945	140.75
234.179	154.75
234.413	154.75
234.647	144.75
234.881	152.75
235.115	141.75
235.349	149.75
235.583	140.75
235.817	145.75
236.051	158.75
236.285	144.75
236.519	143.75
236.753	139.75
236.987	131.75
237.221	162.75
237.455	157.75
237.689	149.75
237.922	158.75
238.156	142.75
238.39	165.75
238.624	157.75
238.858	174.75
239.091	166.75
239.325	155.75
239.559	167.75
239.793	177.75
240.027	189.75
240.26	171.75
240.494	178.75
240.728	165.75
240.961	162.75
241.195	178.75
241.429	165.75
241.662	185.75
241.896	181.75
242.13	211.75
242.363	193.75
242.597	183.75
242.83	190.75
243.064	183.75
243.298	192.75
243.531	186.75
243.765	206.75
243.998	197.75
244.232	201.75
244.465	181.75
244.699	194.75
244.932	190.75
245.166	206.75
245.399	191.75
245.633	197.75
245.866	197.75
246.099	220.75
246.333	199.75
246.566	205.75
246.8	203.75
247.033	202.75
247.266	210.75
247.5	193.75
247.733	199.75
247.966	222.75
248.2	213.75
248.433	213.75
248.666	218.75
248.899	227.75
249.133	226.75
249.366	211.75
249.599	224.75
249.832	217.75
250.066	218.75
250.299	216.75
250.532	215.75
250.765	230.75
250.998	219.75
251.231	251.75
251.465	255.75
251.698	246.75
251.931	242.75
252.164	244.75
252.397	235.75
252.63	247.75
252.863	258.75
253.096	248.75
253.329	234.75
253.562	244.75
253.795	239.75
254.028	241.75
254.261	263.75
254.494	257.75
254.727	260.75
254.96	249.75
255.193	252.75
255.426	247.75
255.659	265.75
255.892	269.75
256.124	250.75
256.357	267.75
256.59	257.75
256.823	264.75
257.056	261.75
257.289	268.75
257.521	274.75
257.754	276.75
257.987	275.75
258.22	275.75
258.452	273.75
258.685	302.75
258.918	283.75
259.151	290.75
259.383	263.75
259.616	288.75
259.849	292.75
260.081	281.75
260.314	282.75
260.547	286.75
260.779	309.75
261.012	293.75
261.244	278.75
261.477	288.75
261.71	313.75
261.942	288.75
262.175	307.75
262.407	311.75
262.64	296.75
262.872	307.75
263.105	311.75
263.337	296.75
263.57	296.75
263.802	303.75
264.035	321.75
264.267	300.75
264.499	301.75
264.732	314.75
264.964	308.75
265.197	309.75
265.429	334.75
265.661	328.75
265.894	324.75
266.126	314.75
266.358	348.75
266.591	320.75
266.823	333.75
267.055	328.75
267.287	325.75
267.52	321.75
267.752	322.75
267.984	351.75
268.216	341.75
268.448	329.75
268.681	337.75
268.913	324.75
269.145	350.75
269.377	323.75
269.609	329.75
269.841	334.75
270.073	335.75
270.306	342.75
270.538	353.75
270.77	336.75
271.002	354.75
271.234	341.75
271.466	336.75
271.698	348.75
271.93	347.75
272.162	330.75
272.394	344.75
272.626	353.75
272.858	366.75
273.09	347.75
273.322	358.75
273.553	349.75
273.785	369.75
274.017	355.75
274.249	379.75
274.481	377.75
274.713	375.75
274.945	372.75
275.176	387.75
275.408	386.75
275.64	365.75
275.872	368.75
276.104	367.75
276.335	373.75
276.567	389.75
276.799	386.75
277.031	385.75
277.262	379.75
277.494	384.75
277.726	379.75
277.957	379.75
278.189	375.75
278.421	391.75
278.652	388.75
278.884	401.75
279.115	394.75
279.347	406.75
279.579	396.75
279.81	413.75
280.042	390.75
280.273	425.75
280.505	411.75
280.736	413.75
280.968	410.75
281.199	428.75
281.431	417.75
281.662	425.75
281.894	411.75
282.125	409.75
282.356	436.75
282.588	431.75
282.819	411.75
283.051	422.75
283.282	418.75
283.513	429.75
283.745	425.75
283.976	428.75
284.207	446.75
284.439	448.75
284.67	433.75
284.901	444.75
285.132	427.75
285.364	435.75
285.595	443.75
285.826	443.75
286.057	449.75
286.288	437.75
286.52	458.75
286.751	453.75
286.982	448.75
287.213	449.75
287.444	441.75
287.675	435.75
287.906	445.75
288.138	451.75
288.369	469.75
288.6	463.75
288.831	466.75
289.062	462.75
289.293	468.75
289.524	468.75
289.755	478.75
289.986	461.75
290.217	454.75
290.448	470.75
290.679	463.75
290.91	470.75
291.141	457.75
291.371	477.75
291.602	467.75
291.833	482.75
292.064	491.75
292.295	464.75
292.526	473.75
292.757	450.75
292.987	466.75
293.218	480.75
293.449	489.75
293.68	487.75
293.91	482.75
294.141	464.75
294.372	461.75
294.603	477.75
294.833	494.75
295.064	496.75
295.295	481.75
295.525	478.75
295.756	510.75
295.987	515.75
296.217	486.75
296.448	488.75
296.679	481.75
296.909	510.75
297.14	485.75
297.37	494.75
297.601	499.75
297.831	527.75
298.062	516.75
298.292	526.75
298.523	539.75
298.753	539.75
298.984	540.75
299.214	542.75
299.445	551.75
299.675	516.75
299.905	551.75
300.136	542.75
300.366	557.75
300.597	563.75
300.827	574.75
301.057	591.75
301.288	553.75
301.518	557.75
301.748	554.75
301.979	561.75
302.209	550.75
302.439	522.75
302.669	531.75
302.9	528.75
303.13	559.75
303.36	563.75
303.59	545.75
303.82	555.75
304.051	577.75
304.281	584.75
304.511	566.75
304.741	571.75
304.971	578.75
305.201	558.75
305.431	593.75
305.661	575.75
305.891	574.75
306.121	547.75
306.352	579.75
306.582	541.75
306.812	529.75
307.042	545.75
307.272	522.75
307.502	553.75
307.731	545.75
307.961	542.75
308.191	528.75
308.421	531.75
308.651	548.75
308.881	535.75
309.111	548.75
309.341	579.75
309.571	555.75
309.8	586.75
310.03	558.75
310.26	582.75
310.49	580.75
310.72	587.75
310.949	545.75
311.179	547.75
311.409	571.75
311.639	580.75
311.868	556.75
312.098	570.75
312.328	590.75
312.557	564.75
312.787	573.75
313.017	580.75
313.246	600.75
313.476	588.75
313.706	593.75
313.935	612.75
314.165	600.75
314.394	611.75
314.624	592.75
314.853	597.75
315.083	596.75
315.312	562.75
315.542	590.75
315.771	579.75
316.001	583.75
316.23	599.75
316.46	585.75
316.689	595.75
316.919	590.75
317.148	591.75
317.377	581.75
317.607	581.75
317.836	591.75
318.065	565.75
318.295	564.75
318.524	584.75
318.753	591.75
318.983	575.75
319.212	570.75
319.441	553.75
319.67	585.75
319.9	582.75
320.129	580.75
320.358	591.75
320.587	573.75
320.816	601.75
321.046	602.75
321.275	612.75
321.504	577.75
321.733	613.75
321.962	628.75
322.191	583.75
322.42	594.75
322.649	637.75
322.878	620.75
323.108	604.75
323.337	626.75
323.566	602.75
323.795	596.75
324.024	613.75
324.253	621.75
324.482	615.75
324.71	628.75
324.939	609.75
325.168	626.75
325.397	615.75
325.626	637.75
325.855	627.75
326.084	636.75
326.313	645.75
326.542	665.75
326.77	657.75
326.999	640.75
327.228	643.75
327.457	638.75
327.686	650.75
327.914	647.75
328.143	632.75
328.372	614.75
328.6	662.75
328.829	645.75
329.058	663.75
329.287	660.75
329.515	643.75
329.744	651.75
329.972	662.75
330.201	661.75
330.43	645.75
330.658	649.75
330.887	659.75
331.115	673.75
331.344	679.75
331.572	691.75
331.801	705.75
332.03	707.75
332.258	706.75
332.486	703.75
332.715	694.75
332.943	728.75
333.172	750.75
333.4	771.75
333.629	765.75
333.857	779.75
334.085	795.75
334.314	786.75
334.542	798.75
334.771	796.75
334.999	807.75
335.227	781.75
335.455	781.75
335.684	765.75
335.912	805.75
336.14	772.75
336.369	762.75
336.597	774.75
336.825	791.75
337.053	784.75
337.281	770.75
337.51	745.75
337.738	747.75
337.966	747.75
338.194	755.75
338.422	728.75
338.65	706.75
338.878	685.75
339.106	693.75
339.334	699.75
339.562	710.75
339.79	687.75
340.018	670.75
340.246	693.75
340.474	670.75
340.702	690.75
340.93	674.75
341.158	690.75
341.386	696.75
341.614	737.75
341.842	732.75
342.07	690.75
342.298	670.75
342.526	685.75
342.754	660.75
342.981	685.75
343.209	679.75
343.437	731.75
343.665	753.75
343.893	760.75
344.12	790.75
344.348	745.75
344.576	753.75
344.804	758.75
345.031	721.75
345.259	683.75
345.487	715.75
345.714	687.75
345.942	705.75
346.17	739.75
346.397	722.75
346.625	667.75
346.853	664.75
347.08	646.75
347.308	661.75
347.535	655.75
347.763	665.75
347.99	667.75
348.218	636.75
348.445	670.75
348.673	635.75
348.9	650.75
349.128	638.75
349.355	658.75
349.583	684.75
349.81	672.75
350.037	626.75
350.265	619.75
350.492	624.75
350.72	634.75
350.947	630.75
351.174	630.75
351.402	662.75
351.629	678.75
351.856	668.75
352.083	649.75
352.311	665.75
352.538	669.75
352.765	703.75
352.992	644.75
353.22	615.75
353.447	628.75
353.674	595.75
353.901	611.75
354.128	626.75
354.355	618.75
354.583	601.75
354.81	596.75
355.037	616.75
355.264	605.75
355.491	618.75
355.718	628.75
355.945	619.75
356.172	604.75
356.399	609.75
356.626	661.75
356.853	681.75
357.08	637.75
357.307	631.75
357.534	621.75
357.761	627.75
357.988	615.75
358.215	600.75
358.441	633.75
358.668	619.75
358.895	593.75
359.122	595.75
359.349	585.75
359.576	602.75
359.802	606.75
360.029	633.75
360.256	633.75
360.483	606.75
360.709	617.75
360.936	626.75
361.163	611.75
361.39	639.75
361.616	641.75
361.843	626.75
362.07	639.75
362.296	661.75
362.523	629.75
362.749	613.75
362.976	620.75
363.203	607.75
363.429	604.75
363.656	600.75
363.882	594.75
364.109	608.75
364.335	620.75
364.562	585.75
364.788	571.75
365.015	582.75
365.241	590.75
365.468	598.75
365.694	607.75
365.92	588.75
366.147	606.75
366.373	601.75
366.599	632.75
366.826	631.75
367.052	589.75
367.278	595.75
367.505	602.75
367.731	611.75
367.957	590.75
368.184	596.75
368.41	615.75
368.636	616.75
368.862	610.75
369.089	619.75
369.315	617.75
369.541	629.75
369.767	607.75
369.993	619.75
370.219	588.75
370.445	609.75
370.672	616.75
370.898	608.75
371.124	630.75
371.35	645.75
371.576	628.75
371.802	633.75
372.028	634.75
372.254	658.75
372.48	632.75
372.706	626.75
372.932	625.75
373.158	654.75
373.384	647.75
373.61	637.75
373.835	641.75
374.061	632.75
374.287	649.75
374.513	657.75
374.739	667.75
374.965	653.75
375.191	683.75
375.416	674.75
375.642	663.75
375.868	673.75
376.094	644.75
376.319	636.75
376.545	630.75
376.771	614.75
376.997	630.75
377.222	644.75
377.448	611.75
377.674	613.75
377.899	589.75
378.125	625.75
378.35	618.75
378.576	627.75
378.802	621.75
379.027	620.75
379.253	601.75
379.478	599.75
379.704	604.75
379.929	603.75
380.155	614.75
380.38	611.75
380.606	613.75
380.831	619.75
381.057	596.75
381.282	610.75
381.507	584.75
381.733	630.75
381.958	621.75
382.184	637.75
382.409	614.75
382.634	635.75
382.86	655.75
383.085	626.75
383.31	646.75
383.535	638.75
383.761	645.75
383.986	647.75
384.211	677.75
384.436	674.75
384.662	665.75
384.887	731.75
385.112	699.75
385.337	668.75
385.562	693.75
385.787	715.75
386.013	747.75
386.238	722.75
386.463	715.75
386.688	708.75
386.913	677.75
387.138	691.75
387.363	675.75
387.588	669.75
387.813	722.75
388.038	703.75
388.263	708.75
388.488	700.75
388.713	690.75
388.938	734.75
389.163	709.75
389.387	701.75
389.612	704.75
389.837	729.75
390.062	689.75
390.287	710.75
390.512	701.75
390.736	699.75
390.961	715.75
391.186	733.75
391.411	725.75
391.636	753.75
391.86	802.75
392.085	767.75
392.31	789.75
392.534	757.75
392.759	756.75
392.984	781.75
393.208	731.75
393.433	770.75
393.658	739.75
393.882	737.75
394.107	739.75
394.331	742.75
394.556	732.75
394.78	737.75
395.005	740.75
395.229	787.75
395.454	768.75
395.678	783.75
395.903	796.75
396.127	799.75
396.352	785.75
396.576	751.75
396.801	758.75
397.025	762.75
397.249	805.75
397.474	805.75
397.698	805.75
397.922	836.75
398.147	797.75
398.371	835.75
398.595	857.75
398.82	859.75
399.044	908.75
399.268	993.75
399.492	1049.75
399.717	1103.75
399.941	1141.75
400.165	1046.75
400.389	1010.75
400.613	972.75
400.837	912.75
401.062	891.75
401.286	878.75
401.51	883.75
401.734	878.75
401.958	895.75
402.182	881.75
402.406	888.75
402.63	908.75
402.854	908.75
403.078	905.75
403.302	919.75
403.526	932.75
403.75	956.75
403.974	958.75
404.198	938.75
404.422	981.75
404.645	937.75
404.869	902.75
405.093	931.75
405.317	922.75
405.541	965.75
405.765	937.75
405.988	951.75
406.212	957.75
406.436	954.75
406.66	976.75
406.883	971.75
407.107	1003.75
407.331	1045.75
407.555	1079.75
407.778	1076.75
408.002	1038.75
408.226	1048.75
408.449	1055.75
408.673	1017.75
408.896	984.75
409.12	969.75
409.344	1002.75
409.567	988.75
409.791	999.75
410.014	989.75
410.238	980.75
410.461	991.75
410.685	978.75
410.908	935.75
411.132	960.75
411.355	905.75
411.578	931.75
411.802	924.75
412.025	906.75
412.249	956.75
412.472	927.75
412.695	904.75
412.919	901.75
413.142	896.75
413.365	908.75
413.589	919.75
413.812	886.75
414.035	898.75
414.258	907.75
414.482	868.75
414.705	909.75
414.928	889.75
415.151	926.75
415.374	915.75
415.597	908.75
415.821	915.75
416.044	891.75
416.267	862.75
416.49	887.75
416.713	877.75
416.936	876.75
417.159	863.75
417.382	855.75
417.605	889.75
417.828	909.75
418.051	898.75
418.274	902.75
418.497	884.75
418.72	929.75
418.943	919.75
419.166	962.75
419.389	1022.75
419.611	1019.75
419.834	954.75
420.057	919.75
420.28	918.75
420.503	870.75
420.726	894.75
420.948	886.75
421.171	890.75
421.394	915.75
421.617	909.75
421.839	893.75
422.062	896.75
422.285	861.75
422.507	890.75
422.73	910.75
422.953	892.75
423.175	923.75
423.398	915.75
423.621	910.75
423.843	925.75
424.066	919.75
424.288	918.75
424.511	912.75
424.733	922.75
424.956	911.75
425.178	897.75
425.401	904.75
425.623	911.75
425.846	898.75
426.068	888.75
426.291	910.75
426.513	882.75
426.735	877.75
426.958	861.75
427.18	881.75
427.402	853.75
427.625	862.75
427.847	853.75
428.069	881.75
428.292	863.75
428.514	820.75
428.736	861.75
428.958	852.75
429.181	838.75
429.403	837.75
429.625	853.75
429.847	829.75
430.069	826.75
430.292	839.75
430.514	834.75
430.736	846.75
430.958	846.75
431.18	867.75
431.402	865.75
431.624	858.75
431.846	836.75
432.068	819.75
432.29	855.75
432.512	856.75
432.734	895.75
432.956	859.75
433.178	887.75
433.4	884.75
433.622	903.75
433.844	893.75
434.066	879.75
434.287	845.75
434.509	863.75
434.731	922.75
434.953	921.75
435.175	945.75
435.397	967.75
435.618	927.75
435.84	912.75
436.062	855.75
436.284	866.75
436.505	872.75
436.727	880.75
436.949	882.75
437.17	861.75
437.392	843.75
437.614	866.75
437.835	830.75
438.057	863.75
438.278	849.75
438.5	841.75
438.721	857.75
438.943	859.75
439.165	860.75
439.386	858.75
439.608	877.75
439.829	870.75
440.05	863.75
440.272	891.75
440.493	876.75
440.715	917.75
440.936	888.75
441.158	909.75
441.379	929.75
441.6	941.75
441.822	950.75
442.043	930.75
442.264	917.75
442.486	927.75
442.707	931.75
442.928	939.75
443.149	945.75
443.371	925.75
443.592	977.75
443.813	974.75
444.034	974.75
444.255	984.75
444.476	1003.75
444.698	1072.75
444.919	1087.75
445.14	1165.75
445.361	1053.75
445.582	1010.75
445.803	999.75
446.024	942.75
446.245	916.75
446.466	916.75
446.687	916.75
446.908	874.75
447.129	883.75
447.35	874.75
447.571	860.75
447.792	841.75
448.013	846.75
448.234	821.75
448.455	832.75
448.675	846.75
448.896	811.75
449.117	802.75
449.338	810.75
449.559	797.75
449.779	803.75
450	797.75
450.221	811.75
450.442	812.75
450.662	822.75
450.883	825.75
451.104	843.75
451.324	843.75
451.545	828.75
451.766	859.75
451.986	829.75
452.207	844.75
452.428	824.75
452.648	829.75
452.869	821.75
453.089	817.75
453.31	811.75
453.53	804.75
453.751	800.75
453.971	790.75
454.192	796.75
454.412	799.75
454.633	802.75
454.853	778.75
455.073	772.75
455.294	781.75
455.514	781.75
455.734	797.75
455.955	770.75
456.175	780.75
456.395	769.75
456.616	797.75
456.836	763.75
457.056	797.75
457.276	755.75
457.497	797.75
457.717	803.75
457.937	801.75
458.157	791.75
458.377	787.75
458.598	823.75
458.818	843.75
459.038	856.75
459.258	876.75
459.478	899.75
459.698	921.75
459.918	952.75
460.138	969.75
460.358	1011.75
460.578	1023.75
460.798	1002.75
461.018	993.75
461.238	1026.75
461.458	1015.75
461.678	1029.75
461.898	1032.75
462.118	1043.75
462.338	1091.75
462.558	1113.75
462.777	1135.75
462.997	1191.75
463.217	1230.75
463.437	1228.75
463.657	1174.75
463.876	1146.75
464.096	1174.75
464.316	1167.75
464.536	1109.75
464.755	1093.75
464.975	1063.75
465.195	1019.75
465.414	986.75
465.634	985.75
465.854	963.75
466.073	910.75
466.293	906.75
466.512	903.75
466.732	886.75
466.951	903.75
467.171	872.75
467.391	899.75
467.61	854.75
467.829	864.75
468.049	869.75
468.268	869.75
468.488	863.75
468.707	861.75
468.927	838.75
469.146	860.75
469.365	864.75
469.585	860.75
469.804	884.75
470.023	876.75
470.243	860.75
470.462	890.75
470.681	911.75
470.901	894.75
471.12	902.75
471.339	885.75
471.558	879.75
471.777	878.75
471.997	874.75
472.216	835.75
472.435	853.75
472.654	825.75
472.873	819.75
473.092	826.75
473.311	846.75
473.53	850.75
473.749	828.75
473.968	843.75
474.187	846.75
474.406	833.75
474.625	873.75
474.844	841.75
475.063	813.75
475.282	855.75
475.501	855.75
475.72	857.75
475.939	874.75
476.158	853.75
476.377	896.75
476.596	863.75
476.814	897.75
477.033	887.75
477.252	875.75
477.471	929.75
477.69	948.75
477.908	966.75
478.127	951.75
478.346	975.75
478.564	998.75
478.783	998.75
479.002	1015.75
479.22	1016.75
479.439	1032.75
479.658	994.75
479.876	999.75
480.095	1010.75
480.313	1044.75
480.532	1060.75
480.751	1035.75
480.969	1034.75
481.188	1029.75
481.406	986.75
481.624	979.75
481.843	970.75
482.061	987.75
482.28	992.75
482.498	942.75
482.717	917.75
482.935	983.75
483.153	948.75
483.372	1007.75
483.59	995.75
483.808	981.75
484.027	965.75
484.245	950.75
484.463	1001.75
484.681	1007.75
484.9	986.75
485.118	981.75
485.336	1011.75
485.554	1012.75
485.772	1011.75
485.99	1015.75
486.209	1027.75
486.427	1002.75
486.645	1006.75
486.863	1022.75
487.081	1014.75
487.299	1030.75
487.517	1038.75
487.735	1010.75
487.953	1026.75
488.171	1021.75
488.389	1018.75
488.607	1004.75
488.825	1011.75
489.043	965.75
489.261	964.75
489.479	993.75
489.696	1005.75
489.914	999.75
490.132	1016.75
490.35	1035.75
490.568	1023.75
490.786	1051.75
491.003	1032.75
491.221	1025.75
491.439	1043.75
491.657	1030.75
491.874	1050.75
492.092	1040.75
492.31	1076.75
492.527	1082.75
492.745	1071.75
492.963	1088.75
493.18	1055.75
493.398	1050.75
493.615	1041.75
493.833	1083.75
494.05	1066.75
494.268	1062.75
494.485	1075.75
494.703	1121.75
494.92	1089.75
495.138	1073.75
495.355	1108.75
495.573	1100.75
495.79	1111.75
496.008	1117.75
496.225	1087.75
496.442	1112.75
496.66	1129.75
496.877	1128.75
497.094	1178.75
497.312	1212.75
497.529	1190.75
497.746	1247.75
497.963	1258.75
498.181	1287.75
498.398	1359.75
498.615	1420.75
498.832	1502.75
499.049	1538.75
499.267	1659.75
499.484	1716.75
499.701	1872.75
499.918	2039.75
500.135	2198.75
500.352	2364.75
500.569	2421.75
500.786	2459.75
501.003	2319.75
501.22	2192.75
501.437	2023.75
501.654	1854.75
501.871	1701.75
502.088	1625.75
502.305	1536.75
502.522	1477.75
502.739	1458.75
502.956	1365.75
503.172	1298.75
503.389	1292.75
503.606	1244.75
503.823	1246.75
504.04	1215.75
504.256	1199.75
504.473	1203.75
504.69	1203.75
504.907	1163.75
505.123	1130.75
505.34	1105.75
505.557	1063.75
505.773	1059.75
505.99	1037.75
506.207	1006.75
506.423	1018.75
506.64	990.75
506.856	977.75
507.073	983.75
507.289	981.75
507.506	944.75
507.722	961.75
507.939	942.75
508.155	931.75
508.372	940.75
508.588	935.75
508.805	893.75
509.021	869.75
509.238	911.75
509.454	905.75
509.67	905.75
509.887	898.75
510.103	881.75
510.319	858.75
510.536	870.75
510.752	857.75
510.968	877.75
511.184	869.75
511.401	852.75
511.617	849.75
511.833	859.75
512.049	855.75
512.265	841.75
512.481	856.75
512.698	854.75
512.914	852.75
513.13	866.75
513.346	859.75
513.562	860.75
513.778	865.75
513.994	851.75
514.21	887.75
514.426	875.75
514.642	891.75
514.858	895.75
515.074	885.75
515.29	878.75
515.506	901.75
515.721	918.75
515.937	888.75
516.153	912.75
516.369	953.75
516.585	943.75
516.801	968.75
517.016	1008.75
517.232	1016.75
517.448	1044.75
517.664	1090.75
517.879	1065.75
518.095	1057.75
518.311	1029.75
518.527	1045.75
518.742	1012.75
518.958	995.75
519.173	977.75
519.389	967.75
519.605	919.75
519.82	920.75
520.036	921.75
520.251	909.75
520.467	863.75
520.682	860.75
520.898	838.75
521.113	838.75
521.329	837.75
521.544	840.75
521.76	840.75
521.975	829.75
522.19	823.75
522.406	808.75
522.621	833.75
522.836	811.75
523.052	797.75
523.267	782.75
523.482	773.75
523.698	809.75
523.913	802.75
524.128	793.75
524.343	753.75
524.559	770.75
524.774	796.75
524.989	823.75
525.204	789.75
525.419	773.75
525.634	774.75
525.849	765.75
526.064	801.75
526.28	763.75
526.495	756.75
526.71	766.75
526.925	765.75
527.14	750.75
527.355	755.75
527.57	773.75
527.785	757.75
527.999	774.75
528.214	755.75
528.429	773.75
528.644	761.75
528.859	770.75
529.074	757.75
529.289	771.75
529.503	773.75
529.718	767.75
529.933	751.75
530.148	766.75
530.363	738.75
530.577	755.75
530.792	745.75
531.007	728.75
531.221	757.75
531.436	771.75
531.651	745.75
531.865	782.75
532.08	743.75
532.295	755.75
532.509	770.75
532.724	750.75
532.938	791.75
533.153	741.75
533.367	761.75
533.582	758.75
533.796	755.75
534.011	745.75
534.225	746.75
534.44	763.75
534.654	756.75
534.868	732.75
535.083	737.75
535.297	736.75
535.511	739.75
535.726	726.75
535.94	705.75
536.154	725.75
536.369	702.75
536.583	733.75
536.797	700.75
537.011	740.75
537.225	701.75
537.44	705.75
537.654	723.75
537.868	705.75
538.082	730.75
538.296	702.75
538.51	695.75
538.724	697.75
538.938	694.75
539.153	723.75
539.367	704.75
539.581	697.75
539.795	681.75
540.009	677.75
540.222	667.75
540.436	671.75
540.65	654.75
540.864	677.75
541.078	713.75
541.292	711.75
541.506	682.75
541.72	726.75
541.934	703.75
542.147	705.75
542.361	702.75
542.575	692.75
542.789	679.75
543.002	651.75
543.216	667.75
543.43	683.75
543.644	690.75
543.857	693.75
544.071	677.75
544.285	684.75
544.498	693.75
544.712	686.75
544.925	713.75
545.139	725.75
545.352	687.75
545.566	687.75
545.779	676.75
545.993	661.75
546.206	705.75
546.42	709.75
546.633	711.75
546.847	680.75
547.06	707.75
547.274	727.75
547.487	694.75
547.7	677.75
547.914	704.75
548.127	711.75
548.34	731.75
548.554	713.75
548.767	707.75
548.98	723.75
549.193	716.75
549.407	701.75
549.62	706.75
549.833	674.75
550.046	694.75
550.259	692.75
550.473	663.75
550.686	709.75
550.899	698.75
551.112	695.75
551.325	674.75
551.538	689.75
551.751	678.75
551.964	689.75
552.177	689.75
552.39	722.75
552.603	702.75
552.816	720.75
553.029	738.75
553.242	731.75
553.455	738.75
553.667	725.75
553.88	730.75
554.093	684.75
554.306	667.75
554.519	696.75
554.732	691.75
554.944	658.75
555.157	642.75
555.37	640.75
555.583	655.75
555.795	650.75
556.008	634.75
556.221	641.75
556.433	620.75
556.646	622.75
556.859	631.75
557.071	623.75
557.284	628.75
557.496	594.75
557.709	585.75
557.921	590.75
558.134	598.75
558.346	598.75
558.559	598.75
558.771	596.75
558.984	609.75
559.196	599.75
559.409	589.75
559.621	585.75
559.833	586.75
560.046	581.75
560.258	582.75
560.47	599.75
560.683	578.75
560.895	561.75
561.107	572.75
561.32	592.75
561.532	588.75
561.744	573.75
561.956	603.75
562.168	590.75
562.381	587.75
562.593	583.75
562.805	596.75
563.017	585.75
563.229	606.75
563.441	578.75
563.653	592.75
563.865	588.75
564.077	590.75
564.289	602.75
564.501	614.75
564.713	634.75
564.925	623.75
565.137	622.75
565.349	633.75
565.561	653.75
565.773	653.75
565.985	686.75
566.197	708.75
566.408	739.75
566.62	767.75
566.832	809.75
567.044	801.75
567.255	818.75
567.467	835.75
567.679	845.75
567.891	878.75
568.102	887.75
568.314	831.75
568.526	805.75
568.737	743.75
568.949	717.75
569.161	664.75
569.372	649.75
569.584	651.75
569.795	618.75
570.007	622.75
570.218	586.75
570.43	552.75
570.641	580.75
570.853	573.75
571.064	583.75
571.276	547.75
571.487	552.75
571.698	528.75
571.91	522.75
572.121	509.75
572.333	505.75
572.544	516.75
572.755	511.75
572.966	501.75
573.178	497.75
573.389	483.75
573.6	488.75
573.811	482.75
574.023	477.75
574.234	474.75
574.445	477.75
574.656	479.75
574.867	463.75
575.078	482.75
575.289	460.75
575.501	488.75
575.712	471.75
575.923	447.75
576.134	422.75
576.345	446.75
576.556	442.75
576.767	433.75
576.978	462.75
577.188	424.75
577.399	451.75
577.61	437.75
577.821	430.75
578.032	421.75
578.243	437.75
578.454	409.75
578.665	418.75
578.875	433.75
579.086	412.75
579.297	405.75
579.508	412.75
579.718	418.75
579.929	426.75
580.14	390.75
580.35	413.75
580.561	414.75
580.772	389.75
580.982	404.75
581.193	410.75
581.403	419.75
581.614	406.75
581.825	407.75
582.035	416.75
582.246	398.75
582.456	416.75
582.667	409.75
582.877	395.75
583.087	399.75
583.298	409.75
583.508	410.75
583.719	390.75
583.929	399.75
584.139	403.75
584.35	398.75
584.56	391.75
584.77	375.75
584.981	385.75
585.191	392.75
585.401	380.75
585.611	385.75
585.821	396.75
586.032	405.75
586.242	389.75
586.452	390.75
586.662	367.75
586.872	373.75
587.082	381.75
587.292	388.75
587.502	390.75
587.713	373.75
587.923	357.75
588.133	370.75
588.343	385.75
588.553	356.75
588.762	381.75
588.972	378.75
589.182	437.75
589.392	438.75
589.602	379.75
589.812	425.75
590.022	395.75
590.232	410.75
590.441	371.75
590.651	366.75
590.861	379.75
591.071	391.75
591.281	376.75
591.49	400.75
591.7	388.75
591.91	407.75
592.119	412.75
592.329	410.75
592.539	426.75
592.748	418.75
592.958	438.75
593.167	423.75
593.377	427.75
593.587	432.75
593.796	442.75
594.006	437.75
594.215	418.75
594.424	431.75
594.634	430.75
594.843	419.75
595.053	408.75
595.262	397.75
595.472	398.75
595.681	385.75
595.89	391.75
596.1	377.75
596.309	358.75
596.518	362.75
596.727	365.75
596.937	358.75
597.146	338.75
597.355	350.75
597.564	340.75
597.774	350.75
597.983	326.75
598.192	340.75
598.401	321.75
598.61	345.75
598.819	332.75
599.028	343.75
599.237	340.75
599.446	333.75
599.655	333.75
599.864	324.75
600.073	330.75
600.282	317.75
600.491	323.75
600.7	320.75
600.909	322.75
601.118	313.75
601.327	309.75
601.536	330.75
601.745	303.75
601.953	308.75
602.162	314.75
602.371	312.75
602.58	310.75
602.789	321.75
602.997	306.75
603.206	316.75
603.415	315.75
603.623	318.75
603.832	291.75
604.041	318.75
604.249	303.75
604.458	295.75
604.666	296.75
604.875	297.75
605.084	289.75
605.292	296.75
605.501	282.75
605.709	299.75
605.918	307.75
606.126	304.75
606.334	302.75
606.543	283.75
606.751	305.75
606.96	287.75
607.168	286.75
607.376	297.75
607.585	313.75
607.793	313.75
608.001	290.75
608.21	281.75
608.418	279.75
608.626	283.75
608.834	308.75
609.043	273.75
609.251	279.75
609.459	289.75
609.667	287.75
609.875	277.75
610.083	272.75
610.291	294.75
610.499	292.75
610.707	295.75
610.916	284.75
611.124	289.75
611.332	271.75
611.54	280.75
611.748	257.75
611.955	283.75
612.163	271.75
612.371	282.75
612.579	279.75
612.787	289.75
612.995	253.75
613.203	262.75
613.411	272.75
613.618	276.75
613.826	275.75
614.034	266.75
614.242	282.75
614.449	268.75
614.657	270.75
614.865	269.75
615.072	265.75
615.28	284.75
615.488	274.75
615.695	274.75
615.903	272.75
616.111	265.75
616.318	272.75
616.526	282.75
616.733	270.75
616.941	257.75
617.148	268.75
617.356	260.75
617.563	275.75
617.771	275.75
617.978	265.75
618.185	257.75
618.393	257.75
618.6	245.75
618.807	247.75
619.015	273.75
619.222	254.75
619.429	244.75
619.637	269.75
619.844	251.75
620.051	260.75
620.258	241.75
620.466	249.75
620.673	254.75
620.88	233.75
621.087	260.75
621.294	245.75
621.501	266.75
621.708	252.75
621.915	239.75
622.122	255.75
622.329	242.75
622.536	255.75
622.743	254.75
622.95	234.75
623.157	257.75
623.364	223.75
623.571	237.75
623.778	236.75
623.985	249.75
624.192	236.75
624.399	223.75
624.606	252.75
624.812	251.75
625.019	228.75
625.226	233.75
625.433	237.75
625.639	231.75
625.846	226.75
626.053	242.75
626.259	228.75
626.466	226.75
626.673	226.75
626.879	222.75
627.086	223.75
627.293	237.75
627.499	214.75
627.706	217.75
627.912	234.75
628.119	235.75
628.325	234.75
628.532	233.75
628.738	214.75
628.945	212.75
629.151	234.75
629.357	221.75
629.564	234.75
629.77	206.75
629.976	218.75
630.183	213.75
630.389	225.75
630.595	200.75
630.802	233.75
631.008	208.75
631.214	212.75
631.42	208.75
631.627	220.75
631.833	217.75
632.039	223.75
632.245	197.75
632.451	210.75
632.657	202.75
632.863	213.75
633.069	216.75
633.275	202.75
633.481	214.75
633.688	213.75
633.893	214.75
634.099	202.75
634.305	219.75
634.511	205.75
634.717	202.75
634.923	205.75
635.129	195.75
635.335	206.75
635.541	205.75
635.747	201.75
635.952	213.75
636.158	190.75
636.364	217.75
636.57	200.75
636.775	210.75
636.981	218.75
637.187	192.75
637.392	177.75
637.598	211.75
637.804	206.75
638.009	197.75
638.215	207.75
638.421	185.75
638.626	190.75
638.832	194.75
639.037	189.75
639.243	191.75
639.448	203.75
639.654	170.75
639.859	194.75
640.065	190.75
640.27	201.75
640.475	190.75
640.681	200.75
640.886	195.75
641.091	187.75
641.297	193.75
641.502	190.75
641.707	185.75
641.913	174.75
642.118	187.75
642.323	179.75
642.528	200.75
642.733	184.75
642.939	198.75
643.144	188.75
643.349	172.75
643.554	174.75
643.759	176.75
643.964	172.75
644.169	184.75
644.374	179.75
644.579	189.75
644.784	186.75
644.989	191.75
645.194	187.75
645.399	185.75
645.604	176.75
645.809	170.75
646.014	173.75
646.219	173.75
646.423	191.75
646.628	195.75
646.833	186.75
647.038	176.75
647.243	180.75
647.447	169.75
647.652	166.75
647.857	179.75
648.062	195.75
648.266	179.75
648.471	192.75
648.676	165.75
648.88	183.75
649.085	183.75
649.289	169.75
649.494	171.75
649.698	190.75
649.903	161.75
650.107	197.75
650.312	178.75
650.516	179.75
650.721	164.75
650.925	163.75
651.13	159.75
651.334	174.75
651.539	164.75
651.743	156.75
651.947	172.75
652.152	161.75
652.356	159.75
652.56	154.75
652.764	141.75
652.969	162.75
653.173	144.75
653.377	156.75
653.581	146.75
653.785	149.75
653.99	172.75
654.194	162.75
654.398	161.75
654.602	154.75
654.806	154.75
655.01	144.75
655.214	149.75
655.418	148.75
655.622	151.75
655.826	142.75
656.03	135.75
656.234	144.75
656.438	158.75
656.642	147.75
656.846	144.75
657.049	145.75
657.253	142.75
657.457	125.75
657.661	123.75
657.865	118.75
658.068	119.75
658.272	120.75
658.476	119.75
658.68	111.75
658.883	113.75
659.087	110.75
659.291	108.75
659.494	122.75
659.698	117.75
659.901	110.75
660.105	97.75
660.309	101.75
660.512	109.75
660.716	84.75
660.919	105.75
661.123	95.75
661.326	94.75
661.53	93.75
661.733	93.75
661.936	110.75
662.14	85.75
662.343	82.75
662.546	82.75
662.75	77.75
662.953	102.75
663.156	85.75
663.36	79.75
663.563	85.75
663.766	80.75
663.969	86.75
664.173	87.75
664.376	82.75
664.579	82.75
664.782	90.75
664.985	92.75
665.188	85.75
665.391	88.75
665.594	78.75
665.797	69.75
666	72.75
666.203	84.75
666.406	91.75
666.609	94.75
666.812	92.75
667.015	77.75
667.218	78.75
667.421	87.75
667.624	83.75
667.827	88.75
668.03	81.75
668.232	84.75
668.435	87.75
668.638	97.75
668.841	86.75
669.043	86.75
669.246	77.75
669.449	73.75
669.651	79.75
669.854	96.75
670.057	97.75
670.259	86.75
670.462	73.75
670.665	76.75
670.867	82.75
671.07	75.75
671.272	81.75
671.475	78.75
671.677	86.75
671.88	71.75
672.082	74.75
672.284	90.75
672.487	82.75
672.689	83.75
672.892	87.75
