Data from NiCl2@0.0625M.TitratingCurve.Agarose3%dH2O.NegLispCup.LampEnergy10.LIBS07252019_HRD10591_18-35-23-577.txt Node
Date: Thu Jul 25 18:35:23 EDT 2019
User: cochatt
Spectrometer: HR+D1059
Trigger mode: 1
Integration Time (sec): 1.000000E-1
Scans to average: 1
Electric dark correction enabled: true
Nonlinearity correction enabled: false
Boxcar width: 0
XAxis mode: Wavelengths
Number of Pixels in Spectrum: 2048
>>>>>Begin Spectral Data<<<<<
223.165	-14.12
223.4	-14.12
223.635	-14.12
223.869	-20.12
224.104	-22.12
224.338	-25.12
224.573	-17.12
224.808	-12.12
225.042	-19.12
225.277	-18.12
225.511	-5.12
225.746	13.88
225.98	14.88
226.215	26.88
226.449	16.88
226.683	9.88
226.918	33.88
227.152	36.88
227.387	25.88
227.621	40.88
227.856	52.88
228.09	55.88
228.324	58.88
228.559	42.88
228.793	67.88
229.027	144.88
229.262	148.88
229.496	133.88
229.73	152.88
229.964	149.88
230.199	171.88
230.433	187.88
230.667	172.88
230.901	171.88
231.136	184.88
231.37	160.88
231.604	181.88
231.838	176.88
232.072	183.88
232.306	187.88
232.541	197.88
232.775	187.88
233.009	166.88
233.243	188.88
233.477	176.88
233.711	179.88
233.945	200.88
234.179	200.88
234.413	201.88
234.647	198.88
234.881	206.88
235.115	187.88
235.349	200.88
235.583	204.88
235.817	217.88
236.051	207.88
236.285	198.88
236.519	197.88
236.753	205.88
236.987	215.88
237.221	217.88
237.455	213.88
237.689	203.88
237.922	218.88
238.156	226.88
238.39	219.88
238.624	232.88
238.858	217.88
239.091	216.88
239.325	227.88
239.559	228.88
239.793	245.88
240.027	256.88
240.26	237.88
240.494	235.88
240.728	259.88
240.961	247.88
241.195	264.88
241.429	254.88
241.662	250.88
241.896	268.88
242.13	263.88
242.363	268.88
242.597	276.88
242.83	264.88
243.064	273.88
243.298	294.88
243.531	282.88
243.765	304.88
243.998	301.88
244.232	279.88
244.465	300.88
244.699	290.88
244.932	311.88
245.166	304.88
245.399	309.88
245.633	297.88
245.866	293.88
246.099	314.88
246.333	321.88
246.566	313.88
246.8	325.88
247.033	308.88
247.266	329.88
247.5	326.88
247.733	338.88
247.966	327.88
248.2	344.88
248.433	338.88
248.666	335.88
248.899	347.88
249.133	360.88
249.366	348.88
249.599	346.88
249.832	359.88
250.066	343.88
250.299	370.88
250.532	370.88
250.765	357.88
250.998	374.88
251.231	374.88
251.465	388.88
251.698	396.88
251.931	381.88
252.164	381.88
252.397	371.88
252.63	381.88
252.863	406.88
253.096	406.88
253.329	404.88
253.562	392.88
253.795	423.88
254.028	409.88
254.261	419.88
254.494	394.88
254.727	408.88
254.96	403.88
255.193	413.88
255.426	410.88
255.659	414.88
255.892	422.88
256.124	416.88
256.357	419.88
256.59	427.88
256.823	428.88
257.056	435.88
257.289	443.88
257.521	439.88
257.754	458.88
257.987	446.88
258.22	447.88
258.452	440.88
258.685	448.88
258.918	436.88
259.151	445.88
259.383	455.88
259.616	463.88
259.849	474.88
260.081	465.88
260.314	468.88
260.547	464.88
260.779	480.88
261.012	470.88
261.244	478.88
261.477	463.88
261.71	457.88
261.942	483.88
262.175	478.88
262.407	494.88
262.64	486.88
262.872	460.88
263.105	490.88
263.337	502.88
263.57	498.88
263.802	530.88
264.035	522.88
264.267	527.88
264.499	497.88
264.732	508.88
264.964	532.88
265.197	519.88
265.429	517.88
265.661	518.88
265.894	536.88
266.126	520.88
266.358	534.88
266.591	525.88
266.823	542.88
267.055	518.88
267.287	539.88
267.52	518.88
267.752	560.88
267.984	532.88
268.216	545.88
268.448	565.88
268.681	564.88
268.913	557.88
269.145	560.88
269.377	591.88
269.609	574.88
269.841	544.88
270.073	569.88
270.306	576.88
270.538	569.88
270.77	585.88
271.002	583.88
271.234	567.88
271.466	584.88
271.698	582.88
271.93	573.88
272.162	598.88
272.394	593.88
272.626	576.88
272.858	594.88
273.09	606.88
273.322	602.88
273.553	613.88
273.785	621.88
274.017	636.88
274.249	587.88
274.481	614.88
274.713	619.88
274.945	625.88
275.176	612.88
275.408	626.88
275.64	644.88
275.872	620.88
276.104	640.88
276.335	628.88
276.567	636.88
276.799	648.88
277.031	681.88
277.262	644.88
277.494	638.88
277.726	642.88
277.957	647.88
278.189	669.88
278.421	649.88
278.652	650.88
278.884	665.88
279.115	668.88
279.347	674.88
279.579	689.88
279.81	701.88
280.042	677.88
280.273	676.88
280.505	689.88
280.736	679.88
280.968	692.88
281.199	689.88
281.431	705.88
281.662	707.88
281.894	685.88
282.125	728.88
282.356	726.88
282.588	722.88
282.819	723.88
283.051	715.88
283.282	716.88
283.513	720.88
283.745	722.88
283.976	738.88
284.207	732.88
284.439	718.88
284.67	728.88
284.901	745.88
285.132	741.88
285.364	747.88
285.595	740.88
285.826	758.88
286.057	752.88
286.288	731.88
286.52	762.88
286.751	760.88
286.982	778.88
287.213	783.88
287.444	756.88
287.675	764.88
287.906	801.88
288.138	772.88
288.369	789.88
288.6	790.88
288.831	792.88
289.062	761.88
289.293	766.88
289.524	821.88
289.755	794.88
289.986	789.88
290.217	764.88
290.448	792.88
290.679	809.88
290.91	792.88
291.141	800.88
291.371	789.88
291.602	768.88
291.833	782.88
292.064	794.88
292.295	820.88
292.526	800.88
292.757	802.88
292.987	811.88
293.218	800.88
293.449	804.88
293.68	789.88
293.91	802.88
294.141	792.88
294.372	790.88
294.603	801.88
294.833	831.88
295.064	801.88
295.295	810.88
295.525	810.88
295.756	830.88
295.987	812.88
296.217	840.88
296.448	842.88
296.679	839.88
296.909	833.88
297.14	862.88
297.37	855.88
297.601	859.88
297.831	859.88
298.062	869.88
298.292	860.88
298.523	877.88
298.753	873.88
298.984	881.88
299.214	882.88
299.445	861.88
299.675	888.88
299.905	856.88
300.136	870.88
300.366	880.88
300.597	890.88
300.827	892.88
301.057	895.88
301.288	924.88
301.518	936.88
301.748	922.88
301.979	916.88
302.209	918.88
302.439	939.88
302.669	946.88
302.9	911.88
303.13	898.88
303.36	916.88
303.59	900.88
303.82	906.88
304.051	919.88
304.281	916.88
304.511	916.88
304.741	901.88
304.971	925.88
305.201	920.88
305.431	909.88
305.661	903.88
305.891	903.88
306.121	916.88
306.352	898.88
306.582	911.88
306.812	904.88
307.042	892.88
307.272	899.88
307.502	876.88
307.731	908.88
307.961	920.88
308.191	886.88
308.421	905.88
308.651	880.88
308.881	871.88
309.111	890.88
309.341	906.88
309.571	895.88
309.8	900.88
310.03	924.88
310.26	886.88
310.49	905.88
310.72	908.88
310.949	919.88
311.179	934.88
311.409	910.88
311.639	920.88
311.868	920.88
312.098	928.88
312.328	941.88
312.557	928.88
312.787	932.88
313.017	947.88
313.246	941.88
313.476	965.88
313.706	995.88
313.935	987.88
314.165	993.88
314.394	991.88
314.624	977.88
314.853	968.88
315.083	960.88
315.312	954.88
315.542	957.88
315.771	970.88
316.001	967.88
316.23	966.88
316.46	959.88
316.689	961.88
316.919	949.88
317.148	934.88
317.377	973.88
317.607	965.88
317.836	951.88
318.065	972.88
318.295	947.88
318.524	972.88
318.753	968.88
318.983	948.88
319.212	972.88
319.441	965.88
319.67	953.88
319.9	944.88
320.129	968.88
320.358	971.88
320.587	939.88
320.816	980.88
321.046	953.88
321.275	934.88
321.504	958.88
321.733	975.88
321.962	957.88
322.191	989.88
322.42	987.88
322.649	1017.88
322.878	963.88
323.108	965.88
323.337	1005.88
323.566	978.88
323.795	991.88
324.024	1027.88
324.253	1021.88
324.482	989.88
324.71	983.88
324.939	984.88
325.168	1013.88
325.397	988.88
325.626	1010.88
325.855	1042.88
326.084	1063.88
326.313	1078.88
326.542	1044.88
326.77	1090.88
326.999	1048.88
327.228	1040.88
327.457	1031.88
327.686	1038.88
327.914	1038.88
328.143	1063.88
328.372	1062.88
328.6	1067.88
328.829	1036.88
329.058	1089.88
329.287	1063.88
329.515	1042.88
329.744	1044.88
329.972	1079.88
330.201	1081.88
330.43	1102.88
330.658	1070.88
330.887	1087.88
331.115	1068.88
331.344	1121.88
331.572	1129.88
331.801	1116.88
332.03	1145.88
332.258	1162.88
332.486	1200.88
332.715	1218.88
332.943	1259.88
333.172	1249.88
333.4	1336.88
333.629	1342.88
333.857	1358.88
334.085	1380.88
334.314	1367.88
334.542	1362.88
334.771	1363.88
334.999	1321.88
335.227	1338.88
335.455	1341.88
335.684	1333.88
335.912	1291.88
336.14	1266.88
336.369	1283.88
336.597	1300.88
336.825	1284.88
337.053	1268.88
337.281	1240.88
337.51	1226.88
337.738	1245.88
337.966	1195.88
338.194	1176.88
338.422	1177.88
338.65	1200.88
338.878	1156.88
339.106	1159.88
339.334	1176.88
339.562	1155.88
339.79	1108.88
340.018	1105.88
340.246	1110.88
340.474	1075.88
340.702	1113.88
340.93	1103.88
341.158	1116.88
341.386	1119.88
341.614	1092.88
341.842	1110.88
342.07	1120.88
342.298	1084.88
342.526	1106.88
342.754	1101.88
342.981	1101.88
343.209	1118.88
343.437	1174.88
343.665	1225.88
343.893	1296.88
344.12	1340.88
344.348	1254.88
344.576	1226.88
344.804	1216.88
345.031	1153.88
345.259	1109.88
345.487	1136.88
345.714	1111.88
345.942	1097.88
346.17	1101.88
346.397	1087.88
346.625	1062.88
346.853	1060.88
347.08	1059.88
347.308	1054.88
347.535	1081.88
347.763	1080.88
347.99	1074.88
348.218	1056.88
348.445	1076.88
348.673	1077.88
348.9	1059.88
349.128	1036.88
349.355	1047.88
349.583	1058.88
349.81	1032.88
350.037	1032.88
350.265	1057.88
350.492	1048.88
350.72	1019.88
350.947	1033.88
351.174	1035.88
351.402	1000.88
351.629	1027.88
351.856	1028.88
352.083	1008.88
352.311	1037.88
352.538	1021.88
352.765	1015.88
352.992	1010.88
353.22	993.88
353.447	1033.88
353.674	1002.88
353.901	1007.88
354.128	1000.88
354.355	1000.88
354.583	997.88
354.81	1009.88
355.037	1034.88
355.264	1034.88
355.491	1041.88
355.718	1026.88
355.945	1016.88
356.172	1006.88
356.399	1042.88
356.626	1045.88
356.853	1040.88
357.08	1048.88
357.307	1035.88
357.534	1042.88
357.761	1008.88
357.988	1006.88
358.215	1021.88
358.441	1020.88
358.668	1036.88
358.895	1029.88
359.122	1005.88
359.349	1012.88
359.576	1032.88
359.802	1014.88
360.029	989.88
360.256	1025.88
360.483	1035.88
360.709	1030.88
360.936	1026.88
361.163	1024.88
361.39	1005.88
361.616	1032.88
361.843	1034.88
362.07	1044.88
362.296	1035.88
362.523	1013.88
362.749	1036.88
362.976	1044.88
363.203	1044.88
363.429	1040.88
363.656	1008.88
363.882	1032.88
364.109	1018.88
364.335	1037.88
364.562	1026.88
364.788	1019.88
365.015	1016.88
365.241	1037.88
365.468	1040.88
365.694	1007.88
365.92	1044.88
366.147	1027.88
366.373	1018.88
366.599	1034.88
366.826	1023.88
367.052	1048.88
367.278	1036.88
367.505	1040.88
367.731	1055.88
367.957	1034.88
368.184	1046.88
368.41	1036.88
368.636	1053.88
368.862	1081.88
369.089	1062.88
369.315	1066.88
369.541	1088.88
369.767	1063.88
369.993	1066.88
370.219	1036.88
370.445	1053.88
370.672	1092.88
370.898	1086.88
371.124	1120.88
371.35	1101.88
371.576	1107.88
371.802	1127.88
372.028	1122.88
372.254	1112.88
372.48	1126.88
372.706	1158.88
372.932	1166.88
373.158	1140.88
373.384	1150.88
373.61	1146.88
373.835	1118.88
374.061	1104.88
374.287	1148.88
374.513	1157.88
374.739	1157.88
374.965	1196.88
375.191	1214.88
375.416	1219.88
375.642	1202.88
375.868	1174.88
376.094	1183.88
376.319	1115.88
376.545	1125.88
376.771	1131.88
376.997	1123.88
377.222	1113.88
377.448	1103.88
377.674	1132.88
377.899	1093.88
378.125	1104.88
378.35	1090.88
378.576	1077.88
378.802	1093.88
379.027	1124.88
379.253	1103.88
379.478	1104.88
379.704	1091.88
379.929	1094.88
380.155	1086.88
380.38	1104.88
380.606	1091.88
380.831	1112.88
381.057	1112.88
381.282	1108.88
381.507	1081.88
381.733	1123.88
381.958	1090.88
382.184	1141.88
382.409	1166.88
382.634	1166.88
382.86	1167.88
383.085	1178.88
383.31	1214.88
383.535	1206.88
383.761	1222.88
383.986	1233.88
384.211	1249.88
384.436	1243.88
384.662	1251.88
384.887	1291.88
385.112	1253.88
385.337	1328.88
385.562	1295.88
385.787	1348.88
386.013	1335.88
386.238	1316.88
386.463	1322.88
386.688	1347.88
386.913	1313.88
387.138	1324.88
387.363	1318.88
387.588	1334.88
387.813	1336.88
388.038	1311.88
388.263	1300.88
388.488	1332.88
388.713	1328.88
388.938	1341.88
389.163	1316.88
389.387	1315.88
389.612	1322.88
389.837	1308.88
390.062	1268.88
390.287	1312.88
390.512	1334.88
390.736	1343.88
390.961	1349.88
391.186	1342.88
391.411	1404.88
391.636	1444.88
391.86	1454.88
392.085	1481.88
392.31	1484.88
392.534	1442.88
392.759	1410.88
392.984	1440.88
393.208	1386.88
393.433	1410.88
393.658	1382.88
393.882	1401.88
394.107	1402.88
394.331	1416.88
394.556	1410.88
394.78	1427.88
395.005	1445.88
395.229	1457.88
395.454	1476.88
395.678	1496.88
395.903	1498.88
396.127	1450.88
396.352	1449.88
396.576	1411.88
396.801	1403.88
397.025	1454.88
397.249	1468.88
397.474	1485.88
397.698	1501.88
397.922	1533.88
398.147	1527.88
398.371	1514.88
398.595	1557.88
398.82	1658.88
399.044	1724.88
399.268	1840.88
399.492	2088.88
399.717	2327.88
399.941	2348.88
400.165	2185.88
400.389	1983.88
400.613	1894.88
400.837	1784.88
401.062	1707.88
401.286	1695.88
401.51	1669.88
401.734	1690.88
401.958	1658.88
402.182	1707.88
402.406	1656.88
402.63	1676.88
402.854	1715.88
403.078	1741.88
403.302	1756.88
403.526	1796.88
403.75	1789.88
403.974	1840.88
404.198	1801.88
404.422	1806.88
404.645	1868.88
404.869	1796.88
405.093	1794.88
405.317	1768.88
405.541	1784.88
405.765	1798.88
405.988	1784.88
406.212	1797.88
406.436	1822.88
406.66	1862.88
406.883	1849.88
407.107	2004.88
407.331	2020.88
407.555	2108.88
407.778	2109.88
408.002	2085.88
408.226	2056.88
408.449	1984.88
408.673	1893.88
408.896	1879.88
409.12	1859.88
409.344	1833.88
409.567	1851.88
409.791	1868.88
410.014	1861.88
410.238	1809.88
410.461	1812.88
410.685	1777.88
410.908	1771.88
411.132	1779.88
411.355	1685.88
411.578	1744.88
411.802	1740.88
412.025	1712.88
412.249	1768.88
412.472	1705.88
412.695	1684.88
412.919	1662.88
413.142	1673.88
413.365	1649.88
413.589	1693.88
413.812	1667.88
414.035	1636.88
414.258	1650.88
414.482	1665.88
414.705	1645.88
414.928	1612.88
415.151	1640.88
415.374	1643.88
415.597	1680.88
415.821	1616.88
416.044	1566.88
416.267	1632.88
416.49	1602.88
416.713	1604.88
416.936	1592.88
417.159	1581.88
417.382	1585.88
417.605	1579.88
417.828	1587.88
418.051	1608.88
418.274	1594.88
418.497	1589.88
418.72	1657.88
418.943	1637.88
419.166	1712.88
419.389	1885.88
419.611	1847.88
419.834	1784.88
420.057	1684.88
420.28	1650.88
420.503	1579.88
420.726	1571.88
420.948	1556.88
421.171	1574.88
421.394	1604.88
421.617	1574.88
421.839	1592.88
422.062	1593.88
422.285	1561.88
422.507	1669.88
422.73	1627.88
422.953	1626.88
423.175	1620.88
423.398	1662.88
423.621	1642.88
423.843	1668.88
424.066	1640.88
424.288	1615.88
424.511	1606.88
424.733	1612.88
424.956	1625.88
425.178	1597.88
425.401	1616.88
425.623	1618.88
425.846	1541.88
426.068	1547.88
426.291	1577.88
426.513	1519.88
426.735	1496.88
426.958	1532.88
427.18	1452.88
427.402	1511.88
427.625	1469.88
427.847	1458.88
428.069	1457.88
428.292	1491.88
428.514	1449.88
428.736	1466.88
428.958	1452.88
429.181	1448.88
429.403	1417.88
429.625	1408.88
429.847	1393.88
430.069	1401.88
430.292	1431.88
430.514	1399.88
430.736	1469.88
430.958	1409.88
431.18	1429.88
431.402	1462.88
431.624	1450.88
431.846	1442.88
432.068	1469.88
432.29	1470.88
432.512	1466.88
432.734	1501.88
432.956	1448.88
433.178	1479.88
433.4	1492.88
433.622	1469.88
433.844	1497.88
434.066	1522.88
434.287	1487.88
434.509	1566.88
434.731	1585.88
434.953	1629.88
435.175	1617.88
435.397	1633.88
435.618	1512.88
435.84	1512.88
436.062	1482.88
436.284	1452.88
436.505	1456.88
436.727	1480.88
436.949	1460.88
437.17	1422.88
437.392	1406.88
437.614	1405.88
437.835	1384.88
438.057	1412.88
438.278	1387.88
438.5	1359.88
438.721	1385.88
438.943	1371.88
439.165	1373.88
439.386	1393.88
439.608	1408.88
439.829	1427.88
440.05	1410.88
440.272	1406.88
440.493	1445.88
440.715	1428.88
440.936	1467.88
441.158	1473.88
441.379	1498.88
441.6	1578.88
441.822	1575.88
442.043	1576.88
442.264	1563.88
442.486	1516.88
442.707	1564.88
442.928	1540.88
443.149	1541.88
443.371	1555.88
443.592	1550.88
443.813	1567.88
444.034	1580.88
444.255	1667.88
444.476	1690.88
444.698	1757.88
444.919	1788.88
445.14	1894.88
445.361	1737.88
445.582	1663.88
445.803	1554.88
446.024	1544.88
446.245	1508.88
446.466	1482.88
446.687	1437.88
446.908	1459.88
447.129	1379.88
447.35	1364.88
447.571	1389.88
447.792	1360.88
448.013	1343.88
448.234	1335.88
448.455	1346.88
448.675	1313.88
448.896	1303.88
449.117	1300.88
449.338	1300.88
449.559	1258.88
449.779	1264.88
450	1302.88
450.221	1279.88
450.442	1278.88
450.662	1276.88
450.883	1261.88
451.104	1309.88
451.324	1321.88
451.545	1302.88
451.766	1290.88
451.986	1288.88
452.207	1279.88
452.428	1267.88
452.648	1270.88
452.869	1264.88
453.089	1268.88
453.31	1245.88
453.53	1259.88
453.751	1237.88
453.971	1223.88
454.192	1224.88
454.412	1208.88
454.633	1228.88
454.853	1221.88
455.073	1203.88
455.294	1194.88
455.514	1206.88
455.734	1192.88
455.955	1221.88
456.175	1190.88
456.395	1196.88
456.616	1185.88
456.836	1212.88
457.056	1206.88
457.276	1204.88
457.497	1211.88
457.717	1244.88
457.937	1235.88
458.157	1254.88
458.377	1242.88
458.598	1304.88
458.818	1338.88
459.038	1354.88
459.258	1372.88
459.478	1425.88
459.698	1490.88
459.918	1469.88
460.138	1516.88
460.358	1595.88
460.578	1606.88
460.798	1660.88
461.018	1701.88
461.238	1645.88
461.458	1628.88
461.678	1625.88
461.898	1667.88
462.118	1668.88
462.338	1746.88
462.558	1821.88
462.777	1865.88
462.997	1989.88
463.217	2063.88
463.437	2117.88
463.657	1987.88
463.876	1909.88
464.096	1940.88
464.316	1877.88
464.536	1889.88
464.755	1827.88
464.975	1762.88
465.195	1682.88
465.414	1626.88
465.634	1517.88
465.854	1499.88
466.073	1445.88
466.293	1436.88
466.512	1418.88
466.732	1404.88
466.951	1374.88
467.171	1350.88
467.391	1373.88
467.61	1357.88
467.829	1298.88
468.049	1333.88
468.268	1336.88
468.488	1336.88
468.707	1323.88
468.927	1324.88
469.146	1303.88
469.365	1318.88
469.585	1339.88
469.804	1357.88
470.023	1397.88
470.243	1377.88
470.462	1386.88
470.681	1422.88
470.901	1400.88
471.12	1403.88
471.339	1346.88
471.558	1370.88
471.777	1369.88
471.997	1346.88
472.216	1357.88
472.435	1330.88
472.654	1306.88
472.873	1285.88
473.092	1331.88
473.311	1335.88
473.53	1277.88
473.749	1289.88
473.968	1282.88
474.187	1308.88
474.406	1292.88
474.625	1320.88
474.844	1299.88
475.063	1270.88
475.282	1286.88
475.501	1324.88
475.72	1325.88
475.939	1351.88
476.158	1351.88
476.377	1362.88
476.596	1350.88
476.814	1372.88
477.033	1374.88
477.252	1404.88
477.471	1437.88
477.69	1438.88
477.908	1490.88
478.127	1557.88
478.346	1518.88
478.564	1554.88
478.783	1568.88
479.002	1640.88
479.22	1655.88
479.439	1633.88
479.658	1643.88
479.876	1622.88
480.095	1668.88
480.313	1724.88
480.532	1717.88
480.751	1748.88
480.969	1672.88
481.188	1620.88
481.406	1648.88
481.624	1588.88
481.843	1570.88
482.061	1543.88
482.28	1513.88
482.498	1555.88
482.717	1561.88
482.935	1567.88
483.153	1577.88
483.372	1589.88
483.59	1580.88
483.808	1600.88
484.027	1593.88
484.245	1642.88
484.463	1661.88
484.681	1691.88
484.9	1688.88
485.118	1676.88
485.336	1732.88
485.554	1683.88
485.772	1759.88
485.99	1730.88
486.209	1717.88
486.427	1760.88
486.645	1699.88
486.863	1699.88
487.081	1742.88
487.299	1681.88
487.517	1716.88
487.735	1648.88
487.953	1720.88
488.171	1683.88
488.389	1684.88
488.607	1648.88
488.825	1639.88
489.043	1613.88
489.261	1648.88
489.479	1660.88
489.696	1614.88
489.914	1625.88
490.132	1621.88
490.35	1590.88
490.568	1624.88
490.786	1614.88
491.003	1629.88
491.221	1637.88
491.439	1609.88
491.657	1644.88
491.874	1625.88
492.092	1627.88
492.31	1609.88
492.527	1613.88
492.745	1615.88
492.963	1638.88
493.18	1630.88
493.398	1630.88
493.615	1651.88
493.833	1646.88
494.05	1632.88
494.268	1637.88
494.485	1643.88
494.703	1688.88
494.92	1673.88
495.138	1660.88
495.355	1622.88
495.573	1666.88
495.79	1674.88
496.008	1699.88
496.225	1700.88
496.442	1706.88
496.66	1733.88
496.877	1740.88
497.094	1766.88
497.312	1808.88
497.529	1851.88
497.746	1862.88
497.963	1946.88
498.181	1986.88
498.398	2126.88
498.615	2226.88
498.832	2340.88
499.049	2487.88
499.267	2648.88
499.484	2876.88
499.701	3113.88
499.918	3460.88
500.135	3776.88
500.352	4243.88
500.569	4296.88
500.786	4269.88
501.003	4024.88
501.22	3745.88
501.437	3382.88
501.654	3112.88
501.871	2850.88
502.088	2650.88
502.305	2500.88
502.522	2333.88
502.739	2230.88
502.956	2164.88
503.172	2069.88
503.389	1982.88
503.606	1929.88
503.823	1897.88
504.04	1891.88
504.256	1882.88
504.473	1869.88
504.69	1910.88
504.907	1841.88
505.123	1763.88
505.34	1698.88
505.557	1624.88
505.773	1634.88
505.99	1536.88
506.207	1488.88
506.423	1506.88
506.64	1470.88
506.856	1442.88
507.073	1444.88
507.289	1410.88
507.506	1409.88
507.722	1401.88
507.939	1417.88
508.155	1384.88
508.372	1383.88
508.588	1389.88
508.805	1340.88
509.021	1352.88
509.238	1346.88
509.454	1351.88
509.67	1325.88
509.887	1337.88
510.103	1320.88
510.319	1292.88
510.536	1330.88
510.752	1316.88
510.968	1298.88
511.184	1263.88
511.401	1283.88
511.617	1307.88
511.833	1304.88
512.049	1308.88
512.265	1281.88
512.481	1283.88
512.698	1272.88
512.914	1286.88
513.13	1252.88
513.346	1268.88
513.562	1289.88
513.778	1303.88
513.994	1287.88
514.21	1291.88
514.426	1316.88
514.642	1329.88
514.858	1333.88
515.074	1329.88
515.29	1367.88
515.506	1331.88
515.721	1360.88
515.937	1401.88
516.153	1426.88
516.369	1468.88
516.585	1450.88
516.801	1507.88
517.016	1554.88
517.232	1630.88
517.448	1662.88
517.664	1694.88
517.879	1724.88
518.095	1765.88
518.311	1722.88
518.527	1632.88
518.742	1572.88
518.958	1538.88
519.173	1519.88
519.389	1447.88
519.605	1422.88
519.82	1396.88
520.036	1373.88
520.251	1338.88
520.467	1325.88
520.682	1318.88
520.898	1255.88
521.113	1277.88
521.329	1243.88
521.544	1277.88
521.76	1247.88
521.975	1230.88
522.19	1192.88
522.406	1201.88
522.621	1214.88
522.836	1244.88
523.052	1185.88
523.267	1181.88
523.482	1194.88
523.698	1220.88
523.913	1180.88
524.128	1175.88
524.343	1174.88
524.559	1205.88
524.774	1184.88
524.989	1188.88
525.204	1180.88
525.419	1155.88
525.634	1156.88
525.849	1142.88
526.064	1154.88
526.28	1146.88
526.495	1150.88
526.71	1163.88
526.925	1159.88
527.14	1128.88
527.355	1126.88
527.57	1127.88
527.785	1149.88
527.999	1175.88
528.214	1140.88
528.429	1138.88
528.644	1154.88
528.859	1152.88
529.074	1150.88
529.289	1163.88
529.503	1111.88
529.718	1144.88
529.933	1115.88
530.148	1123.88
530.363	1152.88
530.577	1105.88
530.792	1152.88
531.007	1119.88
531.221	1153.88
531.436	1116.88
531.651	1121.88
531.865	1118.88
532.08	1144.88
532.295	1144.88
532.509	1114.88
532.724	1152.88
532.938	1162.88
533.153	1140.88
533.367	1122.88
533.582	1125.88
533.796	1144.88
534.011	1130.88
534.225	1108.88
534.44	1125.88
534.654	1104.88
534.868	1099.88
535.083	1129.88
535.297	1106.88
535.511	1091.88
535.726	1072.88
535.94	1068.88
536.154	1068.88
536.369	1019.88
536.583	1049.88
536.797	1083.88
537.011	1047.88
537.225	1027.88
537.44	1066.88
537.654	1051.88
537.868	1037.88
538.082	1018.88
538.296	1054.88
538.51	1053.88
538.724	1032.88
538.938	1033.88
539.153	1014.88
539.367	1028.88
539.581	1022.88
539.795	1029.88
540.009	1017.88
540.222	1055.88
540.436	993.88
540.65	1001.88
540.864	984.88
541.078	998.88
541.292	1024.88
541.506	1000.88
541.72	991.88
541.934	1018.88
542.147	982.88
542.361	981.88
542.575	996.88
542.789	978.88
543.002	957.88
543.216	996.88
543.43	1026.88
543.644	966.88
543.857	1032.88
544.071	999.88
544.285	1017.88
544.498	998.88
544.712	1011.88
544.925	1022.88
545.139	1032.88
545.352	1014.88
545.566	1006.88
545.779	1017.88
545.993	1018.88
546.206	1046.88
546.42	995.88
546.633	1008.88
546.847	994.88
547.06	1022.88
547.274	1026.88
547.487	1010.88
547.7	1021.88
547.914	1033.88
548.127	1012.88
548.34	1012.88
548.554	993.88
548.767	1032.88
548.98	1033.88
549.193	1012.88
549.407	1028.88
549.62	1045.88
549.833	1038.88
550.046	1072.88
550.259	1046.88
550.473	1015.88
550.686	1001.88
550.899	1011.88
551.112	1013.88
551.325	987.88
551.538	1000.88
551.751	1010.88
551.964	1030.88
552.177	1050.88
552.39	1008.88
552.603	1047.88
552.816	1067.88
553.029	1060.88
553.242	1114.88
553.455	1104.88
553.667	1097.88
553.88	1064.88
554.093	1082.88
554.306	1020.88
554.519	1016.88
554.732	980.88
554.944	974.88
555.157	953.88
555.37	988.88
555.583	944.88
555.795	952.88
556.008	940.88
556.221	917.88
556.433	890.88
556.646	903.88
556.859	904.88
557.071	914.88
557.284	891.88
557.496	877.88
557.709	883.88
557.921	888.88
558.134	877.88
558.346	846.88
558.559	842.88
558.771	845.88
558.984	870.88
559.196	857.88
559.409	835.88
559.621	837.88
559.833	839.88
560.046	817.88
560.258	828.88
560.47	838.88
560.683	850.88
560.895	844.88
561.107	864.88
561.32	865.88
561.532	844.88
561.744	838.88
561.956	849.88
562.168	835.88
562.381	845.88
562.593	834.88
562.805	874.88
563.017	827.88
563.229	880.88
563.441	880.88
563.653	845.88
563.865	838.88
564.077	884.88
564.289	891.88
564.501	885.88
564.713	889.88
564.925	900.88
565.137	906.88
565.349	958.88
565.561	994.88
565.773	1017.88
565.985	1043.88
566.197	1068.88
566.408	1128.88
566.62	1204.88
566.832	1273.88
567.044	1311.88
567.255	1334.88
567.467	1381.88
567.679	1413.88
567.891	1481.88
568.102	1480.88
568.314	1421.88
568.526	1315.88
568.737	1227.88
568.949	1144.88
569.161	1099.88
569.372	993.88
569.584	980.88
569.795	946.88
570.007	914.88
570.218	892.88
570.43	845.88
570.641	883.88
570.853	868.88
571.064	880.88
571.276	881.88
571.487	840.88
571.698	808.88
571.91	804.88
572.121	781.88
572.333	766.88
572.544	754.88
572.755	725.88
572.966	688.88
573.178	710.88
573.389	732.88
573.6	701.88
573.811	684.88
574.023	677.88
574.234	704.88
574.445	692.88
574.656	717.88
574.867	700.88
575.078	701.88
575.289	673.88
575.501	668.88
575.712	651.88
575.923	670.88
576.134	667.88
576.345	650.88
576.556	674.88
576.767	644.88
576.978	657.88
577.188	673.88
577.399	641.88
577.61	647.88
577.821	641.88
578.032	603.88
578.243	619.88
578.454	623.88
578.665	618.88
578.875	596.88
579.086	610.88
579.297	593.88
579.508	619.88
579.718	608.88
579.929	600.88
580.14	602.88
580.35	602.88
580.561	606.88
580.772	603.88
580.982	592.88
581.193	600.88
581.403	579.88
581.614	588.88
581.825	587.88
582.035	559.88
582.246	582.88
582.456	594.88
582.667	607.88
582.877	598.88
583.087	590.88
583.298	558.88
583.508	574.88
583.719	567.88
583.929	561.88
584.139	579.88
584.35	564.88
584.56	550.88
584.77	561.88
584.981	566.88
585.191	572.88
585.401	532.88
585.611	557.88
585.821	545.88
586.032	558.88
586.242	549.88
586.452	564.88
586.662	561.88
586.872	543.88
587.082	556.88
587.292	540.88
587.502	552.88
587.713	562.88
587.923	560.88
588.133	550.88
588.343	534.88
588.553	560.88
588.762	533.88
588.972	554.88
589.182	561.88
589.392	564.88
589.602	538.88
589.812	552.88
590.022	566.88
590.232	555.88
590.441	536.88
590.651	550.88
590.861	554.88
591.071	533.88
591.281	571.88
591.49	589.88
591.7	584.88
591.91	604.88
592.119	595.88
592.329	590.88
592.539	624.88
592.748	628.88
592.958	633.88
593.167	622.88
593.377	659.88
593.587	670.88
593.796	662.88
594.006	673.88
594.215	677.88
594.424	693.88
594.634	686.88
594.843	645.88
595.053	602.88
595.262	626.88
595.472	597.88
595.681	571.88
595.89	580.88
596.1	539.88
596.309	541.88
596.518	526.88
596.727	508.88
596.937	526.88
597.146	517.88
597.355	505.88
597.564	491.88
597.774	498.88
597.983	493.88
598.192	493.88
598.401	484.88
598.61	475.88
598.819	463.88
599.028	466.88
599.237	488.88
599.446	454.88
599.655	456.88
599.864	449.88
600.073	461.88
600.282	440.88
600.491	468.88
600.7	460.88
600.909	442.88
601.118	460.88
601.327	443.88
601.536	438.88
601.745	418.88
601.953	432.88
602.162	445.88
602.371	455.88
602.58	436.88
602.789	439.88
602.997	429.88
603.206	453.88
603.415	431.88
603.623	434.88
603.832	420.88
604.041	420.88
604.249	437.88
604.458	411.88
604.666	412.88
604.875	425.88
605.084	424.88
605.292	414.88
605.501	418.88
605.709	419.88
605.918	402.88
606.126	408.88
606.334	402.88
606.543	391.88
606.751	405.88
606.96	398.88
607.168	426.88
607.376	401.88
607.585	400.88
607.793	408.88
608.001	408.88
608.21	402.88
608.418	411.88
608.626	388.88
608.834	425.88
609.043	407.88
609.251	397.88
609.459	395.88
609.667	421.88
609.875	398.88
610.083	391.88
610.291	390.88
610.499	408.88
610.707	399.88
610.916	404.88
611.124	380.88
611.332	379.88
611.54	381.88
611.748	402.88
611.955	400.88
612.163	376.88
612.371	393.88
612.579	383.88
612.787	391.88
612.995	388.88
613.203	386.88
613.411	398.88
613.618	392.88
613.826	379.88
614.034	373.88
614.242	388.88
614.449	374.88
614.657	358.88
614.865	376.88
615.072	391.88
615.28	386.88
615.488	374.88
615.695	396.88
615.903	403.88
616.111	379.88
616.318	387.88
616.526	406.88
616.733	406.88
616.941	372.88
617.148	404.88
617.356	381.88
617.563	375.88
617.771	379.88
617.978	381.88
618.185	388.88
618.393	370.88
618.6	387.88
618.807	377.88
619.015	362.88
619.222	386.88
619.429	362.88
619.637	388.88
619.844	372.88
620.051	379.88
620.258	362.88
620.466	356.88
620.673	326.88
620.88	348.88
621.087	382.88
621.294	360.88
621.501	342.88
621.708	363.88
621.915	362.88
622.122	375.88
622.329	376.88
622.536	358.88
622.743	356.88
622.95	360.88
623.157	338.88
623.364	350.88
623.571	345.88
623.778	356.88
623.985	354.88
624.192	341.88
624.399	321.88
624.606	328.88
624.812	334.88
625.019	342.88
625.226	340.88
625.433	332.88
625.639	326.88
625.846	318.88
626.053	328.88
626.259	318.88
626.466	321.88
626.673	321.88
626.879	315.88
627.086	323.88
627.293	321.88
627.499	331.88
627.706	309.88
627.912	317.88
628.119	316.88
628.325	316.88
628.532	307.88
628.738	302.88
628.945	301.88
629.151	312.88
629.357	316.88
629.564	313.88
629.77	322.88
629.976	311.88
630.183	301.88
630.389	308.88
630.595	299.88
630.802	306.88
631.008	298.88
631.214	306.88
631.42	314.88
631.627	302.88
631.833	285.88
632.039	276.88
632.245	304.88
632.451	301.88
632.657	295.88
632.863	297.88
633.069	292.88
633.275	296.88
633.481	274.88
633.688	285.88
633.893	296.88
634.099	302.88
634.305	294.88
634.511	285.88
634.717	272.88
634.923	271.88
635.129	268.88
635.335	281.88
635.541	283.88
635.747	269.88
635.952	264.88
636.158	254.88
636.364	275.88
636.57	288.88
636.775	288.88
636.981	277.88
637.187	286.88
637.392	270.88
637.598	265.88
637.804	282.88
638.009	270.88
638.215	264.88
638.421	248.88
638.626	275.88
638.832	270.88
639.037	267.88
639.243	266.88
639.448	262.88
639.654	263.88
639.859	262.88
640.065	264.88
640.27	273.88
640.475	243.88
640.681	269.88
640.886	273.88
641.091	269.88
641.297	264.88
641.502	279.88
641.707	261.88
641.913	240.88
642.118	258.88
642.323	262.88
642.528	261.88
642.733	249.88
642.939	252.88
643.144	249.88
643.349	249.88
643.554	268.88
643.759	242.88
643.964	248.88
644.169	263.88
644.374	261.88
644.579	242.88
644.784	246.88
644.989	268.88
645.194	258.88
645.399	245.88
645.604	247.88
645.809	260.88
646.014	257.88
646.219	252.88
646.423	246.88
646.628	262.88
646.833	250.88
647.038	261.88
647.243	263.88
647.447	286.88
647.652	270.88
647.857	260.88
648.062	278.88
648.266	276.88
648.471	273.88
648.676	300.88
648.88	304.88
649.085	306.88
649.289	274.88
649.494	289.88
649.698	270.88
649.903	266.88
650.107	259.88
650.312	264.88
650.516	241.88
650.721	270.88
650.925	250.88
651.13	255.88
651.334	268.88
651.539	259.88
651.743	259.88
651.947	246.88
652.152	237.88
652.356	238.88
652.56	237.88
652.764	245.88
652.969	242.88
653.173	266.88
653.377	244.88
653.581	225.88
653.785	234.88
653.99	256.88
654.194	241.88
654.398	247.88
654.602	267.88
654.806	258.88
655.01	254.88
655.214	249.88
655.418	264.88
655.622	278.88
655.826	300.88
656.03	295.88
656.234	339.88
656.438	345.88
656.642	364.88
656.846	334.88
657.049	306.88
657.253	275.88
657.457	241.88
657.661	234.88
657.865	206.88
658.068	184.88
658.272	191.88
658.476	171.88
658.68	143.88
658.883	182.88
659.087	154.88
659.291	138.88
659.494	138.88
659.698	133.88
659.901	114.88
660.105	118.88
660.309	120.88
660.512	121.88
660.716	102.88
660.919	101.88
661.123	106.88
661.326	107.88
661.53	100.88
661.733	101.88
661.936	93.88
662.14	96.88
662.343	82.88
662.546	89.88
662.75	92.88
662.953	97.88
663.156	82.88
663.36	88.88
663.563	99.88
663.766	88.88
663.969	86.88
664.173	73.88
664.376	100.88
664.579	90.88
664.782	90.88
664.985	97.88
665.188	72.88
665.391	87.88
665.594	72.88
665.797	84.88
666	81.88
666.203	77.88
666.406	88.88
666.609	98.88
666.812	89.88
667.015	101.88
667.218	83.88
667.421	87.88
667.624	85.88
667.827	84.88
668.03	69.88
668.232	82.88
668.435	77.88
668.638	82.88
668.841	78.88
669.043	85.88
669.246	73.88
669.449	77.88
669.651	85.88
669.854	80.88
670.057	96.88
670.259	89.88
670.462	89.88
670.665	67.88
670.867	86.88
671.07	84.88
671.272	91.88
671.475	86.88
671.677	83.88
671.88	82.88
672.082	91.88
672.284	91.88
672.487	82.88
672.689	79.88
672.892	72.88
