Data from NiCl2@0.0625M.TitratingCurve.Agarose3%dH2O.NegLispCup.LampEnergy10.LIBS07252019_HRD10591_18-35-35-577.txt Node
Date: Thu Jul 25 18:35:35 EDT 2019
User: cochatt
Spectrometer: HR+D1059
Trigger mode: 1
Integration Time (sec): 1.000000E-1
Scans to average: 1
Electric dark correction enabled: true
Nonlinearity correction enabled: false
Boxcar width: 0
XAxis mode: Wavelengths
Number of Pixels in Spectrum: 2048
>>>>>Begin Spectral Data<<<<<
223.165	-24.19
223.4	-24.19
223.635	-24.19
223.869	-15.19
224.104	-11.19
224.338	-2.19
224.573	-17.19
224.808	-16.19
225.042	-11.19
225.277	-19.19
225.511	-6.19
225.746	5.81
225.98	8.81
226.215	4.81
226.449	30.81
226.683	18.81
226.918	15.81
227.152	37.81
227.387	28.81
227.621	31.81
227.856	46.81
228.09	45.81
228.324	50.81
228.559	50.81
228.793	74.81
229.027	130.81
229.262	148.81
229.496	149.81
229.73	151.81
229.964	176.81
230.199	172.81
230.433	176.81
230.667	178.81
230.901	164.81
231.136	162.81
231.37	148.81
231.604	170.81
231.838	189.81
232.072	204.81
232.306	192.81
232.541	195.81
232.775	202.81
233.009	188.81
233.243	189.81
233.477	196.81
233.711	210.81
233.945	218.81
234.179	194.81
234.413	206.81
234.647	211.81
234.881	212.81
235.115	197.81
235.349	200.81
235.583	198.81
235.817	211.81
236.051	204.81
236.285	215.81
236.519	213.81
236.753	197.81
236.987	202.81
237.221	218.81
237.455	227.81
237.689	228.81
237.922	211.81
238.156	211.81
238.39	248.81
238.624	241.81
238.858	245.81
239.091	237.81
239.325	256.81
239.559	243.81
239.793	268.81
240.027	238.81
240.26	257.81
240.494	260.81
240.728	274.81
240.961	267.81
241.195	266.81
241.429	270.81
241.662	283.81
241.896	279.81
242.13	279.81
242.363	270.81
242.597	296.81
242.83	284.81
243.064	293.81
243.298	280.81
243.531	292.81
243.765	298.81
243.998	315.81
244.232	312.81
244.465	299.81
244.699	318.81
244.932	294.81
245.166	329.81
245.399	326.81
245.633	324.81
245.866	331.81
246.099	325.81
246.333	342.81
246.566	329.81
246.8	329.81
247.033	337.81
247.266	329.81
247.5	333.81
247.733	337.81
247.966	345.81
248.2	345.81
248.433	356.81
248.666	347.81
248.899	350.81
249.133	332.81
249.366	361.81
249.599	373.81
249.832	380.81
250.066	380.81
250.299	379.81
250.532	385.81
250.765	397.81
250.998	392.81
251.231	378.81
251.465	380.81
251.698	377.81
251.931	378.81
252.164	418.81
252.397	406.81
252.63	401.81
252.863	410.81
253.096	408.81
253.329	409.81
253.562	412.81
253.795	415.81
254.028	436.81
254.261	424.81
254.494	430.81
254.727	418.81
254.96	434.81
255.193	433.81
255.426	449.81
255.659	458.81
255.892	460.81
256.124	430.81
256.357	439.81
256.59	432.81
256.823	436.81
257.056	441.81
257.289	451.81
257.521	451.81
257.754	441.81
257.987	456.81
258.22	474.81
258.452	461.81
258.685	460.81
258.918	477.81
259.151	463.81
259.383	485.81
259.616	467.81
259.849	476.81
260.081	487.81
260.314	485.81
260.547	500.81
260.779	491.81
261.012	480.81
261.244	490.81
261.477	470.81
261.71	515.81
261.942	527.81
262.175	493.81
262.407	528.81
262.64	509.81
262.872	498.81
263.105	518.81
263.337	525.81
263.57	534.81
263.802	526.81
264.035	537.81
264.267	516.81
264.499	532.81
264.732	533.81
264.964	504.81
265.197	536.81
265.429	558.81
265.661	557.81
265.894	557.81
266.126	549.81
266.358	581.81
266.591	562.81
266.823	573.81
267.055	552.81
267.287	579.81
267.52	581.81
267.752	569.81
267.984	582.81
268.216	557.81
268.448	583.81
268.681	582.81
268.913	594.81
269.145	582.81
269.377	593.81
269.609	580.81
269.841	604.81
270.073	614.81
270.306	608.81
270.538	591.81
270.77	605.81
271.002	601.81
271.234	600.81
271.466	602.81
271.698	617.81
271.93	612.81
272.162	624.81
272.394	621.81
272.626	589.81
272.858	614.81
273.09	630.81
273.322	628.81
273.553	647.81
273.785	642.81
274.017	658.81
274.249	640.81
274.481	659.81
274.713	646.81
274.945	652.81
275.176	658.81
275.408	668.81
275.64	676.81
275.872	664.81
276.104	656.81
276.335	674.81
276.567	668.81
276.799	690.81
277.031	703.81
277.262	682.81
277.494	686.81
277.726	686.81
277.957	693.81
278.189	717.81
278.421	708.81
278.652	692.81
278.884	699.81
279.115	719.81
279.347	729.81
279.579	693.81
279.81	720.81
280.042	685.81
280.273	720.81
280.505	705.81
280.736	713.81
280.968	719.81
281.199	726.81
281.431	739.81
281.662	745.81
281.894	741.81
282.125	743.81
282.356	742.81
282.588	770.81
282.819	752.81
283.051	749.81
283.282	741.81
283.513	768.81
283.745	757.81
283.976	781.81
284.207	780.81
284.439	764.81
284.67	765.81
284.901	763.81
285.132	763.81
285.364	793.81
285.595	780.81
285.826	785.81
286.057	776.81
286.288	790.81
286.52	804.81
286.751	806.81
286.982	808.81
287.213	806.81
287.444	801.81
287.675	801.81
287.906	844.81
288.138	823.81
288.369	821.81
288.6	828.81
288.831	828.81
289.062	804.81
289.293	832.81
289.524	812.81
289.755	825.81
289.986	821.81
290.217	832.81
290.448	849.81
290.679	829.81
290.91	842.81
291.141	798.81
291.371	825.81
291.602	829.81
291.833	828.81
292.064	844.81
292.295	837.81
292.526	861.81
292.757	863.81
292.987	835.81
293.218	842.81
293.449	838.81
293.68	837.81
293.91	838.81
294.141	867.81
294.372	868.81
294.603	850.81
294.833	855.81
295.064	874.81
295.295	865.81
295.525	866.81
295.756	873.81
295.987	851.81
296.217	901.81
296.448	872.81
296.679	891.81
296.909	869.81
297.14	865.81
297.37	901.81
297.601	895.81
297.831	894.81
298.062	898.81
298.292	920.81
298.523	920.81
298.753	915.81
298.984	921.81
299.214	941.81
299.445	889.81
299.675	902.81
299.905	903.81
300.136	902.81
300.366	903.81
300.597	931.81
300.827	938.81
301.057	964.81
301.288	935.81
301.518	934.81
301.748	972.81
301.979	980.81
302.209	974.81
302.439	966.81
302.669	965.81
302.9	952.81
303.13	933.81
303.36	970.81
303.59	949.81
303.82	977.81
304.051	962.81
304.281	964.81
304.511	950.81
304.741	937.81
304.971	954.81
305.201	947.81
305.431	933.81
305.661	964.81
305.891	971.81
306.121	938.81
306.352	984.81
306.582	965.81
306.812	959.81
307.042	950.81
307.272	944.81
307.502	912.81
307.731	958.81
307.961	969.81
308.191	936.81
308.421	960.81
308.651	934.81
308.881	922.81
309.111	942.81
309.341	955.81
309.571	936.81
309.8	960.81
310.03	963.81
310.26	985.81
310.49	946.81
310.72	970.81
310.949	955.81
311.179	970.81
311.409	956.81
311.639	963.81
311.868	944.81
312.098	971.81
312.328	1004.81
312.557	996.81
312.787	1000.81
313.017	962.81
313.246	994.81
313.476	1019.81
313.706	1032.81
313.935	996.81
314.165	1024.81
314.394	1030.81
314.624	1033.81
314.853	1015.81
315.083	1012.81
315.312	1024.81
315.542	1010.81
315.771	1012.81
316.001	1004.81
316.23	1025.81
316.46	988.81
316.689	983.81
316.919	993.81
317.148	1009.81
317.377	1020.81
317.607	1000.81
317.836	1010.81
318.065	1013.81
318.295	1032.81
318.524	1012.81
318.753	1012.81
318.983	1008.81
319.212	967.81
319.441	982.81
319.67	1008.81
319.9	1008.81
320.129	981.81
320.358	1009.81
320.587	1026.81
320.816	1029.81
321.046	1032.81
321.275	1030.81
321.504	1037.81
321.733	1051.81
321.962	1050.81
322.191	1042.81
322.42	1009.81
322.649	1028.81
322.878	1016.81
323.108	1005.81
323.337	1038.81
323.566	1049.81
323.795	1050.81
324.024	1066.81
324.253	1049.81
324.482	1026.81
324.71	1039.81
324.939	1030.81
325.168	1056.81
325.397	1080.81
325.626	1096.81
325.855	1076.81
326.084	1094.81
326.313	1100.81
326.542	1104.81
326.77	1145.81
326.999	1112.81
327.228	1096.81
327.457	1106.81
327.686	1112.81
327.914	1074.81
328.143	1110.81
328.372	1117.81
328.6	1086.81
328.829	1108.81
329.058	1093.81
329.287	1146.81
329.515	1108.81
329.744	1134.81
329.972	1118.81
330.201	1146.81
330.43	1113.81
330.658	1149.81
330.887	1146.81
331.115	1176.81
331.344	1150.81
331.572	1190.81
331.801	1186.81
332.03	1174.81
332.258	1211.81
332.486	1228.81
332.715	1271.81
332.943	1304.81
333.172	1320.81
333.4	1395.81
333.629	1424.81
333.857	1421.81
334.085	1400.81
334.314	1442.81
334.542	1379.81
334.771	1372.81
334.999	1411.81
335.227	1370.81
335.455	1354.81
335.684	1349.81
335.912	1381.81
336.14	1332.81
336.369	1336.81
336.597	1353.81
336.825	1313.81
337.053	1343.81
337.281	1308.81
337.51	1274.81
337.738	1253.81
337.966	1234.81
338.194	1254.81
338.422	1240.81
338.65	1204.81
338.878	1202.81
339.106	1233.81
339.334	1233.81
339.562	1202.81
339.79	1180.81
340.018	1205.81
340.246	1170.81
340.474	1161.81
340.702	1180.81
340.93	1182.81
341.158	1162.81
341.386	1174.81
341.614	1194.81
341.842	1192.81
342.07	1142.81
342.298	1172.81
342.526	1135.81
342.754	1139.81
342.981	1187.81
343.209	1200.81
343.437	1251.81
343.665	1266.81
343.893	1322.81
344.12	1390.81
344.348	1332.81
344.576	1293.81
344.804	1284.81
345.031	1192.81
345.259	1193.81
345.487	1193.81
345.714	1172.81
345.942	1148.81
346.17	1164.81
346.397	1173.81
346.625	1133.81
346.853	1122.81
347.08	1125.81
347.308	1123.81
347.535	1127.81
347.763	1103.81
347.99	1102.81
348.218	1123.81
348.445	1097.81
348.673	1092.81
348.9	1090.81
349.128	1099.81
349.355	1108.81
349.583	1094.81
349.81	1117.81
350.037	1070.81
350.265	1084.81
350.492	1089.81
350.72	1098.81
350.947	1072.81
351.174	1064.81
351.402	1084.81
351.629	1091.81
351.856	1086.81
352.083	1085.81
352.311	1050.81
352.538	1036.81
352.765	1083.81
352.992	1077.81
353.22	1066.81
353.447	1060.81
353.674	1072.81
353.901	1067.81
354.128	1051.81
354.355	1042.81
354.583	1060.81
354.81	1058.81
355.037	1104.81
355.264	1083.81
355.491	1065.81
355.718	1069.81
355.945	1085.81
356.172	1107.81
356.399	1089.81
356.626	1082.81
356.853	1058.81
357.08	1092.81
357.307	1066.81
357.534	1085.81
357.761	1064.81
357.988	1074.81
358.215	1054.81
358.441	1059.81
358.668	1052.81
358.895	1072.81
359.122	1082.81
359.349	1089.81
359.576	1056.81
359.802	1081.81
360.029	1099.81
360.256	1080.81
360.483	1084.81
360.709	1062.81
360.936	1087.81
361.163	1088.81
361.39	1057.81
361.616	1051.81
361.843	1066.81
362.07	1124.81
362.296	1098.81
362.523	1046.81
362.749	1091.81
362.976	1036.81
363.203	1070.81
363.429	1034.81
363.656	1087.81
363.882	1113.81
364.109	1054.81
364.335	1072.81
364.562	1113.81
364.788	1065.81
365.015	1066.81
365.241	1068.81
365.468	1050.81
365.694	1056.81
365.92	1073.81
366.147	1059.81
366.373	1031.81
366.599	1094.81
366.826	1086.81
367.052	1086.81
367.278	1130.81
367.505	1077.81
367.731	1080.81
367.957	1092.81
368.184	1056.81
368.41	1112.81
368.636	1121.81
368.862	1118.81
369.089	1109.81
369.315	1113.81
369.541	1125.81
369.767	1102.81
369.993	1155.81
370.219	1129.81
370.445	1136.81
370.672	1110.81
370.898	1152.81
371.124	1161.81
371.35	1176.81
371.576	1168.81
371.802	1176.81
372.028	1166.81
372.254	1154.81
372.48	1180.81
372.706	1232.81
372.932	1206.81
373.158	1189.81
373.384	1158.81
373.61	1177.81
373.835	1175.81
374.061	1174.81
374.287	1204.81
374.513	1174.81
374.739	1228.81
374.965	1256.81
375.191	1287.81
375.416	1243.81
375.642	1227.81
375.868	1230.81
376.094	1194.81
376.319	1211.81
376.545	1184.81
376.771	1168.81
376.997	1128.81
377.222	1182.81
377.448	1144.81
377.674	1144.81
377.899	1167.81
378.125	1160.81
378.35	1139.81
378.576	1173.81
378.802	1164.81
379.027	1149.81
379.253	1131.81
379.478	1116.81
379.704	1181.81
379.929	1136.81
380.155	1134.81
380.38	1158.81
380.606	1176.81
380.831	1137.81
381.057	1146.81
381.282	1150.81
381.507	1146.81
381.733	1206.81
381.958	1150.81
382.184	1186.81
382.409	1186.81
382.634	1195.81
382.86	1175.81
383.085	1217.81
383.31	1230.81
383.535	1253.81
383.761	1262.81
383.986	1301.81
384.211	1316.81
384.436	1310.81
384.662	1306.81
384.887	1365.81
385.112	1352.81
385.337	1346.81
385.562	1366.81
385.787	1405.81
386.013	1389.81
386.238	1430.81
386.463	1370.81
386.688	1384.81
386.913	1356.81
387.138	1378.81
387.363	1408.81
387.588	1355.81
387.813	1394.81
388.038	1352.81
388.263	1374.81
388.488	1383.81
388.713	1397.81
388.938	1386.81
389.163	1357.81
389.387	1389.81
389.612	1354.81
389.837	1365.81
390.062	1366.81
390.287	1386.81
390.512	1385.81
390.736	1389.81
390.961	1408.81
391.186	1483.81
391.411	1457.81
391.636	1479.81
391.86	1529.81
392.085	1520.81
392.31	1534.81
392.534	1490.81
392.759	1478.81
392.984	1508.81
393.208	1461.81
393.433	1474.81
393.658	1468.81
393.882	1442.81
394.107	1475.81
394.331	1468.81
394.556	1475.81
394.78	1494.81
395.005	1473.81
395.229	1511.81
395.454	1510.81
395.678	1525.81
395.903	1534.81
396.127	1563.81
396.352	1510.81
396.576	1482.81
396.801	1475.81
397.025	1514.81
397.249	1552.81
397.474	1580.81
397.698	1572.81
397.922	1588.81
398.147	1580.81
398.371	1618.81
398.595	1653.81
398.82	1709.81
399.044	1812.81
399.268	1928.81
399.492	2168.81
399.717	2394.81
399.941	2426.81
400.165	2213.81
400.389	2110.81
400.613	1984.81
400.837	1840.81
401.062	1804.81
401.286	1732.81
401.51	1744.81
401.734	1733.81
401.958	1762.81
402.182	1765.81
402.406	1744.81
402.63	1761.81
402.854	1813.81
403.078	1818.81
403.302	1829.81
403.526	1876.81
403.75	1874.81
403.974	1886.81
404.198	1905.81
404.422	1924.81
404.645	1901.81
404.869	1879.81
405.093	1917.81
405.317	1836.81
405.541	1903.81
405.765	1892.81
405.988	1898.81
406.212	1876.81
406.436	1881.81
406.66	1963.81
406.883	1938.81
407.107	2063.81
407.331	2144.81
407.555	2166.81
407.778	2188.81
408.002	2149.81
408.226	2107.81
408.449	2062.81
408.673	1991.81
408.896	1945.81
409.12	1929.81
409.344	1935.81
409.567	1955.81
409.791	1932.81
410.014	1906.81
410.238	1909.81
410.461	1876.81
410.685	1883.81
410.908	1868.81
411.132	1860.81
411.355	1819.81
411.578	1806.81
411.802	1806.81
412.025	1843.81
412.249	1833.81
412.472	1807.81
412.695	1802.81
412.919	1768.81
413.142	1756.81
413.365	1738.81
413.589	1765.81
413.812	1682.81
414.035	1720.81
414.258	1725.81
414.482	1715.81
414.705	1778.81
414.928	1753.81
415.151	1723.81
415.374	1713.81
415.597	1716.81
415.821	1674.81
416.044	1650.81
416.267	1653.81
416.49	1675.81
416.713	1670.81
416.936	1673.81
417.159	1646.81
417.382	1640.81
417.605	1597.81
417.828	1635.81
418.051	1674.81
418.274	1682.81
418.497	1670.81
418.72	1689.81
418.943	1694.81
419.166	1767.81
419.389	1949.81
419.611	1874.81
419.834	1792.81
420.057	1760.81
420.28	1693.81
420.503	1609.81
420.726	1637.81
420.948	1653.81
421.171	1680.81
421.394	1673.81
421.617	1629.81
421.839	1664.81
422.062	1684.81
422.285	1631.81
422.507	1738.81
422.73	1677.81
422.953	1681.81
423.175	1714.81
423.398	1678.81
423.621	1713.81
423.843	1755.81
424.066	1722.81
424.288	1714.81
424.511	1734.81
424.733	1692.81
424.956	1663.81
425.178	1658.81
425.401	1667.81
425.623	1691.81
425.846	1610.81
426.068	1624.81
426.291	1643.81
426.513	1586.81
426.735	1581.81
426.958	1613.81
427.18	1527.81
427.402	1537.81
427.625	1565.81
427.847	1543.81
428.069	1529.81
428.292	1570.81
428.514	1522.81
428.736	1544.81
428.958	1530.81
429.181	1459.81
429.403	1499.81
429.625	1505.81
429.847	1482.81
430.069	1443.81
430.292	1481.81
430.514	1468.81
430.736	1461.81
430.958	1517.81
431.18	1482.81
431.402	1547.81
431.624	1486.81
431.846	1521.81
432.068	1574.81
432.29	1551.81
432.512	1526.81
432.734	1556.81
432.956	1504.81
433.178	1525.81
433.4	1536.81
433.622	1568.81
433.844	1557.81
434.066	1577.81
434.287	1597.81
434.509	1648.81
434.731	1643.81
434.953	1684.81
435.175	1646.81
435.397	1655.81
435.618	1620.81
435.84	1574.81
436.062	1517.81
436.284	1513.81
436.505	1506.81
436.727	1561.81
436.949	1541.81
437.17	1534.81
437.392	1479.81
437.614	1466.81
437.835	1460.81
438.057	1507.81
438.278	1424.81
438.5	1448.81
438.721	1426.81
438.943	1475.81
439.165	1439.81
439.386	1477.81
439.608	1510.81
439.829	1492.81
440.05	1459.81
440.272	1472.81
440.493	1490.81
440.715	1532.81
440.936	1538.81
441.158	1550.81
441.379	1602.81
441.6	1614.81
441.822	1657.81
442.043	1674.81
442.264	1670.81
442.486	1608.81
442.707	1622.81
442.928	1609.81
443.149	1634.81
443.371	1575.81
443.592	1649.81
443.813	1639.81
444.034	1673.81
444.255	1699.81
444.476	1771.81
444.698	1837.81
444.919	1864.81
445.14	1982.81
445.361	1785.81
445.582	1692.81
445.803	1602.81
446.024	1600.81
446.245	1594.81
446.466	1554.81
446.687	1528.81
446.908	1494.81
447.129	1462.81
447.35	1464.81
447.571	1458.81
447.792	1413.81
448.013	1420.81
448.234	1398.81
448.455	1346.81
448.675	1384.81
448.896	1378.81
449.117	1321.81
449.338	1338.81
449.559	1349.81
449.779	1364.81
450	1337.81
450.221	1331.81
450.442	1369.81
450.662	1362.81
450.883	1380.81
451.104	1367.81
451.324	1346.81
451.545	1356.81
451.766	1357.81
451.986	1364.81
452.207	1358.81
452.428	1361.81
452.648	1355.81
452.869	1294.81
453.089	1301.81
453.31	1332.81
453.53	1278.81
453.751	1309.81
453.971	1294.81
454.192	1301.81
454.412	1282.81
454.633	1250.81
454.853	1297.81
455.073	1290.81
455.294	1283.81
455.514	1247.81
455.734	1264.81
455.955	1277.81
456.175	1252.81
456.395	1227.81
456.616	1282.81
456.836	1270.81
457.056	1279.81
457.276	1239.81
457.497	1291.81
457.717	1283.81
457.937	1310.81
458.157	1323.81
458.377	1320.81
458.598	1363.81
458.818	1398.81
459.038	1428.81
459.258	1423.81
459.478	1495.81
459.698	1521.81
459.918	1552.81
460.138	1604.81
460.358	1665.81
460.578	1739.81
460.798	1712.81
461.018	1702.81
461.238	1709.81
461.458	1725.81
461.678	1679.81
461.898	1738.81
462.118	1758.81
462.338	1765.81
462.558	1925.81
462.777	1945.81
462.997	2088.81
463.217	2154.81
463.437	2189.81
463.657	1998.81
463.876	1973.81
464.096	1998.81
464.316	1955.81
464.536	1968.81
464.755	1940.81
464.975	1875.81
465.195	1789.81
465.414	1709.81
465.634	1611.81
465.854	1592.81
466.073	1508.81
466.293	1517.81
466.512	1469.81
466.732	1441.81
466.951	1448.81
467.171	1432.81
467.391	1438.81
467.61	1433.81
467.829	1412.81
468.049	1418.81
468.268	1369.81
468.488	1384.81
468.707	1381.81
468.927	1400.81
469.146	1338.81
469.365	1382.81
469.585	1412.81
469.804	1411.81
470.023	1435.81
470.243	1459.81
470.462	1445.81
470.681	1452.81
470.901	1474.81
471.12	1453.81
471.339	1449.81
471.558	1419.81
471.777	1395.81
471.997	1354.81
472.216	1371.81
472.435	1343.81
472.654	1365.81
472.873	1334.81
473.092	1353.81
473.311	1350.81
473.53	1384.81
473.749	1326.81
473.968	1366.81
474.187	1345.81
474.406	1350.81
474.625	1352.81
474.844	1373.81
475.063	1372.81
475.282	1372.81
475.501	1377.81
475.72	1360.81
475.939	1410.81
476.158	1438.81
476.377	1433.81
476.596	1428.81
476.814	1465.81
477.033	1447.81
477.252	1480.81
477.471	1541.81
477.69	1536.81
477.908	1569.81
478.127	1605.81
478.346	1606.81
478.564	1665.81
478.783	1640.81
479.002	1700.81
479.22	1704.81
479.439	1701.81
479.658	1670.81
479.876	1695.81
480.095	1707.81
480.313	1769.81
480.532	1816.81
480.751	1798.81
480.969	1770.81
481.188	1712.81
481.406	1664.81
481.624	1663.81
481.843	1644.81
482.061	1635.81
482.28	1629.81
482.498	1677.81
482.717	1672.81
482.935	1685.81
483.153	1689.81
483.372	1655.81
483.59	1664.81
483.808	1658.81
484.027	1668.81
484.245	1685.81
484.463	1729.81
484.681	1732.81
484.9	1732.81
485.118	1752.81
485.336	1834.81
485.554	1761.81
485.772	1814.81
485.99	1813.81
486.209	1779.81
486.427	1795.81
486.645	1797.81
486.863	1777.81
487.081	1787.81
487.299	1769.81
487.517	1781.81
487.735	1766.81
487.953	1779.81
488.171	1733.81
488.389	1733.81
488.607	1698.81
488.825	1713.81
489.043	1702.81
489.261	1693.81
489.479	1710.81
489.696	1727.81
489.914	1709.81
490.132	1706.81
490.35	1686.81
490.568	1725.81
490.786	1678.81
491.003	1664.81
491.221	1690.81
491.439	1720.81
491.657	1723.81
491.874	1682.81
492.092	1679.81
492.31	1714.81
492.527	1750.81
492.745	1690.81
492.963	1680.81
493.18	1726.81
493.398	1705.81
493.615	1728.81
493.833	1741.81
494.05	1783.81
494.268	1751.81
494.485	1727.81
494.703	1745.81
494.92	1733.81
495.138	1715.81
495.355	1708.81
495.573	1731.81
495.79	1748.81
496.008	1777.81
496.225	1798.81
496.442	1778.81
496.66	1816.81
496.877	1835.81
497.094	1856.81
497.312	1894.81
497.529	1927.81
497.746	1960.81
497.963	2040.81
498.181	2127.81
498.398	2240.81
498.615	2276.81
498.832	2422.81
499.049	2605.81
499.267	2761.81
499.484	3030.81
499.701	3241.81
499.918	3573.81
500.135	3916.81
500.352	4310.81
500.569	4468.81
500.786	4378.81
501.003	4205.81
501.22	3830.81
501.437	3537.81
501.654	3148.81
501.871	2910.81
502.088	2727.81
502.305	2590.81
502.522	2436.81
502.739	2360.81
502.956	2230.81
503.172	2156.81
503.389	2094.81
503.606	2033.81
503.823	1985.81
504.04	1927.81
504.256	1977.81
504.473	1975.81
504.69	1990.81
504.907	1925.81
505.123	1887.81
505.34	1787.81
505.557	1696.81
505.773	1689.81
505.99	1619.81
506.207	1594.81
506.423	1584.81
506.64	1571.81
506.856	1533.81
507.073	1497.81
507.289	1494.81
507.506	1540.81
507.722	1521.81
507.939	1463.81
508.155	1488.81
508.372	1472.81
508.588	1413.81
508.805	1457.81
509.021	1427.81
509.238	1400.81
509.454	1401.81
509.67	1367.81
509.887	1391.81
510.103	1400.81
510.319	1394.81
510.536	1378.81
510.752	1319.81
510.968	1370.81
511.184	1364.81
511.401	1363.81
511.617	1344.81
511.833	1332.81
512.049	1366.81
512.265	1357.81
512.481	1352.81
512.698	1348.81
512.914	1368.81
513.13	1353.81
513.346	1349.81
513.562	1376.81
513.778	1373.81
513.994	1340.81
514.21	1334.81
514.426	1358.81
514.642	1358.81
514.858	1410.81
515.074	1400.81
515.29	1417.81
515.506	1435.81
515.721	1450.81
515.937	1439.81
516.153	1493.81
516.369	1520.81
516.585	1549.81
516.801	1586.81
517.016	1630.81
517.232	1684.81
517.448	1760.81
517.664	1758.81
517.879	1780.81
518.095	1762.81
518.311	1754.81
518.527	1689.81
518.742	1655.81
518.958	1583.81
519.173	1545.81
519.389	1531.81
519.605	1468.81
519.82	1448.81
520.036	1448.81
520.251	1369.81
520.467	1385.81
520.682	1381.81
520.898	1365.81
521.113	1317.81
521.329	1351.81
521.544	1304.81
521.76	1310.81
521.975	1293.81
522.19	1299.81
522.406	1276.81
522.621	1297.81
522.836	1254.81
523.052	1259.81
523.267	1251.81
523.482	1245.81
523.698	1224.81
523.913	1206.81
524.128	1220.81
524.343	1232.81
524.559	1226.81
524.774	1240.81
524.989	1229.81
525.204	1211.81
525.419	1229.81
525.634	1188.81
525.849	1211.81
526.064	1215.81
526.28	1205.81
526.495	1197.81
526.71	1172.81
526.925	1182.81
527.14	1200.81
527.355	1210.81
527.57	1206.81
527.785	1172.81
527.999	1173.81
528.214	1194.81
528.429	1197.81
528.644	1210.81
528.859	1226.81
529.074	1147.81
529.289	1195.81
529.503	1221.81
529.718	1212.81
529.933	1233.81
530.148	1172.81
530.363	1176.81
530.577	1164.81
530.792	1175.81
531.007	1170.81
531.221	1150.81
531.436	1188.81
531.651	1218.81
531.865	1174.81
532.08	1192.81
532.295	1184.81
532.509	1207.81
532.724	1181.81
532.938	1160.81
533.153	1174.81
533.367	1174.81
533.582	1196.81
533.796	1200.81
534.011	1176.81
534.225	1172.81
534.44	1147.81
534.654	1173.81
534.868	1156.81
535.083	1132.81
535.297	1156.81
535.511	1135.81
535.726	1129.81
535.94	1106.81
536.154	1122.81
536.369	1109.81
536.583	1111.81
536.797	1138.81
537.011	1104.81
537.225	1127.81
537.44	1093.81
537.654	1100.81
537.868	1073.81
538.082	1092.81
538.296	1087.81
538.51	1069.81
538.724	1125.81
538.938	1065.81
539.153	1076.81
539.367	1068.81
539.581	1052.81
539.795	1030.81
540.009	1079.81
540.222	1046.81
540.436	1063.81
540.65	1029.81
540.864	1049.81
541.078	1057.81
541.292	1073.81
541.506	1047.81
541.72	1038.81
541.934	1060.81
542.147	1053.81
542.361	1021.81
542.575	1014.81
542.789	1069.81
543.002	1014.81
543.216	1031.81
543.43	1043.81
543.644	1044.81
543.857	1021.81
544.071	1042.81
544.285	1044.81
544.498	1033.81
544.712	1038.81
544.925	1060.81
545.139	1053.81
545.352	1051.81
545.566	1068.81
545.779	1056.81
545.993	1068.81
546.206	1067.81
546.42	1065.81
546.633	1055.81
546.847	1080.81
547.06	1074.81
547.274	1051.81
547.487	1066.81
547.7	1058.81
547.914	1077.81
548.127	1049.81
548.34	1112.81
548.554	1085.81
548.767	1065.81
548.98	1058.81
549.193	1067.81
549.407	1070.81
549.62	1077.81
549.833	1093.81
550.046	1101.81
550.259	1100.81
550.473	1054.81
550.686	1065.81
550.899	1031.81
551.112	1045.81
551.325	1048.81
551.538	1048.81
551.751	1049.81
551.964	1047.81
552.177	1065.81
552.39	1069.81
552.603	1099.81
552.816	1094.81
553.029	1133.81
553.242	1125.81
553.455	1156.81
553.667	1130.81
553.88	1130.81
554.093	1111.81
554.306	1082.81
554.519	1058.81
554.732	1043.81
554.944	1014.81
555.157	1032.81
555.37	1002.81
555.583	986.81
555.795	979.81
556.008	956.81
556.221	973.81
556.433	952.81
556.646	929.81
556.859	925.81
557.071	926.81
557.284	915.81
557.496	908.81
557.709	909.81
557.921	919.81
558.134	898.81
558.346	892.81
558.559	892.81
558.771	882.81
558.984	906.81
559.196	890.81
559.409	885.81
559.621	896.81
559.833	878.81
560.046	877.81
560.258	900.81
560.47	884.81
560.683	860.81
560.895	866.81
561.107	880.81
561.32	884.81
561.532	872.81
561.744	872.81
561.956	867.81
562.168	873.81
562.381	865.81
562.593	853.81
562.805	872.81
563.017	888.81
563.229	902.81
563.441	883.81
563.653	888.81
563.865	894.81
564.077	902.81
564.289	906.81
564.501	915.81
564.713	946.81
564.925	944.81
565.137	967.81
565.349	993.81
565.561	992.81
565.773	1029.81
565.985	1074.81
566.197	1092.81
566.408	1221.81
566.62	1280.81
566.832	1368.81
567.044	1380.81
567.255	1402.81
567.467	1456.81
567.679	1463.81
567.891	1541.81
568.102	1514.81
568.314	1451.81
568.526	1367.81
568.737	1264.81
568.949	1186.81
569.161	1092.81
569.372	1034.81
569.584	997.81
569.795	948.81
570.007	921.81
570.218	923.81
570.43	881.81
570.641	899.81
570.853	880.81
571.064	896.81
571.276	906.81
571.487	875.81
571.698	847.81
571.91	811.81
572.121	817.81
572.333	781.81
572.544	793.81
572.755	744.81
572.966	741.81
573.178	766.81
573.389	733.81
573.6	728.81
573.811	721.81
574.023	722.81
574.234	718.81
574.445	708.81
574.656	733.81
574.867	729.81
575.078	708.81
575.289	706.81
575.501	691.81
575.712	679.81
575.923	683.81
576.134	684.81
576.345	677.81
576.556	670.81
576.767	662.81
576.978	674.81
577.188	665.81
577.399	666.81
577.61	647.81
577.821	649.81
578.032	649.81
578.243	631.81
578.454	659.81
578.665	636.81
578.875	624.81
579.086	632.81
579.297	642.81
579.508	634.81
579.718	639.81
579.929	641.81
580.14	624.81
580.35	636.81
580.561	621.81
580.772	632.81
580.982	609.81
581.193	618.81
581.403	608.81
581.614	599.81
581.825	612.81
582.035	606.81
582.246	589.81
582.456	598.81
582.667	608.81
582.877	589.81
583.087	600.81
583.298	603.81
583.508	601.81
583.719	607.81
583.929	615.81
584.139	579.81
584.35	588.81
584.56	587.81
584.77	604.81
584.981	585.81
585.191	580.81
585.401	578.81
585.611	582.81
585.821	594.81
586.032	572.81
586.242	598.81
586.452	578.81
586.662	584.81
586.872	578.81
587.082	569.81
587.292	545.81
587.502	583.81
587.713	561.81
587.923	550.81
588.133	564.81
588.343	574.81
588.553	582.81
588.762	561.81
588.972	564.81
589.182	589.81
589.392	587.81
589.602	591.81
589.812	572.81
590.022	596.81
590.232	573.81
590.441	577.81
590.651	600.81
590.861	586.81
591.071	574.81
591.281	578.81
591.49	586.81
591.7	575.81
591.91	622.81
592.119	637.81
592.329	614.81
592.539	608.81
592.748	633.81
592.958	666.81
593.167	682.81
593.377	685.81
593.587	682.81
593.796	684.81
594.006	709.81
594.215	682.81
594.424	697.81
594.634	670.81
594.843	671.81
595.053	634.81
595.262	626.81
595.472	645.81
595.681	591.81
595.89	560.81
596.1	589.81
596.309	564.81
596.518	570.81
596.727	557.81
596.937	528.81
597.146	532.81
597.355	526.81
597.564	506.81
597.774	499.81
597.983	502.81
598.192	506.81
598.401	499.81
598.61	483.81
598.819	509.81
599.028	476.81
599.237	497.81
599.446	478.81
599.655	473.81
599.864	474.81
600.073	482.81
600.282	468.81
600.491	479.81
600.7	481.81
600.909	462.81
601.118	458.81
601.327	459.81
601.536	466.81
601.745	458.81
601.953	453.81
602.162	450.81
602.371	443.81
602.58	450.81
602.789	440.81
602.997	446.81
603.206	449.81
603.415	442.81
603.623	440.81
603.832	454.81
604.041	447.81
604.249	440.81
604.458	445.81
604.666	428.81
604.875	430.81
605.084	426.81
605.292	427.81
605.501	428.81
605.709	447.81
605.918	413.81
606.126	413.81
606.334	421.81
606.543	427.81
606.751	426.81
606.96	423.81
607.168	440.81
607.376	413.81
607.585	418.81
607.793	426.81
608.001	440.81
608.21	429.81
608.418	438.81
608.626	410.81
608.834	398.81
609.043	440.81
609.251	424.81
609.459	421.81
609.667	439.81
609.875	418.81
610.083	426.81
610.291	430.81
610.499	397.81
610.707	414.81
610.916	402.81
611.124	406.81
611.332	411.81
611.54	406.81
611.748	396.81
611.955	394.81
612.163	411.81
612.371	397.81
612.579	390.81
612.787	406.81
612.995	414.81
613.203	422.81
613.411	410.81
613.618	379.81
613.826	396.81
614.034	408.81
614.242	415.81
614.449	410.81
614.657	394.81
614.865	389.81
615.072	406.81
615.28	403.81
615.488	401.81
615.695	386.81
615.903	405.81
616.111	425.81
616.318	405.81
616.526	400.81
616.733	409.81
616.941	388.81
617.148	386.81
617.356	385.81
617.563	386.81
617.771	402.81
617.978	388.81
618.185	386.81
618.393	400.81
618.6	372.81
618.807	377.81
619.015	400.81
619.222	406.81
619.429	403.81
619.637	406.81
619.844	387.81
620.051	388.81
620.258	384.81
620.466	382.81
620.673	355.81
620.88	362.81
621.087	358.81
621.294	365.81
621.501	374.81
621.708	367.81
621.915	369.81
622.122	374.81
622.329	371.81
622.536	372.81
622.743	355.81
622.95	374.81
623.157	346.81
623.364	356.81
623.571	349.81
623.778	363.81
623.985	372.81
624.192	344.81
624.399	344.81
624.606	359.81
624.812	360.81
625.019	355.81
625.226	357.81
625.433	364.81
625.639	339.81
625.846	342.81
626.053	350.81
626.259	338.81
626.466	335.81
626.673	331.81
626.879	328.81
627.086	335.81
627.293	330.81
627.499	333.81
627.706	312.81
627.912	322.81
628.119	332.81
628.325	333.81
628.532	329.81
628.738	322.81
628.945	314.81
629.151	329.81
629.357	334.81
629.564	325.81
629.77	322.81
629.976	321.81
630.183	324.81
630.389	317.81
630.595	303.81
630.802	307.81
631.008	321.81
631.214	309.81
631.42	302.81
631.627	299.81
631.833	289.81
632.039	294.81
632.245	325.81
632.451	307.81
632.657	308.81
632.863	309.81
633.069	299.81
633.275	324.81
633.481	295.81
633.688	298.81
633.893	300.81
634.099	307.81
634.305	307.81
634.511	285.81
634.717	285.81
634.923	285.81
635.129	285.81
635.335	266.81
635.541	286.81
635.747	290.81
635.952	280.81
636.158	299.81
636.364	277.81
636.57	275.81
636.775	288.81
636.981	292.81
637.187	282.81
637.392	298.81
637.598	286.81
637.804	294.81
638.009	284.81
638.215	294.81
638.421	285.81
638.626	278.81
638.832	306.81
639.037	286.81
639.243	258.81
639.448	274.81
639.654	282.81
639.859	267.81
640.065	275.81
640.27	265.81
640.475	267.81
640.681	274.81
640.886	250.81
641.091	261.81
641.297	277.81
641.502	266.81
641.707	284.81
641.913	265.81
642.118	266.81
642.323	279.81
642.528	263.81
642.733	271.81
642.939	284.81
643.144	266.81
643.349	272.81
643.554	266.81
643.759	278.81
643.964	276.81
644.169	279.81
644.374	270.81
644.579	270.81
644.784	265.81
644.989	292.81
645.194	276.81
645.399	273.81
645.604	282.81
645.809	276.81
646.014	273.81
646.219	272.81
646.423	264.81
646.628	247.81
646.833	282.81
647.038	283.81
647.243	274.81
647.447	275.81
647.652	290.81
647.857	267.81
648.062	281.81
648.266	270.81
648.471	280.81
648.676	278.81
648.88	299.81
649.085	281.81
649.289	277.81
649.494	272.81
649.698	278.81
649.903	284.81
650.107	271.81
650.312	283.81
650.516	260.81
650.721	275.81
650.925	262.81
651.13	254.81
651.334	243.81
651.539	276.81
651.743	248.81
651.947	271.81
652.152	258.81
652.356	256.81
652.56	259.81
652.764	239.81
652.969	257.81
653.173	254.81
653.377	273.81
653.581	244.81
653.785	235.81
653.99	250.81
654.194	247.81
654.398	251.81
654.602	243.81
654.806	258.81
655.01	272.81
655.214	258.81
655.418	268.81
655.622	274.81
655.826	304.81
656.03	305.81
656.234	332.81
656.438	355.81
656.642	372.81
656.846	327.81
657.049	300.81
657.253	286.81
657.457	249.81
657.661	235.81
657.865	217.81
658.068	196.81
658.272	202.81
658.476	157.81
658.68	158.81
658.883	168.81
659.087	160.81
659.291	153.81
659.494	150.81
659.698	132.81
659.901	119.81
660.105	131.81
660.309	127.81
660.512	124.81
660.716	100.81
660.919	112.81
661.123	112.81
661.326	103.81
661.53	110.81
661.733	106.81
661.936	110.81
662.14	101.81
662.343	82.81
662.546	83.81
662.75	94.81
662.953	94.81
663.156	90.81
663.36	81.81
663.563	90.81
663.766	83.81
663.969	78.81
664.173	85.81
664.376	82.81
664.579	81.81
664.782	84.81
664.985	80.81
665.188	85.81
665.391	83.81
665.594	86.81
665.797	79.81
666	87.81
666.203	80.81
666.406	78.81
666.609	85.81
666.812	81.81
667.015	84.81
667.218	78.81
667.421	86.81
667.624	89.81
667.827	97.81
668.03	88.81
668.232	87.81
668.435	82.81
668.638	88.81
668.841	76.81
669.043	70.81
669.246	91.81
669.449	77.81
669.651	79.81
669.854	87.81
670.057	67.81
670.259	82.81
670.462	81.81
670.665	97.81
670.867	91.81
671.07	74.81
671.272	83.81
671.475	90.81
671.677	90.81
671.88	72.81
672.082	74.81
672.284	83.81
672.487	72.81
672.689	89.81
672.892	81.81
