Data from NiCl2@0.0625M.TitratingCurve.Agarose3%dH2O.NegLispCup.LampEnergy10.LIBS07252019_HRD10591_18-34-50-577.txt Node
Date: Thu Jul 25 18:34:50 EDT 2019
User: cochatt
Spectrometer: HR+D1059
Trigger mode: 1
Integration Time (sec): 1.000000E-1
Scans to average: 1
Electric dark correction enabled: true
Nonlinearity correction enabled: false
Boxcar width: 0
XAxis mode: Wavelengths
Number of Pixels in Spectrum: 2048
>>>>>Begin Spectral Data<<<<<
223.165	-7.88
223.4	-7.88
223.635	-7.88
223.869	-19.88
224.104	-20.88
224.338	-12.88
224.573	-13.88
224.808	-2.88
225.042	-20.88
225.277	-8.88
225.511	-12.88
225.746	-1.88
225.98	12.12
226.215	7.12
226.449	8.12
226.683	23.12
226.918	30.12
227.152	42.12
227.387	37.12
227.621	33.12
227.856	52.12
228.09	36.12
228.324	65.12
228.559	55.12
228.793	88.12
229.027	115.12
229.262	143.12
229.496	146.12
229.73	148.12
229.964	154.12
230.199	161.12
230.433	155.12
230.667	172.12
230.901	161.12
231.136	166.12
231.37	175.12
231.604	169.12
231.838	172.12
232.072	165.12
232.306	175.12
232.541	179.12
232.775	187.12
233.009	177.12
233.243	174.12
233.477	184.12
233.711	183.12
233.945	203.12
234.179	174.12
234.413	185.12
234.647	194.12
234.881	189.12
235.115	188.12
235.349	191.12
235.583	201.12
235.817	198.12
236.051	210.12
236.285	213.12
236.519	225.12
236.753	200.12
236.987	197.12
237.221	206.12
237.455	199.12
237.689	223.12
237.922	217.12
238.156	215.12
238.39	228.12
238.624	233.12
238.858	222.12
239.091	216.12
239.325	236.12
239.559	228.12
239.793	233.12
240.027	236.12
240.26	233.12
240.494	233.12
240.728	244.12
240.961	253.12
241.195	259.12
241.429	261.12
241.662	242.12
241.896	252.12
242.13	246.12
242.363	252.12
242.597	259.12
242.83	275.12
243.064	270.12
243.298	274.12
243.531	282.12
243.765	287.12
243.998	285.12
244.232	297.12
244.465	291.12
244.699	304.12
244.932	301.12
245.166	302.12
245.399	294.12
245.633	297.12
245.866	308.12
246.099	311.12
246.333	311.12
246.566	302.12
246.8	305.12
247.033	321.12
247.266	333.12
247.5	300.12
247.733	347.12
247.966	330.12
248.2	318.12
248.433	355.12
248.666	351.12
248.899	342.12
249.133	337.12
249.366	344.12
249.599	345.12
249.832	343.12
250.066	356.12
250.299	350.12
250.532	367.12
250.765	363.12
250.998	366.12
251.231	377.12
251.465	364.12
251.698	363.12
251.931	365.12
252.164	354.12
252.397	389.12
252.63	371.12
252.863	381.12
253.096	385.12
253.329	393.12
253.562	371.12
253.795	378.12
254.028	397.12
254.261	377.12
254.494	399.12
254.727	407.12
254.96	417.12
255.193	411.12
255.426	421.12
255.659	415.12
255.892	421.12
256.124	406.12
256.357	419.12
256.59	425.12
256.823	415.12
257.056	425.12
257.289	417.12
257.521	445.12
257.754	431.12
257.987	432.12
258.22	435.12
258.452	436.12
258.685	443.12
258.918	437.12
259.151	452.12
259.383	432.12
259.616	462.12
259.849	470.12
260.081	444.12
260.314	454.12
260.547	448.12
260.779	452.12
261.012	454.12
261.244	482.12
261.477	477.12
261.71	476.12
261.942	457.12
262.175	451.12
262.407	459.12
262.64	459.12
262.872	504.12
263.105	506.12
263.337	481.12
263.57	485.12
263.802	481.12
264.035	489.12
264.267	512.12
264.499	509.12
264.732	509.12
264.964	511.12
265.197	503.12
265.429	531.12
265.661	510.12
265.894	541.12
266.126	509.12
266.358	527.12
266.591	526.12
266.823	520.12
267.055	536.12
267.287	509.12
267.52	515.12
267.752	523.12
267.984	531.12
268.216	534.12
268.448	537.12
268.681	530.12
268.913	538.12
269.145	545.12
269.377	533.12
269.609	538.12
269.841	548.12
270.073	553.12
270.306	537.12
270.538	551.12
270.77	537.12
271.002	542.12
271.234	546.12
271.466	577.12
271.698	569.12
271.93	548.12
272.162	561.12
272.394	562.12
272.626	566.12
272.858	564.12
273.09	590.12
273.322	580.12
273.553	573.12
273.785	597.12
274.017	595.12
274.249	609.12
274.481	599.12
274.713	593.12
274.945	603.12
275.176	627.12
275.408	627.12
275.64	598.12
275.872	609.12
276.104	606.12
276.335	611.12
276.567	631.12
276.799	654.12
277.031	635.12
277.262	654.12
277.494	642.12
277.726	633.12
277.957	635.12
278.189	633.12
278.421	613.12
278.652	641.12
278.884	668.12
279.115	645.12
279.347	654.12
279.579	636.12
279.81	646.12
280.042	658.12
280.273	665.12
280.505	661.12
280.736	661.12
280.968	685.12
281.199	682.12
281.431	674.12
281.662	691.12
281.894	680.12
282.125	669.12
282.356	694.12
282.588	695.12
282.819	696.12
283.051	703.12
283.282	693.12
283.513	723.12
283.745	701.12
283.976	699.12
284.207	702.12
284.439	711.12
284.67	713.12
284.901	727.12
285.132	708.12
285.364	726.12
285.595	734.12
285.826	743.12
286.057	710.12
286.288	736.12
286.52	725.12
286.751	742.12
286.982	741.12
287.213	721.12
287.444	747.12
287.675	730.12
287.906	737.12
288.138	751.12
288.369	759.12
288.6	761.12
288.831	759.12
289.062	742.12
289.293	746.12
289.524	752.12
289.755	759.12
289.986	771.12
290.217	748.12
290.448	750.12
290.679	783.12
290.91	766.12
291.141	777.12
291.371	780.12
291.602	779.12
291.833	780.12
292.064	779.12
292.295	780.12
292.526	794.12
292.757	793.12
292.987	779.12
293.218	753.12
293.449	811.12
293.68	773.12
293.91	787.12
294.141	778.12
294.372	769.12
294.603	777.12
294.833	806.12
295.064	767.12
295.295	796.12
295.525	785.12
295.756	793.12
295.987	781.12
296.217	802.12
296.448	798.12
296.679	782.12
296.909	809.12
297.14	785.12
297.37	823.12
297.601	843.12
297.831	806.12
298.062	823.12
298.292	838.12
298.523	863.12
298.753	865.12
298.984	833.12
299.214	821.12
299.445	827.12
299.675	822.12
299.905	833.12
300.136	848.12
300.366	856.12
300.597	858.12
300.827	871.12
301.057	898.12
301.288	863.12
301.518	879.12
301.748	894.12
301.979	905.12
302.209	906.12
302.439	884.12
302.669	864.12
302.9	902.12
303.13	867.12
303.36	878.12
303.59	878.12
303.82	900.12
304.051	899.12
304.281	882.12
304.511	859.12
304.741	879.12
304.971	866.12
305.201	865.12
305.431	892.12
305.661	872.12
305.891	845.12
306.121	876.12
306.352	854.12
306.582	889.12
306.812	874.12
307.042	858.12
307.272	860.12
307.502	869.12
307.731	886.12
307.961	867.12
308.191	862.12
308.421	845.12
308.651	868.12
308.881	823.12
309.111	843.12
309.341	872.12
309.571	885.12
309.8	892.12
310.03	860.12
310.26	873.12
310.49	875.12
310.72	875.12
310.949	851.12
311.179	922.12
311.409	902.12
311.639	905.12
311.868	913.12
312.098	916.12
312.328	890.12
312.557	902.12
312.787	924.12
313.017	908.12
313.246	948.12
313.476	931.12
313.706	931.12
313.935	971.12
314.165	947.12
314.394	930.12
314.624	937.12
314.853	958.12
315.083	913.12
315.312	930.12
315.542	932.12
315.771	918.12
316.001	936.12
316.23	940.12
316.46	901.12
316.689	949.12
316.919	939.12
317.148	935.12
317.377	930.12
317.607	937.12
317.836	895.12
318.065	926.12
318.295	913.12
318.524	953.12
318.753	904.12
318.983	925.12
319.212	909.12
319.441	941.12
319.67	937.12
319.9	907.12
320.129	936.12
320.358	922.12
320.587	926.12
320.816	952.12
321.046	943.12
321.275	924.12
321.504	927.12
321.733	940.12
321.962	936.12
322.191	923.12
322.42	956.12
322.649	951.12
322.878	951.12
323.108	934.12
323.337	978.12
323.566	956.12
323.795	951.12
324.024	959.12
324.253	968.12
324.482	957.12
324.71	975.12
324.939	970.12
325.168	993.12
325.397	971.12
325.626	984.12
325.855	982.12
326.084	1047.12
326.313	1038.12
326.542	1012.12
326.77	1001.12
326.999	1005.12
327.228	974.12
327.457	1009.12
327.686	1006.12
327.914	1015.12
328.143	1006.12
328.372	1029.12
328.6	1011.12
328.829	1002.12
329.058	1006.12
329.287	1012.12
329.515	1014.12
329.744	990.12
329.972	1006.12
330.201	1027.12
330.43	1063.12
330.658	1050.12
330.887	1036.12
331.115	1062.12
331.344	1058.12
331.572	1075.12
331.801	1103.12
332.03	1091.12
332.258	1124.12
332.486	1142.12
332.715	1161.12
332.943	1180.12
333.172	1223.12
333.4	1285.12
333.629	1276.12
333.857	1303.12
334.085	1306.12
334.314	1291.12
334.542	1242.12
334.771	1291.12
334.999	1243.12
335.227	1247.12
335.455	1258.12
335.684	1244.12
335.912	1242.12
336.14	1224.12
336.369	1226.12
336.597	1250.12
336.825	1223.12
337.053	1204.12
337.281	1166.12
337.51	1167.12
337.738	1196.12
337.966	1129.12
338.194	1135.12
338.422	1093.12
338.65	1093.12
338.878	1138.12
339.106	1126.12
339.334	1113.12
339.562	1118.12
339.79	1099.12
340.018	1061.12
340.246	1038.12
340.474	1083.12
340.702	1063.12
340.93	1049.12
341.158	1101.12
341.386	1063.12
341.614	1074.12
341.842	1073.12
342.07	1063.12
342.298	1062.12
342.526	1048.12
342.754	1056.12
342.981	1061.12
343.209	1102.12
343.437	1134.12
343.665	1178.12
343.893	1164.12
344.12	1241.12
344.348	1211.12
344.576	1205.12
344.804	1163.12
345.031	1123.12
345.259	1101.12
345.487	1106.12
345.714	1063.12
345.942	1035.12
346.17	1074.12
346.397	1052.12
346.625	1044.12
346.853	1014.12
347.08	1001.12
347.308	1049.12
347.535	990.12
347.763	1018.12
347.99	978.12
348.218	1007.12
348.445	1022.12
348.673	1004.12
348.9	1002.12
349.128	977.12
349.355	985.12
349.583	983.12
349.81	994.12
350.037	980.12
350.265	995.12
350.492	1006.12
350.72	999.12
350.947	993.12
351.174	972.12
351.402	981.12
351.629	1036.12
351.856	982.12
352.083	992.12
352.311	968.12
352.538	985.12
352.765	988.12
352.992	977.12
353.22	962.12
353.447	983.12
353.674	979.12
353.901	975.12
354.128	962.12
354.355	999.12
354.583	978.12
354.81	997.12
355.037	979.12
355.264	996.12
355.491	972.12
355.718	966.12
355.945	996.12
356.172	978.12
356.399	953.12
356.626	977.12
356.853	956.12
357.08	966.12
357.307	1007.12
357.534	1003.12
357.761	982.12
357.988	982.12
358.215	967.12
358.441	1003.12
358.668	1002.12
358.895	985.12
359.122	978.12
359.349	1000.12
359.576	997.12
359.802	1001.12
360.029	948.12
360.256	973.12
360.483	988.12
360.709	982.12
360.936	990.12
361.163	973.12
361.39	1009.12
361.616	980.12
361.843	994.12
362.07	1001.12
362.296	987.12
362.523	940.12
362.749	998.12
362.976	1014.12
363.203	994.12
363.429	977.12
363.656	1016.12
363.882	990.12
364.109	987.12
364.335	996.12
364.562	988.12
364.788	1006.12
365.015	978.12
365.241	971.12
365.468	963.12
365.694	977.12
365.92	1011.12
366.147	992.12
366.373	994.12
366.599	965.12
366.826	949.12
367.052	963.12
367.278	996.12
367.505	998.12
367.731	997.12
367.957	1030.12
368.184	1016.12
368.41	998.12
368.636	984.12
368.862	995.12
369.089	1025.12
369.315	1011.12
369.541	1007.12
369.767	1025.12
369.993	1000.12
370.219	1043.12
370.445	1059.12
370.672	1047.12
370.898	1094.12
371.124	1073.12
371.35	1092.12
371.576	1061.12
371.802	1063.12
372.028	1073.12
372.254	1067.12
372.48	1092.12
372.706	1076.12
372.932	1100.12
373.158	1084.12
373.384	1085.12
373.61	1059.12
373.835	1098.12
374.061	1086.12
374.287	1087.12
374.513	1096.12
374.739	1122.12
374.965	1167.12
375.191	1166.12
375.416	1165.12
375.642	1139.12
375.868	1151.12
376.094	1128.12
376.319	1112.12
376.545	1084.12
376.771	1089.12
376.997	1054.12
377.222	1051.12
377.448	1076.12
377.674	1085.12
377.899	1075.12
378.125	1068.12
378.35	1065.12
378.576	1044.12
378.802	1038.12
379.027	1058.12
379.253	1066.12
379.478	1067.12
379.704	1070.12
379.929	1045.12
380.155	1040.12
380.38	1045.12
380.606	1069.12
380.831	1066.12
381.057	1094.12
381.282	1065.12
381.507	1065.12
381.733	1108.12
381.958	1078.12
382.184	1103.12
382.409	1104.12
382.634	1112.12
382.86	1100.12
383.085	1126.12
383.31	1132.12
383.535	1138.12
383.761	1149.12
383.986	1179.12
384.211	1176.12
384.436	1213.12
384.662	1204.12
384.887	1264.12
385.112	1218.12
385.337	1245.12
385.562	1268.12
385.787	1267.12
386.013	1285.12
386.238	1265.12
386.463	1271.12
386.688	1284.12
386.913	1290.12
387.138	1253.12
387.363	1289.12
387.588	1259.12
387.813	1262.12
388.038	1246.12
388.263	1258.12
388.488	1291.12
388.713	1289.12
388.938	1261.12
389.163	1240.12
389.387	1264.12
389.612	1230.12
389.837	1233.12
390.062	1246.12
390.287	1262.12
390.512	1233.12
390.736	1264.12
390.961	1301.12
391.186	1326.12
391.411	1349.12
391.636	1353.12
391.86	1388.12
392.085	1421.12
392.31	1367.12
392.534	1386.12
392.759	1352.12
392.984	1307.12
393.208	1329.12
393.433	1338.12
393.658	1347.12
393.882	1296.12
394.107	1305.12
394.331	1330.12
394.556	1321.12
394.78	1351.12
395.005	1362.12
395.229	1367.12
395.454	1388.12
395.678	1403.12
395.903	1417.12
396.127	1412.12
396.352	1388.12
396.576	1354.12
396.801	1339.12
397.025	1361.12
397.249	1385.12
397.474	1427.12
397.698	1427.12
397.922	1439.12
398.147	1441.12
398.371	1503.12
398.595	1491.12
398.82	1534.12
399.044	1658.12
399.268	1761.12
399.492	2004.12
399.717	2127.12
399.941	2136.12
400.165	2010.12
400.389	1905.12
400.613	1742.12
400.837	1653.12
401.062	1667.12
401.286	1615.12
401.51	1587.12
401.734	1555.12
401.958	1590.12
402.182	1598.12
402.406	1614.12
402.63	1599.12
402.854	1638.12
403.078	1631.12
403.302	1670.12
403.526	1671.12
403.75	1713.12
403.974	1723.12
404.198	1690.12
404.422	1740.12
404.645	1721.12
404.869	1703.12
405.093	1717.12
405.317	1682.12
405.541	1703.12
405.765	1714.12
405.988	1721.12
406.212	1672.12
406.436	1684.12
406.66	1768.12
406.883	1751.12
407.107	1894.12
407.331	1931.12
407.555	2022.12
407.778	1980.12
408.002	1919.12
408.226	1868.12
408.449	1885.12
408.673	1819.12
408.896	1773.12
409.12	1742.12
409.344	1802.12
409.567	1750.12
409.791	1764.12
410.014	1717.12
410.238	1704.12
410.461	1736.12
410.685	1692.12
410.908	1657.12
411.132	1677.12
411.355	1644.12
411.578	1666.12
411.802	1659.12
412.025	1647.12
412.249	1651.12
412.472	1657.12
412.695	1650.12
412.919	1591.12
413.142	1603.12
413.365	1604.12
413.589	1638.12
413.812	1551.12
414.035	1549.12
414.258	1557.12
414.482	1581.12
414.705	1585.12
414.928	1589.12
415.151	1567.12
415.374	1577.12
415.597	1525.12
415.821	1562.12
416.044	1552.12
416.267	1492.12
416.49	1515.12
416.713	1506.12
416.936	1554.12
417.159	1524.12
417.382	1518.12
417.605	1478.12
417.828	1468.12
418.051	1486.12
418.274	1519.12
418.497	1511.12
418.72	1523.12
418.943	1518.12
419.166	1634.12
419.389	1746.12
419.611	1715.12
419.834	1650.12
420.057	1575.12
420.28	1522.12
420.503	1496.12
420.726	1518.12
420.948	1487.12
421.171	1494.12
421.394	1494.12
421.617	1497.12
421.839	1559.12
422.062	1533.12
422.285	1494.12
422.507	1514.12
422.73	1523.12
422.953	1537.12
423.175	1523.12
423.398	1570.12
423.621	1551.12
423.843	1526.12
424.066	1568.12
424.288	1552.12
424.511	1532.12
424.733	1559.12
424.956	1509.12
425.178	1543.12
425.401	1525.12
425.623	1536.12
425.846	1504.12
426.068	1461.12
426.291	1476.12
426.513	1457.12
426.735	1482.12
426.958	1475.12
427.18	1419.12
427.402	1416.12
427.625	1423.12
427.847	1403.12
428.069	1405.12
428.292	1415.12
428.514	1407.12
428.736	1382.12
428.958	1398.12
429.181	1373.12
429.403	1375.12
429.625	1347.12
429.847	1360.12
430.069	1377.12
430.292	1361.12
430.514	1323.12
430.736	1373.12
430.958	1397.12
431.18	1372.12
431.402	1368.12
431.624	1389.12
431.846	1400.12
432.068	1423.12
432.29	1397.12
432.512	1384.12
432.734	1402.12
432.956	1378.12
433.178	1393.12
433.4	1409.12
433.622	1432.12
433.844	1471.12
434.066	1419.12
434.287	1443.12
434.509	1465.12
434.731	1482.12
434.953	1509.12
435.175	1527.12
435.397	1510.12
435.618	1493.12
435.84	1426.12
436.062	1403.12
436.284	1390.12
436.505	1397.12
436.727	1403.12
436.949	1404.12
437.17	1391.12
437.392	1396.12
437.614	1342.12
437.835	1333.12
438.057	1339.12
438.278	1330.12
438.5	1355.12
438.721	1296.12
438.943	1351.12
439.165	1309.12
439.386	1307.12
439.608	1351.12
439.829	1359.12
440.05	1344.12
440.272	1412.12
440.493	1352.12
440.715	1401.12
440.936	1397.12
441.158	1406.12
441.379	1453.12
441.6	1516.12
441.822	1536.12
442.043	1516.12
442.264	1476.12
442.486	1438.12
442.707	1484.12
442.928	1461.12
443.149	1467.12
443.371	1437.12
443.592	1492.12
443.813	1498.12
444.034	1479.12
444.255	1547.12
444.476	1604.12
444.698	1653.12
444.919	1677.12
445.14	1766.12
445.361	1650.12
445.582	1545.12
445.803	1479.12
446.024	1441.12
446.245	1426.12
446.466	1414.12
446.687	1364.12
446.908	1361.12
447.129	1329.12
447.35	1352.12
447.571	1309.12
447.792	1283.12
448.013	1324.12
448.234	1250.12
448.455	1260.12
448.675	1263.12
448.896	1242.12
449.117	1251.12
449.338	1248.12
449.559	1245.12
449.779	1230.12
450	1265.12
450.221	1235.12
450.442	1243.12
450.662	1220.12
450.883	1255.12
451.104	1245.12
451.324	1245.12
451.545	1245.12
451.766	1235.12
451.986	1209.12
452.207	1215.12
452.428	1224.12
452.648	1187.12
452.869	1161.12
453.089	1170.12
453.31	1198.12
453.53	1197.12
453.751	1167.12
453.971	1186.12
454.192	1221.12
454.412	1161.12
454.633	1190.12
454.853	1177.12
455.073	1141.12
455.294	1170.12
455.514	1157.12
455.734	1197.12
455.955	1113.12
456.175	1146.12
456.395	1117.12
456.616	1155.12
456.836	1179.12
457.056	1163.12
457.276	1157.12
457.497	1169.12
457.717	1170.12
457.937	1164.12
458.157	1183.12
458.377	1199.12
458.598	1229.12
458.818	1269.12
459.038	1292.12
459.258	1304.12
459.478	1366.12
459.698	1415.12
459.918	1401.12
460.138	1434.12
460.358	1497.12
460.578	1509.12
460.798	1574.12
461.018	1549.12
461.238	1549.12
461.458	1550.12
461.678	1548.12
461.898	1560.12
462.118	1605.12
462.338	1649.12
462.558	1699.12
462.777	1769.12
462.997	1846.12
463.217	1915.12
463.437	1975.12
463.657	1873.12
463.876	1815.12
464.096	1807.12
464.316	1804.12
464.536	1800.12
464.755	1720.12
464.975	1667.12
465.195	1590.12
465.414	1549.12
465.634	1427.12
465.854	1422.12
466.073	1395.12
466.293	1372.12
466.512	1343.12
466.732	1297.12
466.951	1301.12
467.171	1308.12
467.391	1323.12
467.61	1283.12
467.829	1281.12
468.049	1286.12
468.268	1260.12
468.488	1245.12
468.707	1259.12
468.927	1276.12
469.146	1258.12
469.365	1271.12
469.585	1292.12
469.804	1258.12
470.023	1307.12
470.243	1335.12
470.462	1347.12
470.681	1324.12
470.901	1316.12
471.12	1324.12
471.339	1318.12
471.558	1302.12
471.777	1302.12
471.997	1246.12
472.216	1237.12
472.435	1217.12
472.654	1231.12
472.873	1235.12
473.092	1238.12
473.311	1219.12
473.53	1245.12
473.749	1221.12
473.968	1244.12
474.187	1203.12
474.406	1224.12
474.625	1249.12
474.844	1217.12
475.063	1269.12
475.282	1254.12
475.501	1244.12
475.72	1265.12
475.939	1279.12
476.158	1298.12
476.377	1316.12
476.596	1267.12
476.814	1336.12
477.033	1337.12
477.252	1364.12
477.471	1358.12
477.69	1372.12
477.908	1417.12
478.127	1447.12
478.346	1455.12
478.564	1514.12
478.783	1529.12
479.002	1531.12
479.22	1551.12
479.439	1530.12
479.658	1528.12
479.876	1567.12
480.095	1566.12
480.313	1594.12
480.532	1611.12
480.751	1622.12
480.969	1606.12
481.188	1562.12
481.406	1526.12
481.624	1523.12
481.843	1490.12
482.061	1507.12
482.28	1490.12
482.498	1483.12
482.717	1506.12
482.935	1476.12
483.153	1502.12
483.372	1521.12
483.59	1516.12
483.808	1521.12
484.027	1547.12
484.245	1556.12
484.463	1564.12
484.681	1610.12
484.9	1593.12
485.118	1631.12
485.336	1614.12
485.554	1582.12
485.772	1629.12
485.99	1654.12
486.209	1667.12
486.427	1624.12
486.645	1626.12
486.863	1640.12
487.081	1631.12
487.299	1645.12
487.517	1603.12
487.735	1572.12
487.953	1616.12
488.171	1626.12
488.389	1544.12
488.607	1590.12
488.825	1586.12
489.043	1588.12
489.261	1569.12
489.479	1555.12
489.696	1547.12
489.914	1544.12
490.132	1547.12
490.35	1553.12
490.568	1561.12
490.786	1544.12
491.003	1567.12
491.221	1544.12
491.439	1550.12
491.657	1570.12
491.874	1529.12
492.092	1541.12
492.31	1524.12
492.527	1534.12
492.745	1546.12
492.963	1574.12
493.18	1529.12
493.398	1593.12
493.615	1565.12
493.833	1575.12
494.05	1569.12
494.268	1578.12
494.485	1601.12
494.703	1569.12
494.92	1577.12
495.138	1602.12
495.355	1617.12
495.573	1635.12
495.79	1622.12
496.008	1624.12
496.225	1614.12
496.442	1649.12
496.66	1653.12
496.877	1653.12
497.094	1698.12
497.312	1721.12
497.529	1757.12
497.746	1761.12
497.963	1823.12
498.181	1900.12
498.398	1975.12
498.615	2049.12
498.832	2166.12
499.049	2327.12
499.267	2473.12
499.484	2647.12
499.701	2882.12
499.918	3161.12
500.135	3489.12
500.352	3822.12
500.569	3968.12
500.786	3859.12
501.003	3725.12
501.22	3477.12
501.437	3135.12
501.654	2823.12
501.871	2639.12
502.088	2428.12
502.305	2293.12
502.522	2197.12
502.739	2193.12
502.956	2076.12
503.172	1949.12
503.389	1864.12
503.606	1799.12
503.823	1805.12
504.04	1771.12
504.256	1745.12
504.473	1770.12
504.69	1783.12
504.907	1764.12
505.123	1685.12
505.34	1607.12
505.557	1558.12
505.773	1512.12
505.99	1459.12
506.207	1474.12
506.423	1414.12
506.64	1438.12
506.856	1405.12
507.073	1372.12
507.289	1371.12
507.506	1370.12
507.722	1358.12
507.939	1359.12
508.155	1341.12
508.372	1314.12
508.588	1301.12
508.805	1293.12
509.021	1294.12
509.238	1255.12
509.454	1275.12
509.67	1243.12
509.887	1285.12
510.103	1251.12
510.319	1238.12
510.536	1219.12
510.752	1231.12
510.968	1238.12
511.184	1231.12
511.401	1227.12
511.617	1227.12
511.833	1244.12
512.049	1234.12
512.265	1275.12
512.481	1207.12
512.698	1233.12
512.914	1221.12
513.13	1245.12
513.346	1230.12
513.562	1226.12
513.778	1245.12
513.994	1224.12
514.21	1259.12
514.426	1270.12
514.642	1227.12
514.858	1258.12
515.074	1261.12
515.29	1263.12
515.506	1293.12
515.721	1286.12
515.937	1325.12
516.153	1335.12
516.369	1305.12
516.585	1387.12
516.801	1437.12
517.016	1485.12
517.232	1514.12
517.448	1524.12
517.664	1605.12
517.879	1628.12
518.095	1606.12
518.311	1546.12
518.527	1505.12
518.742	1478.12
518.958	1464.12
519.173	1374.12
519.389	1382.12
519.605	1307.12
519.82	1297.12
520.036	1339.12
520.251	1265.12
520.467	1222.12
520.682	1206.12
520.898	1228.12
521.113	1226.12
521.329	1206.12
521.544	1187.12
521.76	1177.12
521.975	1185.12
522.19	1194.12
522.406	1164.12
522.621	1141.12
522.836	1131.12
523.052	1134.12
523.267	1118.12
523.482	1141.12
523.698	1134.12
523.913	1113.12
524.128	1121.12
524.343	1117.12
524.559	1104.12
524.774	1140.12
524.989	1117.12
525.204	1101.12
525.419	1102.12
525.634	1098.12
525.849	1106.12
526.064	1108.12
526.28	1098.12
526.495	1089.12
526.71	1083.12
526.925	1062.12
527.14	1068.12
527.355	1089.12
527.57	1063.12
527.785	1069.12
527.999	1094.12
528.214	1075.12
528.429	1077.12
528.644	1114.12
528.859	1061.12
529.074	1095.12
529.289	1097.12
529.503	1067.12
529.718	1079.12
529.933	1068.12
530.148	1057.12
530.363	1078.12
530.577	1052.12
530.792	1071.12
531.007	1047.12
531.221	1058.12
531.436	1044.12
531.651	1074.12
531.865	1087.12
532.08	1072.12
532.295	1095.12
532.509	1077.12
532.724	1089.12
532.938	1081.12
533.153	1088.12
533.367	1084.12
533.582	1063.12
533.796	1073.12
534.011	1031.12
534.225	1079.12
534.44	1016.12
534.654	1057.12
534.868	1013.12
535.083	1036.12
535.297	1038.12
535.511	1037.12
535.726	1036.12
535.94	1036.12
536.154	1020.12
536.369	990.12
536.583	999.12
536.797	988.12
537.011	1001.12
537.225	1005.12
537.44	986.12
537.654	974.12
537.868	992.12
538.082	971.12
538.296	1014.12
538.51	997.12
538.724	988.12
538.938	978.12
539.153	950.12
539.367	956.12
539.581	954.12
539.795	973.12
540.009	959.12
540.222	957.12
540.436	982.12
540.65	994.12
540.864	951.12
541.078	953.12
541.292	940.12
541.506	942.12
541.72	918.12
541.934	946.12
542.147	974.12
542.361	961.12
542.575	952.12
542.789	934.12
543.002	945.12
543.216	934.12
543.43	958.12
543.644	996.12
543.857	950.12
544.071	917.12
544.285	937.12
544.498	963.12
544.712	957.12
544.925	961.12
545.139	974.12
545.352	948.12
545.566	959.12
545.779	958.12
545.993	967.12
546.206	967.12
546.42	974.12
546.633	942.12
546.847	958.12
547.06	965.12
547.274	980.12
547.487	946.12
547.7	963.12
547.914	955.12
548.127	966.12
548.34	975.12
548.554	973.12
548.767	976.12
548.98	985.12
549.193	950.12
549.407	949.12
549.62	985.12
549.833	989.12
550.046	1009.12
550.259	1009.12
550.473	922.12
550.686	942.12
550.899	953.12
551.112	973.12
551.325	935.12
551.538	946.12
551.751	927.12
551.964	955.12
552.177	966.12
552.39	969.12
552.603	1014.12
552.816	1020.12
553.029	1044.12
553.242	1028.12
553.455	1037.12
553.667	1043.12
553.88	1023.12
554.093	1001.12
554.306	954.12
554.519	972.12
554.732	958.12
554.944	950.12
555.157	904.12
555.37	904.12
555.583	905.12
555.795	870.12
556.008	877.12
556.221	870.12
556.433	853.12
556.646	853.12
556.859	825.12
557.071	843.12
557.284	851.12
557.496	825.12
557.709	823.12
557.921	842.12
558.134	807.12
558.346	820.12
558.559	831.12
558.771	810.12
558.984	802.12
559.196	802.12
559.409	802.12
559.621	821.12
559.833	823.12
560.046	791.12
560.258	822.12
560.47	798.12
560.683	783.12
560.895	782.12
561.107	809.12
561.32	766.12
561.532	810.12
561.744	816.12
561.956	793.12
562.168	786.12
562.381	813.12
562.593	794.12
562.805	809.12
563.017	795.12
563.229	804.12
563.441	789.12
563.653	817.12
563.865	835.12
564.077	826.12
564.289	832.12
564.501	860.12
564.713	878.12
564.925	863.12
565.137	871.12
565.349	908.12
565.561	944.12
565.773	941.12
565.985	995.12
566.197	1027.12
566.408	1103.12
566.62	1145.12
566.832	1210.12
567.044	1230.12
567.255	1246.12
567.467	1256.12
567.679	1326.12
567.891	1381.12
568.102	1363.12
568.314	1301.12
568.526	1220.12
568.737	1155.12
568.949	1060.12
569.161	1000.12
569.372	961.12
569.584	909.12
569.795	862.12
570.007	851.12
570.218	853.12
570.43	841.12
570.641	815.12
570.853	797.12
571.064	807.12
571.276	806.12
571.487	802.12
571.698	756.12
571.91	739.12
572.121	727.12
572.333	702.12
572.544	711.12
572.755	681.12
572.966	718.12
573.178	681.12
573.389	673.12
573.6	662.12
573.811	645.12
574.023	672.12
574.234	653.12
574.445	668.12
574.656	660.12
574.867	682.12
575.078	662.12
575.289	644.12
575.501	633.12
575.712	602.12
575.923	635.12
576.134	636.12
576.345	621.12
576.556	627.12
576.767	634.12
576.978	615.12
577.188	605.12
577.399	609.12
577.61	604.12
577.821	614.12
578.032	594.12
578.243	579.12
578.454	602.12
578.665	592.12
578.875	594.12
579.086	585.12
579.297	581.12
579.508	571.12
579.718	583.12
579.929	571.12
580.14	563.12
580.35	558.12
580.561	561.12
580.772	581.12
580.982	566.12
581.193	552.12
581.403	577.12
581.614	564.12
581.825	574.12
582.035	550.12
582.246	543.12
582.456	541.12
582.667	538.12
582.877	538.12
583.087	539.12
583.298	562.12
583.508	541.12
583.719	576.12
583.929	547.12
584.139	566.12
584.35	536.12
584.56	539.12
584.77	541.12
584.981	526.12
585.191	519.12
585.401	528.12
585.611	529.12
585.821	534.12
586.032	510.12
586.242	537.12
586.452	537.12
586.662	538.12
586.872	509.12
587.082	547.12
587.292	513.12
587.502	525.12
587.713	533.12
587.923	504.12
588.133	521.12
588.343	540.12
588.553	525.12
588.762	498.12
588.972	484.12
589.182	517.12
589.392	536.12
589.602	534.12
589.812	534.12
590.022	522.12
590.232	506.12
590.441	525.12
590.651	538.12
590.861	510.12
591.071	518.12
591.281	542.12
591.49	543.12
591.7	547.12
591.91	549.12
592.119	549.12
592.329	563.12
592.539	578.12
592.748	584.12
592.958	600.12
593.167	610.12
593.377	611.12
593.587	663.12
593.796	635.12
594.006	631.12
594.215	631.12
594.424	622.12
594.634	618.12
594.843	606.12
595.053	573.12
595.262	556.12
595.472	567.12
595.681	533.12
595.89	541.12
596.1	512.12
596.309	488.12
596.518	500.12
596.727	517.12
596.937	473.12
597.146	488.12
597.355	485.12
597.564	476.12
597.774	481.12
597.983	469.12
598.192	462.12
598.401	457.12
598.61	471.12
598.819	471.12
599.028	440.12
599.237	439.12
599.446	426.12
599.655	449.12
599.864	439.12
600.073	424.12
600.282	433.12
600.491	423.12
600.7	434.12
600.909	439.12
601.118	424.12
601.327	419.12
601.536	415.12
601.745	416.12
601.953	425.12
602.162	424.12
602.371	419.12
602.58	417.12
602.789	413.12
602.997	409.12
603.206	412.12
603.415	421.12
603.623	406.12
603.832	404.12
604.041	395.12
604.249	397.12
604.458	396.12
604.666	407.12
604.875	398.12
605.084	413.12
605.292	403.12
605.501	423.12
605.709	398.12
605.918	387.12
606.126	387.12
606.334	410.12
606.543	378.12
606.751	371.12
606.96	386.12
607.168	385.12
607.376	369.12
607.585	397.12
607.793	395.12
608.001	374.12
608.21	409.12
608.418	388.12
608.626	381.12
608.834	393.12
609.043	382.12
609.251	379.12
609.459	371.12
609.667	378.12
609.875	382.12
610.083	387.12
610.291	380.12
610.499	375.12
610.707	375.12
610.916	369.12
611.124	388.12
611.332	379.12
611.54	369.12
611.748	375.12
611.955	389.12
612.163	371.12
612.371	362.12
612.579	360.12
612.787	358.12
612.995	361.12
613.203	349.12
613.411	360.12
613.618	356.12
613.826	348.12
614.034	376.12
614.242	369.12
614.449	364.12
614.657	369.12
614.865	356.12
615.072	364.12
615.28	359.12
615.488	360.12
615.695	364.12
615.903	360.12
616.111	372.12
616.318	371.12
616.526	352.12
616.733	359.12
616.941	379.12
617.148	359.12
617.356	366.12
617.563	382.12
617.771	353.12
617.978	358.12
618.185	370.12
618.393	353.12
618.6	366.12
618.807	362.12
619.015	371.12
619.222	353.12
619.429	333.12
619.637	345.12
619.844	344.12
620.051	350.12
620.258	334.12
620.466	331.12
620.673	325.12
620.88	341.12
621.087	361.12
621.294	342.12
621.501	334.12
621.708	340.12
621.915	330.12
622.122	332.12
622.329	331.12
622.536	343.12
622.743	328.12
622.95	330.12
623.157	328.12
623.364	319.12
623.571	341.12
623.778	334.12
623.985	330.12
624.192	317.12
624.399	300.12
624.606	323.12
624.812	316.12
625.019	313.12
625.226	318.12
625.433	318.12
625.639	309.12
625.846	301.12
626.053	309.12
626.259	332.12
626.466	321.12
626.673	295.12
626.879	314.12
627.086	312.12
627.293	314.12
627.499	310.12
627.706	297.12
627.912	305.12
628.119	309.12
628.325	316.12
628.532	306.12
628.738	305.12
628.945	305.12
629.151	317.12
629.357	293.12
629.564	296.12
629.77	281.12
629.976	293.12
630.183	300.12
630.389	299.12
630.595	295.12
630.802	287.12
631.008	285.12
631.214	287.12
631.42	283.12
631.627	279.12
631.833	279.12
632.039	285.12
632.245	285.12
632.451	278.12
632.657	271.12
632.863	277.12
633.069	280.12
633.275	262.12
633.481	275.12
633.688	274.12
633.893	278.12
634.099	269.12
634.305	287.12
634.511	291.12
634.717	265.12
634.923	249.12
635.129	257.12
635.335	269.12
635.541	277.12
635.747	260.12
635.952	243.12
636.158	272.12
636.364	265.12
636.57	265.12
636.775	267.12
636.981	278.12
637.187	268.12
637.392	263.12
637.598	258.12
637.804	266.12
638.009	265.12
638.215	258.12
638.421	255.12
638.626	253.12
638.832	243.12
639.037	263.12
639.243	229.12
639.448	265.12
639.654	270.12
639.859	263.12
640.065	257.12
640.27	255.12
640.475	261.12
640.681	249.12
640.886	257.12
641.091	257.12
641.297	269.12
641.502	264.12
641.707	230.12
641.913	235.12
642.118	246.12
642.323	238.12
642.528	257.12
642.733	225.12
642.939	248.12
643.144	244.12
643.349	249.12
643.554	239.12
643.759	245.12
643.964	246.12
644.169	248.12
644.374	251.12
644.579	248.12
644.784	246.12
644.989	248.12
645.194	231.12
645.399	246.12
645.604	271.12
645.809	267.12
646.014	249.12
646.219	259.12
646.423	255.12
646.628	261.12
646.833	261.12
647.038	247.12
647.243	253.12
647.447	243.12
647.652	258.12
647.857	257.12
648.062	259.12
648.266	266.12
648.471	282.12
648.676	285.12
648.88	263.12
649.085	270.12
649.289	263.12
649.494	267.12
649.698	268.12
649.903	265.12
650.107	262.12
650.312	265.12
650.516	247.12
650.721	255.12
650.925	254.12
651.13	264.12
651.334	255.12
651.539	244.12
651.743	259.12
651.947	239.12
652.152	249.12
652.356	245.12
652.56	228.12
652.764	244.12
652.969	248.12
653.173	239.12
653.377	248.12
653.581	237.12
653.785	238.12
653.99	255.12
654.194	245.12
654.398	249.12
654.602	268.12
654.806	269.12
655.01	241.12
655.214	251.12
655.418	258.12
655.622	261.12
655.826	295.12
656.03	306.12
656.234	305.12
656.438	343.12
656.642	340.12
656.846	332.12
657.049	314.12
657.253	281.12
657.457	231.12
657.661	222.12
657.865	207.12
658.068	192.12
658.272	172.12
658.476	174.12
658.68	161.12
658.883	153.12
659.087	152.12
659.291	136.12
659.494	142.12
659.698	127.12
659.901	118.12
660.105	140.12
660.309	131.12
660.512	123.12
660.716	111.12
660.919	115.12
661.123	108.12
661.326	103.12
661.53	107.12
661.733	97.12
661.936	105.12
662.14	108.12
662.343	106.12
662.546	100.12
662.75	99.12
662.953	97.12
663.156	92.12
663.36	80.12
663.563	93.12
663.766	91.12
663.969	77.12
664.173	91.12
664.376	75.12
664.579	85.12
664.782	85.12
664.985	84.12
665.188	86.12
665.391	85.12
665.594	79.12
665.797	68.12
666	81.12
666.203	77.12
666.406	79.12
666.609	83.12
666.812	89.12
667.015	89.12
667.218	78.12
667.421	78.12
667.624	83.12
667.827	91.12
668.03	87.12
668.232	81.12
668.435	92.12
668.638	77.12
668.841	72.12
669.043	77.12
669.246	103.12
669.449	77.12
669.651	85.12
669.854	90.12
670.057	92.12
670.259	78.12
670.462	93.12
670.665	96.12
670.867	90.12
671.07	90.12
671.272	89.12
671.475	82.12
671.677	84.12
671.88	92.12
672.082	91.12
672.284	93.12
672.487	96.12
672.689	80.12
672.892	71.12
